#X		#Y		#Wave		#Intensity
19339.102447	16892.885833	2000.043945	4.788441
19339.102447	16892.885833	1999.080078	86.050827
19339.102447	16892.885833	1998.116211	11.901463
19339.102447	16892.885833	1997.151367	-97.147568
19339.102447	16892.885833	1996.186523	165.250778
19339.102447	16892.885833	1995.222656	177.096771
19339.102447	16892.885833	1994.256836	-269.469940
19339.102447	16892.885833	1993.291992	385.848175
19339.102447	16892.885833	1992.327148	169.198959
19339.102447	16892.885833	1991.361328	-37.677010
19339.102447	16892.885833	1990.395508	-167.959167
19339.102447	16892.885833	1989.429688	337.537445
19339.102447	16892.885833	1988.463867	335.470367
19339.102447	16892.885833	1987.497070	122.965660
19339.102447	16892.885833	1986.531250	-233.100601
19339.102447	16892.885833	1985.564453	-30.395756
19339.102447	16892.885833	1984.597656	248.686661
19339.102447	16892.885833	1983.630859	-137.407242
19339.102447	16892.885833	1982.664063	427.909241
19339.102447	16892.885833	1981.696289	-227.723862
19339.102447	16892.885833	1980.728516	-154.523849
19339.102447	16892.885833	1979.761719	160.526825
19339.102447	16892.885833	1978.792969	638.306885
19339.102447	16892.885833	1977.825195	-71.831200
19339.102447	16892.885833	1976.857422	-179.537186
19339.102447	16892.885833	1975.888672	344.487732
19339.102447	16892.885833	1974.919922	58.800156
19339.102447	16892.885833	1973.951172	495.958588
19339.102447	16892.885833	1972.982422	170.615326
19339.102447	16892.885833	1972.013672	269.453735
19339.102447	16892.885833	1971.043945	496.357483
19339.102447	16892.885833	1970.075195	-285.265961
19339.102447	16892.885833	1969.105469	284.026489
19339.102447	16892.885833	1968.135742	130.928513
19339.102447	16892.885833	1967.165039	566.662903
19339.102447	16892.885833	1966.195313	332.047821
19339.102447	16892.885833	1965.224609	-40.506042
19339.102447	16892.885833	1964.253906	62.253784
19339.102447	16892.885833	1963.283203	113.166260
19339.102447	16892.885833	1962.312500	579.980469
19339.102447	16892.885833	1961.341797	180.191467
19339.102447	16892.885833	1960.370117	161.876282
19339.102447	16892.885833	1959.399414	259.107971
19339.102447	16892.885833	1958.427734	422.635132
19339.102447	16892.885833	1957.455078	44.967995
19339.102447	16892.885833	1956.483398	491.086151
19339.102447	16892.885833	1955.511719	504.269226
19339.102447	16892.885833	1954.539063	1.202740
19339.102447	16892.885833	1953.566406	129.830811
19339.102447	16892.885833	1952.593750	96.175278
19339.102447	16892.885833	1951.621094	794.535278
19339.102447	16892.885833	1950.647461	185.892578
19339.102447	16892.885833	1949.674805	43.993107
19339.102447	16892.885833	1948.701172	248.274704
19339.102447	16892.885833	1947.727539	506.423767
19339.102447	16892.885833	1946.753906	118.930519
19339.102447	16892.885833	1945.780273	111.871063
19339.102447	16892.885833	1944.805664	-47.347721
19339.102447	16892.885833	1943.831055	350.261383
19339.102447	16892.885833	1942.856445	-164.663223
19339.102447	16892.885833	1941.881836	26.743435
19339.102447	16892.885833	1940.907227	-27.134256
19339.102447	16892.885833	1939.932617	36.619308
19339.102447	16892.885833	1938.957031	134.613525
19339.102447	16892.885833	1937.981445	171.273071
19339.102447	16892.885833	1937.005859	190.728271
19339.102447	16892.885833	1936.030273	557.933533
19339.102447	16892.885833	1935.054688	77.655869
19339.102447	16892.885833	1934.078125	67.613472
19339.102447	16892.885833	1933.101563	395.352142
19339.102447	16892.885833	1932.125000	399.865234
19339.102447	16892.885833	1931.148438	255.067871
19339.102447	16892.885833	1930.171875	93.164246
19339.102447	16892.885833	1929.194336	124.536270
19339.102447	16892.885833	1928.217773	-113.170746
19339.102447	16892.885833	1927.240234	174.907516
19339.102447	16892.885833	1926.262695	240.367523
19339.102447	16892.885833	1925.284180	-190.409073
19339.102447	16892.885833	1924.306641	-325.358917
19339.102447	16892.885833	1923.328125	99.249054
19339.102447	16892.885833	1922.350586	110.814171
19339.102447	16892.885833	1921.372070	144.329025
19339.102447	16892.885833	1920.392578	-269.080872
19339.102447	16892.885833	1919.414063	140.440948
19339.102447	16892.885833	1918.434570	132.355484
19339.102447	16892.885833	1917.456055	-359.008148
19339.102447	16892.885833	1916.476563	-288.962494
19339.102447	16892.885833	1915.497070	220.182541
19339.102447	16892.885833	1914.516602	690.093018
19339.102447	16892.885833	1913.537109	-3.530736
19339.102447	16892.885833	1912.556641	-58.056404
19339.102447	16892.885833	1911.576172	-273.489166
19339.102447	16892.885833	1910.595703	-57.438175
19339.102447	16892.885833	1909.615234	-321.582855
19339.102447	16892.885833	1908.633789	379.230743
19339.102447	16892.885833	1907.653320	59.027206
19339.102447	16892.885833	1906.671875	6.844704
19339.102447	16892.885833	1905.690430	-6.380625
19339.102447	16892.885833	1904.708984	-70.750282
19339.102447	16892.885833	1903.727539	-76.697815
19339.102447	16892.885833	1902.745117	-97.268784
19339.102447	16892.885833	1901.762695	93.851845
19339.102447	16892.885833	1900.780273	92.675728
19339.102447	16892.885833	1899.797852	103.636406
19339.102447	16892.885833	1898.815430	114.569702
19339.102447	16892.885833	1897.832031	47.672005
19339.102447	16892.885833	1896.849609	75.581375
19339.102447	16892.885833	1895.866211	93.737495
19339.102447	16892.885833	1894.882813	-33.946949
19339.102447	16892.885833	1893.898438	-178.611710
19339.102447	16892.885833	1892.915039	118.873543
19339.102447	16892.885833	1891.930664	-30.676767
19339.102447	16892.885833	1890.947266	-175.343185
19339.102447	16892.885833	1889.962891	-6.776292
19339.102447	16892.885833	1888.977539	101.019608
19339.102447	16892.885833	1887.993164	-126.184380
19339.102447	16892.885833	1887.007813	408.609406
19339.102447	16892.885833	1886.023438	-129.163818
19339.102447	16892.885833	1885.038086	238.009094
19339.102447	16892.885833	1884.051758	127.256546
19339.102447	16892.885833	1883.066406	-177.466599
19339.102447	16892.885833	1882.081055	359.117432
19339.102447	16892.885833	1881.094727	243.469849
19339.102447	16892.885833	1880.108398	-175.090347
19339.102447	16892.885833	1879.122070	-41.098812
19339.102447	16892.885833	1878.135742	-21.044348
19339.102447	16892.885833	1877.148438	139.452057
19339.102447	16892.885833	1876.162109	-244.998184
19339.102447	16892.885833	1875.174805	327.000153
19339.102447	16892.885833	1874.187500	121.723213
19339.102447	16892.885833	1873.199219	-156.114273
19339.102447	16892.885833	1872.211914	-206.431900
19339.102447	16892.885833	1871.223633	-157.569153
19339.102447	16892.885833	1870.236328	-176.496292
19339.102447	16892.885833	1869.248047	135.872803
19339.102447	16892.885833	1868.258789	-219.259491
19339.102447	16892.885833	1867.270508	-494.523407
19339.102447	16892.885833	1866.282227	189.834641
19339.102447	16892.885833	1865.292969	388.165771
19339.102447	16892.885833	1864.303711	-58.714554
19339.102447	16892.885833	1863.314453	279.614838
19339.102447	16892.885833	1862.324219	122.665031
19339.102447	16892.885833	1861.334961	110.614838
19339.102447	16892.885833	1860.344727	127.498825
19339.102447	16892.885833	1859.354492	-224.988495
19339.102447	16892.885833	1858.364258	-169.523605
19339.102447	16892.885833	1857.374023	136.822449
19339.102447	16892.885833	1856.383789	6.345799
19339.102447	16892.885833	1855.392578	645.311157
19339.102447	16892.885833	1854.401367	181.897552
19339.102447	16892.885833	1853.410156	176.725388
19339.102447	16892.885833	1852.418945	205.250916
19339.102447	16892.885833	1851.426758	21.621452
19339.102447	16892.885833	1850.435547	28.376055
19339.102447	16892.885833	1849.443359	35.083431
19339.102447	16892.885833	1848.451172	-317.190369
19339.102447	16892.885833	1847.458984	130.210175
19339.102447	16892.885833	1846.466797	148.772583
19339.102447	16892.885833	1845.473633	376.725830
19339.102447	16892.885833	1844.480469	257.925262
19339.102447	16892.885833	1843.487305	374.956085
19339.102447	16892.885833	1842.494141	667.532349
19339.102447	16892.885833	1841.500977	435.504852
19339.102447	16892.885833	1840.506836	-10.561690
19339.102447	16892.885833	1839.513672	255.290894
19339.102447	16892.885833	1838.519531	35.313736
19339.102447	16892.885833	1837.525391	656.718018
19339.102447	16892.885833	1836.530273	405.380646
19339.102447	16892.885833	1835.536133	41.131454
19339.102447	16892.885833	1834.541016	255.967148
19339.102447	16892.885833	1833.545898	192.017136
19339.102447	16892.885833	1832.550781	351.378357
19339.102447	16892.885833	1831.555664	493.803986
19339.102447	16892.885833	1830.560547	364.824524
19339.102447	16892.885833	1829.564453	888.703247
19339.102447	16892.885833	1828.568359	521.987854
19339.102447	16892.885833	1827.572266	416.865112
19339.102447	16892.885833	1826.576172	115.006218
19339.102447	16892.885833	1825.580078	-54.894215
19339.102447	16892.885833	1824.583008	326.735352
19339.102447	16892.885833	1823.585938	430.036682
19339.102447	16892.885833	1822.588867	607.536499
19339.102447	16892.885833	1821.591797	334.323944
19339.102447	16892.885833	1820.594727	171.363235
19339.102447	16892.885833	1819.596680	94.639603
19339.102447	16892.885833	1818.599609	-279.147614
19339.102447	16892.885833	1817.601563	156.585968
19339.102447	16892.885833	1816.603516	311.931946
19339.102447	16892.885833	1815.604492	443.203461
19339.102447	16892.885833	1814.606445	251.229324
19339.102447	16892.885833	1813.607422	449.308258
19339.102447	16892.885833	1812.608398	87.372002
19339.102447	16892.885833	1811.609375	388.111389
19339.102447	16892.885833	1810.610352	389.693756
19339.102447	16892.885833	1809.610352	-134.872772
19339.102447	16892.885833	1808.611328	184.616577
19339.102447	16892.885833	1807.611328	477.611969
19339.102447	16892.885833	1806.611328	538.592529
19339.102447	16892.885833	1805.610352	398.757507
19339.102447	16892.885833	1804.610352	-85.125168
19339.102447	16892.885833	1803.609375	632.515198
19339.102447	16892.885833	1802.608398	399.349487
19339.102447	16892.885833	1801.607422	326.154572
19339.102447	16892.885833	1800.606445	-43.105137
19339.102447	16892.885833	1799.605469	289.374573
19339.102447	16892.885833	1798.603516	585.850952
19339.102447	16892.885833	1797.601563	-3.008522
19339.102447	16892.885833	1796.599609	214.514496
19339.102447	16892.885833	1795.597656	269.693024
19339.102447	16892.885833	1794.595703	291.374329
19339.102447	16892.885833	1793.592773	3.041897
19339.102447	16892.885833	1792.589844	191.433960
19339.102447	16892.885833	1791.587891	-80.273338
19339.102447	16892.885833	1790.583984	34.019135
19339.102447	16892.885833	1789.581055	300.633423
19339.102447	16892.885833	1788.577148	381.282471
19339.102447	16892.885833	1787.574219	230.819275
19339.102447	16892.885833	1786.570313	113.651756
19339.102447	16892.885833	1785.566406	-384.426453
19339.102447	16892.885833	1784.561523	43.383904
19339.102447	16892.885833	1783.557617	532.807739
19339.102447	16892.885833	1782.552734	153.599869
19339.102447	16892.885833	1781.547852	-101.871346
19339.102447	16892.885833	1780.542969	177.737610
19339.102447	16892.885833	1779.538086	114.758583
19339.102447	16892.885833	1778.532227	268.033295
19339.102447	16892.885833	1777.527344	261.912872
19339.102447	16892.885833	1776.521484	341.244934
19339.102447	16892.885833	1775.515625	97.331970
19339.102447	16892.885833	1774.508789	-170.343933
19339.102447	16892.885833	1773.502930	58.358124
19339.102447	16892.885833	1772.496094	42.300777
19339.102447	16892.885833	1771.489258	422.618958
19339.102447	16892.885833	1770.482422	55.004044
19339.102447	16892.885833	1769.475586	254.620041
19339.102447	16892.885833	1768.467773	634.389954
19339.102447	16892.885833	1767.460938	672.311401
19339.102447	16892.885833	1766.453125	102.933456
19339.102447	16892.885833	1765.445313	470.364380
19339.102447	16892.885833	1764.437500	320.697998
19339.102447	16892.885833	1763.428711	275.286560
19339.102447	16892.885833	1762.420898	258.241974
19339.102447	16892.885833	1761.412109	456.729706
19339.102447	16892.885833	1760.403320	543.698364
19339.102447	16892.885833	1759.393555	455.250000
19339.102447	16892.885833	1758.384766	137.024567
19339.102447	16892.885833	1757.375000	533.886108
19339.102447	16892.885833	1756.366211	-205.810150
19339.102447	16892.885833	1755.356445	124.498703
19339.102447	16892.885833	1754.345703	187.171997
19339.102447	16892.885833	1753.335938	185.850677
19339.102447	16892.885833	1752.325195	418.616699
19339.102447	16892.885833	1751.315430	133.248169
19339.102447	16892.885833	1750.304688	249.877487
19339.102447	16892.885833	1749.292969	189.043747
19339.102447	16892.885833	1748.282227	482.701355
19339.102447	16892.885833	1747.270508	305.857300
19339.102447	16892.885833	1746.259766	386.536652
19339.102447	16892.885833	1745.248047	108.007813
19339.102447	16892.885833	1744.235352	334.931030
19339.102447	16892.885833	1743.223633	115.367111
19339.102447	16892.885833	1742.211914	87.030441
19339.102447	16892.885833	1741.199219	-49.978245
19339.102447	16892.885833	1740.186523	-234.231674
19339.102447	16892.885833	1739.173828	-118.830978
19339.102447	16892.885833	1738.160156	-357.452942
19339.102447	16892.885833	1737.147461	182.315933
19339.102447	16892.885833	1736.133789	66.172318
19339.102447	16892.885833	1735.120117	-59.444290
19339.102447	16892.885833	1734.106445	-10.662280
19339.102447	16892.885833	1733.091797	-126.979103
19339.102447	16892.885833	1732.078125	355.214996
19339.102447	16892.885833	1731.063477	-150.055969
19339.102447	16892.885833	1730.048828	-268.902771
19339.102447	16892.885833	1729.034180	224.546280
19339.102447	16892.885833	1728.019531	63.108204
19339.102447	16892.885833	1727.003906	-88.941383
19339.102447	16892.885833	1725.988281	210.912094
19339.102447	16892.885833	1724.972656	-261.338470
19339.102447	16892.885833	1723.957031	158.256760
19339.102447	16892.885833	1722.941406	163.573532
19339.102447	16892.885833	1721.924805	22.976976
19339.102447	16892.885833	1720.909180	-49.452518
19339.102447	16892.885833	1719.892578	367.088776
19339.102447	16892.885833	1718.875977	71.139580
19339.102447	16892.885833	1717.858398	-104.923531
19339.102447	16892.885833	1716.841797	8.023479
19339.102447	16892.885833	1715.824219	275.897095
19339.102447	16892.885833	1714.806641	-130.533142
19339.102447	16892.885833	1713.789063	85.440590
19339.102447	16892.885833	1712.770508	50.014961
19339.102447	16892.885833	1711.752930	559.154602
19339.102447	16892.885833	1710.734375	415.537140
19339.102447	16892.885833	1709.715820	166.299667
19339.102447	16892.885833	1708.697266	240.853241
19339.102447	16892.885833	1707.678711	-109.269981
19339.102447	16892.885833	1706.659180	391.989655
19339.102447	16892.885833	1705.640625	562.375000
19339.102447	16892.885833	1704.621094	252.023911
19339.102447	16892.885833	1703.600586	-372.367554
19339.102447	16892.885833	1702.581055	-152.938873
19339.102447	16892.885833	1701.561523	19.474941
19339.102447	16892.885833	1700.541016	-290.812805
19339.102447	16892.885833	1699.520508	-83.445518
19339.102447	16892.885833	1698.500000	105.042732
19339.102447	16892.885833	1697.478516	-186.562286
19339.102447	16892.885833	1696.458008	-393.840729
19339.102447	16892.885833	1695.436523	126.727112
19339.102447	16892.885833	1694.415039	169.701340
19339.102447	16892.885833	1693.393555	261.723694
19339.102447	16892.885833	1692.372070	-259.149994
19339.102447	16892.885833	1691.349609	90.029877
19339.102447	16892.885833	1690.327148	-12.223198
19339.102447	16892.885833	1689.304688	-158.908051
19339.102447	16892.885833	1688.282227	217.933502
19339.102447	16892.885833	1687.259766	533.822205
19339.102447	16892.885833	1686.236328	-40.585495
19339.102447	16892.885833	1685.213867	53.225224
19339.102447	16892.885833	1684.190430	450.538788
19339.102447	16892.885833	1683.166016	779.926575
19339.102447	16892.885833	1682.142578	366.794312
19339.102447	16892.885833	1681.119141	280.536774
19339.102447	16892.885833	1680.094727	-8.764002
19339.102447	16892.885833	1679.070313	278.281128
19339.102447	16892.885833	1678.045898	350.571899
19339.102447	16892.885833	1677.020508	296.842651
19339.102447	16892.885833	1675.996094	285.073822
19339.102447	16892.885833	1674.970703	497.068787
19339.102447	16892.885833	1673.945313	454.880951
19339.102447	16892.885833	1672.919922	806.511658
19339.102447	16892.885833	1671.893555	577.804565
19339.102447	16892.885833	1670.868164	328.193512
19339.102447	16892.885833	1669.841797	481.563751
19339.102447	16892.885833	1668.815430	525.402405
19339.102447	16892.885833	1667.789063	697.242188
19339.102447	16892.885833	1666.761719	824.754761
19339.102447	16892.885833	1665.735352	807.905457
19339.102447	16892.885833	1664.708008	816.626343
19339.102447	16892.885833	1663.680664	967.224915
19339.102447	16892.885833	1662.653320	571.155762
19339.102447	16892.885833	1661.625000	684.485168
19339.102447	16892.885833	1660.597656	600.131775
19339.102447	16892.885833	1659.569336	706.402466
19339.102447	16892.885833	1658.541016	938.112732
19339.102447	16892.885833	1657.512695	1332.377319
19339.102447	16892.885833	1656.483398	1326.875732
19339.102447	16892.885833	1655.455078	1135.546387
19339.102447	16892.885833	1654.425781	1262.430420
19339.102447	16892.885833	1653.396484	1245.300537
19339.102447	16892.885833	1652.366211	1392.976807
19339.102447	16892.885833	1651.336914	1152.999268
19339.102447	16892.885833	1650.306641	1166.037842
19339.102447	16892.885833	1649.276367	1230.111572
19339.102447	16892.885833	1648.246094	1486.682739
19339.102447	16892.885833	1647.215820	1337.299805
19339.102447	16892.885833	1646.185547	1341.015137
19339.102447	16892.885833	1645.154297	1207.937988
19339.102447	16892.885833	1644.123047	1373.919067
19339.102447	16892.885833	1643.091797	1428.608643
19339.102447	16892.885833	1642.060547	1341.953247
19339.102447	16892.885833	1641.028320	1746.421875
19339.102447	16892.885833	1639.997070	1530.058228
19339.102447	16892.885833	1638.964844	1871.833374
19339.102447	16892.885833	1637.931641	1683.319214
19339.102447	16892.885833	1636.899414	1462.493164
19339.102447	16892.885833	1635.867188	1658.331665
19339.102447	16892.885833	1634.833984	1687.514771
19339.102447	16892.885833	1633.800781	1788.416382
19339.102447	16892.885833	1632.767578	2088.210205
19339.102447	16892.885833	1631.734375	1708.053833
19339.102447	16892.885833	1630.700195	2509.486816
19339.102447	16892.885833	1629.666016	1979.187744
19339.102447	16892.885833	1628.631836	1860.494263
19339.102447	16892.885833	1627.597656	2206.318115
19339.102447	16892.885833	1626.563477	2009.145386
19339.102447	16892.885833	1625.528320	2209.347412
19339.102447	16892.885833	1624.493164	1940.716309
19339.102447	16892.885833	1623.458008	2159.394043
19339.102447	16892.885833	1622.422852	2373.409912
19339.102447	16892.885833	1621.387695	2061.167480
19339.102447	16892.885833	1620.351563	2125.202881
19339.102447	16892.885833	1619.315430	1884.721680
19339.102447	16892.885833	1618.279297	2387.108398
19339.102447	16892.885833	1617.243164	2342.786621
19339.102447	16892.885833	1616.207031	2213.218750
19339.102447	16892.885833	1615.169922	1998.444702
19339.102447	16892.885833	1614.132813	2521.346191
19339.102447	16892.885833	1613.095703	2320.525879
19339.102447	16892.885833	1612.058594	2147.485596
19339.102447	16892.885833	1611.020508	2350.027588
19339.102447	16892.885833	1609.983398	2573.278809
19339.102447	16892.885833	1608.945313	2264.603760
19339.102447	16892.885833	1607.907227	2434.949707
19339.102447	16892.885833	1606.868164	2699.654053
19339.102447	16892.885833	1605.830078	2469.562500
19339.102447	16892.885833	1604.791016	2619.250732
19339.102447	16892.885833	1603.751953	2575.716309
19339.102447	16892.885833	1602.712891	2454.070557
19339.102447	16892.885833	1601.673828	3029.275635
19339.102447	16892.885833	1600.633789	2528.392334
19339.102447	16892.885833	1599.594727	2708.156006
19339.102447	16892.885833	1598.554688	2462.768066
19339.102447	16892.885833	1597.513672	2396.765625
19339.102447	16892.885833	1596.473633	2817.875732
19339.102447	16892.885833	1595.433594	2338.581055
19339.102447	16892.885833	1594.392578	2316.512451
19339.102447	16892.885833	1593.351563	2540.190918
19339.102447	16892.885833	1592.310547	2759.277832
19339.102447	16892.885833	1591.268555	2510.186035
19339.102447	16892.885833	1590.227539	2272.762939
19339.102447	16892.885833	1589.185547	2037.812622
19339.102447	16892.885833	1588.143555	2564.515625
19339.102447	16892.885833	1587.100586	2380.226563
19339.102447	16892.885833	1586.058594	2452.896973
19339.102447	16892.885833	1585.015625	1794.395020
19339.102447	16892.885833	1583.972656	2146.939209
19339.102447	16892.885833	1582.929688	1988.468872
19339.102447	16892.885833	1581.886719	2276.895508
19339.102447	16892.885833	1580.843750	2393.525146
19339.102447	16892.885833	1579.799805	2235.404785
19339.102447	16892.885833	1578.755859	2468.971191
19339.102447	16892.885833	1577.711914	2835.319580
19339.102447	16892.885833	1576.666992	1961.172974
19339.102447	16892.885833	1575.623047	1924.973145
19339.102447	16892.885833	1574.578125	2135.976563
19339.102447	16892.885833	1573.533203	2180.033936
19339.102447	16892.885833	1572.488281	2135.001953
19339.102447	16892.885833	1571.443359	2035.233887
19339.102447	16892.885833	1570.397461	1933.331787
19339.102447	16892.885833	1569.351563	2007.571533
19339.102447	16892.885833	1568.305664	1860.255493
19339.102447	16892.885833	1567.259766	1786.228760
19339.102447	16892.885833	1566.213867	1442.824829
19339.102447	16892.885833	1565.166992	1595.243896
19339.102447	16892.885833	1564.120117	2094.796631
19339.102447	16892.885833	1563.073242	1941.386719
19339.102447	16892.885833	1562.026367	1781.320068
19339.102447	16892.885833	1560.978516	1445.739258
19339.102447	16892.885833	1559.930664	2116.559326
19339.102447	16892.885833	1558.883789	1386.695435
19339.102447	16892.885833	1557.834961	1838.595825
19339.102447	16892.885833	1556.787109	1599.576416
19339.102447	16892.885833	1555.739258	1581.920410
19339.102447	16892.885833	1554.690430	1769.544312
19339.102447	16892.885833	1553.641602	1330.565796
19339.102447	16892.885833	1552.592773	1705.275146
19339.102447	16892.885833	1551.542969	1353.327515
19339.102447	16892.885833	1550.494141	1461.713623
19339.102447	16892.885833	1549.444336	1499.617310
19339.102447	16892.885833	1548.394531	1250.807983
19339.102447	16892.885833	1547.344727	986.318176
19339.102447	16892.885833	1546.293945	1095.287964
19339.102447	16892.885833	1545.244141	1279.452637
19339.102447	16892.885833	1544.193359	1154.329590
19339.102447	16892.885833	1543.142578	1027.140625
19339.102447	16892.885833	1542.090820	1002.479309
19339.102447	16892.885833	1541.040039	968.896240
19339.102447	16892.885833	1539.988281	1233.242065
19339.102447	16892.885833	1538.936523	1336.300171
19339.102447	16892.885833	1537.884766	903.267090
19339.102447	16892.885833	1536.833008	1068.007202
19339.102447	16892.885833	1535.780273	1007.997986
19339.102447	16892.885833	1534.727539	1513.596558
19339.102447	16892.885833	1533.674805	1045.206299
19339.102447	16892.885833	1532.622070	1419.285156
19339.102447	16892.885833	1531.569336	1675.373535
19339.102447	16892.885833	1530.515625	862.859619
19339.102447	16892.885833	1529.461914	835.740234
19339.102447	16892.885833	1528.408203	933.543884
19339.102447	16892.885833	1527.354492	997.474548
19339.102447	16892.885833	1526.299805	1286.003296
19339.102447	16892.885833	1525.246094	1241.386475
19339.102447	16892.885833	1524.191406	800.373962
19339.102447	16892.885833	1523.136719	543.242676
19339.102447	16892.885833	1522.081055	1018.108887
19339.102447	16892.885833	1521.026367	589.262634
19339.102447	16892.885833	1519.970703	602.345642
19339.102447	16892.885833	1518.915039	588.435059
19339.102447	16892.885833	1517.859375	506.808990
19339.102447	16892.885833	1516.802734	88.197739
19339.102447	16892.885833	1515.747070	142.834961
19339.102447	16892.885833	1514.690430	-21.796133
19339.102447	16892.885833	1513.633789	356.654022
19339.102447	16892.885833	1512.577148	9.256506
19339.102447	16892.885833	1511.519531	335.933807
19339.102447	16892.885833	1510.461914	499.921661
19339.102447	16892.885833	1509.405273	-13.966900
19339.102447	16892.885833	1508.346680	100.702980
19339.102447	16892.885833	1507.289063	714.779175
19339.102447	16892.885833	1506.231445	206.258728
19339.102447	16892.885833	1505.172852	217.522034
19339.102447	16892.885833	1504.114258	377.991150
19339.102447	16892.885833	1503.055664	148.080841
19339.102447	16892.885833	1501.996094	-4.800600
19339.102447	16892.885833	1500.937500	379.594788
19339.102447	16892.885833	1499.877930	39.880074
19339.102447	16892.885833	1498.818359	-69.437790
19339.102447	16892.885833	1497.757813	401.046295
19339.102447	16892.885833	1496.698242	434.145172
19339.102447	16892.885833	1495.637695	627.485046
19339.102447	16892.885833	1494.577148	320.622772
19339.102447	16892.885833	1493.516602	255.191803
19339.102447	16892.885833	1492.456055	219.274597
19339.102447	16892.885833	1491.394531	377.285156
19339.102447	16892.885833	1490.333008	166.127228
19339.102447	16892.885833	1489.271484	207.426315
19339.102447	16892.885833	1488.209961	12.553912
19339.102447	16892.885833	1487.148438	277.088593
19339.102447	16892.885833	1486.085938	26.452982
19339.102447	16892.885833	1485.023438	50.585003
19339.102447	16892.885833	1483.960938	-219.733719
19339.102447	16892.885833	1482.898438	241.126068
19339.102447	16892.885833	1481.834961	198.392395
19339.102447	16892.885833	1480.772461	209.829163
19339.102447	16892.885833	1479.708984	-207.752289
19339.102447	16892.885833	1478.644531	195.125473
19339.102447	16892.885833	1477.581055	449.772003
19339.102447	16892.885833	1476.517578	486.712494
19339.102447	16892.885833	1475.453125	418.242462
19339.102447	16892.885833	1474.388672	-159.440567
19339.102447	16892.885833	1473.323242	-294.532928
19339.102447	16892.885833	1472.258789	178.772919
19339.102447	16892.885833	1471.193359	-0.798555
19339.102447	16892.885833	1470.127930	283.953247
19339.102447	16892.885833	1469.062500	280.008911
19339.102447	16892.885833	1467.997070	582.724060
19339.102447	16892.885833	1466.930664	334.731506
19339.102447	16892.885833	1465.865234	75.930099
19339.102447	16892.885833	1464.798828	561.296570
19339.102447	16892.885833	1463.731445	354.726105
19339.102447	16892.885833	1462.665039	297.483459
19339.102447	16892.885833	1461.597656	409.323853
19339.102447	16892.885833	1460.530273	71.918564
19339.102447	16892.885833	1459.462891	590.642639
19339.102447	16892.885833	1458.395508	370.730377
19339.102447	16892.885833	1457.327148	726.554565
19339.102447	16892.885833	1456.259766	62.443882
19339.102447	16892.885833	1455.191406	638.210510
19339.102447	16892.885833	1454.123047	147.743256
19339.102447	16892.885833	1453.053711	126.728065
19339.102447	16892.885833	1451.985352	529.687317
19339.102447	16892.885833	1450.916016	28.735525
19339.102447	16892.885833	1449.846680	324.596497
19339.102447	16892.885833	1448.776367	52.894428
19339.102447	16892.885833	1447.707031	70.958679
19339.102447	16892.885833	1446.636719	191.959869
19339.102447	16892.885833	1445.566406	353.367126
19339.102447	16892.885833	1444.496094	-23.081541
19339.102447	16892.885833	1443.425781	-122.780930
19339.102447	16892.885833	1442.354492	-236.254211
19339.102447	16892.885833	1441.283203	77.482513
19339.102447	16892.885833	1440.211914	-312.344513
19339.102447	16892.885833	1439.140625	-118.020828
19339.102447	16892.885833	1438.069336	-122.050652
19339.102447	16892.885833	1436.997070	20.141371
19339.102447	16892.885833	1435.924805	-287.231445
19339.102447	16892.885833	1434.852539	-335.942963
19339.102447	16892.885833	1433.780273	-108.892044
19339.102447	16892.885833	1432.707031	-335.139313
19339.102447	16892.885833	1431.633789	-82.726219
19339.102447	16892.885833	1430.560547	16.807692
19339.102447	16892.885833	1429.487305	-1.186508
19339.102447	16892.885833	1428.413086	-85.335159
19339.102447	16892.885833	1427.339844	-431.468964
19339.102447	16892.885833	1426.265625	-457.312592
19339.102447	16892.885833	1425.191406	221.946716
19339.102447	16892.885833	1424.116211	166.202850
19339.102447	16892.885833	1423.041992	-173.614746
19339.102447	16892.885833	1421.966797	-150.565231
19339.102447	16892.885833	1420.891602	-42.153088
19339.102447	16892.885833	1419.816406	-144.167999
19339.102447	16892.885833	1418.740234	308.323853
19339.102447	16892.885833	1417.665039	-119.812599
19339.102447	16892.885833	1416.588867	129.302811
19339.102447	16892.885833	1415.512695	196.320847
19339.102447	16892.885833	1414.435547	376.527557
19339.102447	16892.885833	1413.359375	162.180893
19339.102447	16892.885833	1412.282227	-90.810234
19339.102447	16892.885833	1411.205078	717.458008
19339.102447	16892.885833	1410.127930	395.512268
19339.102447	16892.885833	1409.049805	56.154980
19339.102447	16892.885833	1407.972656	495.419556
19339.102447	16892.885833	1406.894531	683.954956
19339.102447	16892.885833	1405.816406	570.488220
19339.102447	16892.885833	1404.737305	368.185791
19339.102447	16892.885833	1403.659180	330.540588
19339.102447	16892.885833	1402.580078	642.292664
19339.102447	16892.885833	1401.500977	439.445770
19339.102447	16892.885833	1400.421875	381.870026
19339.102447	16892.885833	1399.341797	715.185852
19339.102447	16892.885833	1398.262695	516.552185
19339.102447	16892.885833	1397.182617	-44.070438
19339.102447	16892.885833	1396.102539	301.766083
19339.102447	16892.885833	1395.021484	706.081177
19339.102447	16892.885833	1393.941406	124.704247
19339.102447	16892.885833	1392.860352	501.979980
19339.102447	16892.885833	1391.779297	331.699432
19339.102447	16892.885833	1390.698242	84.330322
19339.102447	16892.885833	1389.616211	544.377197
19339.102447	16892.885833	1388.535156	-138.554855
19339.102447	16892.885833	1387.453125	-22.561028
19339.102447	16892.885833	1386.371094	331.851990
19339.102447	16892.885833	1385.288086	48.212795
19339.102447	16892.885833	1384.206055	236.863358
19339.102447	16892.885833	1383.123047	537.678528
19339.102447	16892.885833	1382.040039	268.244629
19339.102447	16892.885833	1380.957031	756.248047
19339.102447	16892.885833	1379.873047	529.448486
19339.102447	16892.885833	1378.789063	62.732651
19339.102447	16892.885833	1377.705078	421.837585
19339.102447	16892.885833	1376.621094	748.640930
19339.102447	16892.885833	1375.537109	603.297852
19339.102447	16892.885833	1374.452148	794.459351
19339.102447	16892.885833	1373.367188	503.003448
19339.102447	16892.885833	1372.282227	420.561646
19339.102447	16892.885833	1371.197266	377.456970
19339.102447	16892.885833	1370.112305	371.016205
19339.102447	16892.885833	1369.026367	346.891205
19339.102447	16892.885833	1367.940430	737.252075
19339.102447	16892.885833	1366.854492	538.386536
19339.102447	16892.885833	1365.767578	597.911682
19339.102447	16892.885833	1364.681641	675.187195
19339.102447	16892.885833	1363.594727	960.729919
19339.102447	16892.885833	1362.507813	794.990417
19339.102447	16892.885833	1361.419922	1036.730835
19339.102447	16892.885833	1360.333008	938.153320
19339.102447	16892.885833	1359.245117	666.565002
19339.102447	16892.885833	1358.157227	818.001709
19339.102447	16892.885833	1357.069336	534.622131
19339.102447	16892.885833	1355.981445	1186.632080
19339.102447	16892.885833	1354.892578	852.430908
19339.102447	16892.885833	1353.803711	888.429077
19339.102447	16892.885833	1352.714844	856.617371
19339.102447	16892.885833	1351.625000	735.266724
19339.102447	16892.885833	1350.536133	590.756653
19339.102447	16892.885833	1349.446289	662.853455
19339.102447	16892.885833	1348.356445	808.595703
19339.102447	16892.885833	1347.266602	1052.231812
19339.102447	16892.885833	1346.175781	717.092102
19339.102447	16892.885833	1345.085938	1012.589905
19339.102447	16892.885833	1343.995117	1126.430176
19339.102447	16892.885833	1342.903320	1151.779663
19339.102447	16892.885833	1341.812500	935.613647
19339.102447	16892.885833	1340.720703	1087.973511
19339.102447	16892.885833	1339.629883	1109.970825
19339.102447	16892.885833	1338.538086	1392.584961
19339.102447	16892.885833	1337.445313	1017.103882
19339.102447	16892.885833	1336.353516	964.540588
19339.102447	16892.885833	1335.260742	1033.781372
19339.102447	16892.885833	1334.167969	1386.793091
19339.102447	16892.885833	1333.075195	1440.171509
19339.102447	16892.885833	1331.981445	1277.588257
19339.102447	16892.885833	1330.888672	1578.270142
19339.102447	16892.885833	1329.794922	1014.780151
19339.102447	16892.885833	1328.701172	965.889221
19339.102447	16892.885833	1327.606445	1051.636230
19339.102447	16892.885833	1326.512695	1032.887817
19339.102447	16892.885833	1325.417969	941.481323
19339.102447	16892.885833	1324.323242	1211.925415
19339.102447	16892.885833	1323.227539	1256.306274
19339.102447	16892.885833	1322.132813	903.282654
19339.102447	16892.885833	1321.037109	555.813782
19339.102447	16892.885833	1319.941406	605.536865
19339.102447	16892.885833	1318.845703	855.422791
19339.102447	16892.885833	1317.750000	704.809814
19339.102447	16892.885833	1316.653320	564.960449
19339.102447	16892.885833	1315.556641	488.894196
19339.102447	16892.885833	1314.459961	703.382874
19339.102447	16892.885833	1313.363281	487.002930
19339.102447	16892.885833	1312.265625	698.669495
19339.102447	16892.885833	1311.167969	348.276733
19339.102447	16892.885833	1310.070313	-14.606606
19339.102447	16892.885833	1308.972656	335.615417
19339.102447	16892.885833	1307.874023	460.584747
19339.102447	16892.885833	1306.776367	614.141479
19339.102447	16892.885833	1305.677734	525.122009
19339.102447	16892.885833	1304.579102	164.873199
19339.102447	16892.885833	1303.479492	248.900589
19339.102447	16892.885833	1302.380859	192.332779
19339.102447	16892.885833	1301.281250	657.092590
19339.102447	16892.885833	1300.181641	364.968109
19339.102447	16892.885833	1299.081055	239.554871
19339.102447	16892.885833	1297.981445	481.969269
19339.102447	16892.885833	1296.880859	63.888554
19339.102447	16892.885833	1295.780273	407.131744
19339.102447	16892.885833	1294.679688	484.263611
19339.102447	16892.885833	1293.578125	303.700256
19339.102447	16892.885833	1292.476563	218.366043
19339.102447	16892.885833	1291.375000	331.970215
19339.102447	16892.885833	1290.273438	291.835358
19339.102447	16892.885833	1289.171875	329.865997
19339.102447	16892.885833	1288.069336	106.474617
19339.102447	16892.885833	1286.966797	296.929077
19339.102447	16892.885833	1285.864258	190.911316
19339.102447	16892.885833	1284.761719	298.732147
19339.102447	16892.885833	1283.658203	-23.750507
19339.102447	16892.885833	1282.554688	360.891235
19339.102447	16892.885833	1281.451172	119.241646
19339.102447	16892.885833	1280.347656	44.748257
19339.102447	16892.885833	1279.244141	57.776604
19339.102447	16892.885833	1278.139648	-39.248768
19339.102447	16892.885833	1277.035156	183.869339
19339.102447	16892.885833	1275.930664	-262.292603
19339.102447	16892.885833	1274.825195	42.541603
19339.102447	16892.885833	1273.720703	-7.431453
19339.102447	16892.885833	1272.615234	-78.794418
19339.102447	16892.885833	1271.508789	286.181610
19339.102447	16892.885833	1270.403320	12.529025
19339.102447	16892.885833	1269.297852	16.297522
19339.102447	16892.885833	1268.191406	36.802513
19339.102447	16892.885833	1267.084961	26.994904
19339.102447	16892.885833	1265.977539	266.240936
19339.102447	16892.885833	1264.871094	135.197800
19339.102447	16892.885833	1263.763672	260.576202
19339.102447	16892.885833	1262.656250	223.307449
19339.102447	16892.885833	1261.548828	-181.496780
19339.102447	16892.885833	1260.440430	23.225134
19339.102447	16892.885833	1259.333008	30.415495
19339.102447	16892.885833	1258.224609	-52.003971
19339.102447	16892.885833	1257.115234	-327.769196
19339.102447	16892.885833	1256.006836	-65.250420
19339.102447	16892.885833	1254.897461	-11.756327
19339.102447	16892.885833	1253.788086	109.417824
19339.102447	16892.885833	1252.678711	-83.616257
19339.102447	16892.885833	1251.569336	206.464127
19339.102447	16892.885833	1250.458984	-47.646557
19339.102447	16892.885833	1249.349609	27.013565
19339.102447	16892.885833	1248.239258	-40.954033
19339.102447	16892.885833	1247.127930	-125.500107
19339.102447	16892.885833	1246.017578	82.942719
19339.102447	16892.885833	1244.906250	280.233704
19339.102447	16892.885833	1243.794922	180.425369
19339.102447	16892.885833	1242.683594	16.102119
19339.102447	16892.885833	1241.571289	182.618607
19339.102447	16892.885833	1240.459961	208.311890
19339.102447	16892.885833	1239.347656	263.439575
19339.102447	16892.885833	1238.234375	498.570496
19339.102447	16892.885833	1237.122070	658.850403
19339.102447	16892.885833	1236.008789	280.052490
19339.102447	16892.885833	1234.896484	256.928101
19339.102447	16892.885833	1233.782227	61.653164
19339.102447	16892.885833	1232.668945	96.201241
19339.102447	16892.885833	1231.555664	226.075378
19339.102447	16892.885833	1230.441406	87.290222
19339.102447	16892.885833	1229.327148	-25.452965
19339.102447	16892.885833	1228.211914	55.340900
19339.102447	16892.885833	1227.097656	101.673599
19339.102447	16892.885833	1225.982422	141.665558
19339.102447	16892.885833	1224.867188	120.807274
19339.102447	16892.885833	1223.751953	-76.293236
19339.102447	16892.885833	1222.635742	52.562119
19339.102447	16892.885833	1221.520508	56.277859
19339.102447	16892.885833	1220.404297	-9.736820
19339.102447	16892.885833	1219.287109	70.137764
19339.102447	16892.885833	1218.170898	-111.720955
19339.102447	16892.885833	1217.053711	-253.806335
19339.102447	16892.885833	1215.936523	-282.279846
19339.102447	16892.885833	1214.819336	-148.404510
19339.102447	16892.885833	1213.702148	-186.228394
19339.102447	16892.885833	1212.583984	61.954117
19339.102447	16892.885833	1211.465820	196.325470
19339.102447	16892.885833	1210.347656	56.306358
19339.102447	16892.885833	1209.229492	-94.354431
19339.102447	16892.885833	1208.110352	59.111088
19339.102447	16892.885833	1206.992188	81.534477
19339.102447	16892.885833	1205.873047	161.620804
19339.102447	16892.885833	1204.752930	35.993763
19339.102447	16892.885833	1203.633789	-173.163162
19339.102447	16892.885833	1202.513672	255.233719
19339.102447	16892.885833	1201.393555	-54.476337
19339.102447	16892.885833	1200.273438	196.772003
19339.102447	16892.885833	1199.152344	86.078377
19339.102447	16892.885833	1198.032227	122.205025
19339.102447	16892.885833	1196.911133	-64.796112
19339.102447	16892.885833	1195.790039	72.832535
19339.102447	16892.885833	1194.667969	117.475601
19339.102447	16892.885833	1193.545898	422.211121
19339.102447	16892.885833	1192.424805	37.023670
19339.102447	16892.885833	1191.301758	97.057114
19339.102447	16892.885833	1190.179688	-132.889099
19339.102447	16892.885833	1189.056641	213.220581
19339.102447	16892.885833	1187.933594	-47.410435
19339.102447	16892.885833	1186.810547	260.142700
19339.102447	16892.885833	1185.687500	-45.788925
19339.102447	16892.885833	1184.563477	225.870270
19339.102447	16892.885833	1183.440430	-134.459427
19339.102447	16892.885833	1182.316406	263.006805
19339.102447	16892.885833	1181.191406	168.756165
19339.102447	16892.885833	1180.067383	-93.728096
19339.102447	16892.885833	1178.942383	-101.782639
19339.102447	16892.885833	1177.817383	-61.093929
19339.102447	16892.885833	1176.692383	29.985647
19339.102447	16892.885833	1175.566406	-84.070374
19339.102447	16892.885833	1174.440430	17.825237
19339.102447	16892.885833	1173.314453	98.085777
19339.102447	16892.885833	1172.188477	24.378447
19339.102447	16892.885833	1171.062500	145.288452
19339.102447	16892.885833	1169.935547	351.124939
19339.102447	16892.885833	1168.808594	-179.508804
19339.102447	16892.885833	1167.681641	49.730309
19339.102447	16892.885833	1166.553711	-159.462067
19339.102447	16892.885833	1165.426758	-216.002838
19339.102447	16892.885833	1164.298828	-280.308594
19339.102447	16892.885833	1163.170898	-175.853729
19339.102447	16892.885833	1162.041992	-307.040466
19339.102447	16892.885833	1160.914063	-43.179531
19339.102447	16892.885833	1159.785156	-13.082669
19339.102447	16892.885833	1158.656250	-197.063690
19339.102447	16892.885833	1157.526367	-111.978241
19339.102447	16892.885833	1156.397461	-261.269135
19339.102447	16892.885833	1155.267578	-148.190140
19339.102447	16892.885833	1154.137695	-318.187469
19339.102447	16892.885833	1153.006836	-295.749878
19339.102447	16892.885833	1151.876953	-365.967896
19339.102447	16892.885833	1150.746094	120.927567
19339.102447	16892.885833	1149.615234	84.822685
19339.102447	16892.885833	1148.484375	255.275620
19339.102447	16892.885833	1147.352539	177.125381
19339.102447	16892.885833	1146.220703	-362.011047
19339.102447	16892.885833	1145.088867	-212.852844
19339.102447	16892.885833	1143.957031	-13.318340
19339.102447	16892.885833	1142.825195	0.822551
19339.102447	16892.885833	1141.692383	268.095947
19339.102447	16892.885833	1140.559570	-397.380615
19339.102447	16892.885833	1139.426758	106.447182
19339.102447	16892.885833	1138.292969	97.636513
19339.102447	16892.885833	1137.159180	-265.436981
19339.102447	16892.885833	1136.025391	20.003731
19339.102447	16892.885833	1134.891602	9.270900
19339.102447	16892.885833	1133.757813	-89.084961
19339.102447	16892.885833	1132.623047	108.746811
19339.102447	16892.885833	1131.488281	178.450989
19339.102447	16892.885833	1130.353516	-6.656248
19339.102447	16892.885833	1129.217773	-36.971493
19339.102447	16892.885833	1128.083008	44.301682
19339.102447	16892.885833	1126.947266	-26.645426
19339.102447	16892.885833	1125.811523	140.384216
19339.102447	16892.885833	1124.674805	-366.471161
19339.102447	16892.885833	1123.539063	12.480210
19339.102447	16892.885833	1122.402344	-136.809341
19339.102447	16892.885833	1121.265625	-195.888458
19339.102447	16892.885833	1120.127930	-91.255928
19339.102447	16892.885833	1118.990234	-330.249268
19339.102447	16892.885833	1117.853516	-248.217239
19339.102447	16892.885833	1116.714844	36.382416
19339.102447	16892.885833	1115.577148	263.628418
19339.102447	16892.885833	1114.439453	73.533592
19339.102447	16892.885833	1113.300781	134.094711
19339.102447	16892.885833	1112.162109	153.084320
19339.102447	16892.885833	1111.022461	400.549835
19339.102447	16892.885833	1109.883789	109.349556
19339.102447	16892.885833	1108.744141	346.359467
19339.102447	16892.885833	1107.604492	131.196259
19339.102447	16892.885833	1106.463867	122.328957
19339.102447	16892.885833	1105.324219	356.343170
19339.102447	16892.885833	1104.183594	214.282166
19339.102447	16892.885833	1103.042969	255.251404
19339.102447	16892.885833	1101.902344	76.961922
19339.102447	16892.885833	1100.760742	114.198700
19339.102447	16892.885833	1099.619141	506.524536
19339.102447	16892.885833	1098.477539	637.966919
19339.102447	16892.885833	1097.335938	283.428406
19339.102447	16892.885833	1096.193359	350.888885
19339.102447	16892.885833	1095.051758	569.779663
19339.102447	16892.885833	1093.909180	522.587646
19339.102447	16892.885833	1092.765625	663.269775
19339.102447	16892.885833	1091.623047	351.000183
19339.102447	16892.885833	1090.479492	506.327728
19339.102447	16892.885833	1089.335938	313.933380
19339.102447	16892.885833	1088.192383	243.629898
19339.102447	16892.885833	1087.047852	369.271606
19339.102447	16892.885833	1085.903320	-128.425125
19339.102447	16892.885833	1084.758789	383.024414
19339.102447	16892.885833	1083.614258	135.472092
19339.102447	16892.885833	1082.469727	53.230747
19339.102447	16892.885833	1081.324219	197.693329
19339.102447	16892.885833	1080.178711	-64.759163
19339.102447	16892.885833	1079.033203	-69.755295
19339.102447	16892.885833	1077.886719	352.171875
19339.102447	16892.885833	1076.740234	299.548187
19339.102447	16892.885833	1075.593750	557.284180
19339.102447	16892.885833	1074.447266	518.173218
19339.102447	16892.885833	1073.300781	202.981323
19339.102447	16892.885833	1072.153320	301.659454
19339.102447	16892.885833	1071.005859	296.354980
19339.102447	16892.885833	1069.858398	95.287086
19339.102447	16892.885833	1068.709961	247.113541
19339.102447	16892.885833	1067.561523	738.142151
19339.102447	16892.885833	1066.413086	597.932007
19339.102447	16892.885833	1065.264648	490.065582
19339.102447	16892.885833	1064.116211	191.984818
19339.102447	16892.885833	1062.966797	68.616531
19339.102447	16892.885833	1061.817383	397.062042
19339.102447	16892.885833	1060.667969	463.630463
19339.102447	16892.885833	1059.517578	-3.126611
19339.102447	16892.885833	1058.368164	174.970306
19339.102447	16892.885833	1057.217773	160.137192
19339.102447	16892.885833	1056.067383	96.882019
19339.102447	16892.885833	1054.916016	247.420212
19339.102447	16892.885833	1053.764648	612.970886
19339.102447	16892.885833	1052.613281	75.683083
19339.102447	16892.885833	1051.461914	402.596375
19339.102447	16892.885833	1050.310547	622.883240
19339.102447	16892.885833	1049.158203	555.719666
19339.102447	16892.885833	1048.005859	216.539978
19339.102447	16892.885833	1046.853516	183.747192
19339.102447	16892.885833	1045.700195	296.052185
19339.102447	16892.885833	1044.547852	326.491943
19339.102447	16892.885833	1043.394531	209.382065
19339.102447	16892.885833	1042.240234	393.293274
19339.102447	16892.885833	1041.086914	-48.440090
19339.102447	16892.885833	1039.932617	226.747147
19339.102447	16892.885833	1038.778320	401.645569
19339.102447	16892.885833	1037.624023	304.404236
19339.102447	16892.885833	1036.469727	48.148792
19339.102447	16892.885833	1035.314453	744.765259
19339.102447	16892.885833	1034.159180	449.181274
19339.102447	16892.885833	1033.003906	735.174744
19339.102447	16892.885833	1031.847656	567.615967
19339.102447	16892.885833	1030.692383	565.907043
19339.102447	16892.885833	1029.536133	240.834473
19339.102447	16892.885833	1028.378906	339.929993
19339.102447	16892.885833	1027.222656	424.264130
19339.102447	16892.885833	1026.065430	409.919861
19339.102447	16892.885833	1024.908203	455.973846
19339.102447	16892.885833	1023.750977	76.715828
19339.102447	16892.885833	1022.593750	312.505859
19339.102447	16892.885833	1021.435547	98.123688
19339.102447	16892.885833	1020.277344	-67.021736
19339.102447	16892.885833	1019.119141	156.570282
19339.102447	16892.885833	1017.959961	-64.422272
19339.102447	16892.885833	1016.800781	-168.601944
19339.102447	16892.885833	1015.641602	81.320992
19339.102447	16892.885833	1014.482422	-2.230898
19339.102447	16892.885833	1013.323242	212.235260
19339.102447	16892.885833	1012.163086	85.076813
19339.102447	16892.885833	1011.002930	-137.253754
19339.102447	16892.885833	1009.842773	298.931732
19339.102447	16892.885833	1008.681641	109.810730
19339.102447	16892.885833	1007.520508	-252.546875
19339.102447	16892.885833	1006.359375	140.375183
19339.102447	16892.885833	1005.198242	220.628387
19339.102447	16892.885833	1004.037109	166.225113
19339.102447	16892.885833	1002.875000	132.877701
19339.102447	16892.885833	1001.712891	366.785187
19339.102447	16892.885833	1000.550781	424.827179
19339.102447	16892.885833	999.387695	-152.061539
19339.102447	16892.885833	998.224609	40.771381
19339.102447	16892.885833	997.061523	-36.114807
19339.102447	16892.885833	995.898438	-109.145233
19339.102447	16892.885833	994.734375	3.130320
19339.102447	16892.885833	993.571289	46.821144
19339.102447	16892.885833	992.407227	-61.817581
19339.102447	16892.885833	991.242188	-283.449432
19339.102447	16892.885833	990.078125	-82.300751
19339.102447	16892.885833	988.913086	-331.542450
19339.102447	16892.885833	987.748047	54.216511
19339.102447	16892.885833	986.583008	188.746323
19339.102447	16892.885833	985.416992	186.274078
19339.102447	16892.885833	984.250977	-16.559002
19339.102447	16892.885833	983.084961	-102.111679
19339.102447	16892.885833	981.918945	-140.797409
19339.102447	16892.885833	980.751953	-197.447891
19339.102447	16892.885833	979.584961	-5.835805
19339.102447	16892.885833	978.417969	-133.503525
19339.102447	16892.885833	977.250977	-33.903580
19339.102447	16892.885833	976.083008	-54.719467
19339.102447	16892.885833	974.915039	97.307571
19339.102447	16892.885833	973.747070	114.529663
19339.102447	16892.885833	972.579102	-108.474510
19339.102447	16892.885833	971.410156	195.759796
19339.102447	16892.885833	970.242188	-28.632822
19339.102447	16892.885833	969.072266	-62.821861
19339.102447	16892.885833	967.903320	164.511673
19339.102447	16892.885833	966.733398	-345.754303
19339.102447	16892.885833	965.563477	197.029907
19339.102447	16892.885833	964.393555	66.177292
19339.102447	16892.885833	963.223633	103.832870
19339.102447	16892.885833	962.052734	69.722710
19339.102447	16892.885833	960.881836	116.012253
19339.102447	16892.885833	959.710938	-27.337095
19339.102447	16892.885833	958.540039	173.128250
19339.102447	16892.885833	957.368164	-58.936172
19339.102447	16892.885833	956.196289	107.592247
19339.102447	16892.885833	955.024414	-82.508720
19339.102447	16892.885833	953.851563	120.728836
19339.102447	16892.885833	952.679688	121.741402
19339.102447	16892.885833	951.506836	86.589310
19339.102447	16892.885833	950.333984	288.215637
19339.102447	16892.885833	949.160156	-197.642426
19339.102447	16892.885833	947.986328	101.887985
19339.102447	16892.885833	946.812500	-5.954521
19339.102447	16892.885833	945.638672	-339.247711
19339.102447	16892.885833	944.464844	-9.108455
19339.102447	16892.885833	943.290039	197.200256
19339.102447	16892.885833	942.115234	-408.347046
19339.102447	16892.885833	940.940430	115.753784
19339.102447	16892.885833	939.764648	-165.447861
19339.102447	16892.885833	938.588867	53.749168
19339.102447	16892.885833	937.413086	90.583405
19339.102447	16892.885833	936.237305	358.086334
19339.102447	16892.885833	935.060547	37.615761
19339.102447	16892.885833	933.883789	-138.631027
19339.102447	16892.885833	932.707031	24.756369
19339.102447	16892.885833	931.530273	-140.467957
19339.102447	16892.885833	930.352539	228.991074
19339.102447	16892.885833	929.175781	28.094624
19339.102447	16892.885833	927.998047	-132.985382
19339.102447	16892.885833	926.819336	-142.971542
19339.102447	16892.885833	925.641602	8.851372
19339.102447	16892.885833	924.462891	-262.934784
19339.102447	16892.885833	923.284180	-228.730194
19339.102447	16892.885833	922.104492	44.877140
19339.102447	16892.885833	920.924805	-89.458229
19339.102447	16892.885833	919.746094	-68.628448
19339.102447	16892.885833	919.551758	1.219258
19339.102447	16892.885833	918.386719	10.609143
19339.102447	16892.885833	917.220703	46.559055
19339.102447	16892.885833	916.054688	20.454134
19339.102447	16892.885833	914.887695	-282.409210
19339.102447	16892.885833	913.721680	-11.883549
19339.102447	16892.885833	912.554688	212.039871
19339.102447	16892.885833	911.387695	199.080246
19339.102447	16892.885833	910.220703	-141.315186
19339.102447	16892.885833	909.052734	-295.799438
19339.102447	16892.885833	907.885742	-67.713158
19339.102447	16892.885833	906.717773	-51.981544
19339.102447	16892.885833	905.548828	-34.061817
19339.102447	16892.885833	904.380859	-73.657715
19339.102447	16892.885833	903.211914	48.039677
19339.102447	16892.885833	902.042969	-236.818634
19339.102447	16892.885833	900.874023	118.903923
19339.102447	16892.885833	899.704102	92.452385
19339.102447	16892.885833	898.535156	-218.835709
19339.102447	16892.885833	897.365234	-73.112785
19339.102447	16892.885833	896.194336	129.911880
19339.102447	16892.885833	895.024414	92.304520
19339.102447	16892.885833	893.853516	103.224953
19339.102447	16892.885833	892.682617	76.609505
19339.102447	16892.885833	891.511719	-38.229576
19339.102447	16892.885833	890.340820	82.828537
19339.102447	16892.885833	889.168945	58.344852
19339.102447	16892.885833	887.997070	-89.570396
19339.102447	16892.885833	886.825195	203.180130
19339.102447	16892.885833	885.653320	169.762146
19339.102447	16892.885833	884.480469	217.822388
19339.102447	16892.885833	883.307617	102.885246
19339.102447	16892.885833	882.134766	208.098801
19339.102447	16892.885833	880.961914	-60.935768
19339.102447	16892.885833	879.788086	167.432007
19339.102447	16892.885833	878.614258	-28.945288
19339.102447	16892.885833	877.440430	274.029602
19339.102447	16892.885833	876.266602	145.801605
19339.102447	16892.885833	875.091797	15.399813
19339.102447	16892.885833	873.916992	89.450401
19339.102447	16892.885833	872.742188	55.734169
19339.102447	16892.885833	871.567383	125.264305
19339.102447	16892.885833	870.391602	243.071701
19339.102447	16892.885833	869.215820	132.350983
19339.102447	16892.885833	868.040039	258.802826
19339.102447	16892.885833	866.864258	9.713788
19339.102447	16892.885833	865.687500	390.696594
19339.102447	16892.885833	864.510742	12.119837
19339.102447	16892.885833	863.333984	-265.413544
19339.102447	16892.885833	862.157227	325.851715
19339.102447	16892.885833	860.979492	-67.960114
19339.102447	16892.885833	859.802734	5.408562
19339.102447	16892.885833	858.625000	458.001587
19339.102447	16892.885833	857.446289	180.445175
19339.102447	16892.885833	856.268555	-134.319214
19339.102447	16892.885833	855.089844	247.771500
19339.102447	16892.885833	853.911133	110.474831
19339.102447	16892.885833	852.731445	198.785706
19339.102447	16892.885833	851.552734	-223.215424
19339.102447	16892.885833	850.373047	-10.192450
19339.102447	16892.885833	849.193359	-64.350586
19339.102447	16892.885833	848.013672	-31.004967
19339.102447	16892.885833	846.833008	-205.569183
19339.102447	16892.885833	845.652344	42.066147
19339.102447	16892.885833	844.471680	-1.334064
19339.102447	16892.885833	843.291016	215.426743
19339.102447	16892.885833	842.110352	82.258011
19339.102447	16892.885833	840.928711	202.638412
19339.102447	16892.885833	839.747070	6.048641
19339.102447	16892.885833	838.564453	224.602020
19339.102447	16892.885833	837.382813	137.180969
19339.102447	16892.885833	836.200195	-2.664960
19339.102447	16892.885833	835.017578	-432.915802
19339.102447	16892.885833	833.834961	-61.900433
19339.102447	16892.885833	832.651367	-35.927742
19339.102447	16892.885833	831.467773	-18.762774
19339.102447	16892.885833	830.284180	-451.087952
19339.102447	16892.885833	829.100586	-185.325912
19339.102447	16892.885833	827.916992	466.249115
19339.102447	16892.885833	826.732422	1.193151
19339.102447	16892.885833	825.547852	-141.127701
19339.102447	16892.885833	824.363281	152.416626
19339.102447	16892.885833	823.177734	-44.479343
19339.102447	16892.885833	821.992188	253.148285
19339.102447	16892.885833	820.806641	36.560452
19339.102447	16892.885833	819.621094	238.084473
19339.102447	16892.885833	818.434570	-157.071747
19339.102447	16892.885833	817.249023	-101.582352
19339.102447	16892.885833	816.062500	14.754378
19339.102447	16892.885833	814.875000	-69.195381
19339.102447	16892.885833	813.688477	68.683670
19339.102447	16892.885833	812.500977	178.163177
19339.102447	16892.885833	811.313477	-6.034559
19339.102447	16892.885833	810.125977	-88.058754
19339.102447	16892.885833	808.937500	103.747177
19339.102447	16892.885833	807.749023	-30.575867
19339.102447	16892.885833	806.560547	330.436157
19339.102447	16892.885833	805.372070	206.813751
19339.102447	16892.885833	804.182617	189.584274
19339.102447	16892.885833	802.994141	-381.420807
19339.102447	16892.885833	801.803711	-20.957750
19339.102447	16892.885833	800.614258	85.319954
19339.102447	16892.885833	799.424805	369.396698
19339.102447	16892.885833	798.234375	-101.708260
19339.102447	16892.885833	797.043945	375.167755
19339.102447	16892.885833	795.852539	110.102448
19339.102447	16892.885833	794.662109	265.664703
19339.102447	16892.885833	793.470703	-183.710098
19339.102447	16892.885833	792.279297	-173.534729
19339.102447	16892.885833	791.087891	181.063171
19339.102447	16892.885833	789.895508	-175.135941
19339.102447	16892.885833	788.703125	-17.964838
19339.102447	16892.885833	787.510742	186.685181
19339.102447	16892.885833	786.318359	215.784149
19339.102447	16892.885833	785.125000	-144.836975
19339.102447	16892.885833	783.931641	5.321434
19339.102447	16892.885833	782.738281	-26.430693
19339.102447	16892.885833	781.544922	-36.638885
19339.102447	16892.885833	780.350586	104.461105
19339.102447	16892.885833	779.156250	-225.986160
19339.102447	16892.885833	777.961914	-229.957809
19339.102447	16892.885833	776.767578	-188.641891
19339.102447	16892.885833	775.572266	-0.491243
19339.102447	16892.885833	774.376953	168.031693
19339.102447	16892.885833	773.181641	178.694016
19339.102447	16892.885833	771.986328	-82.868073
19339.102447	16892.885833	770.790039	242.878677
19339.102447	16892.885833	769.593750	292.065948
19339.102447	16892.885833	768.397461	-168.230453
19339.102447	16892.885833	767.201172	146.217560
19339.102447	16892.885833	766.003906	-199.723099
19339.102447	16892.885833	764.806641	-105.613609
19339.102447	16892.885833	763.609375	57.352333
19339.102447	16892.885833	762.412109	80.000587
19339.102447	16892.885833	761.213867	-54.821732
19339.102447	16892.885833	760.015625	342.621521
19339.102447	16892.885833	758.817383	444.595734
19339.102447	16892.885833	757.618164	141.428268
19339.102447	16892.885833	756.419922	225.948059
19339.102447	16892.885833	755.220703	191.895966
19339.102447	16892.885833	754.021484	280.461853
19339.102447	16892.885833	752.821289	218.215027
19339.102447	16892.885833	751.621094	287.152222
19339.102447	16892.885833	750.420898	431.253845
19339.102447	16892.885833	749.220703	134.205475
19339.102447	16892.885833	748.020508	-121.969475
19339.102447	16892.885833	746.819336	71.251122
19339.102447	16892.885833	745.618164	186.888046
19339.102447	16892.885833	744.416992	111.074249
19339.102447	16892.885833	743.214844	348.921478
19339.102447	16892.885833	742.012695	305.113037
19339.102447	16892.885833	740.810547	143.072983
19339.102447	16892.885833	739.608398	429.819092
19339.102447	16892.885833	738.406250	344.890778
19339.102447	16892.885833	737.203125	659.165100
19339.102447	16892.885833	736.000000	659.853333
19339.102447	16892.885833	734.795898	894.322693
19339.102447	16892.885833	733.592773	1184.351685
19339.102447	16892.885833	732.388672	961.541321
19339.102447	16892.885833	731.184570	867.379028
19339.102447	16892.885833	729.979492	846.044189
19339.102447	16892.885833	728.775391	1011.085693
19339.102447	16892.885833	727.570313	509.473267
19339.102447	16892.885833	726.365234	262.929077
19339.102447	16892.885833	725.160156	35.660858
19339.102447	16892.885833	723.954102	88.947487
19339.102447	16892.885833	722.748047	107.845444
19339.102447	16892.885833	721.541992	315.019653
19339.102447	16892.885833	720.334961	-6.657396
19339.102447	16892.885833	719.128906	-490.939789
19339.102447	16892.885833	717.921875	462.592377
19339.102447	16892.885833	716.714844	198.531433
19339.102447	16892.885833	715.506836	2.919652
19339.102447	16892.885833	714.298828	455.134735
19339.102447	16892.885833	713.090820	353.410309
19339.102447	16892.885833	711.882813	31.497570
19339.102447	16892.885833	710.674805	-23.281891
19339.102447	16892.885833	709.465820	-52.493355
19339.102447	16892.885833	708.256836	-214.207672
19339.102447	16892.885833	707.047852	-109.023033
19339.102447	16892.885833	705.837891	21.653408
19339.102447	16892.885833	704.627930	-389.983185
19339.102447	16892.885833	703.417969	56.359779
19339.102447	16892.885833	702.208008	-233.669586
19339.102447	16892.885833	700.998047	-124.759041
19339.102447	16892.885833	699.787109	-84.220131
19339.102447	16892.885833	698.576172	-60.837540
19339.102447	16892.885833	697.364258	388.825226
19339.102447	16892.885833	696.153320	-39.913727
19339.102447	16892.885833	694.941406	-400.353149
19339.102447	16892.885833	693.729492	180.959091
19339.102447	16892.885833	692.516602	-24.024900
19339.102447	16892.885833	691.304688	-267.330078
19339.102447	16892.885833	690.091797	-103.931198
19339.102447	16892.885833	688.878906	74.235657
19339.102447	16892.885833	687.665039	16.032770
19339.102447	16892.885833	686.451172	96.098503
19339.102447	16892.885833	685.237305	212.238022
19339.102447	16892.885833	684.023438	455.885406
19339.102447	16892.885833	682.809570	563.283447
19339.102447	16892.885833	681.594727	504.759338
19339.102447	16892.885833	680.379883	-108.561714
19339.102447	16892.885833	679.165039	379.139404
19339.102447	16892.885833	677.949219	458.660675
19339.102447	16892.885833	676.733398	140.877640
19339.102447	16892.885833	675.517578	224.582214
19339.102447	16892.885833	674.301758	399.521515
19339.102447	16892.885833	673.084961	538.268982
19339.102447	16892.885833	671.869141	286.397705
19339.102447	16892.885833	670.651367	60.079159
19339.102447	16892.885833	669.434570	-70.701462
19339.102447	16892.885833	668.216797	84.903084
19339.102447	16892.885833	667.000000	161.960342
19339.102447	16892.885833	665.781250	196.575485
19339.102447	16892.885833	664.563477	347.747803
19339.102447	16892.885833	663.344727	161.885239
19339.102447	16892.885833	662.125977	-85.346649
19339.102447	16892.885833	660.907227	273.389740
19339.102447	16892.885833	659.688477	242.275818
19339.102447	16892.885833	658.468750	329.768524
19339.102447	16892.885833	657.249023	72.154747
19339.102447	16892.885833	656.029297	485.635620
19339.102447	16892.885833	654.808594	158.303085
19339.102447	16892.885833	653.587891	125.221542
19339.102447	16892.885833	652.367188	369.281738
19339.102447	16892.885833	651.146484	389.099060
19339.102447	16892.885833	649.924805	19.902519
19339.102447	16892.885833	648.704102	240.686096
19339.102447	16892.885833	647.482422	351.524841
19339.102447	16892.885833	646.259766	236.274719
19339.102447	16892.885833	645.037109	302.810974
19339.102447	16892.885833	643.815430	96.905121
19339.102447	16892.885833	642.591797	79.098122
19339.102447	16892.885833	641.369141	280.934204
19339.102447	16892.885833	640.145508	237.905289
19339.102447	16892.885833	638.921875	300.492096
19339.102447	16892.885833	637.698242	358.912231
19339.102447	16892.885833	636.474609	316.139099
19339.102447	16892.885833	635.250000	412.676453
19339.102447	16892.885833	634.025391	353.233429
19339.102447	16892.885833	632.800781	127.373528
19339.102447	16892.885833	631.575195	340.118408
19339.102447	16892.885833	630.349609	346.376373
19339.102447	16892.885833	629.124023	613.988403
19339.102447	16892.885833	627.898438	-241.073700
19339.102447	16892.885833	626.671875	182.640060
19339.102447	16892.885833	625.445313	404.182343
19339.102447	16892.885833	624.218750	27.945038
19339.102447	16892.885833	622.992188	-87.023674
19339.102447	16892.885833	621.764648	38.078331
19339.102447	16892.885833	620.537109	-68.124283
19339.102447	16892.885833	619.309570	71.955833
19339.102447	16892.885833	618.081055	90.183792
19339.102447	16892.885833	616.852539	32.891026
19339.102447	16892.885833	615.624023	-51.526424
19339.102447	16892.885833	614.395508	131.153671
19339.102447	16892.885833	613.166992	-22.215569
19339.102447	16892.885833	611.937500	-42.986931
19339.102447	16892.885833	610.708008	45.654835
19339.102447	16892.885833	609.477539	121.870987
19339.102447	16892.885833	608.248047	95.394821
19339.102447	16892.885833	607.017578	-260.352966
19339.102447	16892.885833	605.787109	-86.954140
19339.102447	16892.885833	604.555664	-255.346329
19339.102447	16892.885833	603.325195	33.794235
19339.102447	16892.885833	602.093750	-50.204033
19339.102447	16892.885833	600.861328	256.041992
19339.102447	16892.885833	599.629883	63.528767
19339.102447	16892.885833	598.397461	24.343689
19339.102447	16892.885833	597.165039	-211.510345
19339.102447	16892.885833	595.932617	51.552311
19339.102447	16892.885833	594.699219	-192.037155
19339.102447	16892.885833	593.465820	63.094616
19339.102447	16892.885833	592.232422	-98.187462
19339.102447	16892.885833	590.999023	-112.602478
19339.102447	16892.885833	589.764648	-86.946922
19339.102447	16892.885833	588.530273	-86.106224
19339.102447	16892.885833	587.295898	343.825470
19339.102447	16892.885833	586.061523	146.531265
19339.102447	16892.885833	584.826172	81.367912
19339.102447	16892.885833	583.590820	167.058243
19339.102447	16892.885833	582.355469	-49.986183
19339.102447	16892.885833	581.119141	23.836113
19339.102447	16892.885833	579.882813	260.905304
19339.102447	16892.885833	578.646484	431.388672
19339.102447	16892.885833	577.410156	357.847900
19339.102447	16892.885833	576.172852	541.482971
19339.102447	16892.885833	574.935547	662.788025
19339.102447	16892.885833	573.698242	542.349976
19339.102447	16892.885833	572.460938	560.029053
19339.102447	16892.885833	571.222656	336.135529
19339.102447	16892.885833	569.984375	442.210846
19339.102447	16892.885833	568.746094	838.435303
19339.102447	16892.885833	567.506836	920.139343
19339.102447	16892.885833	566.267578	1193.937500
19339.102447	16892.885833	565.028320	976.289063
19339.102447	16892.885833	563.789063	836.217590
19339.102447	16892.885833	562.548828	1279.790771
19339.102447	16892.885833	561.309570	1288.379761
19339.102447	16892.885833	560.068359	1064.250244
19339.102447	16892.885833	558.828125	1079.981689
19339.102447	16892.885833	557.586914	867.247437
19339.102447	16892.885833	556.345703	892.209229
19339.102447	16892.885833	555.104492	998.715881
19339.102447	16892.885833	553.863281	1059.862305
19339.102447	16892.885833	552.621094	1165.104126
19339.102447	16892.885833	551.378906	1131.470337
19339.102447	16892.885833	550.136719	1185.582520
19339.102447	16892.885833	548.893555	1092.615723
19339.102447	16892.885833	547.650391	1434.312134
19339.102447	16892.885833	546.407227	1269.542847
19339.102447	16892.885833	545.164063	1223.661133
19339.102447	16892.885833	543.919922	1373.424438
19339.102447	16892.885833	542.675781	1303.568970
19339.102447	16892.885833	541.431641	1869.201050
19339.102447	16892.885833	540.186523	1451.662842
19339.102447	16892.885833	538.941406	1530.514771
19339.102447	16892.885833	537.696289	1846.212158
19339.102447	16892.885833	536.451172	1486.317383
19339.102447	16892.885833	535.205078	1738.579224
19339.102447	16892.885833	533.959961	1806.720337
19339.102447	16892.885833	532.712891	2020.386108
19339.102447	16892.885833	531.466797	2203.325684
19339.102447	16892.885833	530.219727	1993.152588
19339.102447	16892.885833	528.972656	2278.431641
19339.102447	16892.885833	527.725586	2189.324951
19339.102447	16892.885833	526.478516	2229.042725
19339.102447	16892.885833	525.230469	1973.302979
19339.102447	16892.885833	523.982422	2568.457031
19339.102447	16892.885833	522.734375	2415.008789
19339.102447	16892.885833	521.485352	2313.799316
19339.102447	16892.885833	520.236328	2481.863281
19339.102447	16892.885833	518.987305	2513.857910
19339.102447	16892.885833	517.737305	2550.432129
19339.102447	16892.885833	516.488281	2901.462402
19339.102447	16892.885833	515.238281	2969.772705
19339.102447	16892.885833	513.988281	3108.690430
19339.102447	16892.885833	512.737305	3190.169189
19339.102447	16892.885833	511.486328	3020.146484
19339.102447	16892.885833	510.235352	3317.065430
19339.102447	16892.885833	508.984375	3750.441406
19339.102447	16892.885833	507.732422	3889.007813
19339.102447	16892.885833	506.480469	3796.855713
19339.102447	16892.885833	505.228516	4090.750000
19339.102447	16892.885833	503.976563	4147.752930
19339.102447	16892.885833	502.723633	4153.567871
19339.102447	16892.885833	501.470703	4644.031738
19339.102447	16892.885833	500.217773	4545.292480
19339.102447	16892.885833	498.963867	4611.736328
19339.102447	16892.885833	497.709961	4752.585938
19339.102447	16892.885833	496.456055	4973.960449
19339.102447	16892.885833	495.202148	5314.903809
19339.102447	16892.885833	493.947266	5421.339355
19339.102447	16892.885833	492.692383	5457.988281
19339.102447	16892.885833	491.437500	5762.299316
19339.102447	16892.885833	490.181641	6120.190918
19339.102447	16892.885833	488.926758	6163.424805
19339.102447	16892.885833	487.670898	5960.101563
19339.102447	16892.885833	486.414063	6227.784180
19339.102447	16892.885833	485.158203	6678.346680
19339.102447	16892.885833	483.901367	7126.791504
19339.102447	16892.885833	482.644531	6997.861816
19339.102447	16892.885833	481.386719	7060.085938
19339.102447	16892.885833	480.128906	7358.455566
19339.102447	16892.885833	478.871094	7568.422852
19339.102447	16892.885833	477.613281	7720.810059
19339.102447	16892.885833	476.355469	8205.520508
19339.102447	16892.885833	475.096680	7828.291016
19339.102447	16892.885833	473.837891	7924.950195
19339.102447	16892.885833	472.578125	8140.413086
19339.102447	16892.885833	471.319336	8074.693848
19339.102447	16892.885833	470.059570	8654.555664
19339.102447	16892.885833	468.799805	8619.108398
19339.102447	16892.885833	467.539063	8612.137695
19339.102447	16892.885833	466.278320	8953.127930
19339.102447	16892.885833	465.017578	8800.045898
19339.102447	16892.885833	463.756836	8992.715820
19339.102447	16892.885833	462.495117	9389.654297
19339.102447	16892.885833	461.233398	9476.912109
19339.102447	16892.885833	459.971680	9600.481445
19339.102447	16892.885833	458.709961	9668.226563
19339.102447	16892.885833	457.447266	9643.358398
19339.102447	16892.885833	456.184570	10022.801758
19339.102447	16892.885833	454.921875	9998.635742
19339.102447	16892.885833	453.658203	10206.835938
19339.102447	16892.885833	452.394531	9911.436523
19339.102447	16892.885833	451.130859	10410.185547
19339.102447	16892.885833	449.867188	10568.754883
19339.102447	16892.885833	448.602539	10589.529297
19339.102447	16892.885833	447.337891	10695.095703
19339.102447	16892.885833	446.073242	10691.394531
19339.102447	16892.885833	444.807617	11162.202148
19339.102447	16892.885833	443.542969	10915.395508
19339.102447	16892.885833	442.276367	11095.976563
19339.102447	16892.885833	441.010742	10903.967773
19339.102447	16892.885833	439.744141	11196.083008
19339.102447	16892.885833	438.478516	11319.483398
19339.102447	16892.885833	437.210938	11257.951172
19339.102447	16892.885833	435.944336	11645.288086
19339.102447	16892.885833	434.676758	11558.173828
19339.102447	16892.885833	433.409180	11630.355469
19339.102447	16892.885833	432.141602	11888.133789
19339.102447	16892.885833	430.873047	11616.612305
19339.102447	16892.885833	429.604492	12059.893555
19339.102447	16892.885833	428.335938	11412.111328
19339.102447	16892.885833	427.067383	12227.650391
19339.102447	16892.885833	425.797852	12481.225586
19339.102447	16892.885833	424.528320	12044.971680
19339.102447	16892.885833	423.258789	12121.069336
19339.102447	16892.885833	421.988281	12271.976563
19339.102447	16892.885833	420.717773	12119.474609
19339.102447	16892.885833	419.447266	12425.747070
19339.102447	16892.885833	418.175781	12509.746094
19339.102447	16892.885833	416.905273	12355.283203
19339.102447	16892.885833	415.633789	12683.353516
19339.102447	16892.885833	414.362305	12547.364258
19339.102447	16892.885833	413.089844	12524.010742
19339.102447	16892.885833	411.817383	12785.639648
19339.102447	16892.885833	410.544922	12763.792969
19339.102447	16892.885833	409.272461	12858.198242
19339.102447	16892.885833	407.999023	12685.292969
19339.102447	16892.885833	406.725586	12654.769531
19339.102447	16892.885833	405.452148	12746.144531
19339.102447	16892.885833	404.177734	13174.031250
19339.102447	16892.885833	402.903320	13097.112305
19339.102447	16892.885833	401.628906	13153.797852
19339.102447	16892.885833	400.354492	12837.461914
19339.102447	16892.885833	399.079102	12990.639648
19339.102447	16892.885833	397.803711	12938.681641
19339.102447	16892.885833	396.528320	13072.278320
19339.102447	16892.885833	395.251953	12994.420898
19339.102447	16892.885833	393.976563	13055.265625
19339.102447	16892.885833	392.700195	13068.334961
19339.102447	16892.885833	391.422852	12817.082031
19339.102447	16892.885833	390.145508	13225.680664
19339.102447	16892.885833	388.869141	12993.698242
19339.102447	16892.885833	387.590820	13145.894531
19339.102447	16892.885833	386.313477	13227.425781
19339.102447	16892.885833	385.035156	12975.343750
19339.102447	16892.885833	383.756836	12963.424805
19339.102447	16892.885833	382.478516	13054.012695
19339.102447	16892.885833	381.199219	12883.323242
19339.102447	16892.885833	379.919922	12778.446289
19339.102447	16892.885833	378.640625	12838.041992
19339.102447	16892.885833	377.360352	12385.753906
19339.102447	16892.885833	376.080078	12670.512695
19339.102447	16892.885833	374.799805	12326.247070
19339.102447	16892.885833	373.519531	12768.665039
19339.102447	16892.885833	372.238281	12299.467773
19339.102447	16892.885833	370.957031	12402.582031
19339.102447	16892.885833	369.675781	11979.204102
19339.102447	16892.885833	368.394531	11865.532227
19339.102447	16892.885833	367.112305	11919.956055
19339.102447	16892.885833	365.830078	11505.959961
19339.102447	16892.885833	364.546875	11460.958984
19339.102447	16892.885833	363.264648	11466.805664
19339.102447	16892.885833	361.981445	11261.224609
19339.102447	16892.885833	360.698242	11357.345703
19339.102447	16892.885833	359.414063	11042.406250
19339.102447	16892.885833	358.129883	10763.088867
19339.102447	16892.885833	356.845703	10627.681641
19339.102447	16892.885833	355.561523	10772.519531
19339.102447	16892.885833	354.276367	10117.616211
19339.102447	16892.885833	352.991211	10114.222656
19339.102447	16892.885833	351.706055	9885.731445
19339.102447	16892.885833	350.420898	9940.148438
19339.102447	16892.885833	349.134766	9873.079102
19339.102447	16892.885833	347.848633	9409.532227
19339.102447	16892.885833	346.561523	9498.544922
19339.102447	16892.885833	345.275391	9018.281250
19339.102447	16892.885833	343.988281	8933.200195
19339.102447	16892.885833	342.700195	8602.813477
19339.102447	16892.885833	341.413086	8151.961914
19339.102447	16892.885833	340.125000	8163.142090
19339.102447	16892.885833	338.836914	7637.786621
19339.102447	16892.885833	337.548828	7848.510742
19339.102447	16892.885833	336.259766	7385.489258
19339.102447	16892.885833	334.970703	7174.679199
19339.102447	16892.885833	333.681641	6847.031738
19339.102447	16892.885833	332.391602	6604.044434
19339.102447	16892.885833	331.101563	6385.640137
19339.102447	16892.885833	329.811523	5602.974609
19339.102447	16892.885833	328.521484	5614.742676
19339.102447	16892.885833	327.230469	5161.134277
19339.102447	16892.885833	325.939453	5084.595215
19339.102447	16892.885833	324.648438	4648.546875
19339.102447	16892.885833	323.356445	4352.098145
19339.102447	16892.885833	322.064453	3695.517578
19339.102447	16892.885833	320.772461	3797.728271
19339.102447	16892.885833	319.480469	3500.939209
19339.102447	16892.885833	318.187500	2924.218506
19339.102447	16892.885833	316.894531	2503.229736
19339.102447	16892.885833	315.601563	2157.534424
19339.102447	16892.885833	314.307617	1957.821899
19339.102447	16892.885833	313.013672	2027.867310
19339.102447	16892.885833	311.719727	1121.880981
19339.102447	16892.885833	310.425781	1215.007080
19339.102447	16892.885833	309.130859	783.536926
19339.102447	16892.885833	307.835938	547.846863
19339.102447	16892.885833	306.541016	158.399796
19339.102447	16892.885833	305.245117	-17.288158
19339.102447	16892.885833	303.949219	-3.063534
19339.102447	16892.885833	302.653320	-70.559296
19339.102447	16892.885833	301.356445	-125.531792
19339.102447	16892.885833	300.060547	72.100769
19339.102447	16892.885833	298.763672	-5.760179
