#X		#Y		#Wave		#Intensity
19482.913404	16916.662667	2000.043945	34.239819
19482.913404	16916.662667	1999.080078	-450.581329
19482.913404	16916.662667	1998.116211	246.919785
19482.913404	16916.662667	1997.151367	-79.484810
19482.913404	16916.662667	1996.186523	-356.399872
19482.913404	16916.662667	1995.222656	151.882935
19482.913404	16916.662667	1994.256836	97.611702
19482.913404	16916.662667	1993.291992	298.247772
19482.913404	16916.662667	1992.327148	174.315735
19482.913404	16916.662667	1991.361328	-78.422394
19482.913404	16916.662667	1990.395508	-368.329224
19482.913404	16916.662667	1989.429688	113.773277
19482.913404	16916.662667	1988.463867	31.488827
19482.913404	16916.662667	1987.497070	396.847717
19482.913404	16916.662667	1986.531250	-59.138744
19482.913404	16916.662667	1985.564453	-104.592056
19482.913404	16916.662667	1984.597656	-125.414162
19482.913404	16916.662667	1983.630859	348.017273
19482.913404	16916.662667	1982.664063	430.711121
19482.913404	16916.662667	1981.696289	-62.397751
19482.913404	16916.662667	1980.728516	-135.453690
19482.913404	16916.662667	1979.761719	-77.678955
19482.913404	16916.662667	1978.792969	706.044617
19482.913404	16916.662667	1977.825195	72.189430
19482.913404	16916.662667	1976.857422	159.306503
19482.913404	16916.662667	1975.888672	382.083221
19482.913404	16916.662667	1974.919922	414.710754
19482.913404	16916.662667	1973.951172	133.934845
19482.913404	16916.662667	1972.982422	324.344910
19482.913404	16916.662667	1972.013672	63.307457
19482.913404	16916.662667	1971.043945	263.434631
19482.913404	16916.662667	1970.075195	36.925503
19482.913404	16916.662667	1969.105469	-135.303864
19482.913404	16916.662667	1968.135742	99.112976
19482.913404	16916.662667	1967.165039	397.482727
19482.913404	16916.662667	1966.195313	-95.089470
19482.913404	16916.662667	1965.224609	313.967896
19482.913404	16916.662667	1964.253906	114.591171
19482.913404	16916.662667	1963.283203	-461.447968
19482.913404	16916.662667	1962.312500	447.071228
19482.913404	16916.662667	1961.341797	181.240448
19482.913404	16916.662667	1960.370117	284.607513
19482.913404	16916.662667	1959.399414	648.687378
19482.913404	16916.662667	1958.427734	223.022873
19482.913404	16916.662667	1957.455078	537.779419
19482.913404	16916.662667	1956.483398	240.116302
19482.913404	16916.662667	1955.511719	144.139374
19482.913404	16916.662667	1954.539063	266.958130
19482.913404	16916.662667	1953.566406	70.234627
19482.913404	16916.662667	1952.593750	261.786194
19482.913404	16916.662667	1951.621094	504.844086
19482.913404	16916.662667	1950.647461	160.786880
19482.913404	16916.662667	1949.674805	128.707077
19482.913404	16916.662667	1948.701172	747.278931
19482.913404	16916.662667	1947.727539	-36.074276
19482.913404	16916.662667	1946.753906	388.386108
19482.913404	16916.662667	1945.780273	326.804840
19482.913404	16916.662667	1944.805664	164.661469
19482.913404	16916.662667	1943.831055	483.347778
19482.913404	16916.662667	1942.856445	63.699715
19482.913404	16916.662667	1941.881836	-29.681255
19482.913404	16916.662667	1940.907227	141.735977
19482.913404	16916.662667	1939.932617	-353.634766
19482.913404	16916.662667	1938.957031	352.017517
19482.913404	16916.662667	1937.981445	564.896729
19482.913404	16916.662667	1937.005859	-831.813965
19482.913404	16916.662667	1936.030273	-202.435379
19482.913404	16916.662667	1935.054688	265.070892
19482.913404	16916.662667	1934.078125	125.195168
19482.913404	16916.662667	1933.101563	-9.745646
19482.913404	16916.662667	1932.125000	574.911743
19482.913404	16916.662667	1931.148438	126.682083
19482.913404	16916.662667	1930.171875	-316.501892
19482.913404	16916.662667	1929.194336	30.568390
19482.913404	16916.662667	1928.217773	-224.156128
19482.913404	16916.662667	1927.240234	-104.675377
19482.913404	16916.662667	1926.262695	361.889801
19482.913404	16916.662667	1925.284180	-178.775787
19482.913404	16916.662667	1924.306641	255.813950
19482.913404	16916.662667	1923.328125	-50.114758
19482.913404	16916.662667	1922.350586	86.193687
19482.913404	16916.662667	1921.372070	105.203560
19482.913404	16916.662667	1920.392578	16.737579
19482.913404	16916.662667	1919.414063	77.195938
19482.913404	16916.662667	1918.434570	386.605072
19482.913404	16916.662667	1917.456055	166.228561
19482.913404	16916.662667	1916.476563	-12.602729
19482.913404	16916.662667	1915.497070	67.205055
19482.913404	16916.662667	1914.516602	427.472595
19482.913404	16916.662667	1913.537109	-124.567627
19482.913404	16916.662667	1912.556641	-278.979736
19482.913404	16916.662667	1911.576172	232.173874
19482.913404	16916.662667	1910.595703	-446.393738
19482.913404	16916.662667	1909.615234	-274.239105
19482.913404	16916.662667	1908.633789	-243.506836
19482.913404	16916.662667	1907.653320	-17.968019
19482.913404	16916.662667	1906.671875	22.339828
19482.913404	16916.662667	1905.690430	259.827087
19482.913404	16916.662667	1904.708984	-145.601974
19482.913404	16916.662667	1903.727539	203.683502
19482.913404	16916.662667	1902.745117	2.745383
19482.913404	16916.662667	1901.762695	96.255905
19482.913404	16916.662667	1900.780273	328.341919
19482.913404	16916.662667	1899.797852	-410.279877
19482.913404	16916.662667	1898.815430	300.779053
19482.913404	16916.662667	1897.832031	-211.560471
19482.913404	16916.662667	1896.849609	-64.970695
19482.913404	16916.662667	1895.866211	108.239647
19482.913404	16916.662667	1894.882813	363.930664
19482.913404	16916.662667	1893.898438	376.483704
19482.913404	16916.662667	1892.915039	231.031860
19482.913404	16916.662667	1891.930664	-247.191391
19482.913404	16916.662667	1890.947266	5.607527
19482.913404	16916.662667	1889.962891	-154.517960
19482.913404	16916.662667	1888.977539	-50.066406
19482.913404	16916.662667	1887.993164	-460.290619
19482.913404	16916.662667	1887.007813	-118.215874
19482.913404	16916.662667	1886.023438	-31.121910
19482.913404	16916.662667	1885.038086	-278.889862
19482.913404	16916.662667	1884.051758	-36.768398
19482.913404	16916.662667	1883.066406	-170.688980
19482.913404	16916.662667	1882.081055	-125.275101
19482.913404	16916.662667	1881.094727	99.384483
19482.913404	16916.662667	1880.108398	200.256653
19482.913404	16916.662667	1879.122070	480.268890
19482.913404	16916.662667	1878.135742	-12.709974
19482.913404	16916.662667	1877.148438	388.105835
19482.913404	16916.662667	1876.162109	71.860695
19482.913404	16916.662667	1875.174805	377.839142
19482.913404	16916.662667	1874.187500	80.836914
19482.913404	16916.662667	1873.199219	98.447899
19482.913404	16916.662667	1872.211914	-113.963791
19482.913404	16916.662667	1871.223633	571.135437
19482.913404	16916.662667	1870.236328	-55.178883
19482.913404	16916.662667	1869.248047	-110.650963
19482.913404	16916.662667	1868.258789	-195.248260
19482.913404	16916.662667	1867.270508	63.312740
19482.913404	16916.662667	1866.282227	113.769943
19482.913404	16916.662667	1865.292969	-246.748672
19482.913404	16916.662667	1864.303711	-90.234978
19482.913404	16916.662667	1863.314453	20.168282
19482.913404	16916.662667	1862.324219	-26.602736
19482.913404	16916.662667	1861.334961	126.901390
19482.913404	16916.662667	1860.344727	705.113525
19482.913404	16916.662667	1859.354492	-10.875381
19482.913404	16916.662667	1858.364258	383.401398
19482.913404	16916.662667	1857.374023	-33.382339
19482.913404	16916.662667	1856.383789	-201.693451
19482.913404	16916.662667	1855.392578	97.832878
19482.913404	16916.662667	1854.401367	223.440872
19482.913404	16916.662667	1853.410156	146.292633
19482.913404	16916.662667	1852.418945	191.937042
19482.913404	16916.662667	1851.426758	545.906250
19482.913404	16916.662667	1850.435547	133.247314
19482.913404	16916.662667	1849.443359	-118.008865
19482.913404	16916.662667	1848.451172	8.836201
19482.913404	16916.662667	1847.458984	219.741638
19482.913404	16916.662667	1846.466797	-147.528702
19482.913404	16916.662667	1845.473633	214.626694
19482.913404	16916.662667	1844.480469	427.219604
19482.913404	16916.662667	1843.487305	59.545223
19482.913404	16916.662667	1842.494141	245.226837
19482.913404	16916.662667	1841.500977	151.583099
19482.913404	16916.662667	1840.506836	206.902191
19482.913404	16916.662667	1839.513672	185.044083
19482.913404	16916.662667	1838.519531	381.789734
19482.913404	16916.662667	1837.525391	232.097794
19482.913404	16916.662667	1836.530273	-83.576309
19482.913404	16916.662667	1835.536133	453.711121
19482.913404	16916.662667	1834.541016	322.688812
19482.913404	16916.662667	1833.545898	-279.297028
19482.913404	16916.662667	1832.550781	-28.697016
19482.913404	16916.662667	1831.555664	197.581207
19482.913404	16916.662667	1830.560547	442.766754
19482.913404	16916.662667	1829.564453	-130.846359
19482.913404	16916.662667	1828.568359	437.847137
19482.913404	16916.662667	1827.572266	175.927994
19482.913404	16916.662667	1826.576172	187.363708
19482.913404	16916.662667	1825.580078	124.219498
19482.913404	16916.662667	1824.583008	-478.676392
19482.913404	16916.662667	1823.585938	-33.838577
19482.913404	16916.662667	1822.588867	-49.639275
19482.913404	16916.662667	1821.591797	286.643097
19482.913404	16916.662667	1820.594727	418.894165
19482.913404	16916.662667	1819.596680	373.581909
19482.913404	16916.662667	1818.599609	-179.748428
19482.913404	16916.662667	1817.601563	126.640648
19482.913404	16916.662667	1816.603516	152.540985
19482.913404	16916.662667	1815.604492	22.591640
19482.913404	16916.662667	1814.606445	452.527252
19482.913404	16916.662667	1813.607422	207.228226
19482.913404	16916.662667	1812.608398	26.385864
19482.913404	16916.662667	1811.609375	-247.922470
19482.913404	16916.662667	1810.610352	-70.342041
19482.913404	16916.662667	1809.610352	47.151752
19482.913404	16916.662667	1808.611328	704.671509
19482.913404	16916.662667	1807.611328	219.130280
19482.913404	16916.662667	1806.611328	249.736511
19482.913404	16916.662667	1805.610352	22.029638
19482.913404	16916.662667	1804.610352	90.397728
19482.913404	16916.662667	1803.609375	172.822342
19482.913404	16916.662667	1802.608398	235.864639
19482.913404	16916.662667	1801.607422	312.961700
19482.913404	16916.662667	1800.606445	277.589722
19482.913404	16916.662667	1799.605469	-187.626663
19482.913404	16916.662667	1798.603516	51.026371
19482.913404	16916.662667	1797.601563	115.177719
19482.913404	16916.662667	1796.599609	-23.700193
19482.913404	16916.662667	1795.597656	152.029160
19482.913404	16916.662667	1794.595703	210.607788
19482.913404	16916.662667	1793.592773	-57.700718
19482.913404	16916.662667	1792.589844	-159.309067
19482.913404	16916.662667	1791.587891	-292.101624
19482.913404	16916.662667	1790.583984	103.836220
19482.913404	16916.662667	1789.581055	-19.937469
19482.913404	16916.662667	1788.577148	-122.486794
19482.913404	16916.662667	1787.574219	-139.516571
19482.913404	16916.662667	1786.570313	-280.599579
19482.913404	16916.662667	1785.566406	346.986176
19482.913404	16916.662667	1784.561523	-61.200611
19482.913404	16916.662667	1783.557617	54.012230
19482.913404	16916.662667	1782.552734	-268.820923
19482.913404	16916.662667	1781.547852	390.573822
19482.913404	16916.662667	1780.542969	95.833580
19482.913404	16916.662667	1779.538086	-168.131149
19482.913404	16916.662667	1778.532227	197.705765
19482.913404	16916.662667	1777.527344	59.289188
19482.913404	16916.662667	1776.521484	346.026276
19482.913404	16916.662667	1775.515625	-201.530029
19482.913404	16916.662667	1774.508789	122.645607
19482.913404	16916.662667	1773.502930	-175.781219
19482.913404	16916.662667	1772.496094	487.325409
19482.913404	16916.662667	1771.489258	321.378876
19482.913404	16916.662667	1770.482422	257.317352
19482.913404	16916.662667	1769.475586	-60.897465
19482.913404	16916.662667	1768.467773	52.586693
19482.913404	16916.662667	1767.460938	474.184540
19482.913404	16916.662667	1766.453125	549.084106
19482.913404	16916.662667	1765.445313	66.438614
19482.913404	16916.662667	1764.437500	517.874023
19482.913404	16916.662667	1763.428711	205.589233
19482.913404	16916.662667	1762.420898	175.228043
19482.913404	16916.662667	1761.412109	139.886505
19482.913404	16916.662667	1760.403320	-66.261292
19482.913404	16916.662667	1759.393555	208.256302
19482.913404	16916.662667	1758.384766	319.038086
19482.913404	16916.662667	1757.375000	232.998810
19482.913404	16916.662667	1756.366211	130.203033
19482.913404	16916.662667	1755.356445	228.377182
19482.913404	16916.662667	1754.345703	113.287460
19482.913404	16916.662667	1753.335938	121.054573
19482.913404	16916.662667	1752.325195	97.817772
19482.913404	16916.662667	1751.315430	180.800247
19482.913404	16916.662667	1750.304688	38.870949
19482.913404	16916.662667	1749.292969	-65.426399
19482.913404	16916.662667	1748.282227	-420.445374
19482.913404	16916.662667	1747.270508	-312.372864
19482.913404	16916.662667	1746.259766	-164.381851
19482.913404	16916.662667	1745.248047	-304.898346
19482.913404	16916.662667	1744.235352	-580.226013
19482.913404	16916.662667	1743.223633	-85.817863
19482.913404	16916.662667	1742.211914	-217.485855
19482.913404	16916.662667	1741.199219	162.902481
19482.913404	16916.662667	1740.186523	-18.774609
19482.913404	16916.662667	1739.173828	-448.363068
19482.913404	16916.662667	1738.160156	-203.285553
19482.913404	16916.662667	1737.147461	17.917723
19482.913404	16916.662667	1736.133789	278.899506
19482.913404	16916.662667	1735.120117	-5.089700
19482.913404	16916.662667	1734.106445	-164.231644
19482.913404	16916.662667	1733.091797	-177.410736
19482.913404	16916.662667	1732.078125	-497.110443
19482.913404	16916.662667	1731.063477	-126.589897
19482.913404	16916.662667	1730.048828	179.992310
19482.913404	16916.662667	1729.034180	-321.557129
19482.913404	16916.662667	1728.019531	-159.087738
19482.913404	16916.662667	1727.003906	-220.547363
19482.913404	16916.662667	1725.988281	14.406242
19482.913404	16916.662667	1724.972656	-339.259949
19482.913404	16916.662667	1723.957031	-271.809448
19482.913404	16916.662667	1722.941406	-404.525208
19482.913404	16916.662667	1721.924805	234.054352
19482.913404	16916.662667	1720.909180	162.067123
19482.913404	16916.662667	1719.892578	111.062950
19482.913404	16916.662667	1718.875977	50.498726
19482.913404	16916.662667	1717.858398	-160.648849
19482.913404	16916.662667	1716.841797	269.611084
19482.913404	16916.662667	1715.824219	394.104492
19482.913404	16916.662667	1714.806641	166.054688
19482.913404	16916.662667	1713.789063	210.342941
19482.913404	16916.662667	1712.770508	421.128906
19482.913404	16916.662667	1711.752930	364.080872
19482.913404	16916.662667	1710.734375	149.617188
19482.913404	16916.662667	1709.715820	298.805756
19482.913404	16916.662667	1708.697266	560.395142
19482.913404	16916.662667	1707.678711	272.841034
19482.913404	16916.662667	1706.659180	245.544556
19482.913404	16916.662667	1705.640625	365.855438
19482.913404	16916.662667	1704.621094	174.155457
19482.913404	16916.662667	1703.600586	502.708496
19482.913404	16916.662667	1702.581055	875.544861
19482.913404	16916.662667	1701.561523	1077.061523
19482.913404	16916.662667	1700.541016	1212.749146
19482.913404	16916.662667	1699.520508	832.989319
19482.913404	16916.662667	1698.500000	1008.218506
19482.913404	16916.662667	1697.478516	1246.442505
19482.913404	16916.662667	1696.458008	1159.110962
19482.913404	16916.662667	1695.436523	1066.982544
19482.913404	16916.662667	1694.415039	1379.568726
19482.913404	16916.662667	1693.393555	1504.762939
19482.913404	16916.662667	1692.372070	1246.208740
19482.913404	16916.662667	1691.349609	1462.333130
19482.913404	16916.662667	1690.327148	1837.253540
19482.913404	16916.662667	1689.304688	1510.644775
19482.913404	16916.662667	1688.282227	1894.552612
19482.913404	16916.662667	1687.259766	1981.452515
19482.913404	16916.662667	1686.236328	2114.919922
19482.913404	16916.662667	1685.213867	2409.441895
19482.913404	16916.662667	1684.190430	2323.068115
19482.913404	16916.662667	1683.166016	2390.715576
19482.913404	16916.662667	1682.142578	2413.926514
19482.913404	16916.662667	1681.119141	2689.115723
19482.913404	16916.662667	1680.094727	2919.756836
19482.913404	16916.662667	1679.070313	2851.593262
19482.913404	16916.662667	1678.045898	2799.709717
19482.913404	16916.662667	1677.020508	3062.603271
19482.913404	16916.662667	1675.996094	2891.641113
19482.913404	16916.662667	1674.970703	3119.309326
19482.913404	16916.662667	1673.945313	2535.687988
19482.913404	16916.662667	1672.919922	2891.389404
19482.913404	16916.662667	1671.893555	3025.523438
19482.913404	16916.662667	1670.868164	3294.696045
19482.913404	16916.662667	1669.841797	2466.694092
19482.913404	16916.662667	1668.815430	3054.765381
19482.913404	16916.662667	1667.789063	2695.003174
19482.913404	16916.662667	1666.761719	3152.341064
19482.913404	16916.662667	1665.735352	3174.291992
19482.913404	16916.662667	1664.708008	3082.161865
19482.913404	16916.662667	1663.680664	2843.472168
19482.913404	16916.662667	1662.653320	3321.230225
19482.913404	16916.662667	1661.625000	3670.854248
19482.913404	16916.662667	1660.597656	3392.591309
19482.913404	16916.662667	1659.569336	3948.911621
19482.913404	16916.662667	1658.541016	4221.458008
19482.913404	16916.662667	1657.512695	3910.647217
19482.913404	16916.662667	1656.483398	3964.667725
19482.913404	16916.662667	1655.455078	4248.637695
19482.913404	16916.662667	1654.425781	4058.718262
19482.913404	16916.662667	1653.396484	4382.009766
19482.913404	16916.662667	1652.366211	4533.364258
19482.913404	16916.662667	1651.336914	4478.129395
19482.913404	16916.662667	1650.306641	4764.015137
19482.913404	16916.662667	1649.276367	5003.401855
19482.913404	16916.662667	1648.246094	5196.323730
19482.913404	16916.662667	1647.215820	5145.671387
19482.913404	16916.662667	1646.185547	5479.974609
19482.913404	16916.662667	1645.154297	5350.492676
19482.913404	16916.662667	1644.123047	5902.535156
19482.913404	16916.662667	1643.091797	6227.290039
19482.913404	16916.662667	1642.060547	6005.158203
19482.913404	16916.662667	1641.028320	5618.656738
19482.913404	16916.662667	1639.997070	6161.105469
19482.913404	16916.662667	1638.964844	6562.112793
19482.913404	16916.662667	1637.931641	6064.712891
19482.913404	16916.662667	1636.899414	6764.277344
19482.913404	16916.662667	1635.867188	6618.931641
19482.913404	16916.662667	1634.833984	6003.974121
19482.913404	16916.662667	1633.800781	6606.136719
19482.913404	16916.662667	1632.767578	6470.316895
19482.913404	16916.662667	1631.734375	6556.616211
19482.913404	16916.662667	1630.700195	6622.117188
19482.913404	16916.662667	1629.666016	7279.427734
19482.913404	16916.662667	1628.631836	7072.206055
19482.913404	16916.662667	1627.597656	7371.182617
19482.913404	16916.662667	1626.563477	7291.254883
19482.913404	16916.662667	1625.528320	7978.260742
19482.913404	16916.662667	1624.493164	7905.330078
19482.913404	16916.662667	1623.458008	8197.317383
19482.913404	16916.662667	1622.422852	8567.781250
19482.913404	16916.662667	1621.387695	8852.805664
19482.913404	16916.662667	1620.351563	9070.877930
19482.913404	16916.662667	1619.315430	9046.736328
19482.913404	16916.662667	1618.279297	9322.572266
19482.913404	16916.662667	1617.243164	9402.391602
19482.913404	16916.662667	1616.207031	9629.863281
19482.913404	16916.662667	1615.169922	9608.375000
19482.913404	16916.662667	1614.132813	9937.349609
19482.913404	16916.662667	1613.095703	10052.020508
19482.913404	16916.662667	1612.058594	10192.117188
19482.913404	16916.662667	1611.020508	10677.787109
19482.913404	16916.662667	1609.983398	10541.619141
19482.913404	16916.662667	1608.945313	10320.418945
19482.913404	16916.662667	1607.907227	10919.007813
19482.913404	16916.662667	1606.868164	11291.921875
19482.913404	16916.662667	1605.830078	12067.576172
19482.913404	16916.662667	1604.791016	12049.288086
19482.913404	16916.662667	1603.751953	11985.162109
19482.913404	16916.662667	1602.712891	12509.982422
19482.913404	16916.662667	1601.673828	13083.047852
19482.913404	16916.662667	1600.633789	12812.309570
19482.913404	16916.662667	1599.594727	13079.719727
19482.913404	16916.662667	1598.554688	13255.253906
19482.913404	16916.662667	1597.513672	13253.955078
19482.913404	16916.662667	1596.473633	12747.476563
19482.913404	16916.662667	1595.433594	12599.660156
19482.913404	16916.662667	1594.392578	12803.395508
19482.913404	16916.662667	1593.351563	12798.322266
19482.913404	16916.662667	1592.310547	12435.349609
19482.913404	16916.662667	1591.268555	12272.359375
19482.913404	16916.662667	1590.227539	11737.932617
19482.913404	16916.662667	1589.185547	11561.776367
19482.913404	16916.662667	1588.143555	11895.060547
19482.913404	16916.662667	1587.100586	11033.666992
19482.913404	16916.662667	1586.058594	11050.942383
19482.913404	16916.662667	1585.015625	10956.078125
19482.913404	16916.662667	1583.972656	9814.115234
19482.913404	16916.662667	1582.929688	10182.818359
19482.913404	16916.662667	1581.886719	9614.611328
19482.913404	16916.662667	1580.843750	9424.774414
19482.913404	16916.662667	1579.799805	9546.660156
19482.913404	16916.662667	1578.755859	9245.157227
19482.913404	16916.662667	1577.711914	9191.228516
19482.913404	16916.662667	1576.666992	9416.752930
19482.913404	16916.662667	1575.623047	8937.671875
19482.913404	16916.662667	1574.578125	9101.858398
19482.913404	16916.662667	1573.533203	8481.673828
19482.913404	16916.662667	1572.488281	9016.848633
19482.913404	16916.662667	1571.443359	8205.352539
19482.913404	16916.662667	1570.397461	8900.871094
19482.913404	16916.662667	1569.351563	8721.008789
19482.913404	16916.662667	1568.305664	8509.481445
19482.913404	16916.662667	1567.259766	8714.094727
19482.913404	16916.662667	1566.213867	8786.407227
19482.913404	16916.662667	1565.166992	8710.499023
19482.913404	16916.662667	1564.120117	9260.502930
19482.913404	16916.662667	1563.073242	9004.714844
19482.913404	16916.662667	1562.026367	9847.128906
19482.913404	16916.662667	1560.978516	9023.656250
19482.913404	16916.662667	1559.930664	9800.111328
19482.913404	16916.662667	1558.883789	9130.361328
19482.913404	16916.662667	1557.834961	9644.759766
19482.913404	16916.662667	1556.787109	9384.006836
19482.913404	16916.662667	1555.739258	8416.930664
19482.913404	16916.662667	1554.690430	8715.495117
19482.913404	16916.662667	1553.641602	8522.007813
19482.913404	16916.662667	1552.592773	8144.344727
19482.913404	16916.662667	1551.542969	7404.924805
19482.913404	16916.662667	1550.494141	7700.070801
19482.913404	16916.662667	1549.444336	7070.920898
19482.913404	16916.662667	1548.394531	6904.464355
19482.913404	16916.662667	1547.344727	6358.265137
19482.913404	16916.662667	1546.293945	6194.891113
19482.913404	16916.662667	1545.244141	5849.877441
19482.913404	16916.662667	1544.193359	5846.520996
19482.913404	16916.662667	1543.142578	5845.750977
19482.913404	16916.662667	1542.090820	5788.440430
19482.913404	16916.662667	1541.040039	5613.254883
19482.913404	16916.662667	1539.988281	5120.235840
19482.913404	16916.662667	1538.936523	5454.936523
19482.913404	16916.662667	1537.884766	4910.525391
19482.913404	16916.662667	1536.833008	5182.177246
19482.913404	16916.662667	1535.780273	4715.902832
19482.913404	16916.662667	1534.727539	4879.136230
19482.913404	16916.662667	1533.674805	4327.492676
19482.913404	16916.662667	1532.622070	4709.305664
19482.913404	16916.662667	1531.569336	4374.174805
19482.913404	16916.662667	1530.515625	4377.580566
19482.913404	16916.662667	1529.461914	4229.331543
19482.913404	16916.662667	1528.408203	4641.690430
19482.913404	16916.662667	1527.354492	4353.541504
19482.913404	16916.662667	1526.299805	4564.617676
19482.913404	16916.662667	1525.246094	4177.547852
19482.913404	16916.662667	1524.191406	4094.655762
19482.913404	16916.662667	1523.136719	3647.348145
19482.913404	16916.662667	1522.081055	3594.738037
19482.913404	16916.662667	1521.026367	3537.971191
19482.913404	16916.662667	1519.970703	3610.655029
19482.913404	16916.662667	1518.915039	3212.749756
19482.913404	16916.662667	1517.859375	3014.549561
19482.913404	16916.662667	1516.802734	3611.145020
19482.913404	16916.662667	1515.747070	3062.948730
19482.913404	16916.662667	1514.690430	2951.941650
19482.913404	16916.662667	1513.633789	3105.965576
19482.913404	16916.662667	1512.577148	3007.024902
19482.913404	16916.662667	1511.519531	3371.970215
19482.913404	16916.662667	1510.461914	3151.688477
19482.913404	16916.662667	1509.405273	3379.334717
19482.913404	16916.662667	1508.346680	2965.553223
19482.913404	16916.662667	1507.289063	2574.892822
19482.913404	16916.662667	1506.231445	2476.126465
19482.913404	16916.662667	1505.172852	2725.539551
19482.913404	16916.662667	1504.114258	2539.478027
19482.913404	16916.662667	1503.055664	2071.704346
19482.913404	16916.662667	1501.996094	2137.114502
19482.913404	16916.662667	1500.937500	2087.790283
19482.913404	16916.662667	1499.877930	1917.050659
19482.913404	16916.662667	1498.818359	1965.543945
19482.913404	16916.662667	1497.757813	1457.401855
19482.913404	16916.662667	1496.698242	1330.863525
19482.913404	16916.662667	1495.637695	1303.953491
19482.913404	16916.662667	1494.577148	826.689819
19482.913404	16916.662667	1493.516602	345.491089
19482.913404	16916.662667	1492.456055	986.779724
19482.913404	16916.662667	1491.394531	224.970520
19482.913404	16916.662667	1490.333008	556.040955
19482.913404	16916.662667	1489.271484	515.870422
19482.913404	16916.662667	1488.209961	761.986633
19482.913404	16916.662667	1487.148438	294.956421
19482.913404	16916.662667	1486.085938	487.797760
19482.913404	16916.662667	1485.023438	487.482330
19482.913404	16916.662667	1483.960938	748.471375
19482.913404	16916.662667	1482.898438	1146.929199
19482.913404	16916.662667	1481.834961	1044.269531
19482.913404	16916.662667	1480.772461	1052.185425
19482.913404	16916.662667	1479.708984	1226.824951
19482.913404	16916.662667	1478.644531	1343.384521
19482.913404	16916.662667	1477.581055	1255.886719
19482.913404	16916.662667	1476.517578	865.679749
19482.913404	16916.662667	1475.453125	1371.968384
19482.913404	16916.662667	1474.388672	1743.529053
19482.913404	16916.662667	1473.323242	2095.465820
19482.913404	16916.662667	1472.258789	2346.273682
19482.913404	16916.662667	1471.193359	2314.934814
19482.913404	16916.662667	1470.127930	2418.544434
19482.913404	16916.662667	1469.062500	2802.637207
19482.913404	16916.662667	1467.997070	3158.353516
19482.913404	16916.662667	1466.930664	2584.604492
19482.913404	16916.662667	1465.865234	2992.212646
19482.913404	16916.662667	1464.798828	2892.277588
19482.913404	16916.662667	1463.731445	3363.795654
19482.913404	16916.662667	1462.665039	2647.916260
19482.913404	16916.662667	1461.597656	3049.900391
19482.913404	16916.662667	1460.530273	3791.034912
19482.913404	16916.662667	1459.462891	3497.319824
19482.913404	16916.662667	1458.395508	3950.886963
19482.913404	16916.662667	1457.327148	3524.962891
19482.913404	16916.662667	1456.259766	3255.375488
19482.913404	16916.662667	1455.191406	3707.608887
19482.913404	16916.662667	1454.123047	3079.209473
19482.913404	16916.662667	1453.053711	3230.076416
19482.913404	16916.662667	1451.985352	3165.620605
19482.913404	16916.662667	1450.916016	3114.563721
19482.913404	16916.662667	1449.846680	2808.731445
19482.913404	16916.662667	1448.776367	2447.247314
19482.913404	16916.662667	1447.707031	1954.940918
19482.913404	16916.662667	1446.636719	2062.743408
19482.913404	16916.662667	1445.566406	1965.315430
19482.913404	16916.662667	1444.496094	1956.112793
19482.913404	16916.662667	1443.425781	2017.963135
19482.913404	16916.662667	1442.354492	1740.995361
19482.913404	16916.662667	1441.283203	904.270874
19482.913404	16916.662667	1440.211914	1398.944824
19482.913404	16916.662667	1439.140625	777.559265
19482.913404	16916.662667	1438.069336	956.808533
19482.913404	16916.662667	1436.997070	1061.557739
19482.913404	16916.662667	1435.924805	1227.776367
19482.913404	16916.662667	1434.852539	940.064941
19482.913404	16916.662667	1433.780273	191.672287
19482.913404	16916.662667	1432.707031	20.781244
19482.913404	16916.662667	1431.633789	384.230835
19482.913404	16916.662667	1430.560547	-175.866791
19482.913404	16916.662667	1429.487305	-312.118347
19482.913404	16916.662667	1428.413086	149.121140
19482.913404	16916.662667	1427.339844	42.616940
19482.913404	16916.662667	1426.265625	-161.859009
19482.913404	16916.662667	1425.191406	-121.059715
19482.913404	16916.662667	1424.116211	354.371979
19482.913404	16916.662667	1423.041992	87.761040
19482.913404	16916.662667	1421.966797	279.338989
19482.913404	16916.662667	1420.891602	-107.656403
19482.913404	16916.662667	1419.816406	184.097610
19482.913404	16916.662667	1418.740234	-35.255135
19482.913404	16916.662667	1417.665039	90.837341
19482.913404	16916.662667	1416.588867	-14.468361
19482.913404	16916.662667	1415.512695	-88.088631
19482.913404	16916.662667	1414.435547	123.070770
19482.913404	16916.662667	1413.359375	-293.780731
19482.913404	16916.662667	1412.282227	-295.816040
19482.913404	16916.662667	1411.205078	-351.199097
19482.913404	16916.662667	1410.127930	-106.954987
19482.913404	16916.662667	1409.049805	-159.491898
19482.913404	16916.662667	1407.972656	-260.283386
19482.913404	16916.662667	1406.894531	-122.612663
19482.913404	16916.662667	1405.816406	271.327362
19482.913404	16916.662667	1404.737305	365.281982
19482.913404	16916.662667	1403.659180	140.716446
19482.913404	16916.662667	1402.580078	616.885132
19482.913404	16916.662667	1401.500977	491.574188
19482.913404	16916.662667	1400.421875	300.543488
19482.913404	16916.662667	1399.341797	728.094421
19482.913404	16916.662667	1398.262695	678.228088
19482.913404	16916.662667	1397.182617	1024.405029
19482.913404	16916.662667	1396.102539	730.585388
19482.913404	16916.662667	1395.021484	1093.185059
19482.913404	16916.662667	1393.941406	851.929260
19482.913404	16916.662667	1392.860352	770.140076
19482.913404	16916.662667	1391.779297	825.542175
19482.913404	16916.662667	1390.698242	1371.152954
19482.913404	16916.662667	1389.616211	1726.155273
19482.913404	16916.662667	1388.535156	1434.138428
19482.913404	16916.662667	1387.453125	1513.536621
19482.913404	16916.662667	1386.371094	1517.545776
19482.913404	16916.662667	1385.288086	1390.185547
19482.913404	16916.662667	1384.206055	1513.941406
19482.913404	16916.662667	1383.123047	1520.585693
19482.913404	16916.662667	1382.040039	1081.180176
19482.913404	16916.662667	1380.957031	1326.351563
19482.913404	16916.662667	1379.873047	1047.249634
19482.913404	16916.662667	1378.789063	788.115051
19482.913404	16916.662667	1377.705078	896.879028
19482.913404	16916.662667	1376.621094	735.238525
19482.913404	16916.662667	1375.537109	987.112915
19482.913404	16916.662667	1374.452148	427.708099
19482.913404	16916.662667	1373.367188	548.020996
19482.913404	16916.662667	1372.282227	-59.849224
19482.913404	16916.662667	1371.197266	813.989502
19482.913404	16916.662667	1370.112305	440.612946
19482.913404	16916.662667	1369.026367	868.114624
19482.913404	16916.662667	1367.940430	821.681702
19482.913404	16916.662667	1366.854492	399.057648
19482.913404	16916.662667	1365.767578	611.282227
19482.913404	16916.662667	1364.681641	1091.085083
19482.913404	16916.662667	1363.594727	688.653870
19482.913404	16916.662667	1362.507813	769.182007
19482.913404	16916.662667	1361.419922	853.311646
19482.913404	16916.662667	1360.333008	988.993225
19482.913404	16916.662667	1359.245117	715.962952
19482.913404	16916.662667	1358.157227	1272.600830
19482.913404	16916.662667	1357.069336	826.638733
19482.913404	16916.662667	1355.981445	976.577698
19482.913404	16916.662667	1354.892578	762.244751
19482.913404	16916.662667	1353.803711	766.483887
19482.913404	16916.662667	1352.714844	867.561890
19482.913404	16916.662667	1351.625000	858.481995
19482.913404	16916.662667	1350.536133	847.061829
19482.913404	16916.662667	1349.446289	1048.349854
19482.913404	16916.662667	1348.356445	1045.536621
19482.913404	16916.662667	1347.266602	1021.052856
19482.913404	16916.662667	1346.175781	1083.012207
19482.913404	16916.662667	1345.085938	1200.788818
19482.913404	16916.662667	1343.995117	1470.194702
19482.913404	16916.662667	1342.903320	1467.575439
19482.913404	16916.662667	1341.812500	1662.870117
19482.913404	16916.662667	1340.720703	1817.423340
19482.913404	16916.662667	1339.629883	1722.177612
19482.913404	16916.662667	1338.538086	2169.493652
19482.913404	16916.662667	1337.445313	2171.385010
19482.913404	16916.662667	1336.353516	2465.937256
19482.913404	16916.662667	1335.260742	2143.227295
19482.913404	16916.662667	1334.167969	2362.728027
19482.913404	16916.662667	1333.075195	2663.702148
19482.913404	16916.662667	1331.981445	2744.636719
19482.913404	16916.662667	1330.888672	2645.572754
19482.913404	16916.662667	1329.794922	2690.350586
19482.913404	16916.662667	1328.701172	2738.801270
19482.913404	16916.662667	1327.606445	2608.033691
19482.913404	16916.662667	1326.512695	2453.700928
19482.913404	16916.662667	1325.417969	2739.156006
19482.913404	16916.662667	1324.323242	2867.639648
19482.913404	16916.662667	1323.227539	2812.909912
19482.913404	16916.662667	1322.132813	2718.485596
19482.913404	16916.662667	1321.037109	2959.177979
19482.913404	16916.662667	1319.941406	2860.071289
19482.913404	16916.662667	1318.845703	2976.244385
19482.913404	16916.662667	1317.750000	3033.416992
19482.913404	16916.662667	1316.653320	2799.706787
19482.913404	16916.662667	1315.556641	3015.154541
19482.913404	16916.662667	1314.459961	2710.210205
19482.913404	16916.662667	1313.363281	2607.132813
19482.913404	16916.662667	1312.265625	2204.055908
19482.913404	16916.662667	1311.167969	2664.566406
19482.913404	16916.662667	1310.070313	2585.145752
19482.913404	16916.662667	1308.972656	2030.548706
19482.913404	16916.662667	1307.874023	1751.812012
19482.913404	16916.662667	1306.776367	1747.161987
19482.913404	16916.662667	1305.677734	1879.526611
19482.913404	16916.662667	1304.579102	1365.187256
19482.913404	16916.662667	1303.479492	1275.067871
19482.913404	16916.662667	1302.380859	1268.913452
19482.913404	16916.662667	1301.281250	1516.172363
19482.913404	16916.662667	1300.181641	1016.500549
19482.913404	16916.662667	1299.081055	1218.306641
19482.913404	16916.662667	1297.981445	725.088806
19482.913404	16916.662667	1296.880859	651.456238
19482.913404	16916.662667	1295.780273	550.095947
19482.913404	16916.662667	1294.679688	856.950256
19482.913404	16916.662667	1293.578125	556.080261
19482.913404	16916.662667	1292.476563	742.180664
19482.913404	16916.662667	1291.375000	244.709381
19482.913404	16916.662667	1290.273438	388.116455
19482.913404	16916.662667	1289.171875	209.273895
19482.913404	16916.662667	1288.069336	34.223698
19482.913404	16916.662667	1286.966797	175.535141
19482.913404	16916.662667	1285.864258	395.283325
19482.913404	16916.662667	1284.761719	193.176208
19482.913404	16916.662667	1283.658203	468.755981
19482.913404	16916.662667	1282.554688	922.189331
19482.913404	16916.662667	1281.451172	473.555389
19482.913404	16916.662667	1280.347656	485.870605
19482.913404	16916.662667	1279.244141	904.413269
19482.913404	16916.662667	1278.139648	786.831238
19482.913404	16916.662667	1277.035156	945.482544
19482.913404	16916.662667	1275.930664	1085.571167
19482.913404	16916.662667	1274.825195	1199.666870
19482.913404	16916.662667	1273.720703	1213.863525
19482.913404	16916.662667	1272.615234	1204.327026
19482.913404	16916.662667	1271.508789	1501.562378
19482.913404	16916.662667	1270.403320	1787.292114
19482.913404	16916.662667	1269.297852	2128.046875
19482.913404	16916.662667	1268.191406	1912.510010
19482.913404	16916.662667	1267.084961	1952.234741
19482.913404	16916.662667	1265.977539	2099.517578
19482.913404	16916.662667	1264.871094	2167.514160
19482.913404	16916.662667	1263.763672	2323.293701
19482.913404	16916.662667	1262.656250	2423.123779
19482.913404	16916.662667	1261.548828	2605.927490
19482.913404	16916.662667	1260.440430	2776.403809
19482.913404	16916.662667	1259.333008	2989.270996
19482.913404	16916.662667	1258.224609	2611.984619
19482.913404	16916.662667	1257.115234	3028.147461
19482.913404	16916.662667	1256.006836	2915.247314
19482.913404	16916.662667	1254.897461	3241.017090
19482.913404	16916.662667	1253.788086	3052.892822
19482.913404	16916.662667	1252.678711	2886.535889
19482.913404	16916.662667	1251.569336	2796.314209
19482.913404	16916.662667	1250.458984	2690.458252
19482.913404	16916.662667	1249.349609	2456.346680
19482.913404	16916.662667	1248.239258	2142.677490
19482.913404	16916.662667	1247.127930	1891.865234
19482.913404	16916.662667	1246.017578	1804.664551
19482.913404	16916.662667	1244.906250	1599.319336
19482.913404	16916.662667	1243.794922	1526.496460
19482.913404	16916.662667	1242.683594	1251.681396
19482.913404	16916.662667	1241.571289	1011.092590
19482.913404	16916.662667	1240.459961	1181.988525
19482.913404	16916.662667	1239.347656	982.124573
19482.913404	16916.662667	1238.234375	944.443420
19482.913404	16916.662667	1237.122070	861.367981
19482.913404	16916.662667	1236.008789	1029.899658
19482.913404	16916.662667	1234.896484	1188.543579
19482.913404	16916.662667	1233.782227	1219.666016
19482.913404	16916.662667	1232.668945	1160.801758
19482.913404	16916.662667	1231.555664	868.071350
19482.913404	16916.662667	1230.441406	1043.212036
19482.913404	16916.662667	1229.327148	994.899170
19482.913404	16916.662667	1228.211914	1157.854370
19482.913404	16916.662667	1227.097656	1042.978394
19482.913404	16916.662667	1225.982422	1067.556885
19482.913404	16916.662667	1224.867188	852.831787
19482.913404	16916.662667	1223.751953	1100.738281
19482.913404	16916.662667	1222.635742	736.388184
19482.913404	16916.662667	1221.520508	935.503540
19482.913404	16916.662667	1220.404297	975.521362
19482.913404	16916.662667	1219.287109	816.235901
19482.913404	16916.662667	1218.170898	859.397034
19482.913404	16916.662667	1217.053711	691.257813
19482.913404	16916.662667	1215.936523	685.139282
19482.913404	16916.662667	1214.819336	860.402466
19482.913404	16916.662667	1213.702148	748.591919
19482.913404	16916.662667	1212.583984	635.631226
19482.913404	16916.662667	1211.465820	504.435852
19482.913404	16916.662667	1210.347656	688.097168
19482.913404	16916.662667	1209.229492	478.577881
19482.913404	16916.662667	1208.110352	187.695770
19482.913404	16916.662667	1206.992188	571.054626
19482.913404	16916.662667	1205.873047	148.753036
19482.913404	16916.662667	1204.752930	342.503418
19482.913404	16916.662667	1203.633789	-60.890503
19482.913404	16916.662667	1202.513672	-86.811180
19482.913404	16916.662667	1201.393555	47.954788
19482.913404	16916.662667	1200.273438	42.752987
19482.913404	16916.662667	1199.152344	-78.470703
19482.913404	16916.662667	1198.032227	-32.239311
19482.913404	16916.662667	1196.911133	-231.166931
19482.913404	16916.662667	1195.790039	-129.820679
19482.913404	16916.662667	1194.667969	-27.829327
19482.913404	16916.662667	1193.545898	116.818413
19482.913404	16916.662667	1192.424805	274.556305
19482.913404	16916.662667	1191.301758	-333.080872
19482.913404	16916.662667	1190.179688	-59.573101
19482.913404	16916.662667	1189.056641	19.694229
19482.913404	16916.662667	1187.933594	-91.782410
19482.913404	16916.662667	1186.810547	67.522514
19482.913404	16916.662667	1185.687500	281.142334
19482.913404	16916.662667	1184.563477	80.775307
19482.913404	16916.662667	1183.440430	232.273376
19482.913404	16916.662667	1182.316406	21.280800
19482.913404	16916.662667	1181.191406	280.748505
19482.913404	16916.662667	1180.067383	545.759949
19482.913404	16916.662667	1178.942383	338.048279
19482.913404	16916.662667	1177.817383	691.857666
19482.913404	16916.662667	1176.692383	415.034088
19482.913404	16916.662667	1175.566406	557.997375
19482.913404	16916.662667	1174.440430	720.128906
19482.913404	16916.662667	1173.314453	922.345154
19482.913404	16916.662667	1172.188477	793.234253
19482.913404	16916.662667	1171.062500	1065.165894
19482.913404	16916.662667	1169.935547	1029.078735
19482.913404	16916.662667	1168.808594	1136.503540
19482.913404	16916.662667	1167.681641	1095.048096
19482.913404	16916.662667	1166.553711	1465.271729
19482.913404	16916.662667	1165.426758	1500.969604
19482.913404	16916.662667	1164.298828	1490.128418
19482.913404	16916.662667	1163.170898	955.569336
19482.913404	16916.662667	1162.041992	1362.346802
19482.913404	16916.662667	1160.914063	1235.554321
19482.913404	16916.662667	1159.785156	1219.286987
19482.913404	16916.662667	1158.656250	1085.667236
19482.913404	16916.662667	1157.526367	1282.838867
19482.913404	16916.662667	1156.397461	859.818665
19482.913404	16916.662667	1155.267578	763.927063
19482.913404	16916.662667	1154.137695	598.705139
19482.913404	16916.662667	1153.006836	471.944672
19482.913404	16916.662667	1151.876953	771.671814
19482.913404	16916.662667	1150.746094	593.549194
19482.913404	16916.662667	1149.615234	373.126648
19482.913404	16916.662667	1148.484375	489.649231
19482.913404	16916.662667	1147.352539	611.505493
19482.913404	16916.662667	1146.220703	664.195129
19482.913404	16916.662667	1145.088867	367.267883
19482.913404	16916.662667	1143.957031	407.633026
19482.913404	16916.662667	1142.825195	203.195847
19482.913404	16916.662667	1141.692383	257.258209
19482.913404	16916.662667	1140.559570	428.016113
19482.913404	16916.662667	1139.426758	332.976532
19482.913404	16916.662667	1138.292969	406.569672
19482.913404	16916.662667	1137.159180	-208.851547
19482.913404	16916.662667	1136.025391	48.450405
19482.913404	16916.662667	1134.891602	-228.951019
19482.913404	16916.662667	1133.757813	-43.513580
19482.913404	16916.662667	1132.623047	-263.854797
19482.913404	16916.662667	1131.488281	-191.351105
19482.913404	16916.662667	1130.353516	18.844503
19482.913404	16916.662667	1129.217773	15.348337
19482.913404	16916.662667	1128.083008	-181.062592
19482.913404	16916.662667	1126.947266	-149.588745
19482.913404	16916.662667	1125.811523	-336.039063
19482.913404	16916.662667	1124.674805	-313.719757
19482.913404	16916.662667	1123.539063	-426.942017
19482.913404	16916.662667	1122.402344	-468.075745
19482.913404	16916.662667	1121.265625	-536.475891
19482.913404	16916.662667	1120.127930	-88.300926
19482.913404	16916.662667	1118.990234	-352.377991
19482.913404	16916.662667	1117.853516	32.935448
19482.913404	16916.662667	1116.714844	-145.168594
19482.913404	16916.662667	1115.577148	-206.343781
19482.913404	16916.662667	1114.439453	135.462006
19482.913404	16916.662667	1113.300781	62.081280
19482.913404	16916.662667	1112.162109	-170.057755
19482.913404	16916.662667	1111.022461	333.224731
19482.913404	16916.662667	1109.883789	-135.189621
19482.913404	16916.662667	1108.744141	-232.120789
19482.913404	16916.662667	1107.604492	293.731445
19482.913404	16916.662667	1106.463867	343.495392
19482.913404	16916.662667	1105.324219	422.077881
19482.913404	16916.662667	1104.183594	610.266724
19482.913404	16916.662667	1103.042969	395.359222
19482.913404	16916.662667	1101.902344	256.292755
19482.913404	16916.662667	1100.760742	331.499420
19482.913404	16916.662667	1099.619141	554.105286
19482.913404	16916.662667	1098.477539	377.332977
19482.913404	16916.662667	1097.335938	299.737244
19482.913404	16916.662667	1096.193359	193.046265
19482.913404	16916.662667	1095.051758	467.592743
19482.913404	16916.662667	1093.909180	466.098389
19482.913404	16916.662667	1092.765625	93.910393
19482.913404	16916.662667	1091.623047	353.315887
19482.913404	16916.662667	1090.479492	42.074471
19482.913404	16916.662667	1089.335938	206.431519
19482.913404	16916.662667	1088.192383	101.859901
19482.913404	16916.662667	1087.047852	-44.038723
19482.913404	16916.662667	1085.903320	-252.182358
19482.913404	16916.662667	1084.758789	105.394096
19482.913404	16916.662667	1083.614258	-240.051239
19482.913404	16916.662667	1082.469727	-334.537567
19482.913404	16916.662667	1081.324219	122.121758
19482.913404	16916.662667	1080.178711	74.302856
19482.913404	16916.662667	1079.033203	0.963135
19482.913404	16916.662667	1077.886719	-139.379257
19482.913404	16916.662667	1076.740234	376.363403
19482.913404	16916.662667	1075.593750	278.199341
19482.913404	16916.662667	1074.447266	60.000168
19482.913404	16916.662667	1073.300781	15.449912
19482.913404	16916.662667	1072.153320	55.046268
19482.913404	16916.662667	1071.005859	395.467957
19482.913404	16916.662667	1069.858398	643.340454
19482.913404	16916.662667	1068.709961	384.981293
19482.913404	16916.662667	1067.561523	17.511190
19482.913404	16916.662667	1066.413086	-151.073135
19482.913404	16916.662667	1065.264648	20.385160
19482.913404	16916.662667	1064.116211	-216.281250
19482.913404	16916.662667	1062.966797	-119.142548
19482.913404	16916.662667	1061.817383	3.938761
19482.913404	16916.662667	1060.667969	142.963379
19482.913404	16916.662667	1059.517578	-125.518356
19482.913404	16916.662667	1058.368164	-26.890354
19482.913404	16916.662667	1057.217773	221.134705
19482.913404	16916.662667	1056.067383	204.113403
19482.913404	16916.662667	1054.916016	-24.931969
19482.913404	16916.662667	1053.764648	200.168869
19482.913404	16916.662667	1052.613281	-92.704353
19482.913404	16916.662667	1051.461914	-112.207069
19482.913404	16916.662667	1050.310547	118.251404
19482.913404	16916.662667	1049.158203	98.376053
19482.913404	16916.662667	1048.005859	-150.864899
19482.913404	16916.662667	1046.853516	239.943512
19482.913404	16916.662667	1045.700195	797.083862
19482.913404	16916.662667	1044.547852	512.641968
19482.913404	16916.662667	1043.394531	403.385010
19482.913404	16916.662667	1042.240234	211.500900
19482.913404	16916.662667	1041.086914	861.381348
19482.913404	16916.662667	1039.932617	673.933044
19482.913404	16916.662667	1038.778320	1101.829102
19482.913404	16916.662667	1037.624023	1557.925903
19482.913404	16916.662667	1036.469727	1811.599365
19482.913404	16916.662667	1035.314453	2214.095703
19482.913404	16916.662667	1034.159180	3206.080566
19482.913404	16916.662667	1033.003906	3472.148926
19482.913404	16916.662667	1031.847656	3887.862305
19482.913404	16916.662667	1030.692383	4402.799805
19482.913404	16916.662667	1029.536133	4134.235840
19482.913404	16916.662667	1028.378906	4444.397949
19482.913404	16916.662667	1027.222656	4202.041016
19482.913404	16916.662667	1026.065430	3289.849609
19482.913404	16916.662667	1024.908203	2753.072510
19482.913404	16916.662667	1023.750977	2338.422607
19482.913404	16916.662667	1022.593750	2452.806641
19482.913404	16916.662667	1021.435547	2336.355469
19482.913404	16916.662667	1020.277344	2078.249268
19482.913404	16916.662667	1019.119141	2010.907104
19482.913404	16916.662667	1017.959961	1790.896362
19482.913404	16916.662667	1016.800781	1371.210449
19482.913404	16916.662667	1015.641602	1480.186279
19482.913404	16916.662667	1014.482422	1463.497070
19482.913404	16916.662667	1013.323242	1432.374512
19482.913404	16916.662667	1012.163086	1540.920654
19482.913404	16916.662667	1011.002930	1194.430054
19482.913404	16916.662667	1009.842773	963.005676
19482.913404	16916.662667	1008.681641	991.155212
19482.913404	16916.662667	1007.520508	1123.142700
19482.913404	16916.662667	1006.359375	1430.047607
19482.913404	16916.662667	1005.198242	1144.062622
19482.913404	16916.662667	1004.037109	886.720276
19482.913404	16916.662667	1002.875000	1192.789185
19482.913404	16916.662667	1001.712891	1252.292236
19482.913404	16916.662667	1000.550781	965.164063
19482.913404	16916.662667	999.387695	999.446533
19482.913404	16916.662667	998.224609	624.155029
19482.913404	16916.662667	997.061523	742.056396
19482.913404	16916.662667	995.898438	298.441162
19482.913404	16916.662667	994.734375	329.768280
19482.913404	16916.662667	993.571289	128.299393
19482.913404	16916.662667	992.407227	626.232361
19482.913404	16916.662667	991.242188	322.427399
19482.913404	16916.662667	990.078125	80.381447
19482.913404	16916.662667	988.913086	146.248489
19482.913404	16916.662667	987.748047	50.682041
19482.913404	16916.662667	986.583008	384.292816
19482.913404	16916.662667	985.416992	243.382507
19482.913404	16916.662667	984.250977	185.339417
19482.913404	16916.662667	983.084961	73.481308
19482.913404	16916.662667	981.918945	52.606461
19482.913404	16916.662667	980.751953	158.797226
19482.913404	16916.662667	979.584961	97.169052
19482.913404	16916.662667	978.417969	233.102234
19482.913404	16916.662667	977.250977	11.965327
19482.913404	16916.662667	976.083008	390.094086
19482.913404	16916.662667	974.915039	501.170898
19482.913404	16916.662667	973.747070	117.076035
19482.913404	16916.662667	972.579102	414.713257
19482.913404	16916.662667	971.410156	19.335726
19482.913404	16916.662667	970.242188	74.448914
19482.913404	16916.662667	969.072266	164.906876
19482.913404	16916.662667	967.903320	-13.684652
19482.913404	16916.662667	966.733398	492.206024
19482.913404	16916.662667	965.563477	187.660751
19482.913404	16916.662667	964.393555	377.501221
19482.913404	16916.662667	963.223633	610.006165
19482.913404	16916.662667	962.052734	464.427734
19482.913404	16916.662667	960.881836	186.930328
19482.913404	16916.662667	959.710938	455.515289
19482.913404	16916.662667	958.540039	628.441772
19482.913404	16916.662667	957.368164	404.863861
19482.913404	16916.662667	956.196289	241.614319
19482.913404	16916.662667	955.024414	288.831207
19482.913404	16916.662667	953.851563	384.176056
19482.913404	16916.662667	952.679688	629.247681
19482.913404	16916.662667	951.506836	681.836426
19482.913404	16916.662667	950.333984	584.732666
19482.913404	16916.662667	949.160156	336.441162
19482.913404	16916.662667	947.986328	210.518143
19482.913404	16916.662667	946.812500	344.628967
19482.913404	16916.662667	945.638672	453.173370
19482.913404	16916.662667	944.464844	590.230713
19482.913404	16916.662667	943.290039	685.930359
19482.913404	16916.662667	942.115234	588.645325
19482.913404	16916.662667	940.940430	164.326096
19482.913404	16916.662667	939.764648	472.660217
19482.913404	16916.662667	938.588867	500.845306
19482.913404	16916.662667	937.413086	431.179443
19482.913404	16916.662667	936.237305	217.351379
19482.913404	16916.662667	935.060547	58.802128
19482.913404	16916.662667	933.883789	316.862457
19482.913404	16916.662667	932.707031	251.092148
19482.913404	16916.662667	931.530273	488.320557
19482.913404	16916.662667	930.352539	458.953094
19482.913404	16916.662667	929.175781	181.279999
19482.913404	16916.662667	927.998047	345.231964
19482.913404	16916.662667	926.819336	117.661430
19482.913404	16916.662667	925.641602	26.589584
19482.913404	16916.662667	924.462891	162.923141
19482.913404	16916.662667	923.284180	-287.658752
19482.913404	16916.662667	922.104492	-105.981804
19482.913404	16916.662667	920.924805	-8.569829
19482.913404	16916.662667	919.746094	7.014603
19482.913404	16916.662667	919.551758	482.239899
19482.913404	16916.662667	918.386719	-350.399078
19482.913404	16916.662667	917.220703	-101.218102
19482.913404	16916.662667	916.054688	81.892036
19482.913404	16916.662667	914.887695	-262.086365
19482.913404	16916.662667	913.721680	159.236588
19482.913404	16916.662667	912.554688	441.820465
19482.913404	16916.662667	911.387695	320.165405
19482.913404	16916.662667	910.220703	629.662964
19482.913404	16916.662667	909.052734	741.560669
19482.913404	16916.662667	907.885742	1080.166992
19482.913404	16916.662667	906.717773	731.350952
19482.913404	16916.662667	905.548828	1144.507690
19482.913404	16916.662667	904.380859	1004.227356
19482.913404	16916.662667	903.211914	743.804260
19482.913404	16916.662667	902.042969	879.989014
19482.913404	16916.662667	900.874023	932.204285
19482.913404	16916.662667	899.704102	871.071960
19482.913404	16916.662667	898.535156	465.620300
19482.913404	16916.662667	897.365234	234.627136
19482.913404	16916.662667	896.194336	227.784500
19482.913404	16916.662667	895.024414	349.871033
19482.913404	16916.662667	893.853516	143.714951
19482.913404	16916.662667	892.682617	129.879776
19482.913404	16916.662667	891.511719	192.885788
19482.913404	16916.662667	890.340820	355.303986
19482.913404	16916.662667	889.168945	682.653931
19482.913404	16916.662667	887.997070	419.768860
19482.913404	16916.662667	886.825195	683.544006
19482.913404	16916.662667	885.653320	337.015106
19482.913404	16916.662667	884.480469	582.490540
19482.913404	16916.662667	883.307617	669.686462
19482.913404	16916.662667	882.134766	666.439575
19482.913404	16916.662667	880.961914	676.672180
19482.913404	16916.662667	879.788086	549.145447
19482.913404	16916.662667	878.614258	360.661804
19482.913404	16916.662667	877.440430	648.307678
19482.913404	16916.662667	876.266602	-2.740625
19482.913404	16916.662667	875.091797	-222.761353
19482.913404	16916.662667	873.916992	-246.565231
19482.913404	16916.662667	872.742188	-259.151794
19482.913404	16916.662667	871.567383	86.616165
19482.913404	16916.662667	870.391602	-230.407135
19482.913404	16916.662667	869.215820	-459.485352
19482.913404	16916.662667	868.040039	-231.215714
19482.913404	16916.662667	866.864258	-329.691620
19482.913404	16916.662667	865.687500	-320.090332
19482.913404	16916.662667	864.510742	-132.694916
19482.913404	16916.662667	863.333984	59.061390
19482.913404	16916.662667	862.157227	-75.645325
19482.913404	16916.662667	860.979492	-268.848053
19482.913404	16916.662667	859.802734	80.105957
19482.913404	16916.662667	858.625000	-86.185608
19482.913404	16916.662667	857.446289	-108.546883
19482.913404	16916.662667	856.268555	-207.406830
19482.913404	16916.662667	855.089844	-151.183792
19482.913404	16916.662667	853.911133	60.015274
19482.913404	16916.662667	852.731445	-367.018921
19482.913404	16916.662667	851.552734	-34.679794
19482.913404	16916.662667	850.373047	-239.296371
19482.913404	16916.662667	849.193359	99.501122
19482.913404	16916.662667	848.013672	-329.673920
19482.913404	16916.662667	846.833008	-363.695190
19482.913404	16916.662667	845.652344	-207.017014
19482.913404	16916.662667	844.471680	-191.811234
19482.913404	16916.662667	843.291016	-223.776993
19482.913404	16916.662667	842.110352	-500.238464
19482.913404	16916.662667	840.928711	23.824812
19482.913404	16916.662667	839.747070	309.986053
19482.913404	16916.662667	838.564453	-547.066406
19482.913404	16916.662667	837.382813	25.798393
19482.913404	16916.662667	836.200195	-324.648315
19482.913404	16916.662667	835.017578	-211.352814
19482.913404	16916.662667	833.834961	-230.291702
19482.913404	16916.662667	832.651367	-273.905914
19482.913404	16916.662667	831.467773	-266.075134
19482.913404	16916.662667	830.284180	227.345032
19482.913404	16916.662667	829.100586	-228.235382
19482.913404	16916.662667	827.916992	-173.625137
19482.913404	16916.662667	826.732422	-98.960770
19482.913404	16916.662667	825.547852	259.604736
19482.913404	16916.662667	824.363281	141.750916
19482.913404	16916.662667	823.177734	-36.459805
19482.913404	16916.662667	821.992188	281.464264
19482.913404	16916.662667	820.806641	170.202606
19482.913404	16916.662667	819.621094	-117.557579
19482.913404	16916.662667	818.434570	108.433441
19482.913404	16916.662667	817.249023	61.839458
19482.913404	16916.662667	816.062500	-391.109467
19482.913404	16916.662667	814.875000	272.093994
19482.913404	16916.662667	813.688477	343.582672
19482.913404	16916.662667	812.500977	542.156616
19482.913404	16916.662667	811.313477	608.971863
19482.913404	16916.662667	810.125977	651.160950
19482.913404	16916.662667	808.937500	280.769836
19482.913404	16916.662667	807.749023	276.068085
19482.913404	16916.662667	806.560547	95.223251
19482.913404	16916.662667	805.372070	74.828705
19482.913404	16916.662667	804.182617	-246.386215
19482.913404	16916.662667	802.994141	85.095039
19482.913404	16916.662667	801.803711	109.058830
19482.913404	16916.662667	800.614258	37.194485
19482.913404	16916.662667	799.424805	-45.839043
19482.913404	16916.662667	798.234375	325.120850
19482.913404	16916.662667	797.043945	-107.421547
19482.913404	16916.662667	795.852539	114.204079
19482.913404	16916.662667	794.662109	409.057983
19482.913404	16916.662667	793.470703	363.488922
19482.913404	16916.662667	792.279297	-22.299316
19482.913404	16916.662667	791.087891	194.384109
19482.913404	16916.662667	789.895508	-11.337725
19482.913404	16916.662667	788.703125	571.723450
19482.913404	16916.662667	787.510742	288.106140
19482.913404	16916.662667	786.318359	339.895782
19482.913404	16916.662667	785.125000	493.738556
19482.913404	16916.662667	783.931641	545.315186
19482.913404	16916.662667	782.738281	259.410187
19482.913404	16916.662667	781.544922	375.210571
19482.913404	16916.662667	780.350586	373.299713
19482.913404	16916.662667	779.156250	473.346863
19482.913404	16916.662667	777.961914	287.175659
19482.913404	16916.662667	776.767578	-162.855148
19482.913404	16916.662667	775.572266	52.275131
19482.913404	16916.662667	774.376953	-138.361725
19482.913404	16916.662667	773.181641	49.917274
19482.913404	16916.662667	771.986328	178.213120
19482.913404	16916.662667	770.790039	208.921173
19482.913404	16916.662667	769.593750	277.172058
19482.913404	16916.662667	768.397461	-93.077736
19482.913404	16916.662667	767.201172	-210.906967
19482.913404	16916.662667	766.003906	228.946625
19482.913404	16916.662667	764.806641	113.141342
19482.913404	16916.662667	763.609375	415.407043
19482.913404	16916.662667	762.412109	286.157196
19482.913404	16916.662667	761.213867	13.142042
19482.913404	16916.662667	760.015625	195.586594
19482.913404	16916.662667	758.817383	103.775391
19482.913404	16916.662667	757.618164	504.728027
19482.913404	16916.662667	756.419922	266.880096
19482.913404	16916.662667	755.220703	503.978271
19482.913404	16916.662667	754.021484	570.826050
19482.913404	16916.662667	752.821289	646.384155
19482.913404	16916.662667	751.621094	794.667114
19482.913404	16916.662667	750.420898	477.080658
19482.913404	16916.662667	749.220703	-72.178490
19482.913404	16916.662667	748.020508	647.293457
19482.913404	16916.662667	746.819336	375.966492
19482.913404	16916.662667	745.618164	353.857666
19482.913404	16916.662667	744.416992	470.564087
19482.913404	16916.662667	743.214844	401.956055
19482.913404	16916.662667	742.012695	516.205078
19482.913404	16916.662667	740.810547	650.134827
19482.913404	16916.662667	739.608398	1008.619934
19482.913404	16916.662667	738.406250	952.765381
19482.913404	16916.662667	737.203125	1086.214355
19482.913404	16916.662667	736.000000	1800.744507
19482.913404	16916.662667	734.795898	1779.678711
19482.913404	16916.662667	733.592773	2271.279785
19482.913404	16916.662667	732.388672	2612.955811
19482.913404	16916.662667	731.184570	2243.843994
19482.913404	16916.662667	729.979492	2673.149658
19482.913404	16916.662667	728.775391	2515.062500
19482.913404	16916.662667	727.570313	1791.934814
19482.913404	16916.662667	726.365234	1840.494141
19482.913404	16916.662667	725.160156	1554.904419
19482.913404	16916.662667	723.954102	1010.073608
19482.913404	16916.662667	722.748047	474.151489
19482.913404	16916.662667	721.541992	766.286255
19482.913404	16916.662667	720.334961	601.491272
19482.913404	16916.662667	719.128906	603.488892
19482.913404	16916.662667	717.921875	434.189056
19482.913404	16916.662667	716.714844	392.116882
19482.913404	16916.662667	715.506836	170.062943
19482.913404	16916.662667	714.298828	423.954956
19482.913404	16916.662667	713.090820	125.011543
19482.913404	16916.662667	711.882813	14.633034
19482.913404	16916.662667	710.674805	246.145508
19482.913404	16916.662667	709.465820	155.290329
19482.913404	16916.662667	708.256836	-60.525677
19482.913404	16916.662667	707.047852	220.908417
19482.913404	16916.662667	705.837891	-19.146666
19482.913404	16916.662667	704.627930	172.161530
19482.913404	16916.662667	703.417969	223.163162
19482.913404	16916.662667	702.208008	232.446228
19482.913404	16916.662667	700.998047	622.385864
19482.913404	16916.662667	699.787109	793.260010
19482.913404	16916.662667	698.576172	482.724457
19482.913404	16916.662667	697.364258	852.350098
19482.913404	16916.662667	696.153320	801.902039
19482.913404	16916.662667	694.941406	926.244385
19482.913404	16916.662667	693.729492	1004.529419
19482.913404	16916.662667	692.516602	859.788818
19482.913404	16916.662667	691.304688	586.104797
19482.913404	16916.662667	690.091797	576.716003
19482.913404	16916.662667	688.878906	700.427551
19482.913404	16916.662667	687.665039	631.848877
19482.913404	16916.662667	686.451172	722.535400
19482.913404	16916.662667	685.237305	575.198547
19482.913404	16916.662667	684.023438	512.913147
19482.913404	16916.662667	682.809570	651.234436
19482.913404	16916.662667	681.594727	835.193481
19482.913404	16916.662667	680.379883	678.807312
19482.913404	16916.662667	679.165039	537.642944
19482.913404	16916.662667	677.949219	756.067200
19482.913404	16916.662667	676.733398	913.277222
19482.913404	16916.662667	675.517578	867.699463
19482.913404	16916.662667	674.301758	924.416870
19482.913404	16916.662667	673.084961	763.229675
19482.913404	16916.662667	671.869141	774.016541
19482.913404	16916.662667	670.651367	680.207642
19482.913404	16916.662667	669.434570	1021.620789
19482.913404	16916.662667	668.216797	1214.824219
19482.913404	16916.662667	667.000000	1233.814575
19482.913404	16916.662667	665.781250	1291.845459
19482.913404	16916.662667	664.563477	1286.700562
19482.913404	16916.662667	663.344727	850.986816
19482.913404	16916.662667	662.125977	969.640869
19482.913404	16916.662667	660.907227	1003.402283
19482.913404	16916.662667	659.688477	821.959839
19482.913404	16916.662667	658.468750	957.652527
19482.913404	16916.662667	657.249023	919.452637
19482.913404	16916.662667	656.029297	1057.064697
19482.913404	16916.662667	654.808594	890.604980
19482.913404	16916.662667	653.587891	1136.514771
19482.913404	16916.662667	652.367188	1490.737061
19482.913404	16916.662667	651.146484	1065.875122
19482.913404	16916.662667	649.924805	985.990295
19482.913404	16916.662667	648.704102	997.144287
19482.913404	16916.662667	647.482422	1318.259277
19482.913404	16916.662667	646.259766	1502.598633
19482.913404	16916.662667	645.037109	1344.365967
19482.913404	16916.662667	643.815430	1142.796631
19482.913404	16916.662667	642.591797	854.590820
19482.913404	16916.662667	641.369141	1216.192871
19482.913404	16916.662667	640.145508	1215.954224
19482.913404	16916.662667	638.921875	843.289978
19482.913404	16916.662667	637.698242	1013.999268
19482.913404	16916.662667	636.474609	1013.623108
19482.913404	16916.662667	635.250000	770.871399
19482.913404	16916.662667	634.025391	874.261292
19482.913404	16916.662667	632.800781	629.373108
19482.913404	16916.662667	631.575195	953.186279
19482.913404	16916.662667	630.349609	667.210327
19482.913404	16916.662667	629.124023	554.213257
19482.913404	16916.662667	627.898438	603.279541
19482.913404	16916.662667	626.671875	507.536987
19482.913404	16916.662667	625.445313	554.351013
19482.913404	16916.662667	624.218750	486.661560
19482.913404	16916.662667	622.992188	546.346313
19482.913404	16916.662667	621.764648	562.802612
19482.913404	16916.662667	620.537109	372.052399
19482.913404	16916.662667	619.309570	440.266327
19482.913404	16916.662667	618.081055	460.970764
19482.913404	16916.662667	616.852539	345.773743
19482.913404	16916.662667	615.624023	370.767853
19482.913404	16916.662667	614.395508	165.069290
19482.913404	16916.662667	613.166992	291.364502
19482.913404	16916.662667	611.937500	273.219116
19482.913404	16916.662667	610.708008	80.569450
19482.913404	16916.662667	609.477539	290.782013
19482.913404	16916.662667	608.248047	-20.230480
19482.913404	16916.662667	607.017578	-285.896149
19482.913404	16916.662667	605.787109	-120.928947
19482.913404	16916.662667	604.555664	-321.884094
19482.913404	16916.662667	603.325195	-73.040184
19482.913404	16916.662667	602.093750	25.124048
19482.913404	16916.662667	600.861328	-306.880341
19482.913404	16916.662667	599.629883	-576.361267
19482.913404	16916.662667	598.397461	-572.676147
19482.913404	16916.662667	597.165039	-233.663818
19482.913404	16916.662667	595.932617	-182.713593
19482.913404	16916.662667	594.699219	-129.604874
19482.913404	16916.662667	593.465820	-293.426514
19482.913404	16916.662667	592.232422	-16.891937
19482.913404	16916.662667	590.999023	-38.868885
19482.913404	16916.662667	589.764648	59.420101
19482.913404	16916.662667	588.530273	546.173218
19482.913404	16916.662667	587.295898	-98.008492
19482.913404	16916.662667	586.061523	328.624542
19482.913404	16916.662667	584.826172	311.162476
19482.913404	16916.662667	583.590820	265.901062
19482.913404	16916.662667	582.355469	100.671844
19482.913404	16916.662667	581.119141	182.080872
19482.913404	16916.662667	579.882813	-17.197392
19482.913404	16916.662667	578.646484	-417.704407
19482.913404	16916.662667	577.410156	263.776184
19482.913404	16916.662667	576.172852	-89.330956
19482.913404	16916.662667	574.935547	-133.877014
19482.913404	16916.662667	573.698242	-118.366341
19482.913404	16916.662667	572.460938	23.509180
19482.913404	16916.662667	571.222656	218.918655
19482.913404	16916.662667	569.984375	69.922646
19482.913404	16916.662667	568.746094	297.536285
19482.913404	16916.662667	567.506836	319.882019
19482.913404	16916.662667	566.267578	316.676361
19482.913404	16916.662667	565.028320	217.407028
19482.913404	16916.662667	563.789063	511.514832
19482.913404	16916.662667	562.548828	929.544373
19482.913404	16916.662667	561.309570	700.283508
19482.913404	16916.662667	560.068359	806.551270
19482.913404	16916.662667	558.828125	897.964722
19482.913404	16916.662667	557.586914	613.766479
19482.913404	16916.662667	556.345703	856.996155
19482.913404	16916.662667	555.104492	366.235016
19482.913404	16916.662667	553.863281	42.236008
19482.913404	16916.662667	552.621094	364.802155
19482.913404	16916.662667	551.378906	-48.312702
19482.913404	16916.662667	550.136719	46.320026
19482.913404	16916.662667	548.893555	183.710617
19482.913404	16916.662667	547.650391	169.897476
19482.913404	16916.662667	546.407227	-406.230042
19482.913404	16916.662667	545.164063	-85.138168
19482.913404	16916.662667	543.919922	-113.281204
19482.913404	16916.662667	542.675781	-113.559090
19482.913404	16916.662667	541.431641	-169.008575
19482.913404	16916.662667	540.186523	-41.212746
19482.913404	16916.662667	538.941406	-200.560486
19482.913404	16916.662667	537.696289	236.032242
19482.913404	16916.662667	536.451172	-148.393600
19482.913404	16916.662667	535.205078	122.508781
19482.913404	16916.662667	533.959961	189.379349
19482.913404	16916.662667	532.712891	-124.073036
19482.913404	16916.662667	531.466797	-211.925323
19482.913404	16916.662667	530.219727	144.514526
19482.913404	16916.662667	528.972656	267.332092
19482.913404	16916.662667	527.725586	69.602592
19482.913404	16916.662667	526.478516	496.420715
19482.913404	16916.662667	525.230469	785.266174
19482.913404	16916.662667	523.982422	619.989075
19482.913404	16916.662667	522.734375	463.472473
19482.913404	16916.662667	521.485352	141.747070
19482.913404	16916.662667	520.236328	-141.455368
19482.913404	16916.662667	518.987305	-231.361511
19482.913404	16916.662667	517.737305	-166.253357
19482.913404	16916.662667	516.488281	-88.255264
19482.913404	16916.662667	515.238281	-56.712456
19482.913404	16916.662667	513.988281	142.402023
19482.913404	16916.662667	512.737305	-151.936218
19482.913404	16916.662667	511.486328	-96.501740
19482.913404	16916.662667	510.235352	-34.542175
19482.913404	16916.662667	508.984375	-101.547562
19482.913404	16916.662667	507.732422	180.898819
19482.913404	16916.662667	506.480469	25.391947
19482.913404	16916.662667	505.228516	492.124603
19482.913404	16916.662667	503.976563	87.402657
19482.913404	16916.662667	502.723633	-86.451385
19482.913404	16916.662667	501.470703	338.272980
19482.913404	16916.662667	500.217773	526.251831
19482.913404	16916.662667	498.963867	486.088531
19482.913404	16916.662667	497.709961	-50.414017
19482.913404	16916.662667	496.456055	45.091274
19482.913404	16916.662667	495.202148	237.869110
19482.913404	16916.662667	493.947266	162.561157
19482.913404	16916.662667	492.692383	283.761475
19482.913404	16916.662667	491.437500	286.862701
19482.913404	16916.662667	490.181641	325.982330
19482.913404	16916.662667	488.926758	732.292358
19482.913404	16916.662667	487.670898	961.380981
19482.913404	16916.662667	486.414063	969.077148
19482.913404	16916.662667	485.158203	728.090210
19482.913404	16916.662667	483.901367	980.554565
19482.913404	16916.662667	482.644531	1129.744019
19482.913404	16916.662667	481.386719	956.594177
19482.913404	16916.662667	480.128906	1280.733276
19482.913404	16916.662667	478.871094	1297.311768
19482.913404	16916.662667	477.613281	1541.342773
19482.913404	16916.662667	476.355469	1631.639771
19482.913404	16916.662667	475.096680	1734.566040
19482.913404	16916.662667	473.837891	1721.735474
19482.913404	16916.662667	472.578125	1858.295410
19482.913404	16916.662667	471.319336	2240.878906
19482.913404	16916.662667	470.059570	1872.561401
19482.913404	16916.662667	468.799805	2383.185303
19482.913404	16916.662667	467.539063	2620.293945
19482.913404	16916.662667	466.278320	2895.068359
19482.913404	16916.662667	465.017578	3138.134033
19482.913404	16916.662667	463.756836	3309.583984
19482.913404	16916.662667	462.495117	3176.338379
19482.913404	16916.662667	461.233398	2639.880371
19482.913404	16916.662667	459.971680	2668.208008
19482.913404	16916.662667	458.709961	2291.294678
19482.913404	16916.662667	457.447266	2069.651123
19482.913404	16916.662667	456.184570	2458.383789
19482.913404	16916.662667	454.921875	2207.010986
19482.913404	16916.662667	453.658203	2001.642212
19482.913404	16916.662667	452.394531	2320.226074
19482.913404	16916.662667	451.130859	2244.325684
19482.913404	16916.662667	449.867188	2201.675293
19482.913404	16916.662667	448.602539	2305.372803
19482.913404	16916.662667	447.337891	2467.317627
19482.913404	16916.662667	446.073242	2434.038574
19482.913404	16916.662667	444.807617	1958.567749
19482.913404	16916.662667	443.542969	2110.861572
19482.913404	16916.662667	442.276367	2294.023682
19482.913404	16916.662667	441.010742	2028.814819
19482.913404	16916.662667	439.744141	2376.144775
19482.913404	16916.662667	438.478516	2896.359863
19482.913404	16916.662667	437.210938	2922.262695
19482.913404	16916.662667	435.944336	2533.575928
19482.913404	16916.662667	434.676758	2677.393799
19482.913404	16916.662667	433.409180	2454.749756
19482.913404	16916.662667	432.141602	2509.338867
19482.913404	16916.662667	430.873047	2648.775635
19482.913404	16916.662667	429.604492	2900.115967
19482.913404	16916.662667	428.335938	2772.582764
19482.913404	16916.662667	427.067383	2508.526855
19482.913404	16916.662667	425.797852	3086.805664
19482.913404	16916.662667	424.528320	2779.156738
19482.913404	16916.662667	423.258789	2848.208984
19482.913404	16916.662667	421.988281	2692.993652
19482.913404	16916.662667	420.717773	2937.098877
19482.913404	16916.662667	419.447266	3229.969727
19482.913404	16916.662667	418.175781	3129.651123
19482.913404	16916.662667	416.905273	3201.083496
19482.913404	16916.662667	415.633789	3273.251709
19482.913404	16916.662667	414.362305	3227.383057
19482.913404	16916.662667	413.089844	2876.059082
19482.913404	16916.662667	411.817383	2935.658691
19482.913404	16916.662667	410.544922	3139.414795
19482.913404	16916.662667	409.272461	2783.750977
19482.913404	16916.662667	407.999023	2938.422119
19482.913404	16916.662667	406.725586	3122.524658
19482.913404	16916.662667	405.452148	2701.633789
19482.913404	16916.662667	404.177734	3062.976563
19482.913404	16916.662667	402.903320	2927.484375
19482.913404	16916.662667	401.628906	2912.708252
19482.913404	16916.662667	400.354492	3112.010254
19482.913404	16916.662667	399.079102	2912.277344
19482.913404	16916.662667	397.803711	3084.318848
19482.913404	16916.662667	396.528320	2878.159912
19482.913404	16916.662667	395.251953	2997.755127
19482.913404	16916.662667	393.976563	2961.320801
19482.913404	16916.662667	392.700195	3349.877930
19482.913404	16916.662667	391.422852	3380.860596
19482.913404	16916.662667	390.145508	3469.324463
19482.913404	16916.662667	388.869141	3372.546631
19482.913404	16916.662667	387.590820	3399.369385
19482.913404	16916.662667	386.313477	3429.528320
19482.913404	16916.662667	385.035156	3603.766357
19482.913404	16916.662667	383.756836	3418.417480
19482.913404	16916.662667	382.478516	3590.419922
19482.913404	16916.662667	381.199219	3624.363281
19482.913404	16916.662667	379.919922	3905.457520
19482.913404	16916.662667	378.640625	3452.106934
19482.913404	16916.662667	377.360352	4218.574707
19482.913404	16916.662667	376.080078	4227.728027
19482.913404	16916.662667	374.799805	4433.745605
19482.913404	16916.662667	373.519531	4143.438477
19482.913404	16916.662667	372.238281	4779.767090
19482.913404	16916.662667	370.957031	4687.991211
19482.913404	16916.662667	369.675781	4645.722656
19482.913404	16916.662667	368.394531	4386.203613
19482.913404	16916.662667	367.112305	4618.087402
19482.913404	16916.662667	365.830078	4603.522461
19482.913404	16916.662667	364.546875	4962.052734
19482.913404	16916.662667	363.264648	4561.919434
19482.913404	16916.662667	361.981445	3995.788574
19482.913404	16916.662667	360.698242	4287.481445
19482.913404	16916.662667	359.414063	4253.764648
19482.913404	16916.662667	358.129883	3719.450439
19482.913404	16916.662667	356.845703	3881.069824
19482.913404	16916.662667	355.561523	3723.405029
19482.913404	16916.662667	354.276367	3864.917725
19482.913404	16916.662667	352.991211	3210.822754
19482.913404	16916.662667	351.706055	3558.558105
19482.913404	16916.662667	350.420898	3570.097900
19482.913404	16916.662667	349.134766	3282.434814
19482.913404	16916.662667	347.848633	3148.829346
19482.913404	16916.662667	346.561523	2748.800537
19482.913404	16916.662667	345.275391	2270.000977
19482.913404	16916.662667	343.988281	2098.921875
19482.913404	16916.662667	342.700195	2124.048584
19482.913404	16916.662667	341.413086	1736.462646
19482.913404	16916.662667	340.125000	2114.451904
19482.913404	16916.662667	338.836914	1394.423340
19482.913404	16916.662667	337.548828	1612.279297
19482.913404	16916.662667	336.259766	1375.430786
19482.913404	16916.662667	334.970703	1668.541870
19482.913404	16916.662667	333.681641	1352.816528
19482.913404	16916.662667	332.391602	1141.006104
19482.913404	16916.662667	331.101563	1100.817505
19482.913404	16916.662667	329.811523	790.471008
19482.913404	16916.662667	328.521484	1100.839600
19482.913404	16916.662667	327.230469	852.993835
19482.913404	16916.662667	325.939453	685.449463
19482.913404	16916.662667	324.648438	829.739380
19482.913404	16916.662667	323.356445	487.300964
19482.913404	16916.662667	322.064453	138.308624
19482.913404	16916.662667	320.772461	-18.615747
19482.913404	16916.662667	319.480469	592.098816
19482.913404	16916.662667	318.187500	243.960358
19482.913404	16916.662667	316.894531	-156.822052
19482.913404	16916.662667	315.601563	456.699921
19482.913404	16916.662667	314.307617	37.431290
19482.913404	16916.662667	313.013672	330.507599
19482.913404	16916.662667	311.719727	-28.105268
19482.913404	16916.662667	310.425781	27.979807
19482.913404	16916.662667	309.130859	-206.022736
19482.913404	16916.662667	307.835938	-300.275024
19482.913404	16916.662667	306.541016	37.294750
19482.913404	16916.662667	305.245117	-504.981354
19482.913404	16916.662667	303.949219	-305.328186
19482.913404	16916.662667	302.653320	120.412415
19482.913404	16916.662667	301.356445	99.050743
19482.913404	16916.662667	300.060547	546.670715
19482.913404	16916.662667	298.763672	742.783875
