#X		#Y		#Wave		#Intensity
19472.445479	16973.274333	2000.043945	81.227890
19472.445479	16973.274333	1999.080078	146.367661
19472.445479	16973.274333	1998.116211	98.155724
19472.445479	16973.274333	1997.151367	12.349742
19472.445479	16973.274333	1996.186523	-145.719437
19472.445479	16973.274333	1995.222656	-93.608017
19472.445479	16973.274333	1994.256836	-245.003174
19472.445479	16973.274333	1993.291992	-5.504629
19472.445479	16973.274333	1992.327148	99.813225
19472.445479	16973.274333	1991.361328	269.079254
19472.445479	16973.274333	1990.395508	-86.776718
19472.445479	16973.274333	1989.429688	34.707405
19472.445479	16973.274333	1988.463867	-86.658875
19472.445479	16973.274333	1987.497070	-27.741154
19472.445479	16973.274333	1986.531250	15.970687
19472.445479	16973.274333	1985.564453	301.675690
19472.445479	16973.274333	1984.597656	114.771500
19472.445479	16973.274333	1983.630859	46.275669
19472.445479	16973.274333	1982.664063	44.236755
19472.445479	16973.274333	1981.696289	155.577164
19472.445479	16973.274333	1980.728516	311.068176
19472.445479	16973.274333	1979.761719	288.392120
19472.445479	16973.274333	1978.792969	87.682152
19472.445479	16973.274333	1977.825195	225.037369
19472.445479	16973.274333	1976.857422	-10.646675
19472.445479	16973.274333	1975.888672	-12.004849
19472.445479	16973.274333	1974.919922	-6.187194
19472.445479	16973.274333	1973.951172	211.585693
19472.445479	16973.274333	1972.982422	266.262970
19472.445479	16973.274333	1972.013672	281.258453
19472.445479	16973.274333	1971.043945	145.646347
19472.445479	16973.274333	1970.075195	337.774780
19472.445479	16973.274333	1969.105469	95.840828
19472.445479	16973.274333	1968.135742	31.257343
19472.445479	16973.274333	1967.165039	296.704590
19472.445479	16973.274333	1966.195313	29.771803
19472.445479	16973.274333	1965.224609	78.054436
19472.445479	16973.274333	1964.253906	-58.524773
19472.445479	16973.274333	1963.283203	132.264984
19472.445479	16973.274333	1962.312500	118.529388
19472.445479	16973.274333	1961.341797	483.690369
19472.445479	16973.274333	1960.370117	255.555054
19472.445479	16973.274333	1959.399414	293.090698
19472.445479	16973.274333	1958.427734	212.430771
19472.445479	16973.274333	1957.455078	16.103794
19472.445479	16973.274333	1956.483398	141.858521
19472.445479	16973.274333	1955.511719	341.219971
19472.445479	16973.274333	1954.539063	174.175461
19472.445479	16973.274333	1953.566406	316.751221
19472.445479	16973.274333	1952.593750	233.137512
19472.445479	16973.274333	1951.621094	-20.032122
19472.445479	16973.274333	1950.647461	247.525711
19472.445479	16973.274333	1949.674805	-111.297211
19472.445479	16973.274333	1948.701172	170.768158
19472.445479	16973.274333	1947.727539	5.894324
19472.445479	16973.274333	1946.753906	250.895844
19472.445479	16973.274333	1945.780273	323.977814
19472.445479	16973.274333	1944.805664	340.553436
19472.445479	16973.274333	1943.831055	258.957153
19472.445479	16973.274333	1942.856445	-97.334793
19472.445479	16973.274333	1941.881836	144.765060
19472.445479	16973.274333	1940.907227	94.996407
19472.445479	16973.274333	1939.932617	47.663334
19472.445479	16973.274333	1938.957031	-163.878448
19472.445479	16973.274333	1937.981445	217.584030
19472.445479	16973.274333	1937.005859	91.778366
19472.445479	16973.274333	1936.030273	37.025818
19472.445479	16973.274333	1935.054688	43.493233
19472.445479	16973.274333	1934.078125	167.469345
19472.445479	16973.274333	1933.101563	237.528122
19472.445479	16973.274333	1932.125000	21.191629
19472.445479	16973.274333	1931.148438	194.005264
19472.445479	16973.274333	1930.171875	149.000671
19472.445479	16973.274333	1929.194336	67.319618
19472.445479	16973.274333	1928.217773	232.673553
19472.445479	16973.274333	1927.240234	202.351395
19472.445479	16973.274333	1926.262695	62.028149
19472.445479	16973.274333	1925.284180	266.407776
19472.445479	16973.274333	1924.306641	167.677948
19472.445479	16973.274333	1923.328125	-48.290653
19472.445479	16973.274333	1922.350586	75.396507
19472.445479	16973.274333	1921.372070	50.057217
19472.445479	16973.274333	1920.392578	-75.379189
19472.445479	16973.274333	1919.414063	58.046021
19472.445479	16973.274333	1918.434570	174.349716
19472.445479	16973.274333	1917.456055	268.658417
19472.445479	16973.274333	1916.476563	199.459579
19472.445479	16973.274333	1915.497070	120.542610
19472.445479	16973.274333	1914.516602	470.993622
19472.445479	16973.274333	1913.537109	155.530518
19472.445479	16973.274333	1912.556641	232.789139
19472.445479	16973.274333	1911.576172	-26.392654
19472.445479	16973.274333	1910.595703	-124.580345
19472.445479	16973.274333	1909.615234	-115.480118
19472.445479	16973.274333	1908.633789	95.878693
19472.445479	16973.274333	1907.653320	-72.849136
19472.445479	16973.274333	1906.671875	43.485832
19472.445479	16973.274333	1905.690430	-42.316116
19472.445479	16973.274333	1904.708984	-50.146984
19472.445479	16973.274333	1903.727539	39.425400
19472.445479	16973.274333	1902.745117	-138.724152
19472.445479	16973.274333	1901.762695	-22.340605
19472.445479	16973.274333	1900.780273	84.297142
19472.445479	16973.274333	1899.797852	156.871063
19472.445479	16973.274333	1898.815430	10.566964
19472.445479	16973.274333	1897.832031	236.380676
19472.445479	16973.274333	1896.849609	-75.135750
19472.445479	16973.274333	1895.866211	-133.715607
19472.445479	16973.274333	1894.882813	92.090942
19472.445479	16973.274333	1893.898438	293.549225
19472.445479	16973.274333	1892.915039	-156.086044
19472.445479	16973.274333	1891.930664	249.428543
19472.445479	16973.274333	1890.947266	-112.547005
19472.445479	16973.274333	1889.962891	79.213142
19472.445479	16973.274333	1888.977539	222.388641
19472.445479	16973.274333	1887.993164	161.667358
19472.445479	16973.274333	1887.007813	-37.310745
19472.445479	16973.274333	1886.023438	-173.107986
19472.445479	16973.274333	1885.038086	115.667603
19472.445479	16973.274333	1884.051758	-27.314255
19472.445479	16973.274333	1883.066406	125.598679
19472.445479	16973.274333	1882.081055	113.634453
19472.445479	16973.274333	1881.094727	58.079765
19472.445479	16973.274333	1880.108398	126.164757
19472.445479	16973.274333	1879.122070	-45.614929
19472.445479	16973.274333	1878.135742	-28.351553
19472.445479	16973.274333	1877.148438	-57.080658
19472.445479	16973.274333	1876.162109	-32.502159
19472.445479	16973.274333	1875.174805	28.412926
19472.445479	16973.274333	1874.187500	48.181511
19472.445479	16973.274333	1873.199219	225.283676
19472.445479	16973.274333	1872.211914	0.663748
19472.445479	16973.274333	1871.223633	59.212143
19472.445479	16973.274333	1870.236328	-298.281250
19472.445479	16973.274333	1869.248047	21.533030
19472.445479	16973.274333	1868.258789	271.134827
19472.445479	16973.274333	1867.270508	153.202499
19472.445479	16973.274333	1866.282227	13.581320
19472.445479	16973.274333	1865.292969	200.274826
19472.445479	16973.274333	1864.303711	26.916697
19472.445479	16973.274333	1863.314453	-127.034874
19472.445479	16973.274333	1862.324219	-150.484543
19472.445479	16973.274333	1861.334961	-89.394905
19472.445479	16973.274333	1860.344727	-93.496361
19472.445479	16973.274333	1859.354492	59.321144
19472.445479	16973.274333	1858.364258	31.089970
19472.445479	16973.274333	1857.374023	277.957703
19472.445479	16973.274333	1856.383789	-13.238660
19472.445479	16973.274333	1855.392578	-176.472122
19472.445479	16973.274333	1854.401367	-59.888584
19472.445479	16973.274333	1853.410156	321.884064
19472.445479	16973.274333	1852.418945	-10.037860
19472.445479	16973.274333	1851.426758	299.296417
19472.445479	16973.274333	1850.435547	-99.953003
19472.445479	16973.274333	1849.443359	105.694519
19472.445479	16973.274333	1848.451172	347.405457
19472.445479	16973.274333	1847.458984	201.274582
19472.445479	16973.274333	1846.466797	-0.181486
19472.445479	16973.274333	1845.473633	181.239990
19472.445479	16973.274333	1844.480469	-12.907844
19472.445479	16973.274333	1843.487305	187.702179
19472.445479	16973.274333	1842.494141	287.178467
19472.445479	16973.274333	1841.500977	319.256378
19472.445479	16973.274333	1840.506836	142.068314
19472.445479	16973.274333	1839.513672	157.321121
19472.445479	16973.274333	1838.519531	290.382172
19472.445479	16973.274333	1837.525391	98.863159
19472.445479	16973.274333	1836.530273	90.074211
19472.445479	16973.274333	1835.536133	119.726143
19472.445479	16973.274333	1834.541016	79.688179
19472.445479	16973.274333	1833.545898	-44.414246
19472.445479	16973.274333	1832.550781	364.677643
19472.445479	16973.274333	1831.555664	79.667938
19472.445479	16973.274333	1830.560547	178.866211
19472.445479	16973.274333	1829.564453	-96.421410
19472.445479	16973.274333	1828.568359	252.330948
19472.445479	16973.274333	1827.572266	212.241440
19472.445479	16973.274333	1826.576172	292.094269
19472.445479	16973.274333	1825.580078	9.734161
19472.445479	16973.274333	1824.583008	171.098022
19472.445479	16973.274333	1823.585938	63.854420
19472.445479	16973.274333	1822.588867	114.842216
19472.445479	16973.274333	1821.591797	268.843689
19472.445479	16973.274333	1820.594727	283.785583
19472.445479	16973.274333	1819.596680	16.007118
19472.445479	16973.274333	1818.599609	397.424744
19472.445479	16973.274333	1817.601563	184.756790
19472.445479	16973.274333	1816.603516	419.894653
19472.445479	16973.274333	1815.604492	250.345383
19472.445479	16973.274333	1814.606445	241.191696
19472.445479	16973.274333	1813.607422	33.395905
19472.445479	16973.274333	1812.608398	313.734253
19472.445479	16973.274333	1811.609375	175.315262
19472.445479	16973.274333	1810.610352	247.384125
19472.445479	16973.274333	1809.610352	259.617706
19472.445479	16973.274333	1808.611328	159.442841
19472.445479	16973.274333	1807.611328	-10.045650
19472.445479	16973.274333	1806.611328	205.266617
19472.445479	16973.274333	1805.610352	136.122803
19472.445479	16973.274333	1804.610352	81.299675
19472.445479	16973.274333	1803.609375	227.098816
19472.445479	16973.274333	1802.608398	272.505920
19472.445479	16973.274333	1801.607422	253.391235
19472.445479	16973.274333	1800.606445	489.670013
19472.445479	16973.274333	1799.605469	496.693054
19472.445479	16973.274333	1798.603516	434.476715
19472.445479	16973.274333	1797.601563	334.067505
19472.445479	16973.274333	1796.599609	426.864990
19472.445479	16973.274333	1795.597656	297.790375
19472.445479	16973.274333	1794.595703	51.880024
19472.445479	16973.274333	1793.592773	125.478287
19472.445479	16973.274333	1792.589844	17.850643
19472.445479	16973.274333	1791.587891	150.907288
19472.445479	16973.274333	1790.583984	169.506668
19472.445479	16973.274333	1789.581055	264.277283
19472.445479	16973.274333	1788.577148	275.603607
19472.445479	16973.274333	1787.574219	379.744476
19472.445479	16973.274333	1786.570313	429.039276
19472.445479	16973.274333	1785.566406	278.312500
19472.445479	16973.274333	1784.561523	165.671829
19472.445479	16973.274333	1783.557617	107.747673
19472.445479	16973.274333	1782.552734	173.504074
19472.445479	16973.274333	1781.547852	105.982552
19472.445479	16973.274333	1780.542969	-30.532299
19472.445479	16973.274333	1779.538086	272.820313
19472.445479	16973.274333	1778.532227	171.874435
19472.445479	16973.274333	1777.527344	47.142014
19472.445479	16973.274333	1776.521484	55.479118
19472.445479	16973.274333	1775.515625	227.689377
19472.445479	16973.274333	1774.508789	100.475807
19472.445479	16973.274333	1773.502930	163.249298
19472.445479	16973.274333	1772.496094	399.283478
19472.445479	16973.274333	1771.489258	138.987747
19472.445479	16973.274333	1770.482422	237.146835
19472.445479	16973.274333	1769.475586	-103.825592
19472.445479	16973.274333	1768.467773	-12.890858
19472.445479	16973.274333	1767.460938	49.477943
19472.445479	16973.274333	1766.453125	232.725723
19472.445479	16973.274333	1765.445313	41.168530
19472.445479	16973.274333	1764.437500	-1.010362
19472.445479	16973.274333	1763.428711	245.963837
19472.445479	16973.274333	1762.420898	357.687012
19472.445479	16973.274333	1761.412109	123.351662
19472.445479	16973.274333	1760.403320	-4.346935
19472.445479	16973.274333	1759.393555	161.654907
19472.445479	16973.274333	1758.384766	88.338402
19472.445479	16973.274333	1757.375000	216.247131
19472.445479	16973.274333	1756.366211	57.598919
19472.445479	16973.274333	1755.356445	287.110962
19472.445479	16973.274333	1754.345703	-198.183945
19472.445479	16973.274333	1753.335938	38.258640
19472.445479	16973.274333	1752.325195	373.897766
19472.445479	16973.274333	1751.315430	257.615967
19472.445479	16973.274333	1750.304688	84.565498
19472.445479	16973.274333	1749.292969	-38.837978
19472.445479	16973.274333	1748.282227	-29.893097
19472.445479	16973.274333	1747.270508	-56.465576
19472.445479	16973.274333	1746.259766	-19.299101
19472.445479	16973.274333	1745.248047	-57.808441
19472.445479	16973.274333	1744.235352	153.994446
19472.445479	16973.274333	1743.223633	115.335060
19472.445479	16973.274333	1742.211914	343.417053
19472.445479	16973.274333	1741.199219	-4.628378
19472.445479	16973.274333	1740.186523	20.288162
19472.445479	16973.274333	1739.173828	-18.581333
19472.445479	16973.274333	1738.160156	74.612907
19472.445479	16973.274333	1737.147461	-70.529747
19472.445479	16973.274333	1736.133789	182.869858
19472.445479	16973.274333	1735.120117	304.067535
19472.445479	16973.274333	1734.106445	125.762619
19472.445479	16973.274333	1733.091797	-226.957092
19472.445479	16973.274333	1732.078125	-138.940735
19472.445479	16973.274333	1731.063477	179.867996
19472.445479	16973.274333	1730.048828	232.305405
19472.445479	16973.274333	1729.034180	2.039622
19472.445479	16973.274333	1728.019531	-46.892063
19472.445479	16973.274333	1727.003906	12.424040
19472.445479	16973.274333	1725.988281	71.652649
19472.445479	16973.274333	1724.972656	67.252968
19472.445479	16973.274333	1723.957031	-57.208359
19472.445479	16973.274333	1722.941406	81.786491
19472.445479	16973.274333	1721.924805	-136.841217
19472.445479	16973.274333	1720.909180	-263.737946
19472.445479	16973.274333	1719.892578	-30.934551
19472.445479	16973.274333	1718.875977	34.822128
19472.445479	16973.274333	1717.858398	-54.626926
19472.445479	16973.274333	1716.841797	490.330170
19472.445479	16973.274333	1715.824219	-45.664036
19472.445479	16973.274333	1714.806641	78.511093
19472.445479	16973.274333	1713.789063	-8.780803
19472.445479	16973.274333	1712.770508	385.226807
19472.445479	16973.274333	1711.752930	95.902321
19472.445479	16973.274333	1710.734375	261.952240
19472.445479	16973.274333	1709.715820	254.227982
19472.445479	16973.274333	1708.697266	291.022949
19472.445479	16973.274333	1707.678711	-115.594055
19472.445479	16973.274333	1706.659180	125.174484
19472.445479	16973.274333	1705.640625	180.551208
19472.445479	16973.274333	1704.621094	-24.377108
19472.445479	16973.274333	1703.600586	-13.647261
19472.445479	16973.274333	1702.581055	-73.282333
19472.445479	16973.274333	1701.561523	-74.377434
19472.445479	16973.274333	1700.541016	266.481903
19472.445479	16973.274333	1699.520508	572.020813
19472.445479	16973.274333	1698.500000	121.032806
19472.445479	16973.274333	1697.478516	-30.167387
19472.445479	16973.274333	1696.458008	176.774796
19472.445479	16973.274333	1695.436523	-103.205132
19472.445479	16973.274333	1694.415039	290.747192
19472.445479	16973.274333	1693.393555	22.442930
19472.445479	16973.274333	1692.372070	126.083824
19472.445479	16973.274333	1691.349609	323.167969
19472.445479	16973.274333	1690.327148	96.936668
19472.445479	16973.274333	1689.304688	-110.558640
19472.445479	16973.274333	1688.282227	-51.588814
19472.445479	16973.274333	1687.259766	-72.139542
19472.445479	16973.274333	1686.236328	147.898407
19472.445479	16973.274333	1685.213867	-104.025475
19472.445479	16973.274333	1684.190430	134.519470
19472.445479	16973.274333	1683.166016	209.479111
19472.445479	16973.274333	1682.142578	111.615715
19472.445479	16973.274333	1681.119141	258.813873
19472.445479	16973.274333	1680.094727	-35.135757
19472.445479	16973.274333	1679.070313	158.602493
19472.445479	16973.274333	1678.045898	226.257874
19472.445479	16973.274333	1677.020508	216.878769
19472.445479	16973.274333	1675.996094	247.102982
19472.445479	16973.274333	1674.970703	223.647629
19472.445479	16973.274333	1673.945313	370.315430
19472.445479	16973.274333	1672.919922	498.241913
19472.445479	16973.274333	1671.893555	250.949905
19472.445479	16973.274333	1670.868164	441.667480
19472.445479	16973.274333	1669.841797	131.519653
19472.445479	16973.274333	1668.815430	415.250732
19472.445479	16973.274333	1667.789063	237.859589
19472.445479	16973.274333	1666.761719	404.997833
19472.445479	16973.274333	1665.735352	248.550125
19472.445479	16973.274333	1664.708008	285.248627
19472.445479	16973.274333	1663.680664	331.206970
19472.445479	16973.274333	1662.653320	405.023651
19472.445479	16973.274333	1661.625000	546.215454
19472.445479	16973.274333	1660.597656	545.497437
19472.445479	16973.274333	1659.569336	447.115082
19472.445479	16973.274333	1658.541016	193.024124
19472.445479	16973.274333	1657.512695	201.576935
19472.445479	16973.274333	1656.483398	495.850708
19472.445479	16973.274333	1655.455078	560.033508
19472.445479	16973.274333	1654.425781	582.358826
19472.445479	16973.274333	1653.396484	565.177124
19472.445479	16973.274333	1652.366211	452.795898
19472.445479	16973.274333	1651.336914	718.756897
19472.445479	16973.274333	1650.306641	884.805359
19472.445479	16973.274333	1649.276367	582.111938
19472.445479	16973.274333	1648.246094	929.011597
19472.445479	16973.274333	1647.215820	628.704346
19472.445479	16973.274333	1646.185547	715.720459
19472.445479	16973.274333	1645.154297	543.033508
19472.445479	16973.274333	1644.123047	606.816223
19472.445479	16973.274333	1643.091797	573.225769
19472.445479	16973.274333	1642.060547	773.643982
19472.445479	16973.274333	1641.028320	1068.940796
19472.445479	16973.274333	1639.997070	775.839905
19472.445479	16973.274333	1638.964844	774.599976
19472.445479	16973.274333	1637.931641	611.282410
19472.445479	16973.274333	1636.899414	781.339478
19472.445479	16973.274333	1635.867188	849.490906
19472.445479	16973.274333	1634.833984	813.483459
19472.445479	16973.274333	1633.800781	900.087769
19472.445479	16973.274333	1632.767578	736.857544
19472.445479	16973.274333	1631.734375	846.553406
19472.445479	16973.274333	1630.700195	812.854004
19472.445479	16973.274333	1629.666016	954.840454
19472.445479	16973.274333	1628.631836	777.833984
19472.445479	16973.274333	1627.597656	815.786804
19472.445479	16973.274333	1626.563477	867.582581
19472.445479	16973.274333	1625.528320	734.573730
19472.445479	16973.274333	1624.493164	740.173462
19472.445479	16973.274333	1623.458008	752.699097
19472.445479	16973.274333	1622.422852	952.202454
19472.445479	16973.274333	1621.387695	1047.774292
19472.445479	16973.274333	1620.351563	928.710266
19472.445479	16973.274333	1619.315430	867.372986
19472.445479	16973.274333	1618.279297	711.493713
19472.445479	16973.274333	1617.243164	730.950439
19472.445479	16973.274333	1616.207031	715.822205
19472.445479	16973.274333	1615.169922	910.482971
19472.445479	16973.274333	1614.132813	886.121277
19472.445479	16973.274333	1613.095703	721.212646
19472.445479	16973.274333	1612.058594	874.318604
19472.445479	16973.274333	1611.020508	824.670532
19472.445479	16973.274333	1609.983398	924.753845
19472.445479	16973.274333	1608.945313	877.444458
19472.445479	16973.274333	1607.907227	915.348816
19472.445479	16973.274333	1606.868164	895.706116
19472.445479	16973.274333	1605.830078	910.613037
19472.445479	16973.274333	1604.791016	640.230713
19472.445479	16973.274333	1603.751953	1043.970215
19472.445479	16973.274333	1602.712891	996.795349
19472.445479	16973.274333	1601.673828	462.179779
19472.445479	16973.274333	1600.633789	741.632324
19472.445479	16973.274333	1599.594727	899.179077
19472.445479	16973.274333	1598.554688	748.741211
19472.445479	16973.274333	1597.513672	708.671326
19472.445479	16973.274333	1596.473633	636.483459
19472.445479	16973.274333	1595.433594	665.409363
19472.445479	16973.274333	1594.392578	604.791931
19472.445479	16973.274333	1593.351563	695.751038
19472.445479	16973.274333	1592.310547	669.641052
19472.445479	16973.274333	1591.268555	620.617676
19472.445479	16973.274333	1590.227539	826.337158
19472.445479	16973.274333	1589.185547	814.070862
19472.445479	16973.274333	1588.143555	746.797791
19472.445479	16973.274333	1587.100586	425.040833
19472.445479	16973.274333	1586.058594	699.549805
19472.445479	16973.274333	1585.015625	639.317017
19472.445479	16973.274333	1583.972656	613.520508
19472.445479	16973.274333	1582.929688	897.104553
19472.445479	16973.274333	1581.886719	804.907776
19472.445479	16973.274333	1580.843750	788.372620
19472.445479	16973.274333	1579.799805	877.221375
19472.445479	16973.274333	1578.755859	844.729553
19472.445479	16973.274333	1577.711914	771.089417
19472.445479	16973.274333	1576.666992	843.992310
19472.445479	16973.274333	1575.623047	438.675354
19472.445479	16973.274333	1574.578125	866.309387
19472.445479	16973.274333	1573.533203	760.874756
19472.445479	16973.274333	1572.488281	948.247253
19472.445479	16973.274333	1571.443359	778.912109
19472.445479	16973.274333	1570.397461	858.861633
19472.445479	16973.274333	1569.351563	826.835632
19472.445479	16973.274333	1568.305664	694.331116
19472.445479	16973.274333	1567.259766	728.706238
19472.445479	16973.274333	1566.213867	539.270386
19472.445479	16973.274333	1565.166992	560.061035
19472.445479	16973.274333	1564.120117	781.827515
19472.445479	16973.274333	1563.073242	763.863647
19472.445479	16973.274333	1562.026367	581.629150
19472.445479	16973.274333	1560.978516	1029.335449
19472.445479	16973.274333	1559.930664	525.538452
19472.445479	16973.274333	1558.883789	806.680359
19472.445479	16973.274333	1557.834961	549.544678
19472.445479	16973.274333	1556.787109	721.239990
19472.445479	16973.274333	1555.739258	578.327515
19472.445479	16973.274333	1554.690430	668.013123
19472.445479	16973.274333	1553.641602	712.149048
19472.445479	16973.274333	1552.592773	608.237976
19472.445479	16973.274333	1551.542969	875.726257
19472.445479	16973.274333	1550.494141	560.145325
19472.445479	16973.274333	1549.444336	579.472961
19472.445479	16973.274333	1548.394531	419.008484
19472.445479	16973.274333	1547.344727	463.522095
19472.445479	16973.274333	1546.293945	526.290405
19472.445479	16973.274333	1545.244141	448.039520
19472.445479	16973.274333	1544.193359	738.398315
19472.445479	16973.274333	1543.142578	598.862915
19472.445479	16973.274333	1542.090820	275.268829
19472.445479	16973.274333	1541.040039	438.384521
19472.445479	16973.274333	1539.988281	310.565918
19472.445479	16973.274333	1538.936523	544.201477
19472.445479	16973.274333	1537.884766	621.041809
19472.445479	16973.274333	1536.833008	379.896027
19472.445479	16973.274333	1535.780273	536.377380
19472.445479	16973.274333	1534.727539	638.372070
19472.445479	16973.274333	1533.674805	592.831726
19472.445479	16973.274333	1532.622070	606.401550
19472.445479	16973.274333	1531.569336	495.222656
19472.445479	16973.274333	1530.515625	379.627350
19472.445479	16973.274333	1529.461914	511.421265
19472.445479	16973.274333	1528.408203	532.106934
19472.445479	16973.274333	1527.354492	430.411438
19472.445479	16973.274333	1526.299805	557.815674
19472.445479	16973.274333	1525.246094	671.650452
19472.445479	16973.274333	1524.191406	579.291199
19472.445479	16973.274333	1523.136719	545.959167
19472.445479	16973.274333	1522.081055	360.940216
19472.445479	16973.274333	1521.026367	244.025436
19472.445479	16973.274333	1519.970703	380.858459
19472.445479	16973.274333	1518.915039	311.695313
19472.445479	16973.274333	1517.859375	570.860657
19472.445479	16973.274333	1516.802734	295.908356
19472.445479	16973.274333	1515.747070	150.122681
19472.445479	16973.274333	1514.690430	74.609016
19472.445479	16973.274333	1513.633789	-5.314550
19472.445479	16973.274333	1512.577148	113.877769
19472.445479	16973.274333	1511.519531	237.630783
19472.445479	16973.274333	1510.461914	252.918564
19472.445479	16973.274333	1509.405273	78.449280
19472.445479	16973.274333	1508.346680	218.215210
19472.445479	16973.274333	1507.289063	32.701321
19472.445479	16973.274333	1506.231445	136.456055
19472.445479	16973.274333	1505.172852	61.862167
19472.445479	16973.274333	1504.114258	-236.130249
19472.445479	16973.274333	1503.055664	71.039673
19472.445479	16973.274333	1501.996094	-66.418930
19472.445479	16973.274333	1500.937500	24.162590
19472.445479	16973.274333	1499.877930	-243.897339
19472.445479	16973.274333	1498.818359	-186.967438
19472.445479	16973.274333	1497.757813	-141.242554
19472.445479	16973.274333	1496.698242	35.322201
19472.445479	16973.274333	1495.637695	-58.590832
19472.445479	16973.274333	1494.577148	16.657072
19472.445479	16973.274333	1493.516602	31.126690
19472.445479	16973.274333	1492.456055	-8.382930
19472.445479	16973.274333	1491.394531	-68.054474
19472.445479	16973.274333	1490.333008	88.576576
19472.445479	16973.274333	1489.271484	-40.698578
19472.445479	16973.274333	1488.209961	55.274548
19472.445479	16973.274333	1487.148438	106.291046
19472.445479	16973.274333	1486.085938	-18.124353
19472.445479	16973.274333	1485.023438	-18.663862
19472.445479	16973.274333	1483.960938	237.303528
19472.445479	16973.274333	1482.898438	176.186142
19472.445479	16973.274333	1481.834961	106.194572
19472.445479	16973.274333	1480.772461	99.269424
19472.445479	16973.274333	1479.708984	-1.953340
19472.445479	16973.274333	1478.644531	58.766876
19472.445479	16973.274333	1477.581055	70.086914
19472.445479	16973.274333	1476.517578	7.444051
19472.445479	16973.274333	1475.453125	104.350128
19472.445479	16973.274333	1474.388672	46.283840
19472.445479	16973.274333	1473.323242	8.718122
19472.445479	16973.274333	1472.258789	235.941696
19472.445479	16973.274333	1471.193359	227.679764
19472.445479	16973.274333	1470.127930	-123.747581
19472.445479	16973.274333	1469.062500	47.618656
19472.445479	16973.274333	1467.997070	44.061676
19472.445479	16973.274333	1466.930664	-263.933380
19472.445479	16973.274333	1465.865234	70.901543
19472.445479	16973.274333	1464.798828	-1.533520
19472.445479	16973.274333	1463.731445	-181.212952
19472.445479	16973.274333	1462.665039	-34.681721
19472.445479	16973.274333	1461.597656	59.003651
19472.445479	16973.274333	1460.530273	78.480751
19472.445479	16973.274333	1459.462891	33.366692
19472.445479	16973.274333	1458.395508	-113.897202
19472.445479	16973.274333	1457.327148	41.295994
19472.445479	16973.274333	1456.259766	225.279114
19472.445479	16973.274333	1455.191406	-27.847128
19472.445479	16973.274333	1454.123047	1.237882
19472.445479	16973.274333	1453.053711	-94.483620
19472.445479	16973.274333	1451.985352	197.882950
19472.445479	16973.274333	1450.916016	6.286652
19472.445479	16973.274333	1449.846680	381.151215
19472.445479	16973.274333	1448.776367	200.158386
19472.445479	16973.274333	1447.707031	350.733307
19472.445479	16973.274333	1446.636719	129.601044
19472.445479	16973.274333	1445.566406	191.458389
19472.445479	16973.274333	1444.496094	106.350090
19472.445479	16973.274333	1443.425781	357.438019
19472.445479	16973.274333	1442.354492	370.072388
19472.445479	16973.274333	1441.283203	183.584366
19472.445479	16973.274333	1440.211914	356.655365
19472.445479	16973.274333	1439.140625	523.113220
19472.445479	16973.274333	1438.069336	148.209732
19472.445479	16973.274333	1436.997070	134.730957
19472.445479	16973.274333	1435.924805	372.152130
19472.445479	16973.274333	1434.852539	185.174149
19472.445479	16973.274333	1433.780273	269.763550
19472.445479	16973.274333	1432.707031	133.241898
19472.445479	16973.274333	1431.633789	392.933685
19472.445479	16973.274333	1430.560547	407.969421
19472.445479	16973.274333	1429.487305	184.202332
19472.445479	16973.274333	1428.413086	90.202362
19472.445479	16973.274333	1427.339844	73.611900
19472.445479	16973.274333	1426.265625	233.170868
19472.445479	16973.274333	1425.191406	66.017609
19472.445479	16973.274333	1424.116211	175.708710
19472.445479	16973.274333	1423.041992	405.114380
19472.445479	16973.274333	1421.966797	207.563034
19472.445479	16973.274333	1420.891602	239.514969
19472.445479	16973.274333	1419.816406	168.618195
19472.445479	16973.274333	1418.740234	143.152328
19472.445479	16973.274333	1417.665039	284.514099
19472.445479	16973.274333	1416.588867	385.585388
19472.445479	16973.274333	1415.512695	-144.910278
19472.445479	16973.274333	1414.435547	269.443695
19472.445479	16973.274333	1413.359375	107.598076
19472.445479	16973.274333	1412.282227	200.226364
19472.445479	16973.274333	1411.205078	27.852509
19472.445479	16973.274333	1410.127930	137.071747
19472.445479	16973.274333	1409.049805	59.078396
19472.445479	16973.274333	1407.972656	140.470810
19472.445479	16973.274333	1406.894531	-74.887283
19472.445479	16973.274333	1405.816406	50.998329
19472.445479	16973.274333	1404.737305	251.576126
19472.445479	16973.274333	1403.659180	22.943857
19472.445479	16973.274333	1402.580078	498.129883
19472.445479	16973.274333	1401.500977	306.116333
19472.445479	16973.274333	1400.421875	196.170319
19472.445479	16973.274333	1399.341797	220.193771
19472.445479	16973.274333	1398.262695	68.430107
19472.445479	16973.274333	1397.182617	399.052948
19472.445479	16973.274333	1396.102539	-10.996943
19472.445479	16973.274333	1395.021484	199.045898
19472.445479	16973.274333	1393.941406	-17.063969
19472.445479	16973.274333	1392.860352	51.831997
19472.445479	16973.274333	1391.779297	422.867584
19472.445479	16973.274333	1390.698242	-52.164810
19472.445479	16973.274333	1389.616211	205.057266
19472.445479	16973.274333	1388.535156	143.467316
19472.445479	16973.274333	1387.453125	45.001896
19472.445479	16973.274333	1386.371094	283.270966
19472.445479	16973.274333	1385.288086	53.058189
19472.445479	16973.274333	1384.206055	255.884384
19472.445479	16973.274333	1383.123047	287.745209
19472.445479	16973.274333	1382.040039	281.105804
19472.445479	16973.274333	1380.957031	152.242935
19472.445479	16973.274333	1379.873047	205.858459
19472.445479	16973.274333	1378.789063	1.993507
19472.445479	16973.274333	1377.705078	228.569321
19472.445479	16973.274333	1376.621094	246.102829
19472.445479	16973.274333	1375.537109	257.542603
19472.445479	16973.274333	1374.452148	188.936554
19472.445479	16973.274333	1373.367188	-24.022213
19472.445479	16973.274333	1372.282227	121.030876
19472.445479	16973.274333	1371.197266	-54.775932
19472.445479	16973.274333	1370.112305	196.847717
19472.445479	16973.274333	1369.026367	170.826920
19472.445479	16973.274333	1367.940430	279.592773
19472.445479	16973.274333	1366.854492	106.529373
19472.445479	16973.274333	1365.767578	212.151810
19472.445479	16973.274333	1364.681641	104.371223
19472.445479	16973.274333	1363.594727	162.988113
19472.445479	16973.274333	1362.507813	134.429352
19472.445479	16973.274333	1361.419922	71.452415
19472.445479	16973.274333	1360.333008	205.749268
19472.445479	16973.274333	1359.245117	242.413773
19472.445479	16973.274333	1358.157227	242.479980
19472.445479	16973.274333	1357.069336	215.072205
19472.445479	16973.274333	1355.981445	232.439697
19472.445479	16973.274333	1354.892578	188.359818
19472.445479	16973.274333	1353.803711	259.715973
19472.445479	16973.274333	1352.714844	538.905945
19472.445479	16973.274333	1351.625000	331.314514
19472.445479	16973.274333	1350.536133	451.974548
19472.445479	16973.274333	1349.446289	270.174133
19472.445479	16973.274333	1348.356445	366.333557
19472.445479	16973.274333	1347.266602	156.243134
19472.445479	16973.274333	1346.175781	308.147308
19472.445479	16973.274333	1345.085938	87.896736
19472.445479	16973.274333	1343.995117	417.918671
19472.445479	16973.274333	1342.903320	398.401947
19472.445479	16973.274333	1341.812500	230.681366
19472.445479	16973.274333	1340.720703	13.508577
19472.445479	16973.274333	1339.629883	384.044403
19472.445479	16973.274333	1338.538086	242.120728
19472.445479	16973.274333	1337.445313	368.779938
19472.445479	16973.274333	1336.353516	427.338806
19472.445479	16973.274333	1335.260742	342.670502
19472.445479	16973.274333	1334.167969	439.704498
19472.445479	16973.274333	1333.075195	401.356049
19472.445479	16973.274333	1331.981445	151.208038
19472.445479	16973.274333	1330.888672	455.904968
19472.445479	16973.274333	1329.794922	167.402420
19472.445479	16973.274333	1328.701172	470.086731
19472.445479	16973.274333	1327.606445	378.318207
19472.445479	16973.274333	1326.512695	287.549713
19472.445479	16973.274333	1325.417969	360.010498
19472.445479	16973.274333	1324.323242	335.110229
19472.445479	16973.274333	1323.227539	339.556946
19472.445479	16973.274333	1322.132813	363.264252
19472.445479	16973.274333	1321.037109	289.219421
19472.445479	16973.274333	1319.941406	294.298798
19472.445479	16973.274333	1318.845703	391.163666
19472.445479	16973.274333	1317.750000	267.594513
19472.445479	16973.274333	1316.653320	340.147278
19472.445479	16973.274333	1315.556641	95.352463
19472.445479	16973.274333	1314.459961	276.340118
19472.445479	16973.274333	1313.363281	-112.212784
19472.445479	16973.274333	1312.265625	263.894318
19472.445479	16973.274333	1311.167969	276.633209
19472.445479	16973.274333	1310.070313	277.844910
19472.445479	16973.274333	1308.972656	488.891907
19472.445479	16973.274333	1307.874023	246.129196
19472.445479	16973.274333	1306.776367	418.159027
19472.445479	16973.274333	1305.677734	431.940125
19472.445479	16973.274333	1304.579102	156.033966
19472.445479	16973.274333	1303.479492	146.248734
19472.445479	16973.274333	1302.380859	341.360352
19472.445479	16973.274333	1301.281250	124.864853
19472.445479	16973.274333	1300.181641	81.780640
19472.445479	16973.274333	1299.081055	279.021454
19472.445479	16973.274333	1297.981445	160.316162
19472.445479	16973.274333	1296.880859	100.981285
19472.445479	16973.274333	1295.780273	-69.207016
19472.445479	16973.274333	1294.679688	40.930199
19472.445479	16973.274333	1293.578125	-103.505798
19472.445479	16973.274333	1292.476563	-145.043533
19472.445479	16973.274333	1291.375000	-58.672062
19472.445479	16973.274333	1290.273438	-183.272964
19472.445479	16973.274333	1289.171875	34.223305
19472.445479	16973.274333	1288.069336	235.080215
19472.445479	16973.274333	1286.966797	129.368774
19472.445479	16973.274333	1285.864258	117.750359
19472.445479	16973.274333	1284.761719	28.435175
19472.445479	16973.274333	1283.658203	16.159357
19472.445479	16973.274333	1282.554688	-9.402575
19472.445479	16973.274333	1281.451172	118.264267
19472.445479	16973.274333	1280.347656	58.151356
19472.445479	16973.274333	1279.244141	55.021629
19472.445479	16973.274333	1278.139648	-47.572319
19472.445479	16973.274333	1277.035156	-68.026314
19472.445479	16973.274333	1275.930664	-163.774643
19472.445479	16973.274333	1274.825195	48.088779
19472.445479	16973.274333	1273.720703	-74.980850
19472.445479	16973.274333	1272.615234	-232.811234
19472.445479	16973.274333	1271.508789	-13.438200
19472.445479	16973.274333	1270.403320	86.099266
19472.445479	16973.274333	1269.297852	142.261993
19472.445479	16973.274333	1268.191406	-31.233356
19472.445479	16973.274333	1267.084961	65.436188
19472.445479	16973.274333	1265.977539	0.102528
19472.445479	16973.274333	1264.871094	33.160336
19472.445479	16973.274333	1263.763672	0.197950
19472.445479	16973.274333	1262.656250	-53.776108
19472.445479	16973.274333	1261.548828	65.501167
19472.445479	16973.274333	1260.440430	109.674179
19472.445479	16973.274333	1259.333008	-12.936562
19472.445479	16973.274333	1258.224609	-57.650948
19472.445479	16973.274333	1257.115234	-52.905209
19472.445479	16973.274333	1256.006836	-3.341655
19472.445479	16973.274333	1254.897461	11.165084
19472.445479	16973.274333	1253.788086	103.672447
19472.445479	16973.274333	1252.678711	-118.527245
19472.445479	16973.274333	1251.569336	-194.600632
19472.445479	16973.274333	1250.458984	-206.465851
19472.445479	16973.274333	1249.349609	-46.587353
19472.445479	16973.274333	1248.239258	-282.324219
19472.445479	16973.274333	1247.127930	-27.557995
19472.445479	16973.274333	1246.017578	-126.157288
19472.445479	16973.274333	1244.906250	-24.731279
19472.445479	16973.274333	1243.794922	112.488548
19472.445479	16973.274333	1242.683594	53.290657
19472.445479	16973.274333	1241.571289	7.334957
19472.445479	16973.274333	1240.459961	-146.168900
19472.445479	16973.274333	1239.347656	-45.457161
19472.445479	16973.274333	1238.234375	-63.716003
19472.445479	16973.274333	1237.122070	-6.003230
19472.445479	16973.274333	1236.008789	100.860840
19472.445479	16973.274333	1234.896484	151.705185
19472.445479	16973.274333	1233.782227	64.910828
19472.445479	16973.274333	1232.668945	133.152298
19472.445479	16973.274333	1231.555664	41.763245
19472.445479	16973.274333	1230.441406	-147.438339
19472.445479	16973.274333	1229.327148	-44.363342
19472.445479	16973.274333	1228.211914	73.763199
19472.445479	16973.274333	1227.097656	82.112396
19472.445479	16973.274333	1225.982422	-29.806299
19472.445479	16973.274333	1224.867188	29.486950
19472.445479	16973.274333	1223.751953	139.030701
19472.445479	16973.274333	1222.635742	97.761940
19472.445479	16973.274333	1221.520508	-109.782722
19472.445479	16973.274333	1220.404297	-196.826477
19472.445479	16973.274333	1219.287109	31.305906
19472.445479	16973.274333	1218.170898	21.147278
19472.445479	16973.274333	1217.053711	-7.492473
19472.445479	16973.274333	1215.936523	-17.537561
19472.445479	16973.274333	1214.819336	-107.970871
19472.445479	16973.274333	1213.702148	-3.255745
19472.445479	16973.274333	1212.583984	122.991882
19472.445479	16973.274333	1211.465820	20.242464
19472.445479	16973.274333	1210.347656	68.425247
19472.445479	16973.274333	1209.229492	-14.991450
19472.445479	16973.274333	1208.110352	-38.586540
19472.445479	16973.274333	1206.992188	35.355099
19472.445479	16973.274333	1205.873047	-32.550518
19472.445479	16973.274333	1204.752930	-121.409348
19472.445479	16973.274333	1203.633789	-30.849838
19472.445479	16973.274333	1202.513672	-81.933861
19472.445479	16973.274333	1201.393555	82.233185
19472.445479	16973.274333	1200.273438	43.350132
19472.445479	16973.274333	1199.152344	15.134737
19472.445479	16973.274333	1198.032227	73.900322
19472.445479	16973.274333	1196.911133	2.158945
19472.445479	16973.274333	1195.790039	-115.796181
19472.445479	16973.274333	1194.667969	-43.991524
19472.445479	16973.274333	1193.545898	172.815414
19472.445479	16973.274333	1192.424805	-23.941292
19472.445479	16973.274333	1191.301758	186.614502
19472.445479	16973.274333	1190.179688	85.297394
19472.445479	16973.274333	1189.056641	15.070193
19472.445479	16973.274333	1187.933594	24.673656
19472.445479	16973.274333	1186.810547	146.232483
19472.445479	16973.274333	1185.687500	16.679958
19472.445479	16973.274333	1184.563477	31.732513
19472.445479	16973.274333	1183.440430	-7.179357
19472.445479	16973.274333	1182.316406	39.219265
19472.445479	16973.274333	1181.191406	63.265881
19472.445479	16973.274333	1180.067383	83.574821
19472.445479	16973.274333	1178.942383	-8.528409
19472.445479	16973.274333	1177.817383	22.066463
19472.445479	16973.274333	1176.692383	21.124819
19472.445479	16973.274333	1175.566406	48.971233
19472.445479	16973.274333	1174.440430	-74.458687
19472.445479	16973.274333	1173.314453	73.160034
19472.445479	16973.274333	1172.188477	62.691422
19472.445479	16973.274333	1171.062500	-10.287587
19472.445479	16973.274333	1169.935547	-113.540474
19472.445479	16973.274333	1168.808594	-10.125537
19472.445479	16973.274333	1167.681641	46.563465
19472.445479	16973.274333	1166.553711	111.668236
19472.445479	16973.274333	1165.426758	95.859848
19472.445479	16973.274333	1164.298828	-63.876972
19472.445479	16973.274333	1163.170898	1.034473
19472.445479	16973.274333	1162.041992	-4.723239
19472.445479	16973.274333	1160.914063	-103.577324
19472.445479	16973.274333	1159.785156	43.259388
19472.445479	16973.274333	1158.656250	172.238770
19472.445479	16973.274333	1157.526367	22.677073
19472.445479	16973.274333	1156.397461	12.175726
19472.445479	16973.274333	1155.267578	-126.630730
19472.445479	16973.274333	1154.137695	-6.226755
19472.445479	16973.274333	1153.006836	-107.115593
19472.445479	16973.274333	1151.876953	-86.351692
19472.445479	16973.274333	1150.746094	-38.796921
19472.445479	16973.274333	1149.615234	-150.165039
19472.445479	16973.274333	1148.484375	-56.981525
19472.445479	16973.274333	1147.352539	-60.956833
19472.445479	16973.274333	1146.220703	-89.358299
19472.445479	16973.274333	1145.088867	-206.261200
19472.445479	16973.274333	1143.957031	-71.445847
19472.445479	16973.274333	1142.825195	-152.503159
19472.445479	16973.274333	1141.692383	-131.648605
19472.445479	16973.274333	1140.559570	-41.729397
19472.445479	16973.274333	1139.426758	116.546432
19472.445479	16973.274333	1138.292969	163.726944
19472.445479	16973.274333	1137.159180	254.667236
19472.445479	16973.274333	1136.025391	252.988388
19472.445479	16973.274333	1134.891602	41.656197
19472.445479	16973.274333	1133.757813	236.981201
19472.445479	16973.274333	1132.623047	172.408737
19472.445479	16973.274333	1131.488281	100.474815
19472.445479	16973.274333	1130.353516	115.484131
19472.445479	16973.274333	1129.217773	71.721756
19472.445479	16973.274333	1128.083008	308.000366
19472.445479	16973.274333	1126.947266	100.535538
19472.445479	16973.274333	1125.811523	204.955353
19472.445479	16973.274333	1124.674805	10.475386
19472.445479	16973.274333	1123.539063	37.869606
19472.445479	16973.274333	1122.402344	-95.198456
19472.445479	16973.274333	1121.265625	61.997097
19472.445479	16973.274333	1120.127930	-3.214031
19472.445479	16973.274333	1118.990234	84.727158
19472.445479	16973.274333	1117.853516	48.181599
19472.445479	16973.274333	1116.714844	263.069672
19472.445479	16973.274333	1115.577148	189.141083
19472.445479	16973.274333	1114.439453	157.322128
19472.445479	16973.274333	1113.300781	144.183487
19472.445479	16973.274333	1112.162109	68.913376
19472.445479	16973.274333	1111.022461	95.955444
19472.445479	16973.274333	1109.883789	117.230232
19472.445479	16973.274333	1108.744141	85.246033
19472.445479	16973.274333	1107.604492	251.793762
19472.445479	16973.274333	1106.463867	272.175354
19472.445479	16973.274333	1105.324219	120.463013
19472.445479	16973.274333	1104.183594	25.747784
19472.445479	16973.274333	1103.042969	17.916447
19472.445479	16973.274333	1101.902344	129.025772
19472.445479	16973.274333	1100.760742	345.770081
19472.445479	16973.274333	1099.619141	324.641785
19472.445479	16973.274333	1098.477539	294.347076
19472.445479	16973.274333	1097.335938	242.081406
19472.445479	16973.274333	1096.193359	301.960846
19472.445479	16973.274333	1095.051758	302.140411
19472.445479	16973.274333	1093.909180	244.945801
19472.445479	16973.274333	1092.765625	253.618256
19472.445479	16973.274333	1091.623047	324.399017
19472.445479	16973.274333	1090.479492	443.878174
19472.445479	16973.274333	1089.335938	157.568024
19472.445479	16973.274333	1088.192383	81.243202
19472.445479	16973.274333	1087.047852	215.166931
19472.445479	16973.274333	1085.903320	112.548912
19472.445479	16973.274333	1084.758789	176.260468
19472.445479	16973.274333	1083.614258	19.562510
19472.445479	16973.274333	1082.469727	94.681816
19472.445479	16973.274333	1081.324219	36.249596
19472.445479	16973.274333	1080.178711	11.482623
19472.445479	16973.274333	1079.033203	243.650650
19472.445479	16973.274333	1077.886719	51.299801
19472.445479	16973.274333	1076.740234	232.268097
19472.445479	16973.274333	1075.593750	232.559662
19472.445479	16973.274333	1074.447266	55.955952
19472.445479	16973.274333	1073.300781	139.378113
19472.445479	16973.274333	1072.153320	120.104515
19472.445479	16973.274333	1071.005859	202.777100
19472.445479	16973.274333	1069.858398	0.031824
19472.445479	16973.274333	1068.709961	189.375504
19472.445479	16973.274333	1067.561523	29.108376
19472.445479	16973.274333	1066.413086	110.337128
19472.445479	16973.274333	1065.264648	325.362762
19472.445479	16973.274333	1064.116211	198.512726
19472.445479	16973.274333	1062.966797	193.681320
19472.445479	16973.274333	1061.817383	391.916046
19472.445479	16973.274333	1060.667969	233.058945
19472.445479	16973.274333	1059.517578	90.821663
19472.445479	16973.274333	1058.368164	-1.015198
19472.445479	16973.274333	1057.217773	53.844368
19472.445479	16973.274333	1056.067383	102.365036
19472.445479	16973.274333	1054.916016	115.624519
19472.445479	16973.274333	1053.764648	181.283844
19472.445479	16973.274333	1052.613281	80.109886
19472.445479	16973.274333	1051.461914	188.620483
19472.445479	16973.274333	1050.310547	-28.094242
19472.445479	16973.274333	1049.158203	-55.496788
19472.445479	16973.274333	1048.005859	119.583824
19472.445479	16973.274333	1046.853516	-16.149002
19472.445479	16973.274333	1045.700195	70.469101
19472.445479	16973.274333	1044.547852	-24.341974
19472.445479	16973.274333	1043.394531	140.395630
19472.445479	16973.274333	1042.240234	11.478990
19472.445479	16973.274333	1041.086914	212.717041
19472.445479	16973.274333	1039.932617	30.704655
19472.445479	16973.274333	1038.778320	163.750763
19472.445479	16973.274333	1037.624023	-22.531088
19472.445479	16973.274333	1036.469727	66.796898
19472.445479	16973.274333	1035.314453	265.821686
19472.445479	16973.274333	1034.159180	312.477295
19472.445479	16973.274333	1033.003906	448.616577
19472.445479	16973.274333	1031.847656	651.700439
19472.445479	16973.274333	1030.692383	536.409424
19472.445479	16973.274333	1029.536133	823.397461
19472.445479	16973.274333	1028.378906	555.468506
19472.445479	16973.274333	1027.222656	500.630371
19472.445479	16973.274333	1026.065430	424.579834
19472.445479	16973.274333	1024.908203	327.382965
19472.445479	16973.274333	1023.750977	13.456120
19472.445479	16973.274333	1022.593750	153.178436
19472.445479	16973.274333	1021.435547	-9.721845
19472.445479	16973.274333	1020.277344	32.933807
19472.445479	16973.274333	1019.119141	-4.965651
19472.445479	16973.274333	1017.959961	106.684868
19472.445479	16973.274333	1016.800781	210.939957
19472.445479	16973.274333	1015.641602	195.358490
19472.445479	16973.274333	1014.482422	52.393879
19472.445479	16973.274333	1013.323242	29.183107
19472.445479	16973.274333	1012.163086	55.966869
19472.445479	16973.274333	1011.002930	120.597748
19472.445479	16973.274333	1009.842773	34.551594
19472.445479	16973.274333	1008.681641	139.850281
19472.445479	16973.274333	1007.520508	71.142342
19472.445479	16973.274333	1006.359375	13.579432
19472.445479	16973.274333	1005.198242	10.627627
19472.445479	16973.274333	1004.037109	267.342865
19472.445479	16973.274333	1002.875000	216.183380
19472.445479	16973.274333	1001.712891	124.768570
19472.445479	16973.274333	1000.550781	21.862354
19472.445479	16973.274333	999.387695	30.214909
19472.445479	16973.274333	998.224609	-51.152966
19472.445479	16973.274333	997.061523	-137.398254
19472.445479	16973.274333	995.898438	104.255684
19472.445479	16973.274333	994.734375	35.683918
19472.445479	16973.274333	993.571289	-284.609100
19472.445479	16973.274333	992.407227	-53.526764
19472.445479	16973.274333	991.242188	10.331463
19472.445479	16973.274333	990.078125	-52.113808
19472.445479	16973.274333	988.913086	-81.352081
19472.445479	16973.274333	987.748047	-81.960030
19472.445479	16973.274333	986.583008	-37.215759
19472.445479	16973.274333	985.416992	95.952904
19472.445479	16973.274333	984.250977	-89.438873
19472.445479	16973.274333	983.084961	-141.225830
19472.445479	16973.274333	981.918945	-0.266135
19472.445479	16973.274333	980.751953	-164.851990
19472.445479	16973.274333	979.584961	-106.961311
19472.445479	16973.274333	978.417969	-25.750147
19472.445479	16973.274333	977.250977	-122.784683
19472.445479	16973.274333	976.083008	73.188690
19472.445479	16973.274333	974.915039	-119.146744
19472.445479	16973.274333	973.747070	85.791237
19472.445479	16973.274333	972.579102	-9.223731
19472.445479	16973.274333	971.410156	32.445675
19472.445479	16973.274333	970.242188	4.222627
19472.445479	16973.274333	969.072266	85.973724
19472.445479	16973.274333	967.903320	-30.691677
19472.445479	16973.274333	966.733398	-72.739464
19472.445479	16973.274333	965.563477	-67.690353
19472.445479	16973.274333	964.393555	24.043730
19472.445479	16973.274333	963.223633	74.136772
19472.445479	16973.274333	962.052734	243.432953
19472.445479	16973.274333	960.881836	51.099117
19472.445479	16973.274333	959.710938	-66.620430
19472.445479	16973.274333	958.540039	-236.563431
19472.445479	16973.274333	957.368164	-21.784243
19472.445479	16973.274333	956.196289	-65.372780
19472.445479	16973.274333	955.024414	-83.747864
19472.445479	16973.274333	953.851563	-26.267595
19472.445479	16973.274333	952.679688	51.007278
19472.445479	16973.274333	951.506836	9.749049
19472.445479	16973.274333	950.333984	140.630539
19472.445479	16973.274333	949.160156	193.583588
19472.445479	16973.274333	947.986328	200.749786
19472.445479	16973.274333	946.812500	-141.973297
19472.445479	16973.274333	945.638672	92.727936
19472.445479	16973.274333	944.464844	-187.910095
19472.445479	16973.274333	943.290039	44.246479
19472.445479	16973.274333	942.115234	169.678207
19472.445479	16973.274333	940.940430	144.477921
19472.445479	16973.274333	939.764648	6.302906
19472.445479	16973.274333	938.588867	26.908125
19472.445479	16973.274333	937.413086	58.401070
19472.445479	16973.274333	936.237305	217.294495
19472.445479	16973.274333	935.060547	76.935059
19472.445479	16973.274333	933.883789	183.566040
19472.445479	16973.274333	932.707031	-94.615257
19472.445479	16973.274333	931.530273	51.510380
19472.445479	16973.274333	930.352539	84.774849
19472.445479	16973.274333	929.175781	107.514435
19472.445479	16973.274333	927.998047	132.335281
19472.445479	16973.274333	926.819336	167.620178
19472.445479	16973.274333	925.641602	-20.665619
19472.445479	16973.274333	924.462891	-25.063519
19472.445479	16973.274333	923.284180	1.823174
19472.445479	16973.274333	922.104492	135.177795
19472.445479	16973.274333	920.924805	189.138275
19472.445479	16973.274333	919.746094	195.860184
19472.445479	16973.274333	919.551758	100.145409
19472.445479	16973.274333	918.386719	-54.704082
19472.445479	16973.274333	917.220703	-161.514999
19472.445479	16973.274333	916.054688	-176.517532
19472.445479	16973.274333	914.887695	-76.822403
19472.445479	16973.274333	913.721680	-135.655502
19472.445479	16973.274333	912.554688	-0.601589
19472.445479	16973.274333	911.387695	159.391434
19472.445479	16973.274333	910.220703	-7.856178
19472.445479	16973.274333	909.052734	-168.796066
19472.445479	16973.274333	907.885742	-110.981140
19472.445479	16973.274333	906.717773	44.678482
19472.445479	16973.274333	905.548828	-120.382736
19472.445479	16973.274333	904.380859	45.589989
19472.445479	16973.274333	903.211914	211.484283
19472.445479	16973.274333	902.042969	-47.198456
19472.445479	16973.274333	900.874023	-62.384106
19472.445479	16973.274333	899.704102	-2.694392
19472.445479	16973.274333	898.535156	-11.678110
19472.445479	16973.274333	897.365234	10.517032
19472.445479	16973.274333	896.194336	-73.324928
19472.445479	16973.274333	895.024414	135.885971
19472.445479	16973.274333	893.853516	-105.900444
19472.445479	16973.274333	892.682617	-48.452217
19472.445479	16973.274333	891.511719	-40.894470
19472.445479	16973.274333	890.340820	149.383026
19472.445479	16973.274333	889.168945	75.895081
19472.445479	16973.274333	887.997070	70.918594
19472.445479	16973.274333	886.825195	101.206367
19472.445479	16973.274333	885.653320	193.711380
19472.445479	16973.274333	884.480469	-0.116097
19472.445479	16973.274333	883.307617	171.153229
19472.445479	16973.274333	882.134766	25.066099
19472.445479	16973.274333	880.961914	-46.345428
19472.445479	16973.274333	879.788086	-14.101878
19472.445479	16973.274333	878.614258	7.747590
19472.445479	16973.274333	877.440430	193.250656
19472.445479	16973.274333	876.266602	-122.649475
19472.445479	16973.274333	875.091797	-53.211720
19472.445479	16973.274333	873.916992	233.597839
19472.445479	16973.274333	872.742188	62.743843
19472.445479	16973.274333	871.567383	103.062065
19472.445479	16973.274333	870.391602	56.432182
19472.445479	16973.274333	869.215820	198.077606
19472.445479	16973.274333	868.040039	-59.587791
19472.445479	16973.274333	866.864258	-73.130623
19472.445479	16973.274333	865.687500	-8.110742
19472.445479	16973.274333	864.510742	154.022476
19472.445479	16973.274333	863.333984	-4.296626
19472.445479	16973.274333	862.157227	114.329216
19472.445479	16973.274333	860.979492	228.756073
19472.445479	16973.274333	859.802734	194.385376
19472.445479	16973.274333	858.625000	21.645292
19472.445479	16973.274333	857.446289	-76.712524
19472.445479	16973.274333	856.268555	-9.913456
19472.445479	16973.274333	855.089844	116.692184
19472.445479	16973.274333	853.911133	-41.537209
19472.445479	16973.274333	852.731445	68.473991
19472.445479	16973.274333	851.552734	15.464411
19472.445479	16973.274333	850.373047	-49.918377
19472.445479	16973.274333	849.193359	-123.545410
19472.445479	16973.274333	848.013672	70.807671
19472.445479	16973.274333	846.833008	-56.445721
19472.445479	16973.274333	845.652344	-90.950012
19472.445479	16973.274333	844.471680	-92.505249
19472.445479	16973.274333	843.291016	-44.654659
19472.445479	16973.274333	842.110352	-40.094788
19472.445479	16973.274333	840.928711	-47.912361
19472.445479	16973.274333	839.747070	-129.856186
19472.445479	16973.274333	838.564453	66.035812
19472.445479	16973.274333	837.382813	70.462723
19472.445479	16973.274333	836.200195	237.377213
19472.445479	16973.274333	835.017578	249.941696
19472.445479	16973.274333	833.834961	3.381509
19472.445479	16973.274333	832.651367	32.381214
19472.445479	16973.274333	831.467773	67.506622
19472.445479	16973.274333	830.284180	57.377598
19472.445479	16973.274333	829.100586	-53.452431
19472.445479	16973.274333	827.916992	-65.667328
19472.445479	16973.274333	826.732422	86.394897
19472.445479	16973.274333	825.547852	4.286509
19472.445479	16973.274333	824.363281	22.770905
19472.445479	16973.274333	823.177734	117.162331
19472.445479	16973.274333	821.992188	143.765091
19472.445479	16973.274333	820.806641	49.280067
19472.445479	16973.274333	819.621094	53.257790
19472.445479	16973.274333	818.434570	96.170593
19472.445479	16973.274333	817.249023	276.401093
19472.445479	16973.274333	816.062500	231.036743
19472.445479	16973.274333	814.875000	91.383896
19472.445479	16973.274333	813.688477	74.696381
19472.445479	16973.274333	812.500977	111.249046
19472.445479	16973.274333	811.313477	325.948975
19472.445479	16973.274333	810.125977	147.345718
19472.445479	16973.274333	808.937500	171.475830
19472.445479	16973.274333	807.749023	158.715256
19472.445479	16973.274333	806.560547	121.366455
19472.445479	16973.274333	805.372070	227.225082
19472.445479	16973.274333	804.182617	152.985794
19472.445479	16973.274333	802.994141	164.638351
19472.445479	16973.274333	801.803711	47.430244
19472.445479	16973.274333	800.614258	9.964067
19472.445479	16973.274333	799.424805	140.082901
19472.445479	16973.274333	798.234375	10.579885
19472.445479	16973.274333	797.043945	54.759960
19472.445479	16973.274333	795.852539	-5.291791
19472.445479	16973.274333	794.662109	77.600395
19472.445479	16973.274333	793.470703	-53.975124
19472.445479	16973.274333	792.279297	100.270111
19472.445479	16973.274333	791.087891	54.390568
19472.445479	16973.274333	789.895508	159.498535
19472.445479	16973.274333	788.703125	103.348389
19472.445479	16973.274333	787.510742	-9.933107
19472.445479	16973.274333	786.318359	-92.616684
19472.445479	16973.274333	785.125000	-134.525726
19472.445479	16973.274333	783.931641	51.855076
19472.445479	16973.274333	782.738281	-128.737198
19472.445479	16973.274333	781.544922	-113.680649
19472.445479	16973.274333	780.350586	-131.264603
19472.445479	16973.274333	779.156250	-47.042965
19472.445479	16973.274333	777.961914	94.120819
19472.445479	16973.274333	776.767578	259.616241
19472.445479	16973.274333	775.572266	302.870605
19472.445479	16973.274333	774.376953	91.674965
19472.445479	16973.274333	773.181641	22.951994
19472.445479	16973.274333	771.986328	45.758179
19472.445479	16973.274333	770.790039	-6.738023
19472.445479	16973.274333	769.593750	-47.056004
19472.445479	16973.274333	768.397461	36.613682
19472.445479	16973.274333	767.201172	53.129303
19472.445479	16973.274333	766.003906	120.401382
19472.445479	16973.274333	764.806641	118.522026
19472.445479	16973.274333	763.609375	13.002860
19472.445479	16973.274333	762.412109	4.965847
19472.445479	16973.274333	761.213867	92.322372
19472.445479	16973.274333	760.015625	74.036789
19472.445479	16973.274333	758.817383	102.395157
19472.445479	16973.274333	757.618164	67.794113
19472.445479	16973.274333	756.419922	373.994843
19472.445479	16973.274333	755.220703	327.092438
19472.445479	16973.274333	754.021484	109.818047
19472.445479	16973.274333	752.821289	162.249878
19472.445479	16973.274333	751.621094	72.718788
19472.445479	16973.274333	750.420898	35.873211
19472.445479	16973.274333	749.220703	134.757065
19472.445479	16973.274333	748.020508	195.063736
19472.445479	16973.274333	746.819336	52.761864
19472.445479	16973.274333	745.618164	220.295837
19472.445479	16973.274333	744.416992	140.719406
19472.445479	16973.274333	743.214844	0.408353
19472.445479	16973.274333	742.012695	238.544525
19472.445479	16973.274333	740.810547	29.390669
19472.445479	16973.274333	739.608398	158.096268
19472.445479	16973.274333	738.406250	292.770782
19472.445479	16973.274333	737.203125	132.130676
19472.445479	16973.274333	736.000000	284.860992
19472.445479	16973.274333	734.795898	340.467163
19472.445479	16973.274333	733.592773	410.149506
19472.445479	16973.274333	732.388672	291.869019
19472.445479	16973.274333	731.184570	44.318741
19472.445479	16973.274333	729.979492	327.954254
19472.445479	16973.274333	728.775391	254.050354
19472.445479	16973.274333	727.570313	375.942871
19472.445479	16973.274333	726.365234	75.933357
19472.445479	16973.274333	725.160156	213.866776
19472.445479	16973.274333	723.954102	61.198586
19472.445479	16973.274333	722.748047	209.076218
19472.445479	16973.274333	721.541992	52.352428
19472.445479	16973.274333	720.334961	109.360573
19472.445479	16973.274333	719.128906	-65.503799
19472.445479	16973.274333	717.921875	23.663046
19472.445479	16973.274333	716.714844	155.062469
19472.445479	16973.274333	715.506836	-29.898048
19472.445479	16973.274333	714.298828	-118.151825
19472.445479	16973.274333	713.090820	-180.233688
19472.445479	16973.274333	711.882813	-53.093502
19472.445479	16973.274333	710.674805	-20.646942
19472.445479	16973.274333	709.465820	1.685239
19472.445479	16973.274333	708.256836	-50.471443
19472.445479	16973.274333	707.047852	60.281834
19472.445479	16973.274333	705.837891	124.695160
19472.445479	16973.274333	704.627930	-12.018899
19472.445479	16973.274333	703.417969	-112.531799
19472.445479	16973.274333	702.208008	-86.424156
19472.445479	16973.274333	700.998047	-40.271698
19472.445479	16973.274333	699.787109	-54.443558
19472.445479	16973.274333	698.576172	172.374619
19472.445479	16973.274333	697.364258	-6.573076
19472.445479	16973.274333	696.153320	-91.122032
19472.445479	16973.274333	694.941406	-125.489601
19472.445479	16973.274333	693.729492	-45.488213
19472.445479	16973.274333	692.516602	237.092010
19472.445479	16973.274333	691.304688	-230.719803
19472.445479	16973.274333	690.091797	166.029724
19472.445479	16973.274333	688.878906	-6.879871
19472.445479	16973.274333	687.665039	38.764168
19472.445479	16973.274333	686.451172	10.199456
19472.445479	16973.274333	685.237305	93.830910
19472.445479	16973.274333	684.023438	-93.068367
19472.445479	16973.274333	682.809570	-103.653008
19472.445479	16973.274333	681.594727	-124.275734
19472.445479	16973.274333	680.379883	221.482895
19472.445479	16973.274333	679.165039	174.720261
19472.445479	16973.274333	677.949219	41.893177
19472.445479	16973.274333	676.733398	163.212204
19472.445479	16973.274333	675.517578	28.390003
19472.445479	16973.274333	674.301758	-28.397894
19472.445479	16973.274333	673.084961	6.797500
19472.445479	16973.274333	671.869141	-109.986908
19472.445479	16973.274333	670.651367	171.018112
19472.445479	16973.274333	669.434570	-29.729498
19472.445479	16973.274333	668.216797	41.309017
19472.445479	16973.274333	667.000000	286.084839
19472.445479	16973.274333	665.781250	203.207840
19472.445479	16973.274333	664.563477	174.257324
19472.445479	16973.274333	663.344727	61.457508
19472.445479	16973.274333	662.125977	180.207825
19472.445479	16973.274333	660.907227	59.437855
19472.445479	16973.274333	659.688477	30.474665
19472.445479	16973.274333	658.468750	177.033813
19472.445479	16973.274333	657.249023	42.338039
19472.445479	16973.274333	656.029297	288.493744
19472.445479	16973.274333	654.808594	165.765335
19472.445479	16973.274333	653.587891	212.476196
19472.445479	16973.274333	652.367188	12.087256
19472.445479	16973.274333	651.146484	-120.495255
19472.445479	16973.274333	649.924805	13.851465
19472.445479	16973.274333	648.704102	142.160126
19472.445479	16973.274333	647.482422	19.566008
19472.445479	16973.274333	646.259766	-9.432834
19472.445479	16973.274333	645.037109	35.204899
19472.445479	16973.274333	643.815430	28.091803
19472.445479	16973.274333	642.591797	92.588509
19472.445479	16973.274333	641.369141	87.451675
19472.445479	16973.274333	640.145508	56.468967
19472.445479	16973.274333	638.921875	172.603592
19472.445479	16973.274333	637.698242	155.530441
19472.445479	16973.274333	636.474609	174.234940
19472.445479	16973.274333	635.250000	188.962082
19472.445479	16973.274333	634.025391	142.116486
19472.445479	16973.274333	632.800781	5.937532
19472.445479	16973.274333	631.575195	141.815720
19472.445479	16973.274333	630.349609	100.985786
19472.445479	16973.274333	629.124023	-37.057053
19472.445479	16973.274333	627.898438	-22.257000
19472.445479	16973.274333	626.671875	-64.977394
19472.445479	16973.274333	625.445313	132.305527
19472.445479	16973.274333	624.218750	147.099701
19472.445479	16973.274333	622.992188	-30.390636
19472.445479	16973.274333	621.764648	-1.663531
19472.445479	16973.274333	620.537109	197.482483
19472.445479	16973.274333	619.309570	-47.212246
19472.445479	16973.274333	618.081055	27.111721
19472.445479	16973.274333	616.852539	113.307167
19472.445479	16973.274333	615.624023	86.634956
19472.445479	16973.274333	614.395508	79.791504
19472.445479	16973.274333	613.166992	-37.850990
19472.445479	16973.274333	611.937500	-64.401779
19472.445479	16973.274333	610.708008	-57.286499
19472.445479	16973.274333	609.477539	-210.345810
19472.445479	16973.274333	608.248047	22.272850
19472.445479	16973.274333	607.017578	25.498417
19472.445479	16973.274333	605.787109	109.789909
19472.445479	16973.274333	604.555664	39.941509
19472.445479	16973.274333	603.325195	-98.992317
19472.445479	16973.274333	602.093750	-30.431084
19472.445479	16973.274333	600.861328	-52.705700
19472.445479	16973.274333	599.629883	146.199020
19472.445479	16973.274333	598.397461	-178.053268
19472.445479	16973.274333	597.165039	12.975669
19472.445479	16973.274333	595.932617	-101.878235
19472.445479	16973.274333	594.699219	-3.586256
19472.445479	16973.274333	593.465820	9.895169
19472.445479	16973.274333	592.232422	23.412680
19472.445479	16973.274333	590.999023	-112.863869
19472.445479	16973.274333	589.764648	-158.370544
19472.445479	16973.274333	588.530273	-40.249516
19472.445479	16973.274333	587.295898	38.462955
19472.445479	16973.274333	586.061523	148.705200
19472.445479	16973.274333	584.826172	-121.141411
19472.445479	16973.274333	583.590820	95.508270
19472.445479	16973.274333	582.355469	-10.725870
19472.445479	16973.274333	581.119141	79.948730
19472.445479	16973.274333	579.882813	263.116028
19472.445479	16973.274333	578.646484	273.136078
19472.445479	16973.274333	577.410156	273.369843
19472.445479	16973.274333	576.172852	269.725220
19472.445479	16973.274333	574.935547	193.391296
19472.445479	16973.274333	573.698242	311.738770
19472.445479	16973.274333	572.460938	225.711517
19472.445479	16973.274333	571.222656	145.671494
19472.445479	16973.274333	569.984375	46.078030
19472.445479	16973.274333	568.746094	97.804581
19472.445479	16973.274333	567.506836	239.887955
19472.445479	16973.274333	566.267578	301.481537
19472.445479	16973.274333	565.028320	160.950867
19472.445479	16973.274333	563.789063	185.365494
19472.445479	16973.274333	562.548828	196.097168
19472.445479	16973.274333	561.309570	97.040596
19472.445479	16973.274333	560.068359	117.708214
19472.445479	16973.274333	558.828125	324.677551
19472.445479	16973.274333	557.586914	243.475143
19472.445479	16973.274333	556.345703	391.655060
19472.445479	16973.274333	555.104492	102.901695
19472.445479	16973.274333	553.863281	258.999054
19472.445479	16973.274333	552.621094	336.749512
19472.445479	16973.274333	551.378906	218.718338
19472.445479	16973.274333	550.136719	382.694244
19472.445479	16973.274333	548.893555	274.604523
19472.445479	16973.274333	547.650391	342.730011
19472.445479	16973.274333	546.407227	444.139404
19472.445479	16973.274333	545.164063	410.599640
19472.445479	16973.274333	543.919922	443.618958
19472.445479	16973.274333	542.675781	363.279480
19472.445479	16973.274333	541.431641	435.495331
19472.445479	16973.274333	540.186523	324.029510
19472.445479	16973.274333	538.941406	277.141510
19472.445479	16973.274333	537.696289	456.921997
19472.445479	16973.274333	536.451172	464.807220
19472.445479	16973.274333	535.205078	338.008240
19472.445479	16973.274333	533.959961	392.861664
19472.445479	16973.274333	532.712891	463.354767
19472.445479	16973.274333	531.466797	451.900513
19472.445479	16973.274333	530.219727	452.200378
19472.445479	16973.274333	528.972656	448.638855
19472.445479	16973.274333	527.725586	575.772583
19472.445479	16973.274333	526.478516	607.352478
19472.445479	16973.274333	525.230469	523.948425
19472.445479	16973.274333	523.982422	775.813416
19472.445479	16973.274333	522.734375	741.179565
19472.445479	16973.274333	521.485352	741.654419
19472.445479	16973.274333	520.236328	878.483765
19472.445479	16973.274333	518.987305	664.785095
19472.445479	16973.274333	517.737305	706.224243
19472.445479	16973.274333	516.488281	778.798645
19472.445479	16973.274333	515.238281	810.493225
19472.445479	16973.274333	513.988281	774.091064
19472.445479	16973.274333	512.737305	669.635498
19472.445479	16973.274333	511.486328	959.994263
19472.445479	16973.274333	510.235352	878.875671
19472.445479	16973.274333	508.984375	1067.978027
19472.445479	16973.274333	507.732422	1291.975098
19472.445479	16973.274333	506.480469	1004.856079
19472.445479	16973.274333	505.228516	1257.878296
19472.445479	16973.274333	503.976563	1198.082397
19472.445479	16973.274333	502.723633	1281.978271
19472.445479	16973.274333	501.470703	1323.097412
19472.445479	16973.274333	500.217773	1389.393921
19472.445479	16973.274333	498.963867	1482.790161
19472.445479	16973.274333	497.709961	1611.021362
19472.445479	16973.274333	496.456055	1739.145508
19472.445479	16973.274333	495.202148	1929.212769
19472.445479	16973.274333	493.947266	1638.309570
19472.445479	16973.274333	492.692383	1655.668457
19472.445479	16973.274333	491.437500	1773.718994
19472.445479	16973.274333	490.181641	1847.074097
19472.445479	16973.274333	488.926758	1821.512573
19472.445479	16973.274333	487.670898	1797.804688
19472.445479	16973.274333	486.414063	2047.026978
19472.445479	16973.274333	485.158203	2146.965088
19472.445479	16973.274333	483.901367	2285.453369
19472.445479	16973.274333	482.644531	2090.926514
19472.445479	16973.274333	481.386719	2043.384033
19472.445479	16973.274333	480.128906	2367.092285
19472.445479	16973.274333	478.871094	2348.225342
19472.445479	16973.274333	477.613281	2514.813232
19472.445479	16973.274333	476.355469	2375.750732
19472.445479	16973.274333	475.096680	2538.052246
19472.445479	16973.274333	473.837891	2531.999512
19472.445479	16973.274333	472.578125	2616.544434
19472.445479	16973.274333	471.319336	2772.304199
19472.445479	16973.274333	470.059570	2558.979004
19472.445479	16973.274333	468.799805	2693.003906
19472.445479	16973.274333	467.539063	2556.523438
19472.445479	16973.274333	466.278320	2637.901367
19472.445479	16973.274333	465.017578	2852.099854
19472.445479	16973.274333	463.756836	2705.243896
19472.445479	16973.274333	462.495117	2693.153076
19472.445479	16973.274333	461.233398	2910.198975
19472.445479	16973.274333	459.971680	2785.661377
19472.445479	16973.274333	458.709961	2878.621094
19472.445479	16973.274333	457.447266	2844.037598
19472.445479	16973.274333	456.184570	2890.022949
19472.445479	16973.274333	454.921875	3114.730957
19472.445479	16973.274333	453.658203	3263.866699
19472.445479	16973.274333	452.394531	2983.252441
19472.445479	16973.274333	451.130859	3173.889404
19472.445479	16973.274333	449.867188	3444.834961
19472.445479	16973.274333	448.602539	3013.025879
19472.445479	16973.274333	447.337891	3284.908447
19472.445479	16973.274333	446.073242	3454.282959
19472.445479	16973.274333	444.807617	3292.404541
19472.445479	16973.274333	443.542969	3266.564697
19472.445479	16973.274333	442.276367	3501.553955
19472.445479	16973.274333	441.010742	3443.858887
19472.445479	16973.274333	439.744141	3272.284912
19472.445479	16973.274333	438.478516	3372.920166
19472.445479	16973.274333	437.210938	3469.052002
19472.445479	16973.274333	435.944336	3539.568848
19472.445479	16973.274333	434.676758	3494.249512
19472.445479	16973.274333	433.409180	3471.311768
19472.445479	16973.274333	432.141602	3566.636719
19472.445479	16973.274333	430.873047	3492.417480
19472.445479	16973.274333	429.604492	3442.428223
19472.445479	16973.274333	428.335938	3523.990479
19472.445479	16973.274333	427.067383	3528.070068
19472.445479	16973.274333	425.797852	3454.681152
19472.445479	16973.274333	424.528320	3706.202393
19472.445479	16973.274333	423.258789	3604.310547
19472.445479	16973.274333	421.988281	3618.393799
19472.445479	16973.274333	420.717773	3591.358398
19472.445479	16973.274333	419.447266	3584.460938
19472.445479	16973.274333	418.175781	3607.213623
19472.445479	16973.274333	416.905273	3435.733398
19472.445479	16973.274333	415.633789	3779.811768
19472.445479	16973.274333	414.362305	3881.708984
19472.445479	16973.274333	413.089844	3756.835449
19472.445479	16973.274333	411.817383	3642.383545
19472.445479	16973.274333	410.544922	3639.617920
19472.445479	16973.274333	409.272461	3683.463867
19472.445479	16973.274333	407.999023	3571.319336
19472.445479	16973.274333	406.725586	3547.768555
19472.445479	16973.274333	405.452148	3585.986084
19472.445479	16973.274333	404.177734	3500.672607
19472.445479	16973.274333	402.903320	3436.969238
19472.445479	16973.274333	401.628906	3339.484131
19472.445479	16973.274333	400.354492	3305.512939
19472.445479	16973.274333	399.079102	3247.196045
19472.445479	16973.274333	397.803711	3385.778076
19472.445479	16973.274333	396.528320	3616.218018
19472.445479	16973.274333	395.251953	3437.006592
19472.445479	16973.274333	393.976563	3422.131836
19472.445479	16973.274333	392.700195	3554.229004
19472.445479	16973.274333	391.422852	3242.563477
19472.445479	16973.274333	390.145508	3407.403076
19472.445479	16973.274333	388.869141	3183.874512
19472.445479	16973.274333	387.590820	3522.112549
19472.445479	16973.274333	386.313477	3205.504639
19472.445479	16973.274333	385.035156	3064.082275
19472.445479	16973.274333	383.756836	3506.799805
19472.445479	16973.274333	382.478516	2887.791748
19472.445479	16973.274333	381.199219	3168.439453
19472.445479	16973.274333	379.919922	3247.232666
19472.445479	16973.274333	378.640625	2917.044922
19472.445479	16973.274333	377.360352	3130.235107
19472.445479	16973.274333	376.080078	3107.378662
19472.445479	16973.274333	374.799805	3072.745361
19472.445479	16973.274333	373.519531	3058.581055
19472.445479	16973.274333	372.238281	2815.997070
19472.445479	16973.274333	370.957031	2869.138428
19472.445479	16973.274333	369.675781	2859.014160
19472.445479	16973.274333	368.394531	2732.470947
19472.445479	16973.274333	367.112305	2578.632813
19472.445479	16973.274333	365.830078	2615.664063
19472.445479	16973.274333	364.546875	2799.689453
19472.445479	16973.274333	363.264648	2472.767090
19472.445479	16973.274333	361.981445	2505.118408
19472.445479	16973.274333	360.698242	2428.396484
19472.445479	16973.274333	359.414063	2585.490967
19472.445479	16973.274333	358.129883	2445.828125
19472.445479	16973.274333	356.845703	2467.881104
19472.445479	16973.274333	355.561523	2437.502930
19472.445479	16973.274333	354.276367	2326.172852
19472.445479	16973.274333	352.991211	2419.761719
19472.445479	16973.274333	351.706055	2322.570313
19472.445479	16973.274333	350.420898	2250.329590
19472.445479	16973.274333	349.134766	2238.787842
19472.445479	16973.274333	347.848633	2112.056885
19472.445479	16973.274333	346.561523	2087.455078
19472.445479	16973.274333	345.275391	1788.891357
19472.445479	16973.274333	343.988281	1849.348145
19472.445479	16973.274333	342.700195	1690.332153
19472.445479	16973.274333	341.413086	1978.967041
19472.445479	16973.274333	340.125000	1787.329346
19472.445479	16973.274333	338.836914	1363.120605
19472.445479	16973.274333	337.548828	1308.616821
19472.445479	16973.274333	336.259766	1359.124634
19472.445479	16973.274333	334.970703	1369.315796
19472.445479	16973.274333	333.681641	1174.999390
19472.445479	16973.274333	332.391602	1175.936646
19472.445479	16973.274333	331.101563	993.015869
19472.445479	16973.274333	329.811523	976.930603
19472.445479	16973.274333	328.521484	914.484253
19472.445479	16973.274333	327.230469	762.109436
19472.445479	16973.274333	325.939453	708.329834
19472.445479	16973.274333	324.648438	594.749207
19472.445479	16973.274333	323.356445	607.582947
19472.445479	16973.274333	322.064453	347.640808
19472.445479	16973.274333	320.772461	295.022034
19472.445479	16973.274333	319.480469	248.105591
19472.445479	16973.274333	318.187500	176.494263
19472.445479	16973.274333	316.894531	99.083931
19472.445479	16973.274333	315.601563	-31.255062
19472.445479	16973.274333	314.307617	-64.365822
19472.445479	16973.274333	313.013672	101.284424
19472.445479	16973.274333	311.719727	251.176315
19472.445479	16973.274333	310.425781	63.872856
19472.445479	16973.274333	309.130859	-103.783669
19472.445479	16973.274333	307.835938	-92.059433
19472.445479	16973.274333	306.541016	66.880737
19472.445479	16973.274333	305.245117	-235.729156
19472.445479	16973.274333	303.949219	-30.907682
19472.445479	16973.274333	302.653320	207.958176
19472.445479	16973.274333	301.356445	317.235321
19472.445479	16973.274333	300.060547	479.323212
19472.445479	16973.274333	298.763672	215.311661
