#X		#Y		#Wave		#Intensity
19434.301649	16879.664833	2000.043945	-18.242233
19434.301649	16879.664833	1999.080078	56.635914
19434.301649	16879.664833	1998.116211	-203.128036
19434.301649	16879.664833	1997.151367	114.739555
19434.301649	16879.664833	1996.186523	323.596039
19434.301649	16879.664833	1995.222656	133.661560
19434.301649	16879.664833	1994.256836	-157.634445
19434.301649	16879.664833	1993.291992	135.706543
19434.301649	16879.664833	1992.327148	-33.933910
19434.301649	16879.664833	1991.361328	-74.680550
19434.301649	16879.664833	1990.395508	122.289375
19434.301649	16879.664833	1989.429688	284.650024
19434.301649	16879.664833	1988.463867	-57.648003
19434.301649	16879.664833	1987.497070	146.939102
19434.301649	16879.664833	1986.531250	69.615181
19434.301649	16879.664833	1985.564453	-128.744263
19434.301649	16879.664833	1984.597656	-57.468174
19434.301649	16879.664833	1983.630859	-35.561813
19434.301649	16879.664833	1982.664063	181.656158
19434.301649	16879.664833	1981.696289	-110.106483
19434.301649	16879.664833	1980.728516	45.457790
19434.301649	16879.664833	1979.761719	3.456040
19434.301649	16879.664833	1978.792969	-16.224598
19434.301649	16879.664833	1977.825195	-38.287910
19434.301649	16879.664833	1976.857422	-77.545288
19434.301649	16879.664833	1975.888672	6.689288
19434.301649	16879.664833	1974.919922	236.555145
19434.301649	16879.664833	1973.951172	125.940987
19434.301649	16879.664833	1972.982422	-6.763431
19434.301649	16879.664833	1972.013672	-193.606812
19434.301649	16879.664833	1971.043945	191.743881
19434.301649	16879.664833	1970.075195	83.952248
19434.301649	16879.664833	1969.105469	-18.805883
19434.301649	16879.664833	1968.135742	117.581200
19434.301649	16879.664833	1967.165039	145.564102
19434.301649	16879.664833	1966.195313	67.664459
19434.301649	16879.664833	1965.224609	-111.132713
19434.301649	16879.664833	1964.253906	50.024422
19434.301649	16879.664833	1963.283203	137.312057
19434.301649	16879.664833	1962.312500	54.764805
19434.301649	16879.664833	1961.341797	188.883148
19434.301649	16879.664833	1960.370117	160.593872
19434.301649	16879.664833	1959.399414	112.678772
19434.301649	16879.664833	1958.427734	195.199005
19434.301649	16879.664833	1957.455078	240.844757
19434.301649	16879.664833	1956.483398	20.953287
19434.301649	16879.664833	1955.511719	160.118591
19434.301649	16879.664833	1954.539063	43.644817
19434.301649	16879.664833	1953.566406	-11.308862
19434.301649	16879.664833	1952.593750	231.102982
19434.301649	16879.664833	1951.621094	100.055862
19434.301649	16879.664833	1950.647461	37.866871
19434.301649	16879.664833	1949.674805	100.976402
19434.301649	16879.664833	1948.701172	51.155624
19434.301649	16879.664833	1947.727539	-13.343597
19434.301649	16879.664833	1946.753906	54.748112
19434.301649	16879.664833	1945.780273	-48.927780
19434.301649	16879.664833	1944.805664	-39.675957
19434.301649	16879.664833	1943.831055	1.488775
19434.301649	16879.664833	1942.856445	-165.796936
19434.301649	16879.664833	1941.881836	-188.324188
19434.301649	16879.664833	1940.907227	-39.205303
19434.301649	16879.664833	1939.932617	-20.029188
19434.301649	16879.664833	1938.957031	131.502258
19434.301649	16879.664833	1937.981445	91.882004
19434.301649	16879.664833	1937.005859	106.193054
19434.301649	16879.664833	1936.030273	-41.135830
19434.301649	16879.664833	1935.054688	85.881721
19434.301649	16879.664833	1934.078125	105.142616
19434.301649	16879.664833	1933.101563	68.111465
19434.301649	16879.664833	1932.125000	-56.997795
19434.301649	16879.664833	1931.148438	-218.751450
19434.301649	16879.664833	1930.171875	35.489269
19434.301649	16879.664833	1929.194336	-35.682278
19434.301649	16879.664833	1928.217773	-67.685768
19434.301649	16879.664833	1927.240234	32.378284
19434.301649	16879.664833	1926.262695	100.635574
19434.301649	16879.664833	1925.284180	-9.552885
19434.301649	16879.664833	1924.306641	24.493773
19434.301649	16879.664833	1923.328125	-144.260391
19434.301649	16879.664833	1922.350586	-51.552486
19434.301649	16879.664833	1921.372070	111.962463
19434.301649	16879.664833	1920.392578	106.927277
19434.301649	16879.664833	1919.414063	-5.530924
19434.301649	16879.664833	1918.434570	65.143852
19434.301649	16879.664833	1917.456055	47.931255
19434.301649	16879.664833	1916.476563	-135.201553
19434.301649	16879.664833	1915.497070	164.806671
19434.301649	16879.664833	1914.516602	-62.177994
19434.301649	16879.664833	1913.537109	93.818237
19434.301649	16879.664833	1912.556641	-145.255981
19434.301649	16879.664833	1911.576172	203.298340
19434.301649	16879.664833	1910.595703	108.103546
19434.301649	16879.664833	1909.615234	34.876766
19434.301649	16879.664833	1908.633789	34.776093
19434.301649	16879.664833	1907.653320	-40.848667
19434.301649	16879.664833	1906.671875	75.971695
19434.301649	16879.664833	1905.690430	165.956696
19434.301649	16879.664833	1904.708984	-21.654083
19434.301649	16879.664833	1903.727539	109.690506
19434.301649	16879.664833	1902.745117	116.858536
19434.301649	16879.664833	1901.762695	-233.686310
19434.301649	16879.664833	1900.780273	-36.701481
19434.301649	16879.664833	1899.797852	-85.475662
19434.301649	16879.664833	1898.815430	245.154587
19434.301649	16879.664833	1897.832031	-44.390884
19434.301649	16879.664833	1896.849609	-117.471107
19434.301649	16879.664833	1895.866211	-73.860100
19434.301649	16879.664833	1894.882813	93.664688
19434.301649	16879.664833	1893.898438	117.764267
19434.301649	16879.664833	1892.915039	56.816055
19434.301649	16879.664833	1891.930664	114.894585
19434.301649	16879.664833	1890.947266	-28.618763
19434.301649	16879.664833	1889.962891	-135.669022
19434.301649	16879.664833	1888.977539	7.336948
19434.301649	16879.664833	1887.993164	-77.864883
19434.301649	16879.664833	1887.007813	-95.103424
19434.301649	16879.664833	1886.023438	-253.066467
19434.301649	16879.664833	1885.038086	-146.587860
19434.301649	16879.664833	1884.051758	-8.636932
19434.301649	16879.664833	1883.066406	170.464813
19434.301649	16879.664833	1882.081055	-99.010361
19434.301649	16879.664833	1881.094727	-133.289307
19434.301649	16879.664833	1880.108398	341.335144
19434.301649	16879.664833	1879.122070	64.658386
19434.301649	16879.664833	1878.135742	-81.121887
19434.301649	16879.664833	1877.148438	25.024258
19434.301649	16879.664833	1876.162109	104.469933
19434.301649	16879.664833	1875.174805	215.341919
19434.301649	16879.664833	1874.187500	-49.049953
19434.301649	16879.664833	1873.199219	112.591759
19434.301649	16879.664833	1872.211914	-146.887970
19434.301649	16879.664833	1871.223633	-161.942627
19434.301649	16879.664833	1870.236328	-254.420471
19434.301649	16879.664833	1869.248047	-61.516308
19434.301649	16879.664833	1868.258789	-120.173073
19434.301649	16879.664833	1867.270508	154.777679
19434.301649	16879.664833	1866.282227	91.215340
19434.301649	16879.664833	1865.292969	-6.179062
19434.301649	16879.664833	1864.303711	135.632111
19434.301649	16879.664833	1863.314453	146.915955
19434.301649	16879.664833	1862.324219	223.380753
19434.301649	16879.664833	1861.334961	-137.284180
19434.301649	16879.664833	1860.344727	-2.909816
19434.301649	16879.664833	1859.354492	17.934196
19434.301649	16879.664833	1858.364258	277.666321
19434.301649	16879.664833	1857.374023	32.965752
19434.301649	16879.664833	1856.383789	249.111313
19434.301649	16879.664833	1855.392578	108.164612
19434.301649	16879.664833	1854.401367	8.235868
19434.301649	16879.664833	1853.410156	405.004272
19434.301649	16879.664833	1852.418945	136.244751
19434.301649	16879.664833	1851.426758	-52.909904
19434.301649	16879.664833	1850.435547	172.452942
19434.301649	16879.664833	1849.443359	77.257523
19434.301649	16879.664833	1848.451172	76.009758
19434.301649	16879.664833	1847.458984	-158.889465
19434.301649	16879.664833	1846.466797	92.670731
19434.301649	16879.664833	1845.473633	108.165703
19434.301649	16879.664833	1844.480469	10.487251
19434.301649	16879.664833	1843.487305	119.774559
19434.301649	16879.664833	1842.494141	-30.881027
19434.301649	16879.664833	1841.500977	111.977058
19434.301649	16879.664833	1840.506836	278.794708
19434.301649	16879.664833	1839.513672	233.888718
19434.301649	16879.664833	1838.519531	63.934483
19434.301649	16879.664833	1837.525391	223.336761
19434.301649	16879.664833	1836.530273	267.273743
19434.301649	16879.664833	1835.536133	147.749985
19434.301649	16879.664833	1834.541016	287.702332
19434.301649	16879.664833	1833.545898	158.527924
19434.301649	16879.664833	1832.550781	12.547593
19434.301649	16879.664833	1831.555664	166.724762
19434.301649	16879.664833	1830.560547	-34.505440
19434.301649	16879.664833	1829.564453	357.162811
19434.301649	16879.664833	1828.568359	98.288948
19434.301649	16879.664833	1827.572266	-30.967283
19434.301649	16879.664833	1826.576172	242.796036
19434.301649	16879.664833	1825.580078	84.688828
19434.301649	16879.664833	1824.583008	63.281372
19434.301649	16879.664833	1823.585938	130.544464
19434.301649	16879.664833	1822.588867	22.746262
19434.301649	16879.664833	1821.591797	133.035767
19434.301649	16879.664833	1820.594727	125.821739
19434.301649	16879.664833	1819.596680	197.622482
19434.301649	16879.664833	1818.599609	269.345490
19434.301649	16879.664833	1817.601563	216.461273
19434.301649	16879.664833	1816.603516	79.743736
19434.301649	16879.664833	1815.604492	93.844765
19434.301649	16879.664833	1814.606445	91.135139
19434.301649	16879.664833	1813.607422	167.345749
19434.301649	16879.664833	1812.608398	9.003635
19434.301649	16879.664833	1811.609375	1.372076
19434.301649	16879.664833	1810.610352	-99.583473
19434.301649	16879.664833	1809.610352	134.216339
19434.301649	16879.664833	1808.611328	-98.324875
19434.301649	16879.664833	1807.611328	18.154079
19434.301649	16879.664833	1806.611328	-23.196421
19434.301649	16879.664833	1805.610352	-95.648773
19434.301649	16879.664833	1804.610352	37.323135
19434.301649	16879.664833	1803.609375	17.324232
19434.301649	16879.664833	1802.608398	64.142815
19434.301649	16879.664833	1801.607422	158.639877
19434.301649	16879.664833	1800.606445	343.756500
19434.301649	16879.664833	1799.605469	87.205238
19434.301649	16879.664833	1798.603516	117.044403
19434.301649	16879.664833	1797.601563	163.515701
19434.301649	16879.664833	1796.599609	28.623718
19434.301649	16879.664833	1795.597656	53.513641
19434.301649	16879.664833	1794.595703	-59.963276
19434.301649	16879.664833	1793.592773	-118.623978
19434.301649	16879.664833	1792.589844	-79.597542
19434.301649	16879.664833	1791.587891	-59.709099
19434.301649	16879.664833	1790.583984	64.946251
19434.301649	16879.664833	1789.581055	-41.577007
19434.301649	16879.664833	1788.577148	447.312744
19434.301649	16879.664833	1787.574219	240.621109
19434.301649	16879.664833	1786.570313	172.034225
19434.301649	16879.664833	1785.566406	3.435137
19434.301649	16879.664833	1784.561523	156.128525
19434.301649	16879.664833	1783.557617	-186.230133
19434.301649	16879.664833	1782.552734	-174.045975
19434.301649	16879.664833	1781.547852	-81.058701
19434.301649	16879.664833	1780.542969	-85.672859
19434.301649	16879.664833	1779.538086	116.510742
19434.301649	16879.664833	1778.532227	14.265167
19434.301649	16879.664833	1777.527344	232.862885
19434.301649	16879.664833	1776.521484	85.357048
19434.301649	16879.664833	1775.515625	-183.327606
19434.301649	16879.664833	1774.508789	32.610107
19434.301649	16879.664833	1773.502930	153.404083
19434.301649	16879.664833	1772.496094	-46.475990
19434.301649	16879.664833	1771.489258	78.902702
19434.301649	16879.664833	1770.482422	85.487259
19434.301649	16879.664833	1769.475586	94.377106
19434.301649	16879.664833	1768.467773	233.693405
19434.301649	16879.664833	1767.460938	142.784103
19434.301649	16879.664833	1766.453125	267.675842
19434.301649	16879.664833	1765.445313	34.376984
19434.301649	16879.664833	1764.437500	109.318092
19434.301649	16879.664833	1763.428711	222.089752
19434.301649	16879.664833	1762.420898	38.501530
19434.301649	16879.664833	1761.412109	46.847980
19434.301649	16879.664833	1760.403320	-120.191231
19434.301649	16879.664833	1759.393555	195.970367
19434.301649	16879.664833	1758.384766	-210.358124
19434.301649	16879.664833	1757.375000	-88.592575
19434.301649	16879.664833	1756.366211	-104.241959
19434.301649	16879.664833	1755.356445	64.658455
19434.301649	16879.664833	1754.345703	226.323242
19434.301649	16879.664833	1753.335938	-113.720985
19434.301649	16879.664833	1752.325195	73.799690
19434.301649	16879.664833	1751.315430	81.439476
19434.301649	16879.664833	1750.304688	117.379303
19434.301649	16879.664833	1749.292969	-68.997261
19434.301649	16879.664833	1748.282227	-243.549683
19434.301649	16879.664833	1747.270508	26.182880
19434.301649	16879.664833	1746.259766	-96.477112
19434.301649	16879.664833	1745.248047	111.565697
19434.301649	16879.664833	1744.235352	125.779869
19434.301649	16879.664833	1743.223633	-44.269543
19434.301649	16879.664833	1742.211914	128.021698
19434.301649	16879.664833	1741.199219	61.758583
19434.301649	16879.664833	1740.186523	30.851673
19434.301649	16879.664833	1739.173828	-92.138443
19434.301649	16879.664833	1738.160156	11.328586
19434.301649	16879.664833	1737.147461	76.950462
19434.301649	16879.664833	1736.133789	-24.965645
19434.301649	16879.664833	1735.120117	45.210926
19434.301649	16879.664833	1734.106445	-139.307831
19434.301649	16879.664833	1733.091797	43.854088
19434.301649	16879.664833	1732.078125	-110.098091
19434.301649	16879.664833	1731.063477	44.576752
19434.301649	16879.664833	1730.048828	88.411026
19434.301649	16879.664833	1729.034180	160.421432
19434.301649	16879.664833	1728.019531	326.522186
19434.301649	16879.664833	1727.003906	174.663132
19434.301649	16879.664833	1725.988281	41.623089
19434.301649	16879.664833	1724.972656	134.486160
19434.301649	16879.664833	1723.957031	182.540604
19434.301649	16879.664833	1722.941406	47.017059
19434.301649	16879.664833	1721.924805	116.095589
19434.301649	16879.664833	1720.909180	-54.771969
19434.301649	16879.664833	1719.892578	-37.561615
19434.301649	16879.664833	1718.875977	-65.086845
19434.301649	16879.664833	1717.858398	-92.675598
19434.301649	16879.664833	1716.841797	-211.955612
19434.301649	16879.664833	1715.824219	-11.758805
19434.301649	16879.664833	1714.806641	-25.452105
19434.301649	16879.664833	1713.789063	-133.141724
19434.301649	16879.664833	1712.770508	118.372459
19434.301649	16879.664833	1711.752930	41.080547
19434.301649	16879.664833	1710.734375	-104.319672
19434.301649	16879.664833	1709.715820	-78.428177
19434.301649	16879.664833	1708.697266	-57.305241
19434.301649	16879.664833	1707.678711	5.966417
19434.301649	16879.664833	1706.659180	85.559258
19434.301649	16879.664833	1705.640625	22.029593
19434.301649	16879.664833	1704.621094	113.180008
19434.301649	16879.664833	1703.600586	-271.587982
19434.301649	16879.664833	1702.581055	-84.463791
19434.301649	16879.664833	1701.561523	179.843140
19434.301649	16879.664833	1700.541016	-151.030197
19434.301649	16879.664833	1699.520508	2.975105
19434.301649	16879.664833	1698.500000	110.025414
19434.301649	16879.664833	1697.478516	151.410919
19434.301649	16879.664833	1696.458008	129.523987
19434.301649	16879.664833	1695.436523	-25.820057
19434.301649	16879.664833	1694.415039	352.318848
19434.301649	16879.664833	1693.393555	208.565140
19434.301649	16879.664833	1692.372070	69.482704
19434.301649	16879.664833	1691.349609	103.435654
19434.301649	16879.664833	1690.327148	270.584045
19434.301649	16879.664833	1689.304688	37.877556
19434.301649	16879.664833	1688.282227	158.110550
19434.301649	16879.664833	1687.259766	261.882141
19434.301649	16879.664833	1686.236328	246.397980
19434.301649	16879.664833	1685.213867	177.145523
19434.301649	16879.664833	1684.190430	0.428216
19434.301649	16879.664833	1683.166016	206.637985
19434.301649	16879.664833	1682.142578	190.945221
19434.301649	16879.664833	1681.119141	280.232300
19434.301649	16879.664833	1680.094727	154.733917
19434.301649	16879.664833	1679.070313	269.538574
19434.301649	16879.664833	1678.045898	384.243500
19434.301649	16879.664833	1677.020508	181.661362
19434.301649	16879.664833	1675.996094	405.823578
19434.301649	16879.664833	1674.970703	702.107910
19434.301649	16879.664833	1673.945313	501.750671
19434.301649	16879.664833	1672.919922	632.337341
19434.301649	16879.664833	1671.893555	604.375732
19434.301649	16879.664833	1670.868164	546.096924
19434.301649	16879.664833	1669.841797	299.128418
19434.301649	16879.664833	1668.815430	492.312073
19434.301649	16879.664833	1667.789063	461.867310
19434.301649	16879.664833	1666.761719	547.762695
19434.301649	16879.664833	1665.735352	601.002197
19434.301649	16879.664833	1664.708008	605.301819
19434.301649	16879.664833	1663.680664	614.204895
19434.301649	16879.664833	1662.653320	611.428772
19434.301649	16879.664833	1661.625000	745.800415
19434.301649	16879.664833	1660.597656	733.606445
19434.301649	16879.664833	1659.569336	923.601501
19434.301649	16879.664833	1658.541016	850.852539
19434.301649	16879.664833	1657.512695	866.387695
19434.301649	16879.664833	1656.483398	1037.520874
19434.301649	16879.664833	1655.455078	1034.345825
19434.301649	16879.664833	1654.425781	1019.509399
19434.301649	16879.664833	1653.396484	865.324951
19434.301649	16879.664833	1652.366211	999.007751
19434.301649	16879.664833	1651.336914	856.411621
19434.301649	16879.664833	1650.306641	808.963440
19434.301649	16879.664833	1649.276367	1128.068359
19434.301649	16879.664833	1648.246094	1184.893433
19434.301649	16879.664833	1647.215820	1348.341431
19434.301649	16879.664833	1646.185547	1423.578369
19434.301649	16879.664833	1645.154297	1329.506714
19434.301649	16879.664833	1644.123047	1321.196045
19434.301649	16879.664833	1643.091797	1247.968506
19434.301649	16879.664833	1642.060547	1246.560181
19434.301649	16879.664833	1641.028320	1252.060059
19434.301649	16879.664833	1639.997070	1181.105835
19434.301649	16879.664833	1638.964844	1283.807495
19434.301649	16879.664833	1637.931641	1634.151001
19434.301649	16879.664833	1636.899414	1653.335938
19434.301649	16879.664833	1635.867188	1704.883911
19434.301649	16879.664833	1634.833984	1712.412964
19434.301649	16879.664833	1633.800781	1780.058594
19434.301649	16879.664833	1632.767578	1843.026611
19434.301649	16879.664833	1631.734375	1970.692871
19434.301649	16879.664833	1630.700195	1987.298706
19434.301649	16879.664833	1629.666016	1765.783936
19434.301649	16879.664833	1628.631836	1592.866455
19434.301649	16879.664833	1627.597656	1771.213135
19434.301649	16879.664833	1626.563477	1956.398926
19434.301649	16879.664833	1625.528320	2005.206055
19434.301649	16879.664833	1624.493164	1977.768188
19434.301649	16879.664833	1623.458008	1899.527466
19434.301649	16879.664833	1622.422852	2061.373535
19434.301649	16879.664833	1621.387695	1957.723145
19434.301649	16879.664833	1620.351563	2154.063721
19434.301649	16879.664833	1619.315430	2364.155762
19434.301649	16879.664833	1618.279297	2424.220947
19434.301649	16879.664833	1617.243164	2258.244629
19434.301649	16879.664833	1616.207031	2373.617920
19434.301649	16879.664833	1615.169922	2479.703613
19434.301649	16879.664833	1614.132813	2304.549072
19434.301649	16879.664833	1613.095703	2032.668945
19434.301649	16879.664833	1612.058594	2376.032959
19434.301649	16879.664833	1611.020508	1986.739868
19434.301649	16879.664833	1609.983398	2076.630127
19434.301649	16879.664833	1608.945313	2240.152100
19434.301649	16879.664833	1607.907227	2083.609619
19434.301649	16879.664833	1606.868164	2154.979736
19434.301649	16879.664833	1605.830078	2056.037354
19434.301649	16879.664833	1604.791016	2235.515381
19434.301649	16879.664833	1603.751953	2226.293945
19434.301649	16879.664833	1602.712891	1915.790039
19434.301649	16879.664833	1601.673828	2237.752441
19434.301649	16879.664833	1600.633789	2067.598145
19434.301649	16879.664833	1599.594727	2164.152588
19434.301649	16879.664833	1598.554688	2143.459717
19434.301649	16879.664833	1597.513672	2246.842285
19434.301649	16879.664833	1596.473633	2382.360352
19434.301649	16879.664833	1595.433594	2297.342773
19434.301649	16879.664833	1594.392578	2396.060059
19434.301649	16879.664833	1593.351563	2430.462646
19434.301649	16879.664833	1592.310547	2492.404541
19434.301649	16879.664833	1591.268555	2613.992920
19434.301649	16879.664833	1590.227539	2421.206543
19434.301649	16879.664833	1589.185547	2428.080078
19434.301649	16879.664833	1588.143555	2483.129883
19434.301649	16879.664833	1587.100586	2377.640625
19434.301649	16879.664833	1586.058594	2290.559814
19434.301649	16879.664833	1585.015625	2469.422363
19434.301649	16879.664833	1583.972656	2309.041260
19434.301649	16879.664833	1582.929688	2414.540771
19434.301649	16879.664833	1581.886719	2332.162109
19434.301649	16879.664833	1580.843750	2421.620850
19434.301649	16879.664833	1579.799805	2421.744873
19434.301649	16879.664833	1578.755859	2573.001465
19434.301649	16879.664833	1577.711914	2625.790039
19434.301649	16879.664833	1576.666992	2541.252686
19434.301649	16879.664833	1575.623047	2697.045654
19434.301649	16879.664833	1574.578125	2500.477783
19434.301649	16879.664833	1573.533203	2459.551514
19434.301649	16879.664833	1572.488281	2366.070313
19434.301649	16879.664833	1571.443359	2288.660645
19434.301649	16879.664833	1570.397461	2357.604736
19434.301649	16879.664833	1569.351563	2211.712158
19434.301649	16879.664833	1568.305664	2118.466064
19434.301649	16879.664833	1567.259766	2242.330322
19434.301649	16879.664833	1566.213867	2242.833496
19434.301649	16879.664833	1565.166992	2131.459473
19434.301649	16879.664833	1564.120117	2312.425537
19434.301649	16879.664833	1563.073242	2132.670166
19434.301649	16879.664833	1562.026367	2181.262695
19434.301649	16879.664833	1560.978516	2051.872803
19434.301649	16879.664833	1559.930664	2317.274414
19434.301649	16879.664833	1558.883789	2484.535645
19434.301649	16879.664833	1557.834961	2380.365723
19434.301649	16879.664833	1556.787109	2130.358154
19434.301649	16879.664833	1555.739258	1939.766968
19434.301649	16879.664833	1554.690430	1803.986816
19434.301649	16879.664833	1553.641602	1873.400513
19434.301649	16879.664833	1552.592773	2015.741333
19434.301649	16879.664833	1551.542969	1896.107422
19434.301649	16879.664833	1550.494141	1915.500854
19434.301649	16879.664833	1549.444336	1852.958740
19434.301649	16879.664833	1548.394531	2011.318359
19434.301649	16879.664833	1547.344727	2294.854248
19434.301649	16879.664833	1546.293945	2064.022217
19434.301649	16879.664833	1545.244141	2283.837402
19434.301649	16879.664833	1544.193359	2521.812012
19434.301649	16879.664833	1543.142578	2348.095703
19434.301649	16879.664833	1542.090820	2356.407959
19434.301649	16879.664833	1541.040039	2419.343994
19434.301649	16879.664833	1539.988281	2302.742188
19434.301649	16879.664833	1538.936523	2279.420410
19434.301649	16879.664833	1537.884766	2447.023682
19434.301649	16879.664833	1536.833008	2512.398682
19434.301649	16879.664833	1535.780273	2293.906250
19434.301649	16879.664833	1534.727539	2229.974854
19434.301649	16879.664833	1533.674805	1893.697021
19434.301649	16879.664833	1532.622070	1721.048340
19434.301649	16879.664833	1531.569336	1668.813110
19434.301649	16879.664833	1530.515625	1616.658569
19434.301649	16879.664833	1529.461914	1494.268799
19434.301649	16879.664833	1528.408203	1655.506226
19434.301649	16879.664833	1527.354492	1660.283691
19434.301649	16879.664833	1526.299805	1232.099121
19434.301649	16879.664833	1525.246094	1520.443848
19434.301649	16879.664833	1524.191406	1500.527710
19434.301649	16879.664833	1523.136719	1741.264526
19434.301649	16879.664833	1522.081055	1574.209351
19434.301649	16879.664833	1521.026367	1214.784424
19434.301649	16879.664833	1519.970703	1686.633667
19434.301649	16879.664833	1518.915039	1705.569336
19434.301649	16879.664833	1517.859375	1699.678223
19434.301649	16879.664833	1516.802734	1449.445068
19434.301649	16879.664833	1515.747070	1588.578613
19434.301649	16879.664833	1514.690430	1282.075073
19434.301649	16879.664833	1513.633789	1315.041260
19434.301649	16879.664833	1512.577148	1359.385986
19434.301649	16879.664833	1511.519531	1333.703979
19434.301649	16879.664833	1510.461914	1301.335938
19434.301649	16879.664833	1509.405273	1029.515137
19434.301649	16879.664833	1508.346680	1099.068604
19434.301649	16879.664833	1507.289063	829.823303
19434.301649	16879.664833	1506.231445	712.104065
19434.301649	16879.664833	1505.172852	727.748230
19434.301649	16879.664833	1504.114258	824.756165
19434.301649	16879.664833	1503.055664	836.040833
19434.301649	16879.664833	1501.996094	377.980591
19434.301649	16879.664833	1500.937500	355.688110
19434.301649	16879.664833	1499.877930	619.999695
19434.301649	16879.664833	1498.818359	665.516907
19434.301649	16879.664833	1497.757813	339.020813
19434.301649	16879.664833	1496.698242	677.867493
19434.301649	16879.664833	1495.637695	847.608765
19434.301649	16879.664833	1494.577148	501.279419
19434.301649	16879.664833	1493.516602	522.469910
19434.301649	16879.664833	1492.456055	509.960297
19434.301649	16879.664833	1491.394531	348.892487
19434.301649	16879.664833	1490.333008	568.567505
19434.301649	16879.664833	1489.271484	599.131531
19434.301649	16879.664833	1488.209961	211.092987
19434.301649	16879.664833	1487.148438	343.198639
19434.301649	16879.664833	1486.085938	248.086975
19434.301649	16879.664833	1485.023438	292.598511
19434.301649	16879.664833	1483.960938	76.286591
19434.301649	16879.664833	1482.898438	130.021942
19434.301649	16879.664833	1481.834961	280.516693
19434.301649	16879.664833	1480.772461	109.620949
19434.301649	16879.664833	1479.708984	96.218407
19434.301649	16879.664833	1478.644531	246.930069
19434.301649	16879.664833	1477.581055	-17.854551
19434.301649	16879.664833	1476.517578	171.199875
19434.301649	16879.664833	1475.453125	-37.054306
19434.301649	16879.664833	1474.388672	100.502563
19434.301649	16879.664833	1473.323242	-203.911758
19434.301649	16879.664833	1472.258789	23.636095
19434.301649	16879.664833	1471.193359	-56.122906
19434.301649	16879.664833	1470.127930	-37.176968
19434.301649	16879.664833	1469.062500	-125.440636
19434.301649	16879.664833	1467.997070	202.890289
19434.301649	16879.664833	1466.930664	-95.603546
19434.301649	16879.664833	1465.865234	194.651474
19434.301649	16879.664833	1464.798828	225.351440
19434.301649	16879.664833	1463.731445	46.485405
19434.301649	16879.664833	1462.665039	247.018860
19434.301649	16879.664833	1461.597656	247.535263
19434.301649	16879.664833	1460.530273	227.284561
19434.301649	16879.664833	1459.462891	430.301392
19434.301649	16879.664833	1458.395508	332.691559
19434.301649	16879.664833	1457.327148	270.416565
19434.301649	16879.664833	1456.259766	278.085022
19434.301649	16879.664833	1455.191406	365.128326
19434.301649	16879.664833	1454.123047	484.101410
19434.301649	16879.664833	1453.053711	424.605743
19434.301649	16879.664833	1451.985352	598.300842
19434.301649	16879.664833	1450.916016	261.828857
19434.301649	16879.664833	1449.846680	496.903412
19434.301649	16879.664833	1448.776367	208.228989
19434.301649	16879.664833	1447.707031	404.453339
19434.301649	16879.664833	1446.636719	502.945129
19434.301649	16879.664833	1445.566406	254.495590
19434.301649	16879.664833	1444.496094	425.766113
19434.301649	16879.664833	1443.425781	295.357574
19434.301649	16879.664833	1442.354492	528.228882
19434.301649	16879.664833	1441.283203	464.391571
19434.301649	16879.664833	1440.211914	553.656372
19434.301649	16879.664833	1439.140625	520.705078
19434.301649	16879.664833	1438.069336	485.209808
19434.301649	16879.664833	1436.997070	426.345917
19434.301649	16879.664833	1435.924805	350.864410
19434.301649	16879.664833	1434.852539	313.001801
19434.301649	16879.664833	1433.780273	535.982849
19434.301649	16879.664833	1432.707031	451.791901
19434.301649	16879.664833	1431.633789	347.167755
19434.301649	16879.664833	1430.560547	187.254105
19434.301649	16879.664833	1429.487305	207.491470
19434.301649	16879.664833	1428.413086	239.604874
19434.301649	16879.664833	1427.339844	98.693527
19434.301649	16879.664833	1426.265625	46.607830
19434.301649	16879.664833	1425.191406	-15.252065
19434.301649	16879.664833	1424.116211	-123.027908
19434.301649	16879.664833	1423.041992	-106.638084
19434.301649	16879.664833	1421.966797	-3.457852
19434.301649	16879.664833	1420.891602	-25.627613
19434.301649	16879.664833	1419.816406	-24.166893
19434.301649	16879.664833	1418.740234	83.283096
19434.301649	16879.664833	1417.665039	47.206039
19434.301649	16879.664833	1416.588867	-1.050501
19434.301649	16879.664833	1415.512695	179.111679
19434.301649	16879.664833	1414.435547	16.835958
19434.301649	16879.664833	1413.359375	5.278876
19434.301649	16879.664833	1412.282227	56.228344
19434.301649	16879.664833	1411.205078	233.543747
19434.301649	16879.664833	1410.127930	220.327545
19434.301649	16879.664833	1409.049805	219.866257
19434.301649	16879.664833	1407.972656	221.310242
19434.301649	16879.664833	1406.894531	171.198563
19434.301649	16879.664833	1405.816406	161.933929
19434.301649	16879.664833	1404.737305	271.826691
19434.301649	16879.664833	1403.659180	197.610229
19434.301649	16879.664833	1402.580078	197.036438
19434.301649	16879.664833	1401.500977	370.926392
19434.301649	16879.664833	1400.421875	321.327789
19434.301649	16879.664833	1399.341797	224.027084
19434.301649	16879.664833	1398.262695	376.547455
19434.301649	16879.664833	1397.182617	649.175110
19434.301649	16879.664833	1396.102539	574.773438
19434.301649	16879.664833	1395.021484	522.404785
19434.301649	16879.664833	1393.941406	572.232910
19434.301649	16879.664833	1392.860352	688.718689
19434.301649	16879.664833	1391.779297	565.627502
19434.301649	16879.664833	1390.698242	767.886658
19434.301649	16879.664833	1389.616211	567.512146
19434.301649	16879.664833	1388.535156	618.207642
19434.301649	16879.664833	1387.453125	884.710388
19434.301649	16879.664833	1386.371094	979.660095
19434.301649	16879.664833	1385.288086	834.875916
19434.301649	16879.664833	1384.206055	742.382629
19434.301649	16879.664833	1383.123047	1052.654907
19434.301649	16879.664833	1382.040039	807.915771
19434.301649	16879.664833	1380.957031	664.266541
19434.301649	16879.664833	1379.873047	568.710266
19434.301649	16879.664833	1378.789063	604.446289
19434.301649	16879.664833	1377.705078	528.988892
19434.301649	16879.664833	1376.621094	646.000610
19434.301649	16879.664833	1375.537109	698.942993
19434.301649	16879.664833	1374.452148	632.057007
19434.301649	16879.664833	1373.367188	610.234741
19434.301649	16879.664833	1372.282227	422.376984
19434.301649	16879.664833	1371.197266	285.991089
19434.301649	16879.664833	1370.112305	682.484802
19434.301649	16879.664833	1369.026367	687.959900
19434.301649	16879.664833	1367.940430	512.431885
19434.301649	16879.664833	1366.854492	767.599426
19434.301649	16879.664833	1365.767578	722.457275
19434.301649	16879.664833	1364.681641	663.995789
19434.301649	16879.664833	1363.594727	545.545959
19434.301649	16879.664833	1362.507813	752.788635
19434.301649	16879.664833	1361.419922	711.911316
19434.301649	16879.664833	1360.333008	758.500244
19434.301649	16879.664833	1359.245117	751.089172
19434.301649	16879.664833	1358.157227	689.587219
19434.301649	16879.664833	1357.069336	723.105896
19434.301649	16879.664833	1355.981445	877.538147
19434.301649	16879.664833	1354.892578	354.610168
19434.301649	16879.664833	1353.803711	693.169861
19434.301649	16879.664833	1352.714844	740.443054
19434.301649	16879.664833	1351.625000	545.198242
19434.301649	16879.664833	1350.536133	676.776489
19434.301649	16879.664833	1349.446289	876.989746
19434.301649	16879.664833	1348.356445	760.639587
19434.301649	16879.664833	1347.266602	872.757446
19434.301649	16879.664833	1346.175781	568.975403
19434.301649	16879.664833	1345.085938	659.084778
19434.301649	16879.664833	1343.995117	655.212952
19434.301649	16879.664833	1342.903320	866.193359
19434.301649	16879.664833	1341.812500	696.764954
19434.301649	16879.664833	1340.720703	547.283142
19434.301649	16879.664833	1339.629883	622.117310
19434.301649	16879.664833	1338.538086	537.345886
19434.301649	16879.664833	1337.445313	532.501587
19434.301649	16879.664833	1336.353516	490.476563
19434.301649	16879.664833	1335.260742	762.235535
19434.301649	16879.664833	1334.167969	857.954712
19434.301649	16879.664833	1333.075195	739.759094
19434.301649	16879.664833	1331.981445	787.169617
19434.301649	16879.664833	1330.888672	691.129395
19434.301649	16879.664833	1329.794922	701.895935
19434.301649	16879.664833	1328.701172	631.500244
19434.301649	16879.664833	1327.606445	407.851318
19434.301649	16879.664833	1326.512695	526.759644
19434.301649	16879.664833	1325.417969	463.373962
19434.301649	16879.664833	1324.323242	527.446716
19434.301649	16879.664833	1323.227539	446.266022
19434.301649	16879.664833	1322.132813	602.343811
19434.301649	16879.664833	1321.037109	533.888123
19434.301649	16879.664833	1319.941406	248.450836
19434.301649	16879.664833	1318.845703	372.883484
19434.301649	16879.664833	1317.750000	329.435120
19434.301649	16879.664833	1316.653320	398.122772
19434.301649	16879.664833	1315.556641	357.926697
19434.301649	16879.664833	1314.459961	546.163269
19434.301649	16879.664833	1313.363281	437.340302
19434.301649	16879.664833	1312.265625	666.718262
19434.301649	16879.664833	1311.167969	334.555359
19434.301649	16879.664833	1310.070313	546.828125
19434.301649	16879.664833	1308.972656	387.295288
19434.301649	16879.664833	1307.874023	356.389465
19434.301649	16879.664833	1306.776367	296.350922
19434.301649	16879.664833	1305.677734	238.508728
19434.301649	16879.664833	1304.579102	285.621674
19434.301649	16879.664833	1303.479492	332.067841
19434.301649	16879.664833	1302.380859	325.588928
19434.301649	16879.664833	1301.281250	297.951050
19434.301649	16879.664833	1300.181641	212.741760
19434.301649	16879.664833	1299.081055	368.487854
19434.301649	16879.664833	1297.981445	398.619904
19434.301649	16879.664833	1296.880859	440.483673
19434.301649	16879.664833	1295.780273	328.864594
19434.301649	16879.664833	1294.679688	364.091736
19434.301649	16879.664833	1293.578125	459.032959
19434.301649	16879.664833	1292.476563	482.984314
19434.301649	16879.664833	1291.375000	625.249390
19434.301649	16879.664833	1290.273438	491.090820
19434.301649	16879.664833	1289.171875	501.536682
19434.301649	16879.664833	1288.069336	440.511841
19434.301649	16879.664833	1286.966797	464.739777
19434.301649	16879.664833	1285.864258	321.894104
19434.301649	16879.664833	1284.761719	325.123199
19434.301649	16879.664833	1283.658203	309.679138
19434.301649	16879.664833	1282.554688	520.529358
19434.301649	16879.664833	1281.451172	363.545685
19434.301649	16879.664833	1280.347656	495.234894
19434.301649	16879.664833	1279.244141	621.999084
19434.301649	16879.664833	1278.139648	391.638489
19434.301649	16879.664833	1277.035156	507.054810
19434.301649	16879.664833	1275.930664	270.774231
19434.301649	16879.664833	1274.825195	305.491608
19434.301649	16879.664833	1273.720703	403.448578
19434.301649	16879.664833	1272.615234	499.672729
19434.301649	16879.664833	1271.508789	515.320251
19434.301649	16879.664833	1270.403320	425.553497
19434.301649	16879.664833	1269.297852	410.240173
19434.301649	16879.664833	1268.191406	529.578247
19434.301649	16879.664833	1267.084961	518.381226
19434.301649	16879.664833	1265.977539	485.708374
19434.301649	16879.664833	1264.871094	417.019592
19434.301649	16879.664833	1263.763672	320.535370
19434.301649	16879.664833	1262.656250	373.678314
19434.301649	16879.664833	1261.548828	479.107483
19434.301649	16879.664833	1260.440430	360.655762
19434.301649	16879.664833	1259.333008	513.919434
19434.301649	16879.664833	1258.224609	154.846786
19434.301649	16879.664833	1257.115234	422.317566
19434.301649	16879.664833	1256.006836	321.035339
19434.301649	16879.664833	1254.897461	233.752213
19434.301649	16879.664833	1253.788086	411.837952
19434.301649	16879.664833	1252.678711	442.189789
19434.301649	16879.664833	1251.569336	306.070190
19434.301649	16879.664833	1250.458984	504.912872
19434.301649	16879.664833	1249.349609	385.436798
19434.301649	16879.664833	1248.239258	401.915771
19434.301649	16879.664833	1247.127930	274.789093
19434.301649	16879.664833	1246.017578	241.623291
19434.301649	16879.664833	1244.906250	137.628799
19434.301649	16879.664833	1243.794922	314.090240
19434.301649	16879.664833	1242.683594	200.008377
19434.301649	16879.664833	1241.571289	119.274040
19434.301649	16879.664833	1240.459961	250.349121
19434.301649	16879.664833	1239.347656	170.131714
19434.301649	16879.664833	1238.234375	44.705612
19434.301649	16879.664833	1237.122070	256.722107
19434.301649	16879.664833	1236.008789	76.460213
19434.301649	16879.664833	1234.896484	202.809479
19434.301649	16879.664833	1233.782227	114.402863
19434.301649	16879.664833	1232.668945	85.445900
19434.301649	16879.664833	1231.555664	43.765015
19434.301649	16879.664833	1230.441406	-3.822142
19434.301649	16879.664833	1229.327148	167.934784
19434.301649	16879.664833	1228.211914	182.726471
19434.301649	16879.664833	1227.097656	48.795033
19434.301649	16879.664833	1225.982422	-168.471130
19434.301649	16879.664833	1224.867188	-66.988625
19434.301649	16879.664833	1223.751953	-42.792797
19434.301649	16879.664833	1222.635742	56.055092
19434.301649	16879.664833	1221.520508	58.636082
19434.301649	16879.664833	1220.404297	0.789707
19434.301649	16879.664833	1219.287109	-72.865074
19434.301649	16879.664833	1218.170898	-28.586021
19434.301649	16879.664833	1217.053711	-140.351044
19434.301649	16879.664833	1215.936523	-169.724121
19434.301649	16879.664833	1214.819336	35.855145
19434.301649	16879.664833	1213.702148	-128.747162
19434.301649	16879.664833	1212.583984	108.092186
19434.301649	16879.664833	1211.465820	101.756516
19434.301649	16879.664833	1210.347656	-35.048214
19434.301649	16879.664833	1209.229492	120.550926
19434.301649	16879.664833	1208.110352	4.053071
19434.301649	16879.664833	1206.992188	203.977203
19434.301649	16879.664833	1205.873047	3.940826
19434.301649	16879.664833	1204.752930	93.157661
19434.301649	16879.664833	1203.633789	4.272805
19434.301649	16879.664833	1202.513672	-7.224282
19434.301649	16879.664833	1201.393555	-13.920738
19434.301649	16879.664833	1200.273438	38.705833
19434.301649	16879.664833	1199.152344	38.182747
19434.301649	16879.664833	1198.032227	103.914169
19434.301649	16879.664833	1196.911133	118.307297
19434.301649	16879.664833	1195.790039	-36.027569
19434.301649	16879.664833	1194.667969	-118.398178
19434.301649	16879.664833	1193.545898	-44.875820
19434.301649	16879.664833	1192.424805	256.951782
19434.301649	16879.664833	1191.301758	81.167099
19434.301649	16879.664833	1190.179688	4.561660
19434.301649	16879.664833	1189.056641	66.790314
19434.301649	16879.664833	1187.933594	103.901108
19434.301649	16879.664833	1186.810547	56.560078
19434.301649	16879.664833	1185.687500	27.877609
19434.301649	16879.664833	1184.563477	292.534943
19434.301649	16879.664833	1183.440430	19.116938
19434.301649	16879.664833	1182.316406	95.649101
19434.301649	16879.664833	1181.191406	-8.564904
19434.301649	16879.664833	1180.067383	104.348091
19434.301649	16879.664833	1178.942383	35.250328
19434.301649	16879.664833	1177.817383	-81.010895
19434.301649	16879.664833	1176.692383	-165.372009
19434.301649	16879.664833	1175.566406	-22.897154
19434.301649	16879.664833	1174.440430	-128.789642
19434.301649	16879.664833	1173.314453	30.251415
19434.301649	16879.664833	1172.188477	13.404864
19434.301649	16879.664833	1171.062500	-54.870174
19434.301649	16879.664833	1169.935547	-78.180023
19434.301649	16879.664833	1168.808594	-40.351757
19434.301649	16879.664833	1167.681641	-89.070747
19434.301649	16879.664833	1166.553711	14.778234
19434.301649	16879.664833	1165.426758	-113.853157
19434.301649	16879.664833	1164.298828	-214.509079
19434.301649	16879.664833	1163.170898	-100.089531
19434.301649	16879.664833	1162.041992	-85.680634
19434.301649	16879.664833	1160.914063	-21.008001
19434.301649	16879.664833	1159.785156	-24.756805
19434.301649	16879.664833	1158.656250	-90.506493
19434.301649	16879.664833	1157.526367	-80.808189
19434.301649	16879.664833	1156.397461	47.373699
19434.301649	16879.664833	1155.267578	22.063566
19434.301649	16879.664833	1154.137695	157.999619
19434.301649	16879.664833	1153.006836	-73.979843
19434.301649	16879.664833	1151.876953	-69.173637
19434.301649	16879.664833	1150.746094	-6.641810
19434.301649	16879.664833	1149.615234	-136.260132
19434.301649	16879.664833	1148.484375	-92.128845
19434.301649	16879.664833	1147.352539	-87.863007
19434.301649	16879.664833	1146.220703	-102.164368
19434.301649	16879.664833	1145.088867	-10.978824
19434.301649	16879.664833	1143.957031	-123.613617
19434.301649	16879.664833	1142.825195	65.467773
19434.301649	16879.664833	1141.692383	-118.991554
19434.301649	16879.664833	1140.559570	107.502342
19434.301649	16879.664833	1139.426758	188.611008
19434.301649	16879.664833	1138.292969	259.214111
19434.301649	16879.664833	1137.159180	139.370255
19434.301649	16879.664833	1136.025391	293.790863
19434.301649	16879.664833	1134.891602	216.322083
19434.301649	16879.664833	1133.757813	277.503510
19434.301649	16879.664833	1132.623047	392.334564
19434.301649	16879.664833	1131.488281	473.826477
19434.301649	16879.664833	1130.353516	403.221954
19434.301649	16879.664833	1129.217773	524.186279
19434.301649	16879.664833	1128.083008	603.778076
19434.301649	16879.664833	1126.947266	783.636963
19434.301649	16879.664833	1125.811523	704.108582
19434.301649	16879.664833	1124.674805	479.472168
19434.301649	16879.664833	1123.539063	605.407104
19434.301649	16879.664833	1122.402344	409.365967
19434.301649	16879.664833	1121.265625	673.194702
19434.301649	16879.664833	1120.127930	387.191895
19434.301649	16879.664833	1118.990234	455.827637
19434.301649	16879.664833	1117.853516	474.300842
19434.301649	16879.664833	1116.714844	438.018463
19434.301649	16879.664833	1115.577148	390.762360
19434.301649	16879.664833	1114.439453	275.665131
19434.301649	16879.664833	1113.300781	446.554352
19434.301649	16879.664833	1112.162109	318.288300
19434.301649	16879.664833	1111.022461	294.448334
19434.301649	16879.664833	1109.883789	372.079956
19434.301649	16879.664833	1108.744141	243.672226
19434.301649	16879.664833	1107.604492	365.751770
19434.301649	16879.664833	1106.463867	250.552017
19434.301649	16879.664833	1105.324219	415.072266
19434.301649	16879.664833	1104.183594	216.849854
19434.301649	16879.664833	1103.042969	288.941040
19434.301649	16879.664833	1101.902344	388.035156
19434.301649	16879.664833	1100.760742	447.631958
19434.301649	16879.664833	1099.619141	474.163910
19434.301649	16879.664833	1098.477539	571.689514
19434.301649	16879.664833	1097.335938	335.137390
19434.301649	16879.664833	1096.193359	315.743439
19434.301649	16879.664833	1095.051758	459.259277
19434.301649	16879.664833	1093.909180	490.551147
19434.301649	16879.664833	1092.765625	480.643219
19434.301649	16879.664833	1091.623047	348.929321
19434.301649	16879.664833	1090.479492	547.326965
19434.301649	16879.664833	1089.335938	513.597534
19434.301649	16879.664833	1088.192383	431.406128
19434.301649	16879.664833	1087.047852	617.749817
19434.301649	16879.664833	1085.903320	490.760376
19434.301649	16879.664833	1084.758789	547.998413
19434.301649	16879.664833	1083.614258	379.847778
19434.301649	16879.664833	1082.469727	401.454071
19434.301649	16879.664833	1081.324219	402.235931
19434.301649	16879.664833	1080.178711	305.978912
19434.301649	16879.664833	1079.033203	272.178223
19434.301649	16879.664833	1077.886719	302.121460
19434.301649	16879.664833	1076.740234	360.990906
19434.301649	16879.664833	1075.593750	318.392212
19434.301649	16879.664833	1074.447266	339.459351
19434.301649	16879.664833	1073.300781	352.224731
19434.301649	16879.664833	1072.153320	276.404327
19434.301649	16879.664833	1071.005859	308.291229
19434.301649	16879.664833	1069.858398	385.111267
19434.301649	16879.664833	1068.709961	273.860474
19434.301649	16879.664833	1067.561523	101.227737
19434.301649	16879.664833	1066.413086	79.951591
19434.301649	16879.664833	1065.264648	227.732513
19434.301649	16879.664833	1064.116211	221.417480
19434.301649	16879.664833	1062.966797	201.543259
19434.301649	16879.664833	1061.817383	176.969070
19434.301649	16879.664833	1060.667969	225.882751
19434.301649	16879.664833	1059.517578	261.653870
19434.301649	16879.664833	1058.368164	165.908493
19434.301649	16879.664833	1057.217773	417.526001
19434.301649	16879.664833	1056.067383	188.172745
19434.301649	16879.664833	1054.916016	89.247322
19434.301649	16879.664833	1053.764648	87.518738
19434.301649	16879.664833	1052.613281	426.850677
19434.301649	16879.664833	1051.461914	216.810989
19434.301649	16879.664833	1050.310547	451.559265
19434.301649	16879.664833	1049.158203	232.872757
19434.301649	16879.664833	1048.005859	260.524780
19434.301649	16879.664833	1046.853516	202.238495
19434.301649	16879.664833	1045.700195	429.247986
19434.301649	16879.664833	1044.547852	307.248535
19434.301649	16879.664833	1043.394531	344.319153
19434.301649	16879.664833	1042.240234	398.527588
19434.301649	16879.664833	1041.086914	233.904465
19434.301649	16879.664833	1039.932617	310.575348
19434.301649	16879.664833	1038.778320	511.123749
19434.301649	16879.664833	1037.624023	359.501404
19434.301649	16879.664833	1036.469727	430.208862
19434.301649	16879.664833	1035.314453	407.053009
19434.301649	16879.664833	1034.159180	501.589355
19434.301649	16879.664833	1033.003906	650.810669
19434.301649	16879.664833	1031.847656	500.172180
19434.301649	16879.664833	1030.692383	522.409790
19434.301649	16879.664833	1029.536133	715.773987
19434.301649	16879.664833	1028.378906	373.880554
19434.301649	16879.664833	1027.222656	486.915009
19434.301649	16879.664833	1026.065430	375.295532
19434.301649	16879.664833	1024.908203	363.687531
19434.301649	16879.664833	1023.750977	271.899323
19434.301649	16879.664833	1022.593750	157.423782
19434.301649	16879.664833	1021.435547	316.557404
19434.301649	16879.664833	1020.277344	221.246201
19434.301649	16879.664833	1019.119141	114.758453
19434.301649	16879.664833	1017.959961	100.070213
19434.301649	16879.664833	1016.800781	30.465572
19434.301649	16879.664833	1015.641602	168.801712
19434.301649	16879.664833	1014.482422	107.309853
19434.301649	16879.664833	1013.323242	118.552277
19434.301649	16879.664833	1012.163086	26.497967
19434.301649	16879.664833	1011.002930	132.318039
19434.301649	16879.664833	1009.842773	156.901962
19434.301649	16879.664833	1008.681641	10.578923
19434.301649	16879.664833	1007.520508	213.100311
19434.301649	16879.664833	1006.359375	359.942505
19434.301649	16879.664833	1005.198242	15.252835
19434.301649	16879.664833	1004.037109	188.539902
19434.301649	16879.664833	1002.875000	318.494019
19434.301649	16879.664833	1001.712891	271.854187
19434.301649	16879.664833	1000.550781	244.343872
19434.301649	16879.664833	999.387695	470.920868
19434.301649	16879.664833	998.224609	317.177826
19434.301649	16879.664833	997.061523	355.320679
19434.301649	16879.664833	995.898438	330.973358
19434.301649	16879.664833	994.734375	162.947937
19434.301649	16879.664833	993.571289	273.299530
19434.301649	16879.664833	992.407227	132.805756
19434.301649	16879.664833	991.242188	207.798462
19434.301649	16879.664833	990.078125	321.667938
19434.301649	16879.664833	988.913086	163.169113
19434.301649	16879.664833	987.748047	77.079666
19434.301649	16879.664833	986.583008	132.007919
19434.301649	16879.664833	985.416992	238.927841
19434.301649	16879.664833	984.250977	175.542969
19434.301649	16879.664833	983.084961	-64.296150
19434.301649	16879.664833	981.918945	149.335220
19434.301649	16879.664833	980.751953	-1.036344
19434.301649	16879.664833	979.584961	-91.409271
19434.301649	16879.664833	978.417969	74.447830
19434.301649	16879.664833	977.250977	-33.473869
19434.301649	16879.664833	976.083008	-14.100062
19434.301649	16879.664833	974.915039	39.988937
19434.301649	16879.664833	973.747070	-12.464721
19434.301649	16879.664833	972.579102	-24.605606
19434.301649	16879.664833	971.410156	-45.460098
19434.301649	16879.664833	970.242188	-173.871078
19434.301649	16879.664833	969.072266	-145.421585
19434.301649	16879.664833	967.903320	-52.579433
19434.301649	16879.664833	966.733398	-49.334953
19434.301649	16879.664833	965.563477	-168.189117
19434.301649	16879.664833	964.393555	-163.298218
19434.301649	16879.664833	963.223633	90.981293
19434.301649	16879.664833	962.052734	-10.386926
19434.301649	16879.664833	960.881836	-49.859802
19434.301649	16879.664833	959.710938	-35.895370
19434.301649	16879.664833	958.540039	-106.899910
19434.301649	16879.664833	957.368164	67.357758
19434.301649	16879.664833	956.196289	120.968628
19434.301649	16879.664833	955.024414	-73.736275
19434.301649	16879.664833	953.851563	-4.389100
19434.301649	16879.664833	952.679688	18.616152
19434.301649	16879.664833	951.506836	2.375525
19434.301649	16879.664833	950.333984	132.151978
19434.301649	16879.664833	949.160156	142.718552
19434.301649	16879.664833	947.986328	124.603874
19434.301649	16879.664833	946.812500	71.080345
19434.301649	16879.664833	945.638672	278.118622
19434.301649	16879.664833	944.464844	65.145439
19434.301649	16879.664833	943.290039	306.068512
19434.301649	16879.664833	942.115234	84.598167
19434.301649	16879.664833	940.940430	173.475540
19434.301649	16879.664833	939.764648	139.874954
19434.301649	16879.664833	938.588867	70.797714
19434.301649	16879.664833	937.413086	226.826782
19434.301649	16879.664833	936.237305	70.715988
19434.301649	16879.664833	935.060547	66.669884
19434.301649	16879.664833	933.883789	175.232773
19434.301649	16879.664833	932.707031	216.702408
19434.301649	16879.664833	931.530273	92.211510
19434.301649	16879.664833	930.352539	40.788834
19434.301649	16879.664833	929.175781	19.133404
19434.301649	16879.664833	927.998047	101.981529
19434.301649	16879.664833	926.819336	131.573334
19434.301649	16879.664833	925.641602	24.970104
19434.301649	16879.664833	924.462891	24.960892
19434.301649	16879.664833	923.284180	145.286224
19434.301649	16879.664833	922.104492	1.307841
19434.301649	16879.664833	920.924805	210.356094
19434.301649	16879.664833	919.746094	214.571884
19434.301649	16879.664833	919.551758	-29.479408
19434.301649	16879.664833	918.386719	21.772593
19434.301649	16879.664833	917.220703	69.075638
19434.301649	16879.664833	916.054688	-9.731213
19434.301649	16879.664833	914.887695	118.349495
19434.301649	16879.664833	913.721680	-58.887764
19434.301649	16879.664833	912.554688	65.236694
19434.301649	16879.664833	911.387695	-56.765285
19434.301649	16879.664833	910.220703	-159.019928
19434.301649	16879.664833	909.052734	81.200684
19434.301649	16879.664833	907.885742	126.551247
19434.301649	16879.664833	906.717773	40.107979
19434.301649	16879.664833	905.548828	168.090363
19434.301649	16879.664833	904.380859	22.718386
19434.301649	16879.664833	903.211914	160.517563
19434.301649	16879.664833	902.042969	300.244690
19434.301649	16879.664833	900.874023	227.703140
19434.301649	16879.664833	899.704102	294.707794
19434.301649	16879.664833	898.535156	226.166946
19434.301649	16879.664833	897.365234	134.111053
19434.301649	16879.664833	896.194336	20.520258
19434.301649	16879.664833	895.024414	173.975571
19434.301649	16879.664833	893.853516	166.454819
19434.301649	16879.664833	892.682617	117.751678
19434.301649	16879.664833	891.511719	49.474129
19434.301649	16879.664833	890.340820	173.475250
19434.301649	16879.664833	889.168945	207.244766
19434.301649	16879.664833	887.997070	60.642681
19434.301649	16879.664833	886.825195	121.918503
19434.301649	16879.664833	885.653320	-4.954629
19434.301649	16879.664833	884.480469	-6.335562
19434.301649	16879.664833	883.307617	-86.052940
19434.301649	16879.664833	882.134766	55.623188
19434.301649	16879.664833	880.961914	-31.849724
19434.301649	16879.664833	879.788086	8.009357
19434.301649	16879.664833	878.614258	134.011292
19434.301649	16879.664833	877.440430	46.669178
19434.301649	16879.664833	876.266602	-44.520523
19434.301649	16879.664833	875.091797	-31.954672
19434.301649	16879.664833	873.916992	43.227253
19434.301649	16879.664833	872.742188	-217.936325
19434.301649	16879.664833	871.567383	-52.749790
19434.301649	16879.664833	870.391602	-108.474205
19434.301649	16879.664833	869.215820	-189.550003
19434.301649	16879.664833	868.040039	-297.913422
19434.301649	16879.664833	866.864258	-283.129639
19434.301649	16879.664833	865.687500	-133.550537
19434.301649	16879.664833	864.510742	12.096225
19434.301649	16879.664833	863.333984	-23.846388
19434.301649	16879.664833	862.157227	-167.093994
19434.301649	16879.664833	860.979492	-134.609756
19434.301649	16879.664833	859.802734	-129.423859
19434.301649	16879.664833	858.625000	-190.524292
19434.301649	16879.664833	857.446289	-140.393265
19434.301649	16879.664833	856.268555	-226.745789
19434.301649	16879.664833	855.089844	-258.435913
19434.301649	16879.664833	853.911133	-95.169312
19434.301649	16879.664833	852.731445	-33.261559
19434.301649	16879.664833	851.552734	172.824982
19434.301649	16879.664833	850.373047	-86.678665
19434.301649	16879.664833	849.193359	160.306854
19434.301649	16879.664833	848.013672	-73.703827
19434.301649	16879.664833	846.833008	38.932720
19434.301649	16879.664833	845.652344	-70.319527
19434.301649	16879.664833	844.471680	71.529602
19434.301649	16879.664833	843.291016	47.988800
19434.301649	16879.664833	842.110352	98.406609
19434.301649	16879.664833	840.928711	156.622803
19434.301649	16879.664833	839.747070	34.030804
19434.301649	16879.664833	838.564453	4.835638
19434.301649	16879.664833	837.382813	296.359222
19434.301649	16879.664833	836.200195	241.932632
19434.301649	16879.664833	835.017578	278.869049
19434.301649	16879.664833	833.834961	488.687775
19434.301649	16879.664833	832.651367	533.399536
19434.301649	16879.664833	831.467773	585.892517
19434.301649	16879.664833	830.284180	514.168457
19434.301649	16879.664833	829.100586	475.497467
19434.301649	16879.664833	827.916992	355.384155
19434.301649	16879.664833	826.732422	260.576630
19434.301649	16879.664833	825.547852	64.987221
19434.301649	16879.664833	824.363281	179.765976
19434.301649	16879.664833	823.177734	160.763535
19434.301649	16879.664833	821.992188	-11.324672
19434.301649	16879.664833	820.806641	161.633759
19434.301649	16879.664833	819.621094	-134.321609
19434.301649	16879.664833	818.434570	-108.561798
19434.301649	16879.664833	817.249023	-49.865707
19434.301649	16879.664833	816.062500	-103.463234
19434.301649	16879.664833	814.875000	44.327782
19434.301649	16879.664833	813.688477	-65.341095
19434.301649	16879.664833	812.500977	-116.878387
19434.301649	16879.664833	811.313477	-13.590961
19434.301649	16879.664833	810.125977	-121.159119
19434.301649	16879.664833	808.937500	67.234604
19434.301649	16879.664833	807.749023	50.624035
19434.301649	16879.664833	806.560547	-68.408493
19434.301649	16879.664833	805.372070	71.613869
19434.301649	16879.664833	804.182617	228.996841
19434.301649	16879.664833	802.994141	110.070213
19434.301649	16879.664833	801.803711	251.977203
19434.301649	16879.664833	800.614258	204.593552
19434.301649	16879.664833	799.424805	18.239603
19434.301649	16879.664833	798.234375	125.392929
19434.301649	16879.664833	797.043945	62.688606
19434.301649	16879.664833	795.852539	102.297562
19434.301649	16879.664833	794.662109	276.937897
19434.301649	16879.664833	793.470703	218.155411
19434.301649	16879.664833	792.279297	350.313568
19434.301649	16879.664833	791.087891	235.659500
19434.301649	16879.664833	789.895508	329.242004
19434.301649	16879.664833	788.703125	482.538727
19434.301649	16879.664833	787.510742	439.259644
19434.301649	16879.664833	786.318359	359.407654
19434.301649	16879.664833	785.125000	441.381134
19434.301649	16879.664833	783.931641	454.010132
19434.301649	16879.664833	782.738281	264.505554
19434.301649	16879.664833	781.544922	100.106544
19434.301649	16879.664833	780.350586	320.647003
19434.301649	16879.664833	779.156250	233.276184
19434.301649	16879.664833	777.961914	290.206909
19434.301649	16879.664833	776.767578	272.114746
19434.301649	16879.664833	775.572266	363.630402
19434.301649	16879.664833	774.376953	114.859154
19434.301649	16879.664833	773.181641	248.649429
19434.301649	16879.664833	771.986328	474.614319
19434.301649	16879.664833	770.790039	581.377502
19434.301649	16879.664833	769.593750	578.609741
19434.301649	16879.664833	768.397461	472.140808
19434.301649	16879.664833	767.201172	471.302429
19434.301649	16879.664833	766.003906	261.234863
19434.301649	16879.664833	764.806641	91.544312
19434.301649	16879.664833	763.609375	486.015594
19434.301649	16879.664833	762.412109	410.322174
19434.301649	16879.664833	761.213867	311.636475
19434.301649	16879.664833	760.015625	193.800934
19434.301649	16879.664833	758.817383	87.499763
19434.301649	16879.664833	757.618164	180.569305
19434.301649	16879.664833	756.419922	158.594406
19434.301649	16879.664833	755.220703	13.994243
19434.301649	16879.664833	754.021484	116.533157
19434.301649	16879.664833	752.821289	291.785675
19434.301649	16879.664833	751.621094	193.134308
19434.301649	16879.664833	750.420898	119.382324
19434.301649	16879.664833	749.220703	326.980377
19434.301649	16879.664833	748.020508	301.010986
19434.301649	16879.664833	746.819336	286.504517
19434.301649	16879.664833	745.618164	212.676590
19434.301649	16879.664833	744.416992	366.411438
19434.301649	16879.664833	743.214844	122.369164
19434.301649	16879.664833	742.012695	279.813293
19434.301649	16879.664833	740.810547	387.462036
19434.301649	16879.664833	739.608398	225.611664
19434.301649	16879.664833	738.406250	455.405182
19434.301649	16879.664833	737.203125	444.411621
19434.301649	16879.664833	736.000000	593.777466
19434.301649	16879.664833	734.795898	575.033630
19434.301649	16879.664833	733.592773	537.157471
19434.301649	16879.664833	732.388672	411.466156
19434.301649	16879.664833	731.184570	467.030121
19434.301649	16879.664833	729.979492	280.263855
19434.301649	16879.664833	728.775391	423.450684
19434.301649	16879.664833	727.570313	291.954346
19434.301649	16879.664833	726.365234	509.314148
19434.301649	16879.664833	725.160156	343.427856
19434.301649	16879.664833	723.954102	392.879608
19434.301649	16879.664833	722.748047	345.083832
19434.301649	16879.664833	721.541992	242.004684
19434.301649	16879.664833	720.334961	296.966400
19434.301649	16879.664833	719.128906	355.638824
19434.301649	16879.664833	717.921875	351.403351
19434.301649	16879.664833	716.714844	362.322113
19434.301649	16879.664833	715.506836	236.168335
19434.301649	16879.664833	714.298828	408.660461
19434.301649	16879.664833	713.090820	253.865265
19434.301649	16879.664833	711.882813	203.642349
19434.301649	16879.664833	710.674805	343.474457
19434.301649	16879.664833	709.465820	114.420563
19434.301649	16879.664833	708.256836	368.071564
19434.301649	16879.664833	707.047852	290.934570
19434.301649	16879.664833	705.837891	263.134796
19434.301649	16879.664833	704.627930	463.155884
19434.301649	16879.664833	703.417969	264.260864
19434.301649	16879.664833	702.208008	304.549652
19434.301649	16879.664833	700.998047	116.969833
19434.301649	16879.664833	699.787109	341.150116
19434.301649	16879.664833	698.576172	278.663422
19434.301649	16879.664833	697.364258	369.744781
19434.301649	16879.664833	696.153320	377.242493
19434.301649	16879.664833	694.941406	323.965027
19434.301649	16879.664833	693.729492	553.046204
19434.301649	16879.664833	692.516602	522.286133
19434.301649	16879.664833	691.304688	588.062256
19434.301649	16879.664833	690.091797	708.640198
19434.301649	16879.664833	688.878906	488.136780
19434.301649	16879.664833	687.665039	538.399536
19434.301649	16879.664833	686.451172	597.990723
19434.301649	16879.664833	685.237305	562.800293
19434.301649	16879.664833	684.023438	546.430298
19434.301649	16879.664833	682.809570	511.026672
19434.301649	16879.664833	681.594727	471.735474
19434.301649	16879.664833	680.379883	581.742493
19434.301649	16879.664833	679.165039	593.256104
19434.301649	16879.664833	677.949219	568.721985
19434.301649	16879.664833	676.733398	653.691467
19434.301649	16879.664833	675.517578	627.007751
19434.301649	16879.664833	674.301758	668.216431
19434.301649	16879.664833	673.084961	624.279236
19434.301649	16879.664833	671.869141	691.642334
19434.301649	16879.664833	670.651367	524.728821
19434.301649	16879.664833	669.434570	750.373596
19434.301649	16879.664833	668.216797	717.235718
19434.301649	16879.664833	667.000000	795.293396
19434.301649	16879.664833	665.781250	675.104309
19434.301649	16879.664833	664.563477	652.895325
19434.301649	16879.664833	663.344727	721.062988
19434.301649	16879.664833	662.125977	683.483276
19434.301649	16879.664833	660.907227	756.978333
19434.301649	16879.664833	659.688477	626.775391
19434.301649	16879.664833	658.468750	630.244446
19434.301649	16879.664833	657.249023	659.933044
19434.301649	16879.664833	656.029297	666.858582
19434.301649	16879.664833	654.808594	760.239319
19434.301649	16879.664833	653.587891	881.663330
19434.301649	16879.664833	652.367188	635.880493
19434.301649	16879.664833	651.146484	770.138855
19434.301649	16879.664833	649.924805	704.769653
19434.301649	16879.664833	648.704102	663.721802
19434.301649	16879.664833	647.482422	590.562866
19434.301649	16879.664833	646.259766	560.515137
19434.301649	16879.664833	645.037109	740.841614
19434.301649	16879.664833	643.815430	858.914063
19434.301649	16879.664833	642.591797	787.005371
19434.301649	16879.664833	641.369141	767.560913
19434.301649	16879.664833	640.145508	817.447632
19434.301649	16879.664833	638.921875	919.722107
19434.301649	16879.664833	637.698242	961.713806
19434.301649	16879.664833	636.474609	919.060791
19434.301649	16879.664833	635.250000	986.968140
19434.301649	16879.664833	634.025391	788.273315
19434.301649	16879.664833	632.800781	852.090149
19434.301649	16879.664833	631.575195	688.797180
19434.301649	16879.664833	630.349609	757.889771
19434.301649	16879.664833	629.124023	586.846924
19434.301649	16879.664833	627.898438	468.179169
19434.301649	16879.664833	626.671875	765.349487
19434.301649	16879.664833	625.445313	653.840332
19434.301649	16879.664833	624.218750	613.376038
19434.301649	16879.664833	622.992188	572.756226
19434.301649	16879.664833	621.764648	584.396790
19434.301649	16879.664833	620.537109	605.216309
19434.301649	16879.664833	619.309570	640.824097
19434.301649	16879.664833	618.081055	556.499939
19434.301649	16879.664833	616.852539	530.023376
19434.301649	16879.664833	615.624023	482.813446
19434.301649	16879.664833	614.395508	588.766724
19434.301649	16879.664833	613.166992	444.010345
19434.301649	16879.664833	611.937500	583.215271
19434.301649	16879.664833	610.708008	335.399139
19434.301649	16879.664833	609.477539	321.027710
19434.301649	16879.664833	608.248047	579.185059
19434.301649	16879.664833	607.017578	510.267029
19434.301649	16879.664833	605.787109	549.489380
19434.301649	16879.664833	604.555664	483.989319
19434.301649	16879.664833	603.325195	410.886322
19434.301649	16879.664833	602.093750	432.790283
19434.301649	16879.664833	600.861328	663.428955
19434.301649	16879.664833	599.629883	489.106384
19434.301649	16879.664833	598.397461	471.304840
19434.301649	16879.664833	597.165039	688.227600
19434.301649	16879.664833	595.932617	412.852081
19434.301649	16879.664833	594.699219	446.740601
19434.301649	16879.664833	593.465820	374.256195
19434.301649	16879.664833	592.232422	251.346146
19434.301649	16879.664833	590.999023	396.479248
19434.301649	16879.664833	589.764648	427.809296
19434.301649	16879.664833	588.530273	304.464722
19434.301649	16879.664833	587.295898	329.891998
19434.301649	16879.664833	586.061523	236.067001
19434.301649	16879.664833	584.826172	192.339493
19434.301649	16879.664833	583.590820	155.910889
19434.301649	16879.664833	582.355469	189.997391
19434.301649	16879.664833	581.119141	127.235725
19434.301649	16879.664833	579.882813	79.214508
19434.301649	16879.664833	578.646484	84.948952
19434.301649	16879.664833	577.410156	90.527550
19434.301649	16879.664833	576.172852	240.825043
19434.301649	16879.664833	574.935547	-17.639601
19434.301649	16879.664833	573.698242	277.137329
19434.301649	16879.664833	572.460938	31.474018
19434.301649	16879.664833	571.222656	155.077972
19434.301649	16879.664833	569.984375	31.710039
19434.301649	16879.664833	568.746094	-26.819246
19434.301649	16879.664833	567.506836	261.350769
19434.301649	16879.664833	566.267578	91.256805
19434.301649	16879.664833	565.028320	97.217361
19434.301649	16879.664833	563.789063	64.120300
19434.301649	16879.664833	562.548828	16.072187
19434.301649	16879.664833	561.309570	-82.097458
19434.301649	16879.664833	560.068359	-34.040329
19434.301649	16879.664833	558.828125	34.251442
19434.301649	16879.664833	557.586914	202.363495
19434.301649	16879.664833	556.345703	22.277075
19434.301649	16879.664833	555.104492	-46.808083
19434.301649	16879.664833	553.863281	-19.761538
19434.301649	16879.664833	552.621094	188.440872
19434.301649	16879.664833	551.378906	113.468452
19434.301649	16879.664833	550.136719	-137.246490
19434.301649	16879.664833	548.893555	68.665825
19434.301649	16879.664833	547.650391	-4.709910
19434.301649	16879.664833	546.407227	17.937666
19434.301649	16879.664833	545.164063	103.295921
19434.301649	16879.664833	543.919922	22.269663
19434.301649	16879.664833	542.675781	160.949890
19434.301649	16879.664833	541.431641	64.994812
19434.301649	16879.664833	540.186523	-40.245556
19434.301649	16879.664833	538.941406	-149.215042
19434.301649	16879.664833	537.696289	13.021995
19434.301649	16879.664833	536.451172	-61.017735
19434.301649	16879.664833	535.205078	-124.044830
19434.301649	16879.664833	533.959961	-10.082011
19434.301649	16879.664833	532.712891	-67.711655
19434.301649	16879.664833	531.466797	-175.136093
19434.301649	16879.664833	530.219727	-236.518036
19434.301649	16879.664833	528.972656	-60.261559
19434.301649	16879.664833	527.725586	-134.648605
19434.301649	16879.664833	526.478516	67.185394
19434.301649	16879.664833	525.230469	106.846123
19434.301649	16879.664833	523.982422	56.243179
19434.301649	16879.664833	522.734375	-53.272480
19434.301649	16879.664833	521.485352	-183.032715
19434.301649	16879.664833	520.236328	-156.403183
19434.301649	16879.664833	518.987305	-72.801453
19434.301649	16879.664833	517.737305	8.883955
19434.301649	16879.664833	516.488281	-78.615570
19434.301649	16879.664833	515.238281	172.089493
19434.301649	16879.664833	513.988281	-18.369324
19434.301649	16879.664833	512.737305	395.684845
19434.301649	16879.664833	511.486328	394.416809
19434.301649	16879.664833	510.235352	352.738037
19434.301649	16879.664833	508.984375	630.549316
19434.301649	16879.664833	507.732422	484.183807
19434.301649	16879.664833	506.480469	380.093262
19434.301649	16879.664833	505.228516	373.301514
19434.301649	16879.664833	503.976563	406.879211
19434.301649	16879.664833	502.723633	400.091003
19434.301649	16879.664833	501.470703	191.610306
19434.301649	16879.664833	500.217773	300.401245
19434.301649	16879.664833	498.963867	22.407215
19434.301649	16879.664833	497.709961	-2.554997
19434.301649	16879.664833	496.456055	-10.991104
19434.301649	16879.664833	495.202148	74.024765
19434.301649	16879.664833	493.947266	-68.062111
19434.301649	16879.664833	492.692383	-122.165665
19434.301649	16879.664833	491.437500	127.664246
19434.301649	16879.664833	490.181641	-156.991409
19434.301649	16879.664833	488.926758	-48.068394
19434.301649	16879.664833	487.670898	-36.113720
19434.301649	16879.664833	486.414063	-66.193970
19434.301649	16879.664833	485.158203	-130.939713
19434.301649	16879.664833	483.901367	122.490761
19434.301649	16879.664833	482.644531	-141.397400
19434.301649	16879.664833	481.386719	11.523445
19434.301649	16879.664833	480.128906	100.494507
19434.301649	16879.664833	478.871094	39.709297
19434.301649	16879.664833	477.613281	-11.853632
19434.301649	16879.664833	476.355469	95.521484
19434.301649	16879.664833	475.096680	210.209152
19434.301649	16879.664833	473.837891	266.518127
19434.301649	16879.664833	472.578125	182.366714
19434.301649	16879.664833	471.319336	129.349609
19434.301649	16879.664833	470.059570	-38.483452
19434.301649	16879.664833	468.799805	215.054443
19434.301649	16879.664833	467.539063	-3.626456
19434.301649	16879.664833	466.278320	300.975739
19434.301649	16879.664833	465.017578	290.269897
19434.301649	16879.664833	463.756836	150.295670
19434.301649	16879.664833	462.495117	168.921860
19434.301649	16879.664833	461.233398	61.964905
19434.301649	16879.664833	459.971680	168.158188
19434.301649	16879.664833	458.709961	172.448807
19434.301649	16879.664833	457.447266	29.394594
19434.301649	16879.664833	456.184570	110.284546
19434.301649	16879.664833	454.921875	34.773148
19434.301649	16879.664833	453.658203	6.650237
19434.301649	16879.664833	452.394531	16.802584
19434.301649	16879.664833	451.130859	-65.689240
19434.301649	16879.664833	449.867188	50.043194
19434.301649	16879.664833	448.602539	7.694294
19434.301649	16879.664833	447.337891	5.403513
19434.301649	16879.664833	446.073242	110.349052
19434.301649	16879.664833	444.807617	-20.775288
19434.301649	16879.664833	443.542969	-8.338183
19434.301649	16879.664833	442.276367	-26.724874
19434.301649	16879.664833	441.010742	9.406849
19434.301649	16879.664833	439.744141	-66.930573
19434.301649	16879.664833	438.478516	154.324234
19434.301649	16879.664833	437.210938	181.447449
19434.301649	16879.664833	435.944336	85.305801
19434.301649	16879.664833	434.676758	-65.155647
19434.301649	16879.664833	433.409180	27.345095
19434.301649	16879.664833	432.141602	58.217136
19434.301649	16879.664833	430.873047	74.588585
19434.301649	16879.664833	429.604492	-66.620132
19434.301649	16879.664833	428.335938	14.972587
19434.301649	16879.664833	427.067383	24.105328
19434.301649	16879.664833	425.797852	63.981750
19434.301649	16879.664833	424.528320	-2.953994
19434.301649	16879.664833	423.258789	-55.416740
19434.301649	16879.664833	421.988281	-35.549927
19434.301649	16879.664833	420.717773	-44.678303
19434.301649	16879.664833	419.447266	5.807100
19434.301649	16879.664833	418.175781	153.808167
19434.301649	16879.664833	416.905273	175.156601
19434.301649	16879.664833	415.633789	266.864960
19434.301649	16879.664833	414.362305	83.826889
19434.301649	16879.664833	413.089844	137.350113
19434.301649	16879.664833	411.817383	93.205215
19434.301649	16879.664833	410.544922	137.397919
19434.301649	16879.664833	409.272461	101.989960
19434.301649	16879.664833	407.999023	3.250174
19434.301649	16879.664833	406.725586	41.482384
19434.301649	16879.664833	405.452148	43.413521
19434.301649	16879.664833	404.177734	265.128418
19434.301649	16879.664833	402.903320	48.362003
19434.301649	16879.664833	401.628906	60.366608
19434.301649	16879.664833	400.354492	-61.282875
19434.301649	16879.664833	399.079102	-78.681900
19434.301649	16879.664833	397.803711	191.844833
19434.301649	16879.664833	396.528320	35.051704
19434.301649	16879.664833	395.251953	-132.854050
19434.301649	16879.664833	393.976563	-137.232010
19434.301649	16879.664833	392.700195	-35.835358
19434.301649	16879.664833	391.422852	-50.101212
19434.301649	16879.664833	390.145508	-86.410118
19434.301649	16879.664833	388.869141	72.887253
19434.301649	16879.664833	387.590820	13.972525
19434.301649	16879.664833	386.313477	-56.230747
19434.301649	16879.664833	385.035156	67.150688
19434.301649	16879.664833	383.756836	-13.203747
19434.301649	16879.664833	382.478516	-122.902321
19434.301649	16879.664833	381.199219	63.175205
19434.301649	16879.664833	379.919922	6.016310
19434.301649	16879.664833	378.640625	151.058640
19434.301649	16879.664833	377.360352	40.333813
19434.301649	16879.664833	376.080078	9.625652
19434.301649	16879.664833	374.799805	33.724186
19434.301649	16879.664833	373.519531	284.783630
19434.301649	16879.664833	372.238281	-51.727879
19434.301649	16879.664833	370.957031	116.658096
19434.301649	16879.664833	369.675781	90.344376
19434.301649	16879.664833	368.394531	-5.108170
19434.301649	16879.664833	367.112305	122.390785
19434.301649	16879.664833	365.830078	85.662369
19434.301649	16879.664833	364.546875	-47.187790
19434.301649	16879.664833	363.264648	171.641403
19434.301649	16879.664833	361.981445	-71.090134
19434.301649	16879.664833	360.698242	-53.671349
19434.301649	16879.664833	359.414063	-114.619003
19434.301649	16879.664833	358.129883	-80.337097
19434.301649	16879.664833	356.845703	-9.979457
19434.301649	16879.664833	355.561523	-109.313553
19434.301649	16879.664833	354.276367	72.308487
19434.301649	16879.664833	352.991211	-41.001152
19434.301649	16879.664833	351.706055	99.631157
19434.301649	16879.664833	350.420898	34.708408
19434.301649	16879.664833	349.134766	-49.925777
19434.301649	16879.664833	347.848633	101.149200
19434.301649	16879.664833	346.561523	92.990479
19434.301649	16879.664833	345.275391	48.917828
19434.301649	16879.664833	343.988281	-129.381424
19434.301649	16879.664833	342.700195	-67.110237
19434.301649	16879.664833	341.413086	-28.482555
19434.301649	16879.664833	340.125000	-45.766479
19434.301649	16879.664833	338.836914	-8.375748
19434.301649	16879.664833	337.548828	-26.980412
19434.301649	16879.664833	336.259766	-8.976954
19434.301649	16879.664833	334.970703	25.974522
19434.301649	16879.664833	333.681641	24.318399
19434.301649	16879.664833	332.391602	66.101257
19434.301649	16879.664833	331.101563	177.982300
19434.301649	16879.664833	329.811523	1.880370
19434.301649	16879.664833	328.521484	118.310974
19434.301649	16879.664833	327.230469	97.925362
19434.301649	16879.664833	325.939453	184.596054
19434.301649	16879.664833	324.648438	155.745193
19434.301649	16879.664833	323.356445	101.990273
19434.301649	16879.664833	322.064453	55.329407
19434.301649	16879.664833	320.772461	22.764898
19434.301649	16879.664833	319.480469	-152.260818
19434.301649	16879.664833	318.187500	-245.913528
19434.301649	16879.664833	316.894531	-192.528656
19434.301649	16879.664833	315.601563	-251.694443
19434.301649	16879.664833	314.307617	-135.820038
19434.301649	16879.664833	313.013672	75.043770
19434.301649	16879.664833	311.719727	-80.886406
19434.301649	16879.664833	310.425781	172.170929
19434.301649	16879.664833	309.130859	45.782459
19434.301649	16879.664833	307.835938	-53.533596
19434.301649	16879.664833	306.541016	12.427742
19434.301649	16879.664833	305.245117	154.622650
19434.301649	16879.664833	303.949219	378.296356
19434.301649	16879.664833	302.653320	385.446106
19434.301649	16879.664833	301.356445	383.284302
19434.301649	16879.664833	300.060547	520.778931
19434.301649	16879.664833	298.763672	434.243774
