#X		#Y		#Wave		#Intensity
19513.039734	16878.468667	2000.043945	201.031723
19513.039734	16878.468667	1999.080078	347.515930
19513.039734	16878.468667	1998.116211	-227.908157
19513.039734	16878.468667	1997.151367	-104.232346
19513.039734	16878.468667	1996.186523	-99.496475
19513.039734	16878.468667	1995.222656	-121.978859
19513.039734	16878.468667	1994.256836	-171.638794
19513.039734	16878.468667	1993.291992	177.439224
19513.039734	16878.468667	1992.327148	-10.826645
19513.039734	16878.468667	1991.361328	53.520905
19513.039734	16878.468667	1990.395508	469.335968
19513.039734	16878.468667	1989.429688	-359.622345
19513.039734	16878.468667	1988.463867	-342.106720
19513.039734	16878.468667	1987.497070	432.375244
19513.039734	16878.468667	1986.531250	-71.985924
19513.039734	16878.468667	1985.564453	232.461380
19513.039734	16878.468667	1984.597656	301.988586
19513.039734	16878.468667	1983.630859	176.280243
19513.039734	16878.468667	1982.664063	512.802063
19513.039734	16878.468667	1981.696289	-304.601898
19513.039734	16878.468667	1980.728516	-494.172394
19513.039734	16878.468667	1979.761719	-182.240219
19513.039734	16878.468667	1978.792969	208.678223
19513.039734	16878.468667	1977.825195	219.280350
19513.039734	16878.468667	1976.857422	62.077950
19513.039734	16878.468667	1975.888672	373.938538
19513.039734	16878.468667	1974.919922	207.026978
19513.039734	16878.468667	1973.951172	252.417984
19513.039734	16878.468667	1972.982422	223.850189
19513.039734	16878.468667	1972.013672	306.339600
19513.039734	16878.468667	1971.043945	253.253738
19513.039734	16878.468667	1970.075195	325.971741
19513.039734	16878.468667	1969.105469	164.576004
19513.039734	16878.468667	1968.135742	520.824463
19513.039734	16878.468667	1967.165039	19.569141
19513.039734	16878.468667	1966.195313	242.817352
19513.039734	16878.468667	1965.224609	719.745605
19513.039734	16878.468667	1964.253906	529.209106
19513.039734	16878.468667	1963.283203	48.278084
19513.039734	16878.468667	1962.312500	244.542328
19513.039734	16878.468667	1961.341797	34.704857
19513.039734	16878.468667	1960.370117	285.176422
19513.039734	16878.468667	1959.399414	178.865555
19513.039734	16878.468667	1958.427734	227.640778
19513.039734	16878.468667	1957.455078	23.158279
19513.039734	16878.468667	1956.483398	-70.544998
19513.039734	16878.468667	1955.511719	275.910400
19513.039734	16878.468667	1954.539063	-164.244293
19513.039734	16878.468667	1953.566406	-139.697983
19513.039734	16878.468667	1952.593750	-4.533133
19513.039734	16878.468667	1951.621094	-272.238495
19513.039734	16878.468667	1950.647461	20.233713
19513.039734	16878.468667	1949.674805	40.059944
19513.039734	16878.468667	1948.701172	305.476807
19513.039734	16878.468667	1947.727539	-45.298874
19513.039734	16878.468667	1946.753906	60.622883
19513.039734	16878.468667	1945.780273	19.327383
19513.039734	16878.468667	1944.805664	-107.746841
19513.039734	16878.468667	1943.831055	108.694786
19513.039734	16878.468667	1942.856445	43.077328
19513.039734	16878.468667	1941.881836	239.907822
19513.039734	16878.468667	1940.907227	-225.209015
19513.039734	16878.468667	1939.932617	111.421303
19513.039734	16878.468667	1938.957031	156.362473
19513.039734	16878.468667	1937.981445	-229.899994
19513.039734	16878.468667	1937.005859	165.508026
19513.039734	16878.468667	1936.030273	195.874695
19513.039734	16878.468667	1935.054688	152.812363
19513.039734	16878.468667	1934.078125	244.490311
19513.039734	16878.468667	1933.101563	113.421036
19513.039734	16878.468667	1932.125000	-29.790976
19513.039734	16878.468667	1931.148438	-38.314713
19513.039734	16878.468667	1930.171875	239.458176
19513.039734	16878.468667	1929.194336	91.560371
19513.039734	16878.468667	1928.217773	210.325729
19513.039734	16878.468667	1927.240234	-199.066055
19513.039734	16878.468667	1926.262695	-407.790436
19513.039734	16878.468667	1925.284180	-398.841980
19513.039734	16878.468667	1924.306641	-47.734882
19513.039734	16878.468667	1923.328125	-300.222809
19513.039734	16878.468667	1922.350586	126.539261
19513.039734	16878.468667	1921.372070	-174.663162
19513.039734	16878.468667	1920.392578	310.625854
19513.039734	16878.468667	1919.414063	153.618256
19513.039734	16878.468667	1918.434570	213.974716
19513.039734	16878.468667	1917.456055	176.700012
19513.039734	16878.468667	1916.476563	168.763489
19513.039734	16878.468667	1915.497070	-90.432747
19513.039734	16878.468667	1914.516602	1.765353
19513.039734	16878.468667	1913.537109	242.706055
19513.039734	16878.468667	1912.556641	69.073692
19513.039734	16878.468667	1911.576172	132.008514
19513.039734	16878.468667	1910.595703	-109.744690
19513.039734	16878.468667	1909.615234	-380.628662
19513.039734	16878.468667	1908.633789	-417.469818
19513.039734	16878.468667	1907.653320	-10.924065
19513.039734	16878.468667	1906.671875	-303.529541
19513.039734	16878.468667	1905.690430	-298.915741
19513.039734	16878.468667	1904.708984	117.177734
19513.039734	16878.468667	1903.727539	-165.512238
19513.039734	16878.468667	1902.745117	-102.464386
19513.039734	16878.468667	1901.762695	-219.499619
19513.039734	16878.468667	1900.780273	-66.431831
19513.039734	16878.468667	1899.797852	-27.739004
19513.039734	16878.468667	1898.815430	86.335266
19513.039734	16878.468667	1897.832031	195.523193
19513.039734	16878.468667	1896.849609	170.949860
19513.039734	16878.468667	1895.866211	12.713908
19513.039734	16878.468667	1894.882813	-225.661911
19513.039734	16878.468667	1893.898438	75.468658
19513.039734	16878.468667	1892.915039	-451.917755
19513.039734	16878.468667	1891.930664	274.179810
19513.039734	16878.468667	1890.947266	-114.640862
19513.039734	16878.468667	1889.962891	144.945313
19513.039734	16878.468667	1888.977539	-100.469376
19513.039734	16878.468667	1887.993164	493.923828
19513.039734	16878.468667	1887.007813	175.711716
19513.039734	16878.468667	1886.023438	-341.347687
19513.039734	16878.468667	1885.038086	175.113571
19513.039734	16878.468667	1884.051758	148.133057
19513.039734	16878.468667	1883.066406	75.062675
19513.039734	16878.468667	1882.081055	4.423545
19513.039734	16878.468667	1881.094727	59.842175
19513.039734	16878.468667	1880.108398	-122.271797
19513.039734	16878.468667	1879.122070	-197.728394
19513.039734	16878.468667	1878.135742	-137.529053
19513.039734	16878.468667	1877.148438	193.901871
19513.039734	16878.468667	1876.162109	462.205688
19513.039734	16878.468667	1875.174805	129.960815
19513.039734	16878.468667	1874.187500	-393.422913
19513.039734	16878.468667	1873.199219	-376.924652
19513.039734	16878.468667	1872.211914	-227.391144
19513.039734	16878.468667	1871.223633	-310.189484
19513.039734	16878.468667	1870.236328	32.704884
19513.039734	16878.468667	1869.248047	87.662971
19513.039734	16878.468667	1868.258789	-565.879211
19513.039734	16878.468667	1867.270508	-508.494568
19513.039734	16878.468667	1866.282227	-107.955276
19513.039734	16878.468667	1865.292969	379.399780
19513.039734	16878.468667	1864.303711	359.144928
19513.039734	16878.468667	1863.314453	-18.670435
19513.039734	16878.468667	1862.324219	-159.686035
19513.039734	16878.468667	1861.334961	5.963394
19513.039734	16878.468667	1860.344727	-110.961281
19513.039734	16878.468667	1859.354492	491.434814
19513.039734	16878.468667	1858.364258	253.689484
19513.039734	16878.468667	1857.374023	71.473236
19513.039734	16878.468667	1856.383789	12.308251
19513.039734	16878.468667	1855.392578	199.152100
19513.039734	16878.468667	1854.401367	270.107025
19513.039734	16878.468667	1853.410156	598.968628
19513.039734	16878.468667	1852.418945	4.352854
19513.039734	16878.468667	1851.426758	627.076416
19513.039734	16878.468667	1850.435547	1184.423950
19513.039734	16878.468667	1849.443359	120.041855
19513.039734	16878.468667	1848.451172	715.700745
19513.039734	16878.468667	1847.458984	260.997070
19513.039734	16878.468667	1846.466797	745.500000
19513.039734	16878.468667	1845.473633	505.107880
19513.039734	16878.468667	1844.480469	269.544861
19513.039734	16878.468667	1843.487305	204.868362
19513.039734	16878.468667	1842.494141	736.866272
19513.039734	16878.468667	1841.500977	782.639099
19513.039734	16878.468667	1840.506836	607.049683
19513.039734	16878.468667	1839.513672	126.024994
19513.039734	16878.468667	1838.519531	534.721741
19513.039734	16878.468667	1837.525391	402.309814
19513.039734	16878.468667	1836.530273	495.804352
19513.039734	16878.468667	1835.536133	120.586037
19513.039734	16878.468667	1834.541016	569.506226
19513.039734	16878.468667	1833.545898	842.821289
19513.039734	16878.468667	1832.550781	-56.044025
19513.039734	16878.468667	1831.555664	495.651428
19513.039734	16878.468667	1830.560547	394.055115
19513.039734	16878.468667	1829.564453	602.052673
19513.039734	16878.468667	1828.568359	229.131409
19513.039734	16878.468667	1827.572266	633.649719
19513.039734	16878.468667	1826.576172	47.176929
19513.039734	16878.468667	1825.580078	-83.463577
19513.039734	16878.468667	1824.583008	426.132965
19513.039734	16878.468667	1823.585938	556.630127
19513.039734	16878.468667	1822.588867	-386.918335
19513.039734	16878.468667	1821.591797	-170.231964
19513.039734	16878.468667	1820.594727	652.516541
19513.039734	16878.468667	1819.596680	368.032288
19513.039734	16878.468667	1818.599609	462.000122
19513.039734	16878.468667	1817.601563	472.026398
19513.039734	16878.468667	1816.603516	299.974670
19513.039734	16878.468667	1815.604492	436.713867
19513.039734	16878.468667	1814.606445	355.480377
19513.039734	16878.468667	1813.607422	625.961914
19513.039734	16878.468667	1812.608398	233.491196
19513.039734	16878.468667	1811.609375	144.864456
19513.039734	16878.468667	1810.610352	431.659149
19513.039734	16878.468667	1809.610352	902.376404
19513.039734	16878.468667	1808.611328	366.281433
19513.039734	16878.468667	1807.611328	470.896606
19513.039734	16878.468667	1806.611328	329.207794
19513.039734	16878.468667	1805.610352	158.801788
19513.039734	16878.468667	1804.610352	110.175049
19513.039734	16878.468667	1803.609375	319.427399
19513.039734	16878.468667	1802.608398	645.502258
19513.039734	16878.468667	1801.607422	632.305237
19513.039734	16878.468667	1800.606445	642.871094
19513.039734	16878.468667	1799.605469	698.668030
19513.039734	16878.468667	1798.603516	551.504883
19513.039734	16878.468667	1797.601563	537.891968
19513.039734	16878.468667	1796.599609	25.629725
19513.039734	16878.468667	1795.597656	131.135651
19513.039734	16878.468667	1794.595703	534.546082
19513.039734	16878.468667	1793.592773	291.630249
19513.039734	16878.468667	1792.589844	639.809387
19513.039734	16878.468667	1791.587891	227.524643
19513.039734	16878.468667	1790.583984	596.798767
19513.039734	16878.468667	1789.581055	632.303711
19513.039734	16878.468667	1788.577148	653.397949
19513.039734	16878.468667	1787.574219	276.679718
19513.039734	16878.468667	1786.570313	442.823456
19513.039734	16878.468667	1785.566406	127.946640
19513.039734	16878.468667	1784.561523	-1.283966
19513.039734	16878.468667	1783.557617	340.543365
19513.039734	16878.468667	1782.552734	556.039795
19513.039734	16878.468667	1781.547852	-134.907272
19513.039734	16878.468667	1780.542969	9.014593
19513.039734	16878.468667	1779.538086	545.078674
19513.039734	16878.468667	1778.532227	455.611359
19513.039734	16878.468667	1777.527344	190.170410
19513.039734	16878.468667	1776.521484	366.713287
19513.039734	16878.468667	1775.515625	260.335358
19513.039734	16878.468667	1774.508789	617.093018
19513.039734	16878.468667	1773.502930	237.345871
19513.039734	16878.468667	1772.496094	254.175522
19513.039734	16878.468667	1771.489258	251.880936
19513.039734	16878.468667	1770.482422	555.661377
19513.039734	16878.468667	1769.475586	-90.061150
19513.039734	16878.468667	1768.467773	377.151947
19513.039734	16878.468667	1767.460938	-114.338257
19513.039734	16878.468667	1766.453125	535.087646
19513.039734	16878.468667	1765.445313	268.795837
19513.039734	16878.468667	1764.437500	652.118530
19513.039734	16878.468667	1763.428711	482.857178
19513.039734	16878.468667	1762.420898	251.913162
19513.039734	16878.468667	1761.412109	473.529785
19513.039734	16878.468667	1760.403320	287.452820
19513.039734	16878.468667	1759.393555	617.694336
19513.039734	16878.468667	1758.384766	457.469116
19513.039734	16878.468667	1757.375000	342.175964
19513.039734	16878.468667	1756.366211	364.104401
19513.039734	16878.468667	1755.356445	82.949615
19513.039734	16878.468667	1754.345703	544.840515
19513.039734	16878.468667	1753.335938	329.766571
19513.039734	16878.468667	1752.325195	450.559113
19513.039734	16878.468667	1751.315430	-306.248901
19513.039734	16878.468667	1750.304688	-60.295376
19513.039734	16878.468667	1749.292969	168.904144
19513.039734	16878.468667	1748.282227	-98.487740
19513.039734	16878.468667	1747.270508	-157.922028
19513.039734	16878.468667	1746.259766	262.194031
19513.039734	16878.468667	1745.248047	25.299683
19513.039734	16878.468667	1744.235352	310.359894
19513.039734	16878.468667	1743.223633	94.569748
19513.039734	16878.468667	1742.211914	275.393097
19513.039734	16878.468667	1741.199219	28.773851
19513.039734	16878.468667	1740.186523	-17.258337
19513.039734	16878.468667	1739.173828	108.867432
19513.039734	16878.468667	1738.160156	86.204155
19513.039734	16878.468667	1737.147461	-464.926697
19513.039734	16878.468667	1736.133789	31.127138
19513.039734	16878.468667	1735.120117	-458.697876
19513.039734	16878.468667	1734.106445	-484.045563
19513.039734	16878.468667	1733.091797	-66.382896
19513.039734	16878.468667	1732.078125	143.636154
19513.039734	16878.468667	1731.063477	68.381599
19513.039734	16878.468667	1730.048828	-77.619583
19513.039734	16878.468667	1729.034180	82.496635
19513.039734	16878.468667	1728.019531	-37.765091
19513.039734	16878.468667	1727.003906	-320.532379
19513.039734	16878.468667	1725.988281	-73.691864
19513.039734	16878.468667	1724.972656	-375.383362
19513.039734	16878.468667	1723.957031	-6.484933
19513.039734	16878.468667	1722.941406	-25.987955
19513.039734	16878.468667	1721.924805	-261.973572
19513.039734	16878.468667	1720.909180	108.730804
19513.039734	16878.468667	1719.892578	500.352570
19513.039734	16878.468667	1718.875977	170.076233
19513.039734	16878.468667	1717.858398	180.601517
19513.039734	16878.468667	1716.841797	-107.394211
19513.039734	16878.468667	1715.824219	69.780571
19513.039734	16878.468667	1714.806641	-124.325943
19513.039734	16878.468667	1713.789063	12.670028
19513.039734	16878.468667	1712.770508	-291.895386
19513.039734	16878.468667	1711.752930	-2.523609
19513.039734	16878.468667	1710.734375	-187.461380
19513.039734	16878.468667	1709.715820	122.711075
19513.039734	16878.468667	1708.697266	-6.055966
19513.039734	16878.468667	1707.678711	160.691666
19513.039734	16878.468667	1706.659180	-99.550201
19513.039734	16878.468667	1705.640625	-22.129488
19513.039734	16878.468667	1704.621094	-587.176697
19513.039734	16878.468667	1703.600586	83.137085
19513.039734	16878.468667	1702.581055	101.632477
19513.039734	16878.468667	1701.561523	321.531769
19513.039734	16878.468667	1700.541016	49.326515
19513.039734	16878.468667	1699.520508	32.429642
19513.039734	16878.468667	1698.500000	85.709511
19513.039734	16878.468667	1697.478516	581.372314
19513.039734	16878.468667	1696.458008	503.286499
19513.039734	16878.468667	1695.436523	493.015533
19513.039734	16878.468667	1694.415039	683.902527
19513.039734	16878.468667	1693.393555	34.792439
19513.039734	16878.468667	1692.372070	354.182587
19513.039734	16878.468667	1691.349609	533.064026
19513.039734	16878.468667	1690.327148	52.475395
19513.039734	16878.468667	1689.304688	331.722687
19513.039734	16878.468667	1688.282227	601.440002
19513.039734	16878.468667	1687.259766	349.902069
19513.039734	16878.468667	1686.236328	-2.068332
19513.039734	16878.468667	1685.213867	141.226898
19513.039734	16878.468667	1684.190430	102.236702
19513.039734	16878.468667	1683.166016	-79.233055
19513.039734	16878.468667	1682.142578	164.180145
19513.039734	16878.468667	1681.119141	829.896729
19513.039734	16878.468667	1680.094727	741.551636
19513.039734	16878.468667	1679.070313	492.200043
19513.039734	16878.468667	1678.045898	529.800354
19513.039734	16878.468667	1677.020508	921.827271
19513.039734	16878.468667	1675.996094	751.694824
19513.039734	16878.468667	1674.970703	530.284729
19513.039734	16878.468667	1673.945313	660.871033
19513.039734	16878.468667	1672.919922	1140.916138
19513.039734	16878.468667	1671.893555	1243.269653
19513.039734	16878.468667	1670.868164	993.779724
19513.039734	16878.468667	1669.841797	1186.862549
19513.039734	16878.468667	1668.815430	1538.171753
19513.039734	16878.468667	1667.789063	911.474121
19513.039734	16878.468667	1666.761719	1071.740356
19513.039734	16878.468667	1665.735352	705.943909
19513.039734	16878.468667	1664.708008	768.383728
19513.039734	16878.468667	1663.680664	1335.580444
19513.039734	16878.468667	1662.653320	902.379395
19513.039734	16878.468667	1661.625000	1104.161133
19513.039734	16878.468667	1660.597656	1210.508911
19513.039734	16878.468667	1659.569336	1588.752441
19513.039734	16878.468667	1658.541016	1130.139404
19513.039734	16878.468667	1657.512695	1594.171265
19513.039734	16878.468667	1656.483398	1539.916016
19513.039734	16878.468667	1655.455078	1894.468750
19513.039734	16878.468667	1654.425781	943.706116
19513.039734	16878.468667	1653.396484	1040.457764
19513.039734	16878.468667	1652.366211	1729.112061
19513.039734	16878.468667	1651.336914	1456.600098
19513.039734	16878.468667	1650.306641	1379.091431
19513.039734	16878.468667	1649.276367	1512.728271
19513.039734	16878.468667	1648.246094	1674.133301
19513.039734	16878.468667	1647.215820	1297.413574
19513.039734	16878.468667	1646.185547	2242.504150
19513.039734	16878.468667	1645.154297	2201.941895
19513.039734	16878.468667	1644.123047	1897.157837
19513.039734	16878.468667	1643.091797	1979.485962
19513.039734	16878.468667	1642.060547	1843.986206
19513.039734	16878.468667	1641.028320	1833.621216
19513.039734	16878.468667	1639.997070	1730.623047
19513.039734	16878.468667	1638.964844	2257.497070
19513.039734	16878.468667	1637.931641	1533.991089
19513.039734	16878.468667	1636.899414	2016.724121
19513.039734	16878.468667	1635.867188	1851.287231
19513.039734	16878.468667	1634.833984	1750.705688
19513.039734	16878.468667	1633.800781	1539.125732
19513.039734	16878.468667	1632.767578	1970.622925
19513.039734	16878.468667	1631.734375	1456.175781
19513.039734	16878.468667	1630.700195	1665.590454
19513.039734	16878.468667	1629.666016	1814.837280
19513.039734	16878.468667	1628.631836	2102.710938
19513.039734	16878.468667	1627.597656	1775.853516
19513.039734	16878.468667	1626.563477	1920.423218
19513.039734	16878.468667	1625.528320	1847.839478
19513.039734	16878.468667	1624.493164	2190.979004
19513.039734	16878.468667	1623.458008	2118.417480
19513.039734	16878.468667	1622.422852	1902.785400
19513.039734	16878.468667	1621.387695	1726.502686
19513.039734	16878.468667	1620.351563	2254.102295
19513.039734	16878.468667	1619.315430	1974.054199
19513.039734	16878.468667	1618.279297	1661.856323
19513.039734	16878.468667	1617.243164	1709.576660
19513.039734	16878.468667	1616.207031	1927.935669
19513.039734	16878.468667	1615.169922	1701.329834
19513.039734	16878.468667	1614.132813	2057.967529
19513.039734	16878.468667	1613.095703	2103.416504
19513.039734	16878.468667	1612.058594	2280.213867
19513.039734	16878.468667	1611.020508	2364.842285
19513.039734	16878.468667	1609.983398	2405.731689
19513.039734	16878.468667	1608.945313	2646.970947
19513.039734	16878.468667	1607.907227	2618.815186
19513.039734	16878.468667	1606.868164	2597.625732
19513.039734	16878.468667	1605.830078	2546.582764
19513.039734	16878.468667	1604.791016	2626.751953
19513.039734	16878.468667	1603.751953	2909.375977
19513.039734	16878.468667	1602.712891	2826.265381
19513.039734	16878.468667	1601.673828	2389.132568
19513.039734	16878.468667	1600.633789	2402.831787
19513.039734	16878.468667	1599.594727	2664.827148
19513.039734	16878.468667	1598.554688	2651.013428
19513.039734	16878.468667	1597.513672	2492.517578
19513.039734	16878.468667	1596.473633	2639.677734
19513.039734	16878.468667	1595.433594	2288.454346
19513.039734	16878.468667	1594.392578	3296.842285
19513.039734	16878.468667	1593.351563	2408.537354
19513.039734	16878.468667	1592.310547	2723.443359
19513.039734	16878.468667	1591.268555	2512.755127
19513.039734	16878.468667	1590.227539	2735.888428
19513.039734	16878.468667	1589.185547	3073.711914
19513.039734	16878.468667	1588.143555	3301.389160
19513.039734	16878.468667	1587.100586	3324.967041
19513.039734	16878.468667	1586.058594	3075.786621
19513.039734	16878.468667	1585.015625	3409.021729
19513.039734	16878.468667	1583.972656	3634.495850
19513.039734	16878.468667	1582.929688	3580.425293
19513.039734	16878.468667	1581.886719	3391.296143
19513.039734	16878.468667	1580.843750	3252.727051
19513.039734	16878.468667	1579.799805	3553.983643
19513.039734	16878.468667	1578.755859	3518.647217
19513.039734	16878.468667	1577.711914	3444.508057
19513.039734	16878.468667	1576.666992	3665.730957
19513.039734	16878.468667	1575.623047	3612.377930
19513.039734	16878.468667	1574.578125	3508.815674
19513.039734	16878.468667	1573.533203	3412.257568
19513.039734	16878.468667	1572.488281	3647.435547
19513.039734	16878.468667	1571.443359	3080.089355
19513.039734	16878.468667	1570.397461	2775.962158
19513.039734	16878.468667	1569.351563	2586.333252
19513.039734	16878.468667	1568.305664	2732.797852
19513.039734	16878.468667	1567.259766	2378.978516
19513.039734	16878.468667	1566.213867	2265.251465
19513.039734	16878.468667	1565.166992	1921.020752
19513.039734	16878.468667	1564.120117	2257.463379
19513.039734	16878.468667	1563.073242	2461.483398
19513.039734	16878.468667	1562.026367	1907.788696
19513.039734	16878.468667	1560.978516	1934.041748
19513.039734	16878.468667	1559.930664	1654.688721
19513.039734	16878.468667	1558.883789	1473.647949
19513.039734	16878.468667	1557.834961	1254.036865
19513.039734	16878.468667	1556.787109	1803.041260
19513.039734	16878.468667	1555.739258	1234.905762
19513.039734	16878.468667	1554.690430	1303.035400
19513.039734	16878.468667	1553.641602	1350.754517
19513.039734	16878.468667	1552.592773	1270.997803
19513.039734	16878.468667	1551.542969	1257.467651
19513.039734	16878.468667	1550.494141	1449.040649
19513.039734	16878.468667	1549.444336	1356.049927
19513.039734	16878.468667	1548.394531	914.920776
19513.039734	16878.468667	1547.344727	651.634766
19513.039734	16878.468667	1546.293945	807.316650
19513.039734	16878.468667	1545.244141	710.525330
19513.039734	16878.468667	1544.193359	441.032745
19513.039734	16878.468667	1543.142578	519.763306
19513.039734	16878.468667	1542.090820	828.268005
19513.039734	16878.468667	1541.040039	552.518738
19513.039734	16878.468667	1539.988281	658.890015
19513.039734	16878.468667	1538.936523	651.743103
19513.039734	16878.468667	1537.884766	719.723755
19513.039734	16878.468667	1536.833008	633.352539
19513.039734	16878.468667	1535.780273	701.614868
19513.039734	16878.468667	1534.727539	331.750458
19513.039734	16878.468667	1533.674805	91.588478
19513.039734	16878.468667	1532.622070	1009.297913
19513.039734	16878.468667	1531.569336	621.895508
19513.039734	16878.468667	1530.515625	720.363281
19513.039734	16878.468667	1529.461914	306.272339
19513.039734	16878.468667	1528.408203	39.924374
19513.039734	16878.468667	1527.354492	168.402405
19513.039734	16878.468667	1526.299805	535.048523
19513.039734	16878.468667	1525.246094	29.025366
19513.039734	16878.468667	1524.191406	-102.694679
19513.039734	16878.468667	1523.136719	225.759140
19513.039734	16878.468667	1522.081055	812.502930
19513.039734	16878.468667	1521.026367	51.557369
19513.039734	16878.468667	1519.970703	357.646088
19513.039734	16878.468667	1518.915039	358.139130
19513.039734	16878.468667	1517.859375	496.881104
19513.039734	16878.468667	1516.802734	334.746674
19513.039734	16878.468667	1515.747070	279.188477
19513.039734	16878.468667	1514.690430	203.474609
19513.039734	16878.468667	1513.633789	306.638306
19513.039734	16878.468667	1512.577148	376.020264
19513.039734	16878.468667	1511.519531	526.948975
19513.039734	16878.468667	1510.461914	702.855530
19513.039734	16878.468667	1509.405273	910.506531
19513.039734	16878.468667	1508.346680	216.707092
19513.039734	16878.468667	1507.289063	81.352722
19513.039734	16878.468667	1506.231445	544.768250
19513.039734	16878.468667	1505.172852	165.884705
19513.039734	16878.468667	1504.114258	363.057922
19513.039734	16878.468667	1503.055664	11.812028
19513.039734	16878.468667	1501.996094	58.101902
19513.039734	16878.468667	1500.937500	323.418365
19513.039734	16878.468667	1499.877930	-18.024712
19513.039734	16878.468667	1498.818359	-54.657452
19513.039734	16878.468667	1497.757813	-303.055634
19513.039734	16878.468667	1496.698242	-147.600937
19513.039734	16878.468667	1495.637695	156.761673
19513.039734	16878.468667	1494.577148	-212.668228
19513.039734	16878.468667	1493.516602	-230.253387
19513.039734	16878.468667	1492.456055	-276.926880
19513.039734	16878.468667	1491.394531	-431.497894
19513.039734	16878.468667	1490.333008	-475.468414
19513.039734	16878.468667	1489.271484	-487.712921
19513.039734	16878.468667	1488.209961	67.499458
19513.039734	16878.468667	1487.148438	66.790298
19513.039734	16878.468667	1486.085938	-354.488647
19513.039734	16878.468667	1485.023438	-266.976990
19513.039734	16878.468667	1483.960938	45.618603
19513.039734	16878.468667	1482.898438	508.954773
19513.039734	16878.468667	1481.834961	126.942551
19513.039734	16878.468667	1480.772461	138.643951
19513.039734	16878.468667	1479.708984	-6.775426
19513.039734	16878.468667	1478.644531	414.325897
19513.039734	16878.468667	1477.581055	51.465824
19513.039734	16878.468667	1476.517578	-12.350551
19513.039734	16878.468667	1475.453125	108.163773
19513.039734	16878.468667	1474.388672	134.402359
19513.039734	16878.468667	1473.323242	91.558792
19513.039734	16878.468667	1472.258789	-215.702423
19513.039734	16878.468667	1471.193359	62.412045
19513.039734	16878.468667	1470.127930	94.134827
19513.039734	16878.468667	1469.062500	-24.213581
19513.039734	16878.468667	1467.997070	-207.312714
19513.039734	16878.468667	1466.930664	-262.112518
19513.039734	16878.468667	1465.865234	25.252384
19513.039734	16878.468667	1464.798828	510.319550
19513.039734	16878.468667	1463.731445	216.238129
19513.039734	16878.468667	1462.665039	515.512878
19513.039734	16878.468667	1461.597656	452.760651
19513.039734	16878.468667	1460.530273	312.700500
19513.039734	16878.468667	1459.462891	467.051300
19513.039734	16878.468667	1458.395508	832.469238
19513.039734	16878.468667	1457.327148	683.275513
19513.039734	16878.468667	1456.259766	526.101440
19513.039734	16878.468667	1455.191406	945.663635
19513.039734	16878.468667	1454.123047	780.285522
19513.039734	16878.468667	1453.053711	475.995819
19513.039734	16878.468667	1451.985352	369.498749
19513.039734	16878.468667	1450.916016	1122.176270
19513.039734	16878.468667	1449.846680	874.710327
19513.039734	16878.468667	1448.776367	717.286682
19513.039734	16878.468667	1447.707031	1115.541504
19513.039734	16878.468667	1446.636719	677.205994
19513.039734	16878.468667	1445.566406	610.609558
19513.039734	16878.468667	1444.496094	556.779541
19513.039734	16878.468667	1443.425781	674.399170
19513.039734	16878.468667	1442.354492	522.420959
19513.039734	16878.468667	1441.283203	600.064270
19513.039734	16878.468667	1440.211914	473.434326
19513.039734	16878.468667	1439.140625	-28.691780
19513.039734	16878.468667	1438.069336	531.353638
19513.039734	16878.468667	1436.997070	17.617552
19513.039734	16878.468667	1435.924805	-58.478508
19513.039734	16878.468667	1434.852539	36.709698
19513.039734	16878.468667	1433.780273	125.674011
19513.039734	16878.468667	1432.707031	328.200287
19513.039734	16878.468667	1431.633789	-231.857056
19513.039734	16878.468667	1430.560547	80.939095
19513.039734	16878.468667	1429.487305	-26.575727
19513.039734	16878.468667	1428.413086	401.424042
19513.039734	16878.468667	1427.339844	-601.123962
19513.039734	16878.468667	1426.265625	-40.282837
19513.039734	16878.468667	1425.191406	294.773254
19513.039734	16878.468667	1424.116211	267.354919
19513.039734	16878.468667	1423.041992	-116.421989
19513.039734	16878.468667	1421.966797	108.568237
19513.039734	16878.468667	1420.891602	475.299164
19513.039734	16878.468667	1419.816406	380.039795
19513.039734	16878.468667	1418.740234	46.535118
19513.039734	16878.468667	1417.665039	-14.046178
19513.039734	16878.468667	1416.588867	-70.154808
19513.039734	16878.468667	1415.512695	123.361519
19513.039734	16878.468667	1414.435547	45.373440
19513.039734	16878.468667	1413.359375	222.720062
19513.039734	16878.468667	1412.282227	70.885597
19513.039734	16878.468667	1411.205078	334.791107
19513.039734	16878.468667	1410.127930	-167.610916
19513.039734	16878.468667	1409.049805	-122.601433
19513.039734	16878.468667	1407.972656	331.805328
19513.039734	16878.468667	1406.894531	-112.541481
19513.039734	16878.468667	1405.816406	186.805603
19513.039734	16878.468667	1404.737305	150.128784
19513.039734	16878.468667	1403.659180	274.443665
19513.039734	16878.468667	1402.580078	289.237396
19513.039734	16878.468667	1401.500977	-95.043297
19513.039734	16878.468667	1400.421875	100.315681
19513.039734	16878.468667	1399.341797	503.081635
19513.039734	16878.468667	1398.262695	226.924728
19513.039734	16878.468667	1397.182617	217.255508
19513.039734	16878.468667	1396.102539	330.109711
19513.039734	16878.468667	1395.021484	97.044350
19513.039734	16878.468667	1393.941406	-240.217148
19513.039734	16878.468667	1392.860352	171.783936
19513.039734	16878.468667	1391.779297	464.734955
19513.039734	16878.468667	1390.698242	168.619400
19513.039734	16878.468667	1389.616211	80.424667
19513.039734	16878.468667	1388.535156	333.091309
19513.039734	16878.468667	1387.453125	-254.326706
19513.039734	16878.468667	1386.371094	412.173553
19513.039734	16878.468667	1385.288086	376.912079
19513.039734	16878.468667	1384.206055	343.542999
19513.039734	16878.468667	1383.123047	199.730835
19513.039734	16878.468667	1382.040039	290.399719
19513.039734	16878.468667	1380.957031	706.911926
19513.039734	16878.468667	1379.873047	490.517792
19513.039734	16878.468667	1378.789063	313.926147
19513.039734	16878.468667	1377.705078	1009.956238
19513.039734	16878.468667	1376.621094	735.806213
19513.039734	16878.468667	1375.537109	1049.479004
19513.039734	16878.468667	1374.452148	677.412964
19513.039734	16878.468667	1373.367188	615.734253
19513.039734	16878.468667	1372.282227	893.539368
19513.039734	16878.468667	1371.197266	719.561462
19513.039734	16878.468667	1370.112305	464.424530
19513.039734	16878.468667	1369.026367	833.743530
19513.039734	16878.468667	1367.940430	876.647522
19513.039734	16878.468667	1366.854492	1290.877563
19513.039734	16878.468667	1365.767578	903.963135
19513.039734	16878.468667	1364.681641	738.892639
19513.039734	16878.468667	1363.594727	778.531067
19513.039734	16878.468667	1362.507813	757.690247
19513.039734	16878.468667	1361.419922	840.919678
19513.039734	16878.468667	1360.333008	732.128662
19513.039734	16878.468667	1359.245117	438.870605
19513.039734	16878.468667	1358.157227	978.628662
19513.039734	16878.468667	1357.069336	818.850891
19513.039734	16878.468667	1355.981445	510.274200
19513.039734	16878.468667	1354.892578	708.534851
19513.039734	16878.468667	1353.803711	954.213074
19513.039734	16878.468667	1352.714844	684.916992
19513.039734	16878.468667	1351.625000	1073.154175
19513.039734	16878.468667	1350.536133	998.562012
19513.039734	16878.468667	1349.446289	1173.707764
19513.039734	16878.468667	1348.356445	1190.182861
19513.039734	16878.468667	1347.266602	992.970215
19513.039734	16878.468667	1346.175781	1136.687500
19513.039734	16878.468667	1345.085938	1176.939453
19513.039734	16878.468667	1343.995117	1267.442993
19513.039734	16878.468667	1342.903320	1034.365234
19513.039734	16878.468667	1341.812500	930.825684
19513.039734	16878.468667	1340.720703	1268.944336
19513.039734	16878.468667	1339.629883	1069.813232
19513.039734	16878.468667	1338.538086	1659.041016
19513.039734	16878.468667	1337.445313	1195.509277
19513.039734	16878.468667	1336.353516	1449.840576
19513.039734	16878.468667	1335.260742	1665.616821
19513.039734	16878.468667	1334.167969	1654.674072
19513.039734	16878.468667	1333.075195	1918.705933
19513.039734	16878.468667	1331.981445	1597.745483
19513.039734	16878.468667	1330.888672	1623.066528
19513.039734	16878.468667	1329.794922	1617.447144
19513.039734	16878.468667	1328.701172	1578.199341
19513.039734	16878.468667	1327.606445	1831.477417
19513.039734	16878.468667	1326.512695	2044.569946
19513.039734	16878.468667	1325.417969	2030.779419
19513.039734	16878.468667	1324.323242	2342.733643
19513.039734	16878.468667	1323.227539	1817.970093
19513.039734	16878.468667	1322.132813	1772.671265
19513.039734	16878.468667	1321.037109	2044.421509
19513.039734	16878.468667	1319.941406	1971.188110
19513.039734	16878.468667	1318.845703	2134.590576
19513.039734	16878.468667	1317.750000	1412.893311
19513.039734	16878.468667	1316.653320	1688.966064
19513.039734	16878.468667	1315.556641	1658.799438
19513.039734	16878.468667	1314.459961	1616.465942
19513.039734	16878.468667	1313.363281	1303.835327
19513.039734	16878.468667	1312.265625	1392.676270
19513.039734	16878.468667	1311.167969	1285.057007
19513.039734	16878.468667	1310.070313	1295.421265
19513.039734	16878.468667	1308.972656	956.201172
19513.039734	16878.468667	1307.874023	713.407898
19513.039734	16878.468667	1306.776367	907.123840
19513.039734	16878.468667	1305.677734	682.431641
19513.039734	16878.468667	1304.579102	501.461578
19513.039734	16878.468667	1303.479492	361.244659
19513.039734	16878.468667	1302.380859	520.343140
19513.039734	16878.468667	1301.281250	425.129242
19513.039734	16878.468667	1300.181641	396.404846
19513.039734	16878.468667	1299.081055	596.900452
19513.039734	16878.468667	1297.981445	704.572266
19513.039734	16878.468667	1296.880859	448.558685
19513.039734	16878.468667	1295.780273	71.219887
19513.039734	16878.468667	1294.679688	-102.437897
19513.039734	16878.468667	1293.578125	255.601273
19513.039734	16878.468667	1292.476563	393.439545
19513.039734	16878.468667	1291.375000	271.407349
19513.039734	16878.468667	1290.273438	250.214096
19513.039734	16878.468667	1289.171875	179.221466
19513.039734	16878.468667	1288.069336	179.812851
19513.039734	16878.468667	1286.966797	256.015900
19513.039734	16878.468667	1285.864258	-10.944391
19513.039734	16878.468667	1284.761719	-343.214142
19513.039734	16878.468667	1283.658203	-115.273041
19513.039734	16878.468667	1282.554688	-18.140547
19513.039734	16878.468667	1281.451172	130.451324
19513.039734	16878.468667	1280.347656	130.676773
19513.039734	16878.468667	1279.244141	173.147537
19513.039734	16878.468667	1278.139648	171.915298
19513.039734	16878.468667	1277.035156	12.987820
19513.039734	16878.468667	1275.930664	156.371323
19513.039734	16878.468667	1274.825195	189.937943
19513.039734	16878.468667	1273.720703	-42.998718
19513.039734	16878.468667	1272.615234	76.260300
19513.039734	16878.468667	1271.508789	308.565094
19513.039734	16878.468667	1270.403320	266.299377
19513.039734	16878.468667	1269.297852	125.886147
19513.039734	16878.468667	1268.191406	-142.067932
19513.039734	16878.468667	1267.084961	-164.356171
19513.039734	16878.468667	1265.977539	-75.188271
19513.039734	16878.468667	1264.871094	-70.348694
19513.039734	16878.468667	1263.763672	134.147110
19513.039734	16878.468667	1262.656250	106.001823
19513.039734	16878.468667	1261.548828	85.956093
19513.039734	16878.468667	1260.440430	427.843323
19513.039734	16878.468667	1259.333008	116.042908
19513.039734	16878.468667	1258.224609	155.684128
19513.039734	16878.468667	1257.115234	233.038925
19513.039734	16878.468667	1256.006836	63.744499
19513.039734	16878.468667	1254.897461	368.223114
19513.039734	16878.468667	1253.788086	81.868805
19513.039734	16878.468667	1252.678711	206.035522
19513.039734	16878.468667	1251.569336	74.491287
19513.039734	16878.468667	1250.458984	583.659424
19513.039734	16878.468667	1249.349609	92.052078
19513.039734	16878.468667	1248.239258	193.204910
19513.039734	16878.468667	1247.127930	225.065643
19513.039734	16878.468667	1246.017578	236.107391
19513.039734	16878.468667	1244.906250	26.889217
19513.039734	16878.468667	1243.794922	465.316895
19513.039734	16878.468667	1242.683594	110.908470
19513.039734	16878.468667	1241.571289	94.587273
19513.039734	16878.468667	1240.459961	111.283539
19513.039734	16878.468667	1239.347656	232.997696
19513.039734	16878.468667	1238.234375	-92.873283
19513.039734	16878.468667	1237.122070	3.159507
19513.039734	16878.468667	1236.008789	323.518311
19513.039734	16878.468667	1234.896484	181.547607
19513.039734	16878.468667	1233.782227	244.004410
19513.039734	16878.468667	1232.668945	-106.777390
19513.039734	16878.468667	1231.555664	-64.874504
19513.039734	16878.468667	1230.441406	41.550362
19513.039734	16878.468667	1229.327148	35.840672
19513.039734	16878.468667	1228.211914	171.353226
19513.039734	16878.468667	1227.097656	-147.973480
19513.039734	16878.468667	1225.982422	95.208321
19513.039734	16878.468667	1224.867188	-18.886688
19513.039734	16878.468667	1223.751953	27.579981
19513.039734	16878.468667	1222.635742	-85.113113
19513.039734	16878.468667	1221.520508	134.691605
19513.039734	16878.468667	1220.404297	-84.545082
19513.039734	16878.468667	1219.287109	-28.879272
19513.039734	16878.468667	1218.170898	-94.407097
19513.039734	16878.468667	1217.053711	18.781290
19513.039734	16878.468667	1215.936523	172.139145
19513.039734	16878.468667	1214.819336	211.317535
19513.039734	16878.468667	1213.702148	88.178436
19513.039734	16878.468667	1212.583984	206.558777
19513.039734	16878.468667	1211.465820	-30.513798
19513.039734	16878.468667	1210.347656	36.865719
19513.039734	16878.468667	1209.229492	-162.729706
19513.039734	16878.468667	1208.110352	-45.475014
19513.039734	16878.468667	1206.992188	110.472031
19513.039734	16878.468667	1205.873047	21.946339
19513.039734	16878.468667	1204.752930	31.352804
19513.039734	16878.468667	1203.633789	-126.712112
19513.039734	16878.468667	1202.513672	55.379204
19513.039734	16878.468667	1201.393555	-2.966202
19513.039734	16878.468667	1200.273438	8.891126
19513.039734	16878.468667	1199.152344	-140.532684
19513.039734	16878.468667	1198.032227	-201.999969
19513.039734	16878.468667	1196.911133	-184.907059
19513.039734	16878.468667	1195.790039	-543.436401
19513.039734	16878.468667	1194.667969	-440.091614
19513.039734	16878.468667	1193.545898	26.288723
19513.039734	16878.468667	1192.424805	-80.809563
19513.039734	16878.468667	1191.301758	-81.758553
19513.039734	16878.468667	1190.179688	-332.578949
19513.039734	16878.468667	1189.056641	-456.699066
19513.039734	16878.468667	1187.933594	-616.125061
19513.039734	16878.468667	1186.810547	-579.928345
19513.039734	16878.468667	1185.687500	-199.727173
19513.039734	16878.468667	1184.563477	-361.775513
19513.039734	16878.468667	1183.440430	-349.603638
19513.039734	16878.468667	1182.316406	-28.265461
19513.039734	16878.468667	1181.191406	-14.078614
19513.039734	16878.468667	1180.067383	-309.447876
19513.039734	16878.468667	1178.942383	-211.919769
19513.039734	16878.468667	1177.817383	-512.984192
19513.039734	16878.468667	1176.692383	-377.692963
19513.039734	16878.468667	1175.566406	-243.495804
19513.039734	16878.468667	1174.440430	82.695671
19513.039734	16878.468667	1173.314453	-271.502228
19513.039734	16878.468667	1172.188477	-297.781860
19513.039734	16878.468667	1171.062500	38.547340
19513.039734	16878.468667	1169.935547	-407.449127
19513.039734	16878.468667	1168.808594	-278.998871
19513.039734	16878.468667	1167.681641	-139.047974
19513.039734	16878.468667	1166.553711	-59.269459
19513.039734	16878.468667	1165.426758	-297.671509
19513.039734	16878.468667	1164.298828	-167.743851
19513.039734	16878.468667	1163.170898	-142.404953
19513.039734	16878.468667	1162.041992	-39.632786
19513.039734	16878.468667	1160.914063	-171.251251
19513.039734	16878.468667	1159.785156	-189.063141
19513.039734	16878.468667	1158.656250	301.751678
19513.039734	16878.468667	1157.526367	-141.187347
19513.039734	16878.468667	1156.397461	-160.742493
19513.039734	16878.468667	1155.267578	17.513294
19513.039734	16878.468667	1154.137695	-302.286957
19513.039734	16878.468667	1153.006836	-23.180355
19513.039734	16878.468667	1151.876953	-19.895617
19513.039734	16878.468667	1150.746094	-224.885239
19513.039734	16878.468667	1149.615234	-221.925949
19513.039734	16878.468667	1148.484375	-126.139488
19513.039734	16878.468667	1147.352539	-160.446167
19513.039734	16878.468667	1146.220703	-300.333344
19513.039734	16878.468667	1145.088867	-242.243027
19513.039734	16878.468667	1143.957031	-236.777390
19513.039734	16878.468667	1142.825195	-119.956520
19513.039734	16878.468667	1141.692383	2.802783
19513.039734	16878.468667	1140.559570	-187.013672
19513.039734	16878.468667	1139.426758	-143.609573
19513.039734	16878.468667	1138.292969	136.812927
19513.039734	16878.468667	1137.159180	-111.861626
19513.039734	16878.468667	1136.025391	186.909210
19513.039734	16878.468667	1134.891602	372.457001
19513.039734	16878.468667	1133.757813	444.621124
19513.039734	16878.468667	1132.623047	216.530975
19513.039734	16878.468667	1131.488281	98.899803
19513.039734	16878.468667	1130.353516	202.223251
19513.039734	16878.468667	1129.217773	422.876617
19513.039734	16878.468667	1128.083008	244.072800
19513.039734	16878.468667	1126.947266	486.879150
19513.039734	16878.468667	1125.811523	173.630478
19513.039734	16878.468667	1124.674805	313.975189
19513.039734	16878.468667	1123.539063	176.681747
19513.039734	16878.468667	1122.402344	243.941711
19513.039734	16878.468667	1121.265625	156.461472
19513.039734	16878.468667	1120.127930	-156.942963
19513.039734	16878.468667	1118.990234	14.298301
19513.039734	16878.468667	1117.853516	97.614922
19513.039734	16878.468667	1116.714844	238.740158
19513.039734	16878.468667	1115.577148	83.553497
19513.039734	16878.468667	1114.439453	450.609070
19513.039734	16878.468667	1113.300781	298.972382
19513.039734	16878.468667	1112.162109	87.631943
19513.039734	16878.468667	1111.022461	110.817123
19513.039734	16878.468667	1109.883789	-37.794823
19513.039734	16878.468667	1108.744141	64.559654
19513.039734	16878.468667	1107.604492	91.541420
19513.039734	16878.468667	1106.463867	207.320892
19513.039734	16878.468667	1105.324219	251.548813
19513.039734	16878.468667	1104.183594	53.827854
19513.039734	16878.468667	1103.042969	-69.106468
19513.039734	16878.468667	1101.902344	45.651985
19513.039734	16878.468667	1100.760742	-45.879169
19513.039734	16878.468667	1099.619141	-212.272644
19513.039734	16878.468667	1098.477539	291.162903
19513.039734	16878.468667	1097.335938	194.349228
19513.039734	16878.468667	1096.193359	285.584900
19513.039734	16878.468667	1095.051758	106.432755
19513.039734	16878.468667	1093.909180	367.614807
19513.039734	16878.468667	1092.765625	270.607269
19513.039734	16878.468667	1091.623047	145.684647
19513.039734	16878.468667	1090.479492	205.533157
19513.039734	16878.468667	1089.335938	266.878021
19513.039734	16878.468667	1088.192383	84.316895
19513.039734	16878.468667	1087.047852	203.620239
19513.039734	16878.468667	1085.903320	336.533112
19513.039734	16878.468667	1084.758789	222.133698
19513.039734	16878.468667	1083.614258	343.105652
19513.039734	16878.468667	1082.469727	268.183472
19513.039734	16878.468667	1081.324219	184.418350
19513.039734	16878.468667	1080.178711	166.075485
19513.039734	16878.468667	1079.033203	393.822937
19513.039734	16878.468667	1077.886719	19.715565
19513.039734	16878.468667	1076.740234	559.300171
19513.039734	16878.468667	1075.593750	491.299500
19513.039734	16878.468667	1074.447266	193.866119
19513.039734	16878.468667	1073.300781	640.394714
19513.039734	16878.468667	1072.153320	413.978699
19513.039734	16878.468667	1071.005859	675.645935
19513.039734	16878.468667	1069.858398	326.736450
19513.039734	16878.468667	1068.709961	385.300476
19513.039734	16878.468667	1067.561523	720.381775
19513.039734	16878.468667	1066.413086	225.906311
19513.039734	16878.468667	1065.264648	229.456421
19513.039734	16878.468667	1064.116211	353.497192
19513.039734	16878.468667	1062.966797	449.156494
19513.039734	16878.468667	1061.817383	598.873169
19513.039734	16878.468667	1060.667969	643.963989
19513.039734	16878.468667	1059.517578	297.618958
19513.039734	16878.468667	1058.368164	354.263367
19513.039734	16878.468667	1057.217773	313.097412
19513.039734	16878.468667	1056.067383	234.322205
19513.039734	16878.468667	1054.916016	72.658745
19513.039734	16878.468667	1053.764648	324.331787
19513.039734	16878.468667	1052.613281	317.689392
19513.039734	16878.468667	1051.461914	324.302155
19513.039734	16878.468667	1050.310547	429.705658
19513.039734	16878.468667	1049.158203	154.268875
19513.039734	16878.468667	1048.005859	175.010101
19513.039734	16878.468667	1046.853516	249.355499
19513.039734	16878.468667	1045.700195	374.201141
19513.039734	16878.468667	1044.547852	360.170044
19513.039734	16878.468667	1043.394531	69.874214
19513.039734	16878.468667	1042.240234	539.841125
19513.039734	16878.468667	1041.086914	150.147507
19513.039734	16878.468667	1039.932617	313.021973
19513.039734	16878.468667	1038.778320	407.475891
19513.039734	16878.468667	1037.624023	501.474487
19513.039734	16878.468667	1036.469727	631.404968
19513.039734	16878.468667	1035.314453	822.451660
19513.039734	16878.468667	1034.159180	960.352905
19513.039734	16878.468667	1033.003906	1497.644287
19513.039734	16878.468667	1031.847656	1301.674072
19513.039734	16878.468667	1030.692383	1608.333008
19513.039734	16878.468667	1029.536133	1504.969482
19513.039734	16878.468667	1028.378906	1389.142212
19513.039734	16878.468667	1027.222656	1146.355957
19513.039734	16878.468667	1026.065430	1124.333252
19513.039734	16878.468667	1024.908203	563.348572
19513.039734	16878.468667	1023.750977	383.882721
19513.039734	16878.468667	1022.593750	558.108154
19513.039734	16878.468667	1021.435547	356.856659
19513.039734	16878.468667	1020.277344	285.187958
19513.039734	16878.468667	1019.119141	148.247192
19513.039734	16878.468667	1017.959961	183.463501
19513.039734	16878.468667	1016.800781	-1.884298
19513.039734	16878.468667	1015.641602	250.481689
19513.039734	16878.468667	1014.482422	153.542526
19513.039734	16878.468667	1013.323242	-28.435600
19513.039734	16878.468667	1012.163086	266.722168
19513.039734	16878.468667	1011.002930	113.759964
19513.039734	16878.468667	1009.842773	179.592407
19513.039734	16878.468667	1008.681641	355.253510
19513.039734	16878.468667	1007.520508	230.284500
19513.039734	16878.468667	1006.359375	141.791458
19513.039734	16878.468667	1005.198242	463.896057
19513.039734	16878.468667	1004.037109	486.751282
19513.039734	16878.468667	1002.875000	298.515747
19513.039734	16878.468667	1001.712891	309.953735
19513.039734	16878.468667	1000.550781	259.683075
19513.039734	16878.468667	999.387695	-24.403475
19513.039734	16878.468667	998.224609	219.466461
19513.039734	16878.468667	997.061523	-72.710411
19513.039734	16878.468667	995.898438	-62.117039
19513.039734	16878.468667	994.734375	-62.353168
19513.039734	16878.468667	993.571289	-121.123779
19513.039734	16878.468667	992.407227	-249.410294
19513.039734	16878.468667	991.242188	-101.368538
19513.039734	16878.468667	990.078125	-349.855408
19513.039734	16878.468667	988.913086	-31.716011
19513.039734	16878.468667	987.748047	0.518033
19513.039734	16878.468667	986.583008	-95.527634
19513.039734	16878.468667	985.416992	112.941200
19513.039734	16878.468667	984.250977	89.244736
19513.039734	16878.468667	983.084961	-155.768738
19513.039734	16878.468667	981.918945	283.616272
19513.039734	16878.468667	980.751953	-170.978226
19513.039734	16878.468667	979.584961	-37.559822
19513.039734	16878.468667	978.417969	161.926788
19513.039734	16878.468667	977.250977	-176.865402
19513.039734	16878.468667	976.083008	61.505661
19513.039734	16878.468667	974.915039	140.747498
19513.039734	16878.468667	973.747070	62.829468
19513.039734	16878.468667	972.579102	311.732697
19513.039734	16878.468667	971.410156	-111.827606
19513.039734	16878.468667	970.242188	-17.873817
19513.039734	16878.468667	969.072266	160.484406
19513.039734	16878.468667	967.903320	-130.907669
19513.039734	16878.468667	966.733398	189.680267
19513.039734	16878.468667	965.563477	-188.715637
19513.039734	16878.468667	964.393555	251.823196
19513.039734	16878.468667	963.223633	323.867706
19513.039734	16878.468667	962.052734	134.042770
19513.039734	16878.468667	960.881836	541.154297
19513.039734	16878.468667	959.710938	381.878662
19513.039734	16878.468667	958.540039	560.540710
19513.039734	16878.468667	957.368164	558.534607
19513.039734	16878.468667	956.196289	646.818848
19513.039734	16878.468667	955.024414	-141.106003
19513.039734	16878.468667	953.851563	450.759491
19513.039734	16878.468667	952.679688	182.133072
19513.039734	16878.468667	951.506836	31.801966
19513.039734	16878.468667	950.333984	285.842163
19513.039734	16878.468667	949.160156	69.346550
19513.039734	16878.468667	947.986328	-104.530624
19513.039734	16878.468667	946.812500	46.121357
19513.039734	16878.468667	945.638672	16.912436
19513.039734	16878.468667	944.464844	-20.856049
19513.039734	16878.468667	943.290039	-288.458679
19513.039734	16878.468667	942.115234	-107.401108
19513.039734	16878.468667	940.940430	98.563286
19513.039734	16878.468667	939.764648	64.437088
19513.039734	16878.468667	938.588867	43.312439
19513.039734	16878.468667	937.413086	43.592209
19513.039734	16878.468667	936.237305	-208.816833
19513.039734	16878.468667	935.060547	122.763466
19513.039734	16878.468667	933.883789	98.964478
19513.039734	16878.468667	932.707031	463.013275
19513.039734	16878.468667	931.530273	60.133015
19513.039734	16878.468667	930.352539	121.427391
19513.039734	16878.468667	929.175781	-121.504875
19513.039734	16878.468667	927.998047	112.988365
19513.039734	16878.468667	926.819336	-228.241013
19513.039734	16878.468667	925.641602	-238.355698
19513.039734	16878.468667	924.462891	240.307846
19513.039734	16878.468667	923.284180	247.369659
19513.039734	16878.468667	922.104492	-126.438034
19513.039734	16878.468667	920.924805	-63.604458
19513.039734	16878.468667	919.746094	-43.282722
19513.039734	16878.468667	919.551758	-20.581617
19513.039734	16878.468667	918.386719	61.079723
19513.039734	16878.468667	917.220703	-168.684158
19513.039734	16878.468667	916.054688	116.579086
19513.039734	16878.468667	914.887695	-86.289330
19513.039734	16878.468667	913.721680	-200.783249
19513.039734	16878.468667	912.554688	84.185585
19513.039734	16878.468667	911.387695	-97.578766
19513.039734	16878.468667	910.220703	-192.935318
19513.039734	16878.468667	909.052734	-9.992339
19513.039734	16878.468667	907.885742	-322.251068
19513.039734	16878.468667	906.717773	117.626266
19513.039734	16878.468667	905.548828	14.475797
19513.039734	16878.468667	904.380859	214.300415
19513.039734	16878.468667	903.211914	157.093857
19513.039734	16878.468667	902.042969	109.453445
19513.039734	16878.468667	900.874023	90.531807
19513.039734	16878.468667	899.704102	-152.600021
19513.039734	16878.468667	898.535156	77.494812
19513.039734	16878.468667	897.365234	142.747101
19513.039734	16878.468667	896.194336	250.071030
19513.039734	16878.468667	895.024414	-215.162704
19513.039734	16878.468667	893.853516	-224.664246
19513.039734	16878.468667	892.682617	-27.515680
19513.039734	16878.468667	891.511719	307.275391
19513.039734	16878.468667	890.340820	117.720909
19513.039734	16878.468667	889.168945	134.778152
19513.039734	16878.468667	887.997070	274.165955
19513.039734	16878.468667	886.825195	-60.681934
19513.039734	16878.468667	885.653320	-160.327820
19513.039734	16878.468667	884.480469	-34.455227
19513.039734	16878.468667	883.307617	-311.825714
19513.039734	16878.468667	882.134766	-48.521126
19513.039734	16878.468667	880.961914	65.661774
19513.039734	16878.468667	879.788086	38.468956
19513.039734	16878.468667	878.614258	-175.845367
19513.039734	16878.468667	877.440430	66.066582
19513.039734	16878.468667	876.266602	105.552544
19513.039734	16878.468667	875.091797	-24.805746
19513.039734	16878.468667	873.916992	-235.273514
19513.039734	16878.468667	872.742188	-270.237396
19513.039734	16878.468667	871.567383	-30.658236
19513.039734	16878.468667	870.391602	-283.044403
19513.039734	16878.468667	869.215820	-24.571096
19513.039734	16878.468667	868.040039	174.679657
19513.039734	16878.468667	866.864258	-161.549911
19513.039734	16878.468667	865.687500	-4.322995
19513.039734	16878.468667	864.510742	110.896202
19513.039734	16878.468667	863.333984	45.146755
19513.039734	16878.468667	862.157227	-136.743225
19513.039734	16878.468667	860.979492	-255.774612
19513.039734	16878.468667	859.802734	-7.566844
19513.039734	16878.468667	858.625000	-82.906883
19513.039734	16878.468667	857.446289	-129.712860
19513.039734	16878.468667	856.268555	-111.900841
19513.039734	16878.468667	855.089844	0.941130
19513.039734	16878.468667	853.911133	-85.896950
19513.039734	16878.468667	852.731445	199.767288
19513.039734	16878.468667	851.552734	10.228972
19513.039734	16878.468667	850.373047	-545.908875
19513.039734	16878.468667	849.193359	-125.602188
19513.039734	16878.468667	848.013672	-26.433161
19513.039734	16878.468667	846.833008	-238.700134
19513.039734	16878.468667	845.652344	-25.730082
19513.039734	16878.468667	844.471680	20.101849
19513.039734	16878.468667	843.291016	134.174408
19513.039734	16878.468667	842.110352	398.022614
19513.039734	16878.468667	840.928711	240.683807
19513.039734	16878.468667	839.747070	217.995209
19513.039734	16878.468667	838.564453	-223.693420
19513.039734	16878.468667	837.382813	-198.980606
19513.039734	16878.468667	836.200195	-217.897186
19513.039734	16878.468667	835.017578	111.769180
19513.039734	16878.468667	833.834961	-85.356705
19513.039734	16878.468667	832.651367	-318.417511
19513.039734	16878.468667	831.467773	-528.704712
19513.039734	16878.468667	830.284180	44.789299
19513.039734	16878.468667	829.100586	57.759583
19513.039734	16878.468667	827.916992	-154.508957
19513.039734	16878.468667	826.732422	-230.506882
19513.039734	16878.468667	825.547852	86.919823
19513.039734	16878.468667	824.363281	-110.225197
19513.039734	16878.468667	823.177734	269.356415
19513.039734	16878.468667	821.992188	391.642975
19513.039734	16878.468667	820.806641	41.333466
19513.039734	16878.468667	819.621094	82.267418
19513.039734	16878.468667	818.434570	-61.995327
19513.039734	16878.468667	817.249023	-0.380089
19513.039734	16878.468667	816.062500	361.428375
19513.039734	16878.468667	814.875000	-24.609440
19513.039734	16878.468667	813.688477	12.276695
19513.039734	16878.468667	812.500977	130.265030
19513.039734	16878.468667	811.313477	-40.536823
19513.039734	16878.468667	810.125977	205.585663
19513.039734	16878.468667	808.937500	-121.800278
19513.039734	16878.468667	807.749023	-96.481415
19513.039734	16878.468667	806.560547	-54.254974
19513.039734	16878.468667	805.372070	253.667755
19513.039734	16878.468667	804.182617	58.256157
19513.039734	16878.468667	802.994141	11.707056
19513.039734	16878.468667	801.803711	21.655745
19513.039734	16878.468667	800.614258	135.118546
19513.039734	16878.468667	799.424805	5.576493
19513.039734	16878.468667	798.234375	-204.907516
19513.039734	16878.468667	797.043945	-6.928467
19513.039734	16878.468667	795.852539	102.482674
19513.039734	16878.468667	794.662109	-2.707089
19513.039734	16878.468667	793.470703	-0.676559
19513.039734	16878.468667	792.279297	52.069317
19513.039734	16878.468667	791.087891	-56.965935
19513.039734	16878.468667	789.895508	-43.813553
19513.039734	16878.468667	788.703125	140.306824
19513.039734	16878.468667	787.510742	-13.945024
19513.039734	16878.468667	786.318359	-98.678871
19513.039734	16878.468667	785.125000	122.730087
19513.039734	16878.468667	783.931641	22.867115
19513.039734	16878.468667	782.738281	-377.416626
19513.039734	16878.468667	781.544922	-349.617584
19513.039734	16878.468667	780.350586	-181.122925
19513.039734	16878.468667	779.156250	-389.905762
19513.039734	16878.468667	777.961914	-142.814102
19513.039734	16878.468667	776.767578	-59.059296
19513.039734	16878.468667	775.572266	-3.520864
19513.039734	16878.468667	774.376953	125.047050
19513.039734	16878.468667	773.181641	114.788605
19513.039734	16878.468667	771.986328	-97.921577
19513.039734	16878.468667	770.790039	-100.756203
19513.039734	16878.468667	769.593750	141.737854
19513.039734	16878.468667	768.397461	-67.291336
19513.039734	16878.468667	767.201172	247.983994
19513.039734	16878.468667	766.003906	218.617493
19513.039734	16878.468667	764.806641	335.179688
19513.039734	16878.468667	763.609375	264.498383
19513.039734	16878.468667	762.412109	4.819344
19513.039734	16878.468667	761.213867	141.731125
19513.039734	16878.468667	760.015625	-24.437643
19513.039734	16878.468667	758.817383	132.851776
19513.039734	16878.468667	757.618164	112.430000
19513.039734	16878.468667	756.419922	134.919983
19513.039734	16878.468667	755.220703	110.623817
19513.039734	16878.468667	754.021484	211.436859
19513.039734	16878.468667	752.821289	771.615295
19513.039734	16878.468667	751.621094	128.894440
19513.039734	16878.468667	750.420898	167.820923
19513.039734	16878.468667	749.220703	66.664009
19513.039734	16878.468667	748.020508	174.489853
19513.039734	16878.468667	746.819336	228.101242
19513.039734	16878.468667	745.618164	257.362762
19513.039734	16878.468667	744.416992	157.852341
19513.039734	16878.468667	743.214844	354.794464
19513.039734	16878.468667	742.012695	624.292236
19513.039734	16878.468667	740.810547	584.193115
19513.039734	16878.468667	739.608398	847.785950
19513.039734	16878.468667	738.406250	1185.719116
19513.039734	16878.468667	737.203125	1141.587769
19513.039734	16878.468667	736.000000	1631.882324
19513.039734	16878.468667	734.795898	2244.795654
19513.039734	16878.468667	733.592773	2287.734131
19513.039734	16878.468667	732.388672	2414.342041
19513.039734	16878.468667	731.184570	2403.121094
19513.039734	16878.468667	729.979492	2079.291504
19513.039734	16878.468667	728.775391	1625.315308
19513.039734	16878.468667	727.570313	1247.702881
19513.039734	16878.468667	726.365234	1070.968506
19513.039734	16878.468667	725.160156	717.639465
19513.039734	16878.468667	723.954102	225.009796
19513.039734	16878.468667	722.748047	406.976807
19513.039734	16878.468667	721.541992	-26.092323
19513.039734	16878.468667	720.334961	57.272076
19513.039734	16878.468667	719.128906	75.521439
19513.039734	16878.468667	717.921875	247.786377
19513.039734	16878.468667	716.714844	-71.965088
19513.039734	16878.468667	715.506836	538.060730
19513.039734	16878.468667	714.298828	6.730370
19513.039734	16878.468667	713.090820	72.833130
19513.039734	16878.468667	711.882813	-120.806618
19513.039734	16878.468667	710.674805	-362.645721
19513.039734	16878.468667	709.465820	-18.664137
19513.039734	16878.468667	708.256836	108.251221
19513.039734	16878.468667	707.047852	-91.090782
19513.039734	16878.468667	705.837891	122.716454
19513.039734	16878.468667	704.627930	32.594894
19513.039734	16878.468667	703.417969	-94.603584
19513.039734	16878.468667	702.208008	-86.667709
19513.039734	16878.468667	700.998047	-300.936981
19513.039734	16878.468667	699.787109	-158.001053
19513.039734	16878.468667	698.576172	123.566322
19513.039734	16878.468667	697.364258	-164.816788
19513.039734	16878.468667	696.153320	-227.516510
19513.039734	16878.468667	694.941406	35.185627
19513.039734	16878.468667	693.729492	-11.033756
19513.039734	16878.468667	692.516602	-11.088792
19513.039734	16878.468667	691.304688	-131.337219
19513.039734	16878.468667	690.091797	38.462502
19513.039734	16878.468667	688.878906	25.252926
19513.039734	16878.468667	687.665039	43.381508
19513.039734	16878.468667	686.451172	15.275362
19513.039734	16878.468667	685.237305	20.337486
19513.039734	16878.468667	684.023438	25.326372
19513.039734	16878.468667	682.809570	-17.726027
19513.039734	16878.468667	681.594727	3.746333
19513.039734	16878.468667	680.379883	421.698303
19513.039734	16878.468667	679.165039	-106.591965
19513.039734	16878.468667	677.949219	60.347702
19513.039734	16878.468667	676.733398	262.171631
19513.039734	16878.468667	675.517578	-197.748199
19513.039734	16878.468667	674.301758	-217.180496
19513.039734	16878.468667	673.084961	109.655487
19513.039734	16878.468667	671.869141	101.095551
19513.039734	16878.468667	670.651367	5.948641
19513.039734	16878.468667	669.434570	260.556183
19513.039734	16878.468667	668.216797	242.603546
19513.039734	16878.468667	667.000000	128.903595
19513.039734	16878.468667	665.781250	392.366364
19513.039734	16878.468667	664.563477	-39.634789
19513.039734	16878.468667	663.344727	-2.559302
19513.039734	16878.468667	662.125977	-28.060558
19513.039734	16878.468667	660.907227	-64.633492
19513.039734	16878.468667	659.688477	7.191843
19513.039734	16878.468667	658.468750	121.203720
19513.039734	16878.468667	657.249023	163.475601
19513.039734	16878.468667	656.029297	394.856415
19513.039734	16878.468667	654.808594	27.470316
19513.039734	16878.468667	653.587891	245.851929
19513.039734	16878.468667	652.367188	194.272095
19513.039734	16878.468667	651.146484	364.724396
19513.039734	16878.468667	649.924805	-226.346741
19513.039734	16878.468667	648.704102	422.810638
19513.039734	16878.468667	647.482422	255.545029
19513.039734	16878.468667	646.259766	225.842194
19513.039734	16878.468667	645.037109	300.604279
19513.039734	16878.468667	643.815430	237.835205
19513.039734	16878.468667	642.591797	363.814484
19513.039734	16878.468667	641.369141	44.519592
19513.039734	16878.468667	640.145508	148.443344
19513.039734	16878.468667	638.921875	210.179565
19513.039734	16878.468667	637.698242	130.890045
19513.039734	16878.468667	636.474609	55.267830
19513.039734	16878.468667	635.250000	71.163597
19513.039734	16878.468667	634.025391	399.913544
19513.039734	16878.468667	632.800781	230.929535
19513.039734	16878.468667	631.575195	396.702881
19513.039734	16878.468667	630.349609	193.023056
19513.039734	16878.468667	629.124023	170.399582
19513.039734	16878.468667	627.898438	297.654541
19513.039734	16878.468667	626.671875	-28.341778
19513.039734	16878.468667	625.445313	201.200165
19513.039734	16878.468667	624.218750	244.321259
19513.039734	16878.468667	622.992188	18.968622
19513.039734	16878.468667	621.764648	60.282120
19513.039734	16878.468667	620.537109	-143.030655
19513.039734	16878.468667	619.309570	-275.081116
19513.039734	16878.468667	618.081055	8.958145
19513.039734	16878.468667	616.852539	-276.295105
19513.039734	16878.468667	615.624023	-68.971756
19513.039734	16878.468667	614.395508	76.273842
19513.039734	16878.468667	613.166992	-159.560303
19513.039734	16878.468667	611.937500	113.263443
19513.039734	16878.468667	610.708008	-435.894928
19513.039734	16878.468667	609.477539	-82.926682
19513.039734	16878.468667	608.248047	-316.641113
19513.039734	16878.468667	607.017578	-380.861755
19513.039734	16878.468667	605.787109	-350.349670
19513.039734	16878.468667	604.555664	26.050793
19513.039734	16878.468667	603.325195	-445.813568
19513.039734	16878.468667	602.093750	-142.281677
19513.039734	16878.468667	600.861328	-308.207062
19513.039734	16878.468667	599.629883	-104.809433
19513.039734	16878.468667	598.397461	18.529371
19513.039734	16878.468667	597.165039	101.852760
19513.039734	16878.468667	595.932617	-194.720169
19513.039734	16878.468667	594.699219	-491.123413
19513.039734	16878.468667	593.465820	-262.266785
19513.039734	16878.468667	592.232422	-40.730495
19513.039734	16878.468667	590.999023	-238.774384
19513.039734	16878.468667	589.764648	-296.863586
19513.039734	16878.468667	588.530273	-42.638660
19513.039734	16878.468667	587.295898	-31.679815
19513.039734	16878.468667	586.061523	-40.633728
19513.039734	16878.468667	584.826172	-16.863920
19513.039734	16878.468667	583.590820	-150.854904
19513.039734	16878.468667	582.355469	-179.550293
19513.039734	16878.468667	581.119141	-103.012794
19513.039734	16878.468667	579.882813	100.444740
19513.039734	16878.468667	578.646484	-71.265945
19513.039734	16878.468667	577.410156	-228.346451
19513.039734	16878.468667	576.172852	274.105469
19513.039734	16878.468667	574.935547	222.206238
19513.039734	16878.468667	573.698242	273.609650
19513.039734	16878.468667	572.460938	200.145203
19513.039734	16878.468667	571.222656	278.828400
19513.039734	16878.468667	569.984375	252.595642
19513.039734	16878.468667	568.746094	41.912956
19513.039734	16878.468667	567.506836	294.456055
19513.039734	16878.468667	566.267578	259.426575
19513.039734	16878.468667	565.028320	193.755219
19513.039734	16878.468667	563.789063	666.872681
19513.039734	16878.468667	562.548828	196.478012
19513.039734	16878.468667	561.309570	158.206909
19513.039734	16878.468667	560.068359	568.053406
19513.039734	16878.468667	558.828125	454.032684
19513.039734	16878.468667	557.586914	582.116272
19513.039734	16878.468667	556.345703	358.188324
19513.039734	16878.468667	555.104492	605.530518
19513.039734	16878.468667	553.863281	571.338501
19513.039734	16878.468667	552.621094	717.670471
19513.039734	16878.468667	551.378906	342.734283
19513.039734	16878.468667	550.136719	628.084595
19513.039734	16878.468667	548.893555	644.756165
19513.039734	16878.468667	547.650391	670.518677
19513.039734	16878.468667	546.407227	454.852356
19513.039734	16878.468667	545.164063	610.545715
19513.039734	16878.468667	543.919922	652.773987
19513.039734	16878.468667	542.675781	884.177185
19513.039734	16878.468667	541.431641	517.731018
19513.039734	16878.468667	540.186523	778.044128
19513.039734	16878.468667	538.941406	962.724670
19513.039734	16878.468667	537.696289	1075.423706
19513.039734	16878.468667	536.451172	754.557861
19513.039734	16878.468667	535.205078	944.762573
19513.039734	16878.468667	533.959961	1327.379150
19513.039734	16878.468667	532.712891	985.328918
19513.039734	16878.468667	531.466797	907.733459
19513.039734	16878.468667	530.219727	1026.146240
19513.039734	16878.468667	528.972656	815.755737
19513.039734	16878.468667	527.725586	1009.719543
19513.039734	16878.468667	526.478516	1361.714478
19513.039734	16878.468667	525.230469	1081.542969
19513.039734	16878.468667	523.982422	1338.341675
19513.039734	16878.468667	522.734375	1051.220703
19513.039734	16878.468667	521.485352	1117.802002
19513.039734	16878.468667	520.236328	1177.221802
19513.039734	16878.468667	518.987305	1225.893677
19513.039734	16878.468667	517.737305	1210.025391
19513.039734	16878.468667	516.488281	1335.833130
19513.039734	16878.468667	515.238281	1320.009277
19513.039734	16878.468667	513.988281	1755.848633
19513.039734	16878.468667	512.737305	1652.182739
19513.039734	16878.468667	511.486328	1579.028564
19513.039734	16878.468667	510.235352	1735.165161
19513.039734	16878.468667	508.984375	1635.164795
19513.039734	16878.468667	507.732422	1748.252441
19513.039734	16878.468667	506.480469	1846.959229
19513.039734	16878.468667	505.228516	2319.610107
19513.039734	16878.468667	503.976563	1774.006714
19513.039734	16878.468667	502.723633	2158.762939
19513.039734	16878.468667	501.470703	2317.975586
19513.039734	16878.468667	500.217773	2139.136230
19513.039734	16878.468667	498.963867	2625.303223
19513.039734	16878.468667	497.709961	2553.584229
19513.039734	16878.468667	496.456055	3021.434082
19513.039734	16878.468667	495.202148	3044.167969
19513.039734	16878.468667	493.947266	2743.521729
19513.039734	16878.468667	492.692383	3228.590088
19513.039734	16878.468667	491.437500	3047.412598
19513.039734	16878.468667	490.181641	3378.458984
19513.039734	16878.468667	488.926758	3015.025146
19513.039734	16878.468667	487.670898	3593.626709
19513.039734	16878.468667	486.414063	3436.907227
19513.039734	16878.468667	485.158203	3993.412109
19513.039734	16878.468667	483.901367	4189.323242
19513.039734	16878.468667	482.644531	3837.676758
19513.039734	16878.468667	481.386719	4287.961914
19513.039734	16878.468667	480.128906	4246.023438
19513.039734	16878.468667	478.871094	4380.213379
19513.039734	16878.468667	477.613281	4328.839844
19513.039734	16878.468667	476.355469	4526.491699
19513.039734	16878.468667	475.096680	4688.150391
19513.039734	16878.468667	473.837891	4701.682129
19513.039734	16878.468667	472.578125	4433.708008
19513.039734	16878.468667	471.319336	4786.400879
19513.039734	16878.468667	470.059570	4843.291016
19513.039734	16878.468667	468.799805	5424.377441
19513.039734	16878.468667	467.539063	5012.670410
19513.039734	16878.468667	466.278320	5192.644531
19513.039734	16878.468667	465.017578	5411.172363
19513.039734	16878.468667	463.756836	5296.845703
19513.039734	16878.468667	462.495117	5150.084961
19513.039734	16878.468667	461.233398	5588.957520
19513.039734	16878.468667	459.971680	5455.305664
19513.039734	16878.468667	458.709961	5454.272949
19513.039734	16878.468667	457.447266	5630.123535
19513.039734	16878.468667	456.184570	5459.224121
19513.039734	16878.468667	454.921875	5706.429688
19513.039734	16878.468667	453.658203	5457.954590
19513.039734	16878.468667	452.394531	5779.890625
19513.039734	16878.468667	451.130859	5758.743652
19513.039734	16878.468667	449.867188	5844.952148
19513.039734	16878.468667	448.602539	6031.321777
19513.039734	16878.468667	447.337891	5903.139648
19513.039734	16878.468667	446.073242	5883.966797
19513.039734	16878.468667	444.807617	5808.974609
19513.039734	16878.468667	443.542969	6041.170410
19513.039734	16878.468667	442.276367	5873.942383
19513.039734	16878.468667	441.010742	6036.744629
19513.039734	16878.468667	439.744141	6065.694336
19513.039734	16878.468667	438.478516	6187.299805
19513.039734	16878.468667	437.210938	6392.596680
19513.039734	16878.468667	435.944336	6287.162598
19513.039734	16878.468667	434.676758	6634.915039
19513.039734	16878.468667	433.409180	6473.940430
19513.039734	16878.468667	432.141602	6218.054199
19513.039734	16878.468667	430.873047	6406.162598
19513.039734	16878.468667	429.604492	6172.362305
19513.039734	16878.468667	428.335938	6237.447266
19513.039734	16878.468667	427.067383	6468.752441
19513.039734	16878.468667	425.797852	6340.022461
19513.039734	16878.468667	424.528320	6684.525391
19513.039734	16878.468667	423.258789	6665.488770
19513.039734	16878.468667	421.988281	6281.301758
19513.039734	16878.468667	420.717773	6659.259277
19513.039734	16878.468667	419.447266	6696.651855
19513.039734	16878.468667	418.175781	6501.168457
19513.039734	16878.468667	416.905273	6462.506348
19513.039734	16878.468667	415.633789	6924.096680
19513.039734	16878.468667	414.362305	7052.192871
19513.039734	16878.468667	413.089844	6746.508789
19513.039734	16878.468667	411.817383	6676.536133
19513.039734	16878.468667	410.544922	6577.930176
19513.039734	16878.468667	409.272461	6813.293457
19513.039734	16878.468667	407.999023	6627.249023
19513.039734	16878.468667	406.725586	6730.934082
19513.039734	16878.468667	405.452148	6717.697754
19513.039734	16878.468667	404.177734	6652.578125
19513.039734	16878.468667	402.903320	6408.971191
19513.039734	16878.468667	401.628906	6438.740234
19513.039734	16878.468667	400.354492	6578.165039
19513.039734	16878.468667	399.079102	6463.272949
19513.039734	16878.468667	397.803711	6466.668945
19513.039734	16878.468667	396.528320	6697.108398
19513.039734	16878.468667	395.251953	6235.805664
19513.039734	16878.468667	393.976563	6417.658691
19513.039734	16878.468667	392.700195	6708.387695
19513.039734	16878.468667	391.422852	6467.233398
19513.039734	16878.468667	390.145508	6533.245117
19513.039734	16878.468667	388.869141	6590.426758
19513.039734	16878.468667	387.590820	6808.595215
19513.039734	16878.468667	386.313477	6125.147949
19513.039734	16878.468667	385.035156	6032.323730
19513.039734	16878.468667	383.756836	5953.059082
19513.039734	16878.468667	382.478516	6106.291992
19513.039734	16878.468667	381.199219	5994.106934
19513.039734	16878.468667	379.919922	6191.177734
19513.039734	16878.468667	378.640625	5874.119629
19513.039734	16878.468667	377.360352	6006.020020
19513.039734	16878.468667	376.080078	5730.587402
19513.039734	16878.468667	374.799805	5952.765625
19513.039734	16878.468667	373.519531	5405.322754
19513.039734	16878.468667	372.238281	5466.989746
19513.039734	16878.468667	370.957031	5659.897461
19513.039734	16878.468667	369.675781	5681.326172
19513.039734	16878.468667	368.394531	5405.396484
19513.039734	16878.468667	367.112305	5366.860840
19513.039734	16878.468667	365.830078	5034.341309
19513.039734	16878.468667	364.546875	5122.291992
19513.039734	16878.468667	363.264648	4388.699707
19513.039734	16878.468667	361.981445	4857.612305
19513.039734	16878.468667	360.698242	4792.817383
19513.039734	16878.468667	359.414063	4496.330078
19513.039734	16878.468667	358.129883	4264.974121
19513.039734	16878.468667	356.845703	4203.245117
19513.039734	16878.468667	355.561523	4502.757324
19513.039734	16878.468667	354.276367	4301.393066
19513.039734	16878.468667	352.991211	3955.194336
19513.039734	16878.468667	351.706055	4102.111328
19513.039734	16878.468667	350.420898	3945.172363
19513.039734	16878.468667	349.134766	4116.721191
19513.039734	16878.468667	347.848633	3726.345947
19513.039734	16878.468667	346.561523	3585.660645
19513.039734	16878.468667	345.275391	3264.642090
19513.039734	16878.468667	343.988281	3403.455811
19513.039734	16878.468667	342.700195	3366.288086
19513.039734	16878.468667	341.413086	2862.909424
19513.039734	16878.468667	340.125000	2867.253174
19513.039734	16878.468667	338.836914	2745.872559
19513.039734	16878.468667	337.548828	2627.334473
19513.039734	16878.468667	336.259766	2891.939209
19513.039734	16878.468667	334.970703	2307.022949
19513.039734	16878.468667	333.681641	2419.685059
19513.039734	16878.468667	332.391602	2028.317749
19513.039734	16878.468667	331.101563	1890.709229
19513.039734	16878.468667	329.811523	1666.064941
19513.039734	16878.468667	328.521484	1918.543945
19513.039734	16878.468667	327.230469	1598.721069
19513.039734	16878.468667	325.939453	1387.412598
19513.039734	16878.468667	324.648438	928.582153
19513.039734	16878.468667	323.356445	1215.883789
19513.039734	16878.468667	322.064453	1020.888916
19513.039734	16878.468667	320.772461	914.189636
19513.039734	16878.468667	319.480469	772.369995
19513.039734	16878.468667	318.187500	650.276245
19513.039734	16878.468667	316.894531	697.038208
19513.039734	16878.468667	315.601563	278.137177
19513.039734	16878.468667	314.307617	177.887939
19513.039734	16878.468667	313.013672	67.146881
19513.039734	16878.468667	311.719727	182.850632
19513.039734	16878.468667	310.425781	-25.920158
19513.039734	16878.468667	309.130859	58.150383
19513.039734	16878.468667	307.835938	-366.132385
19513.039734	16878.468667	306.541016	-182.912964
19513.039734	16878.468667	305.245117	-498.596497
19513.039734	16878.468667	303.949219	-308.030762
19513.039734	16878.468667	302.653320	37.187386
19513.039734	16878.468667	301.356445	10.647868
19513.039734	16878.468667	300.060547	330.469208
19513.039734	16878.468667	298.763672	582.089478
