#X		#Y		#Wave		#Intensity
19512.557713	16892.179333	2000.043945	8.903251
19512.557713	16892.179333	1999.080078	-26.603416
19512.557713	16892.179333	1998.116211	68.150848
19512.557713	16892.179333	1997.151367	-30.857124
19512.557713	16892.179333	1996.186523	-23.721960
19512.557713	16892.179333	1995.222656	-148.318039
19512.557713	16892.179333	1994.256836	88.361305
19512.557713	16892.179333	1993.291992	-39.475090
19512.557713	16892.179333	1992.327148	-189.928757
19512.557713	16892.179333	1991.361328	-21.358892
19512.557713	16892.179333	1990.395508	62.640884
19512.557713	16892.179333	1989.429688	114.094177
19512.557713	16892.179333	1988.463867	-309.821381
19512.557713	16892.179333	1987.497070	243.165482
19512.557713	16892.179333	1986.531250	330.676697
19512.557713	16892.179333	1985.564453	175.545319
19512.557713	16892.179333	1984.597656	358.865936
19512.557713	16892.179333	1983.630859	277.361847
19512.557713	16892.179333	1982.664063	5.328481
19512.557713	16892.179333	1981.696289	355.785858
19512.557713	16892.179333	1980.728516	229.082764
19512.557713	16892.179333	1979.761719	-167.046448
19512.557713	16892.179333	1978.792969	412.182404
19512.557713	16892.179333	1977.825195	284.831726
19512.557713	16892.179333	1976.857422	177.060623
19512.557713	16892.179333	1975.888672	318.404053
19512.557713	16892.179333	1974.919922	385.466888
19512.557713	16892.179333	1973.951172	111.845314
19512.557713	16892.179333	1972.982422	420.277893
19512.557713	16892.179333	1972.013672	131.594772
19512.557713	16892.179333	1971.043945	-184.268646
19512.557713	16892.179333	1970.075195	98.888412
19512.557713	16892.179333	1969.105469	51.502731
19512.557713	16892.179333	1968.135742	-267.096252
19512.557713	16892.179333	1967.165039	42.593861
19512.557713	16892.179333	1966.195313	270.731384
19512.557713	16892.179333	1965.224609	272.067596
19512.557713	16892.179333	1964.253906	46.724792
19512.557713	16892.179333	1963.283203	148.812744
19512.557713	16892.179333	1962.312500	363.987915
19512.557713	16892.179333	1961.341797	313.172211
19512.557713	16892.179333	1960.370117	294.272278
19512.557713	16892.179333	1959.399414	-177.408585
19512.557713	16892.179333	1958.427734	-6.981246
19512.557713	16892.179333	1957.455078	89.526123
19512.557713	16892.179333	1956.483398	222.797684
19512.557713	16892.179333	1955.511719	75.686401
19512.557713	16892.179333	1954.539063	508.654144
19512.557713	16892.179333	1953.566406	295.066681
19512.557713	16892.179333	1952.593750	182.242981
19512.557713	16892.179333	1951.621094	256.109283
19512.557713	16892.179333	1950.647461	565.695007
19512.557713	16892.179333	1949.674805	133.492798
19512.557713	16892.179333	1948.701172	101.621452
19512.557713	16892.179333	1947.727539	96.727509
19512.557713	16892.179333	1946.753906	143.341980
19512.557713	16892.179333	1945.780273	263.525024
19512.557713	16892.179333	1944.805664	-165.925400
19512.557713	16892.179333	1943.831055	15.549010
19512.557713	16892.179333	1942.856445	-58.124779
19512.557713	16892.179333	1941.881836	-33.709362
19512.557713	16892.179333	1940.907227	184.360672
19512.557713	16892.179333	1939.932617	135.162338
19512.557713	16892.179333	1938.957031	-39.005310
19512.557713	16892.179333	1937.981445	-41.600178
19512.557713	16892.179333	1937.005859	-230.381546
19512.557713	16892.179333	1936.030273	129.553299
19512.557713	16892.179333	1935.054688	148.962448
19512.557713	16892.179333	1934.078125	121.851463
19512.557713	16892.179333	1933.101563	-81.495926
19512.557713	16892.179333	1932.125000	128.863602
19512.557713	16892.179333	1931.148438	101.791222
19512.557713	16892.179333	1930.171875	160.368729
19512.557713	16892.179333	1929.194336	179.802383
19512.557713	16892.179333	1928.217773	-211.633957
19512.557713	16892.179333	1927.240234	294.486084
19512.557713	16892.179333	1926.262695	133.015823
19512.557713	16892.179333	1925.284180	-57.704044
19512.557713	16892.179333	1924.306641	457.929962
19512.557713	16892.179333	1923.328125	157.306870
19512.557713	16892.179333	1922.350586	-328.852905
19512.557713	16892.179333	1921.372070	18.077803
19512.557713	16892.179333	1920.392578	-28.257523
19512.557713	16892.179333	1919.414063	115.882645
19512.557713	16892.179333	1918.434570	89.121483
19512.557713	16892.179333	1917.456055	357.708099
19512.557713	16892.179333	1916.476563	-144.878937
19512.557713	16892.179333	1915.497070	-183.701462
19512.557713	16892.179333	1914.516602	-73.683060
19512.557713	16892.179333	1913.537109	228.981506
19512.557713	16892.179333	1912.556641	329.178955
19512.557713	16892.179333	1911.576172	161.194687
19512.557713	16892.179333	1910.595703	-201.697723
19512.557713	16892.179333	1909.615234	-142.826431
19512.557713	16892.179333	1908.633789	-171.660187
19512.557713	16892.179333	1907.653320	-0.704963
19512.557713	16892.179333	1906.671875	-70.908142
19512.557713	16892.179333	1905.690430	46.446838
19512.557713	16892.179333	1904.708984	-96.730156
19512.557713	16892.179333	1903.727539	8.466801
19512.557713	16892.179333	1902.745117	184.234741
19512.557713	16892.179333	1901.762695	87.424667
19512.557713	16892.179333	1900.780273	416.434509
19512.557713	16892.179333	1899.797852	-69.529228
19512.557713	16892.179333	1898.815430	-100.502312
19512.557713	16892.179333	1897.832031	250.315689
19512.557713	16892.179333	1896.849609	-269.314758
19512.557713	16892.179333	1895.866211	113.045670
19512.557713	16892.179333	1894.882813	18.964260
19512.557713	16892.179333	1893.898438	-276.723511
19512.557713	16892.179333	1892.915039	47.176117
19512.557713	16892.179333	1891.930664	120.811401
19512.557713	16892.179333	1890.947266	276.991180
19512.557713	16892.179333	1889.962891	265.609802
19512.557713	16892.179333	1888.977539	183.857727
19512.557713	16892.179333	1887.993164	534.149048
19512.557713	16892.179333	1887.007813	-86.293808
19512.557713	16892.179333	1886.023438	-99.974792
19512.557713	16892.179333	1885.038086	456.392975
19512.557713	16892.179333	1884.051758	-185.476807
19512.557713	16892.179333	1883.066406	-97.258202
19512.557713	16892.179333	1882.081055	-18.764460
19512.557713	16892.179333	1881.094727	-22.699480
19512.557713	16892.179333	1880.108398	79.999413
19512.557713	16892.179333	1879.122070	-132.315598
19512.557713	16892.179333	1878.135742	-211.315750
19512.557713	16892.179333	1877.148438	116.617195
19512.557713	16892.179333	1876.162109	-35.046467
19512.557713	16892.179333	1875.174805	-130.967331
19512.557713	16892.179333	1874.187500	126.559731
19512.557713	16892.179333	1873.199219	-73.427216
19512.557713	16892.179333	1872.211914	-118.489182
19512.557713	16892.179333	1871.223633	-110.312271
19512.557713	16892.179333	1870.236328	-136.018036
19512.557713	16892.179333	1869.248047	-239.109055
19512.557713	16892.179333	1868.258789	-187.420883
19512.557713	16892.179333	1867.270508	81.799927
19512.557713	16892.179333	1866.282227	-154.256332
19512.557713	16892.179333	1865.292969	107.579063
19512.557713	16892.179333	1864.303711	60.032619
19512.557713	16892.179333	1863.314453	254.050018
19512.557713	16892.179333	1862.324219	199.210022
19512.557713	16892.179333	1861.334961	93.651039
19512.557713	16892.179333	1860.344727	335.770447
19512.557713	16892.179333	1859.354492	239.831909
19512.557713	16892.179333	1858.364258	279.050629
19512.557713	16892.179333	1857.374023	-154.713715
19512.557713	16892.179333	1856.383789	400.771576
19512.557713	16892.179333	1855.392578	343.364349
19512.557713	16892.179333	1854.401367	283.529602
19512.557713	16892.179333	1853.410156	274.312469
19512.557713	16892.179333	1852.418945	322.916473
19512.557713	16892.179333	1851.426758	38.853477
19512.557713	16892.179333	1850.435547	109.086807
19512.557713	16892.179333	1849.443359	333.450531
19512.557713	16892.179333	1848.451172	44.595402
19512.557713	16892.179333	1847.458984	-34.667732
19512.557713	16892.179333	1846.466797	88.317673
19512.557713	16892.179333	1845.473633	478.444122
19512.557713	16892.179333	1844.480469	346.040314
19512.557713	16892.179333	1843.487305	141.432739
19512.557713	16892.179333	1842.494141	321.830658
19512.557713	16892.179333	1841.500977	605.544922
19512.557713	16892.179333	1840.506836	331.083069
19512.557713	16892.179333	1839.513672	-44.344410
19512.557713	16892.179333	1838.519531	304.017365
19512.557713	16892.179333	1837.525391	332.466217
19512.557713	16892.179333	1836.530273	396.894165
19512.557713	16892.179333	1835.536133	28.688135
19512.557713	16892.179333	1834.541016	220.344604
19512.557713	16892.179333	1833.545898	-61.351940
19512.557713	16892.179333	1832.550781	317.430939
19512.557713	16892.179333	1831.555664	314.209229
19512.557713	16892.179333	1830.560547	313.315369
19512.557713	16892.179333	1829.564453	-16.489872
19512.557713	16892.179333	1828.568359	332.896698
19512.557713	16892.179333	1827.572266	154.211899
19512.557713	16892.179333	1826.576172	361.735443
19512.557713	16892.179333	1825.580078	698.612366
19512.557713	16892.179333	1824.583008	418.995544
19512.557713	16892.179333	1823.585938	45.891125
19512.557713	16892.179333	1822.588867	389.571045
19512.557713	16892.179333	1821.591797	150.645233
19512.557713	16892.179333	1820.594727	486.805603
19512.557713	16892.179333	1819.596680	647.859070
19512.557713	16892.179333	1818.599609	291.371155
19512.557713	16892.179333	1817.601563	104.958931
19512.557713	16892.179333	1816.603516	299.226837
19512.557713	16892.179333	1815.604492	502.901367
19512.557713	16892.179333	1814.606445	356.947296
19512.557713	16892.179333	1813.607422	378.459564
19512.557713	16892.179333	1812.608398	428.574249
19512.557713	16892.179333	1811.609375	186.723694
19512.557713	16892.179333	1810.610352	303.611755
19512.557713	16892.179333	1809.610352	355.786652
19512.557713	16892.179333	1808.611328	393.486023
19512.557713	16892.179333	1807.611328	321.110291
19512.557713	16892.179333	1806.611328	265.380280
19512.557713	16892.179333	1805.610352	345.757935
19512.557713	16892.179333	1804.610352	53.309975
19512.557713	16892.179333	1803.609375	346.047333
19512.557713	16892.179333	1802.608398	323.331940
19512.557713	16892.179333	1801.607422	267.084686
19512.557713	16892.179333	1800.606445	117.638466
19512.557713	16892.179333	1799.605469	299.882904
19512.557713	16892.179333	1798.603516	634.660156
19512.557713	16892.179333	1797.601563	248.676605
19512.557713	16892.179333	1796.599609	497.220428
19512.557713	16892.179333	1795.597656	168.401947
19512.557713	16892.179333	1794.595703	237.784744
19512.557713	16892.179333	1793.592773	6.634345
19512.557713	16892.179333	1792.589844	111.525017
19512.557713	16892.179333	1791.587891	330.637024
19512.557713	16892.179333	1790.583984	513.797363
19512.557713	16892.179333	1789.581055	518.095337
19512.557713	16892.179333	1788.577148	562.751709
19512.557713	16892.179333	1787.574219	178.628464
19512.557713	16892.179333	1786.570313	284.971191
19512.557713	16892.179333	1785.566406	510.161896
19512.557713	16892.179333	1784.561523	242.486588
19512.557713	16892.179333	1783.557617	365.013580
19512.557713	16892.179333	1782.552734	63.891842
19512.557713	16892.179333	1781.547852	309.822235
19512.557713	16892.179333	1780.542969	179.778839
19512.557713	16892.179333	1779.538086	182.798172
19512.557713	16892.179333	1778.532227	254.618835
19512.557713	16892.179333	1777.527344	278.738525
19512.557713	16892.179333	1776.521484	8.045034
19512.557713	16892.179333	1775.515625	229.121033
19512.557713	16892.179333	1774.508789	34.273045
19512.557713	16892.179333	1773.502930	-20.515684
19512.557713	16892.179333	1772.496094	145.403351
19512.557713	16892.179333	1771.489258	-147.075943
19512.557713	16892.179333	1770.482422	179.928894
19512.557713	16892.179333	1769.475586	51.017170
19512.557713	16892.179333	1768.467773	434.518188
19512.557713	16892.179333	1767.460938	34.885689
19512.557713	16892.179333	1766.453125	187.891739
19512.557713	16892.179333	1765.445313	-233.172333
19512.557713	16892.179333	1764.437500	85.503822
19512.557713	16892.179333	1763.428711	81.528252
19512.557713	16892.179333	1762.420898	323.897217
19512.557713	16892.179333	1761.412109	163.197937
19512.557713	16892.179333	1760.403320	156.408081
19512.557713	16892.179333	1759.393555	388.709473
19512.557713	16892.179333	1758.384766	246.601501
19512.557713	16892.179333	1757.375000	35.734863
19512.557713	16892.179333	1756.366211	184.638870
19512.557713	16892.179333	1755.356445	-189.739456
19512.557713	16892.179333	1754.345703	268.851532
19512.557713	16892.179333	1753.335938	412.453766
19512.557713	16892.179333	1752.325195	316.937378
19512.557713	16892.179333	1751.315430	55.760876
19512.557713	16892.179333	1750.304688	234.352524
19512.557713	16892.179333	1749.292969	259.055847
19512.557713	16892.179333	1748.282227	207.970901
19512.557713	16892.179333	1747.270508	211.111130
19512.557713	16892.179333	1746.259766	-41.073223
19512.557713	16892.179333	1745.248047	-9.827029
19512.557713	16892.179333	1744.235352	2.361342
19512.557713	16892.179333	1743.223633	333.202820
19512.557713	16892.179333	1742.211914	123.106186
19512.557713	16892.179333	1741.199219	-58.735039
19512.557713	16892.179333	1740.186523	203.050659
19512.557713	16892.179333	1739.173828	28.059418
19512.557713	16892.179333	1738.160156	-111.626938
19512.557713	16892.179333	1737.147461	-116.946136
19512.557713	16892.179333	1736.133789	320.948486
19512.557713	16892.179333	1735.120117	487.382385
19512.557713	16892.179333	1734.106445	73.692070
19512.557713	16892.179333	1733.091797	-474.334167
19512.557713	16892.179333	1732.078125	-263.492004
19512.557713	16892.179333	1731.063477	107.337471
19512.557713	16892.179333	1730.048828	-16.790985
19512.557713	16892.179333	1729.034180	-129.234131
19512.557713	16892.179333	1728.019531	-100.489304
19512.557713	16892.179333	1727.003906	-191.966110
19512.557713	16892.179333	1725.988281	-172.917786
19512.557713	16892.179333	1724.972656	-386.992035
19512.557713	16892.179333	1723.957031	34.163544
19512.557713	16892.179333	1722.941406	191.549728
19512.557713	16892.179333	1721.924805	113.533768
19512.557713	16892.179333	1720.909180	23.666777
19512.557713	16892.179333	1719.892578	-5.178996
19512.557713	16892.179333	1718.875977	-273.910065
19512.557713	16892.179333	1717.858398	-129.042435
19512.557713	16892.179333	1716.841797	-52.494602
19512.557713	16892.179333	1715.824219	-74.783882
19512.557713	16892.179333	1714.806641	43.740402
19512.557713	16892.179333	1713.789063	-6.993009
19512.557713	16892.179333	1712.770508	75.989670
19512.557713	16892.179333	1711.752930	95.445007
19512.557713	16892.179333	1710.734375	-143.418793
19512.557713	16892.179333	1709.715820	-138.264832
19512.557713	16892.179333	1708.697266	211.648239
19512.557713	16892.179333	1707.678711	-140.059326
19512.557713	16892.179333	1706.659180	82.825951
19512.557713	16892.179333	1705.640625	-27.443781
19512.557713	16892.179333	1704.621094	-112.013084
19512.557713	16892.179333	1703.600586	30.681421
19512.557713	16892.179333	1702.581055	348.976563
19512.557713	16892.179333	1701.561523	235.921661
19512.557713	16892.179333	1700.541016	-198.141464
19512.557713	16892.179333	1699.520508	-177.782791
19512.557713	16892.179333	1698.500000	69.596603
19512.557713	16892.179333	1697.478516	288.666473
19512.557713	16892.179333	1696.458008	111.968086
19512.557713	16892.179333	1695.436523	120.103256
19512.557713	16892.179333	1694.415039	544.623657
19512.557713	16892.179333	1693.393555	269.393921
19512.557713	16892.179333	1692.372070	132.167389
19512.557713	16892.179333	1691.349609	277.835999
19512.557713	16892.179333	1690.327148	145.121811
19512.557713	16892.179333	1689.304688	-71.794098
19512.557713	16892.179333	1688.282227	26.790920
19512.557713	16892.179333	1687.259766	153.280670
19512.557713	16892.179333	1686.236328	468.853821
19512.557713	16892.179333	1685.213867	592.686707
19512.557713	16892.179333	1684.190430	310.015961
19512.557713	16892.179333	1683.166016	162.774567
19512.557713	16892.179333	1682.142578	489.410797
19512.557713	16892.179333	1681.119141	370.034882
19512.557713	16892.179333	1680.094727	595.975586
19512.557713	16892.179333	1679.070313	273.461761
19512.557713	16892.179333	1678.045898	937.706055
19512.557713	16892.179333	1677.020508	356.197083
19512.557713	16892.179333	1675.996094	451.057953
19512.557713	16892.179333	1674.970703	291.676483
19512.557713	16892.179333	1673.945313	530.858276
19512.557713	16892.179333	1672.919922	797.835449
19512.557713	16892.179333	1671.893555	649.891296
19512.557713	16892.179333	1670.868164	455.354736
19512.557713	16892.179333	1669.841797	486.728271
19512.557713	16892.179333	1668.815430	476.106873
19512.557713	16892.179333	1667.789063	521.296936
19512.557713	16892.179333	1666.761719	901.581665
19512.557713	16892.179333	1665.735352	769.671326
19512.557713	16892.179333	1664.708008	947.202637
19512.557713	16892.179333	1663.680664	510.442932
19512.557713	16892.179333	1662.653320	587.823608
19512.557713	16892.179333	1661.625000	723.238892
19512.557713	16892.179333	1660.597656	970.161438
19512.557713	16892.179333	1659.569336	819.418884
19512.557713	16892.179333	1658.541016	1014.978088
19512.557713	16892.179333	1657.512695	1291.739258
19512.557713	16892.179333	1656.483398	1282.576904
19512.557713	16892.179333	1655.455078	1345.389893
19512.557713	16892.179333	1654.425781	1027.257446
19512.557713	16892.179333	1653.396484	957.646790
19512.557713	16892.179333	1652.366211	888.008301
19512.557713	16892.179333	1651.336914	1363.801880
19512.557713	16892.179333	1650.306641	1103.750977
19512.557713	16892.179333	1649.276367	827.525940
19512.557713	16892.179333	1648.246094	1532.575806
19512.557713	16892.179333	1647.215820	1365.310913
19512.557713	16892.179333	1646.185547	1455.457397
19512.557713	16892.179333	1645.154297	1559.438599
19512.557713	16892.179333	1644.123047	1127.930786
19512.557713	16892.179333	1643.091797	1623.521729
19512.557713	16892.179333	1642.060547	1590.637207
19512.557713	16892.179333	1641.028320	1740.731567
19512.557713	16892.179333	1639.997070	1635.999390
19512.557713	16892.179333	1638.964844	2029.126831
19512.557713	16892.179333	1637.931641	1956.730957
19512.557713	16892.179333	1636.899414	2152.867920
19512.557713	16892.179333	1635.867188	2302.632568
19512.557713	16892.179333	1634.833984	1887.748779
19512.557713	16892.179333	1633.800781	2021.281860
19512.557713	16892.179333	1632.767578	2064.555664
19512.557713	16892.179333	1631.734375	1878.875122
19512.557713	16892.179333	1630.700195	2060.858643
19512.557713	16892.179333	1629.666016	1981.567261
19512.557713	16892.179333	1628.631836	1835.286255
19512.557713	16892.179333	1627.597656	1705.242188
19512.557713	16892.179333	1626.563477	2254.452393
19512.557713	16892.179333	1625.528320	1888.781860
19512.557713	16892.179333	1624.493164	2029.000488
19512.557713	16892.179333	1623.458008	2113.762451
19512.557713	16892.179333	1622.422852	2263.142334
19512.557713	16892.179333	1621.387695	2255.540039
19512.557713	16892.179333	1620.351563	2130.258057
19512.557713	16892.179333	1619.315430	2074.257813
19512.557713	16892.179333	1618.279297	2172.845703
19512.557713	16892.179333	1617.243164	2225.293701
19512.557713	16892.179333	1616.207031	2263.911865
19512.557713	16892.179333	1615.169922	2018.979248
19512.557713	16892.179333	1614.132813	2451.791260
19512.557713	16892.179333	1613.095703	2497.328125
19512.557713	16892.179333	1612.058594	2489.894775
19512.557713	16892.179333	1611.020508	2093.193848
19512.557713	16892.179333	1609.983398	2058.278320
19512.557713	16892.179333	1608.945313	2371.087891
19512.557713	16892.179333	1607.907227	2329.286133
19512.557713	16892.179333	1606.868164	2105.701416
19512.557713	16892.179333	1605.830078	2729.113037
19512.557713	16892.179333	1604.791016	2507.929199
19512.557713	16892.179333	1603.751953	2424.899658
19512.557713	16892.179333	1602.712891	2399.448242
19512.557713	16892.179333	1601.673828	2194.705811
19512.557713	16892.179333	1600.633789	2617.707764
19512.557713	16892.179333	1599.594727	2318.873291
19512.557713	16892.179333	1598.554688	2454.541016
19512.557713	16892.179333	1597.513672	2751.033203
19512.557713	16892.179333	1596.473633	2620.210205
19512.557713	16892.179333	1595.433594	2498.689453
19512.557713	16892.179333	1594.392578	2450.748779
19512.557713	16892.179333	1593.351563	2744.977539
19512.557713	16892.179333	1592.310547	2685.666748
19512.557713	16892.179333	1591.268555	2546.117676
19512.557713	16892.179333	1590.227539	2856.427979
19512.557713	16892.179333	1589.185547	3049.687744
19512.557713	16892.179333	1588.143555	2740.645508
19512.557713	16892.179333	1587.100586	2768.888428
19512.557713	16892.179333	1586.058594	2771.989990
19512.557713	16892.179333	1585.015625	3093.786865
19512.557713	16892.179333	1583.972656	2913.636719
19512.557713	16892.179333	1582.929688	2868.830566
19512.557713	16892.179333	1581.886719	2620.240967
19512.557713	16892.179333	1580.843750	2971.940430
19512.557713	16892.179333	1579.799805	3014.430176
19512.557713	16892.179333	1578.755859	2763.931152
19512.557713	16892.179333	1577.711914	3145.421387
19512.557713	16892.179333	1576.666992	2652.579102
19512.557713	16892.179333	1575.623047	2784.721680
19512.557713	16892.179333	1574.578125	2944.355225
19512.557713	16892.179333	1573.533203	2724.332764
19512.557713	16892.179333	1572.488281	2984.746094
19512.557713	16892.179333	1571.443359	3176.569092
19512.557713	16892.179333	1570.397461	3158.105469
19512.557713	16892.179333	1569.351563	2771.785645
19512.557713	16892.179333	1568.305664	2906.728271
19512.557713	16892.179333	1567.259766	2735.591553
19512.557713	16892.179333	1566.213867	2991.775635
19512.557713	16892.179333	1565.166992	2843.743896
19512.557713	16892.179333	1564.120117	3065.782471
19512.557713	16892.179333	1563.073242	3194.255615
19512.557713	16892.179333	1562.026367	2868.606934
19512.557713	16892.179333	1560.978516	3346.440918
19512.557713	16892.179333	1559.930664	3057.628662
19512.557713	16892.179333	1558.883789	3072.443115
19512.557713	16892.179333	1557.834961	2868.423340
19512.557713	16892.179333	1556.787109	2646.384766
19512.557713	16892.179333	1555.739258	2711.803711
19512.557713	16892.179333	1554.690430	2424.035889
19512.557713	16892.179333	1553.641602	2758.626953
19512.557713	16892.179333	1552.592773	2277.574707
19512.557713	16892.179333	1551.542969	2370.867676
19512.557713	16892.179333	1550.494141	2236.529053
19512.557713	16892.179333	1549.444336	1813.195190
19512.557713	16892.179333	1548.394531	1909.223877
19512.557713	16892.179333	1547.344727	1780.022583
19512.557713	16892.179333	1546.293945	1744.311279
19512.557713	16892.179333	1545.244141	1460.767700
19512.557713	16892.179333	1544.193359	1818.959229
19512.557713	16892.179333	1543.142578	1372.051514
19512.557713	16892.179333	1542.090820	1448.452393
19512.557713	16892.179333	1541.040039	1215.799316
19512.557713	16892.179333	1539.988281	1456.160767
19512.557713	16892.179333	1538.936523	1355.701782
19512.557713	16892.179333	1537.884766	1162.282959
19512.557713	16892.179333	1536.833008	1466.585205
19512.557713	16892.179333	1535.780273	1382.548584
19512.557713	16892.179333	1534.727539	1316.868408
19512.557713	16892.179333	1533.674805	1326.295898
19512.557713	16892.179333	1532.622070	1381.281616
19512.557713	16892.179333	1531.569336	1479.525757
19512.557713	16892.179333	1530.515625	1312.422241
19512.557713	16892.179333	1529.461914	1129.671509
19512.557713	16892.179333	1528.408203	976.645752
19512.557713	16892.179333	1527.354492	1288.705444
19512.557713	16892.179333	1526.299805	931.998962
19512.557713	16892.179333	1525.246094	754.678284
19512.557713	16892.179333	1524.191406	686.374939
19512.557713	16892.179333	1523.136719	767.815857
19512.557713	16892.179333	1522.081055	378.196747
19512.557713	16892.179333	1521.026367	969.623352
19512.557713	16892.179333	1519.970703	741.250061
19512.557713	16892.179333	1518.915039	805.203308
19512.557713	16892.179333	1517.859375	371.323914
19512.557713	16892.179333	1516.802734	754.779053
19512.557713	16892.179333	1515.747070	819.231262
19512.557713	16892.179333	1514.690430	587.485046
19512.557713	16892.179333	1513.633789	778.964661
19512.557713	16892.179333	1512.577148	712.762817
19512.557713	16892.179333	1511.519531	615.113892
19512.557713	16892.179333	1510.461914	495.088226
19512.557713	16892.179333	1509.405273	587.735840
19512.557713	16892.179333	1508.346680	233.142136
19512.557713	16892.179333	1507.289063	721.522034
19512.557713	16892.179333	1506.231445	412.594666
19512.557713	16892.179333	1505.172852	609.814026
19512.557713	16892.179333	1504.114258	585.888062
19512.557713	16892.179333	1503.055664	58.786064
19512.557713	16892.179333	1501.996094	349.064301
19512.557713	16892.179333	1500.937500	413.782440
19512.557713	16892.179333	1499.877930	329.774994
19512.557713	16892.179333	1498.818359	288.850342
19512.557713	16892.179333	1497.757813	376.676636
19512.557713	16892.179333	1496.698242	509.757385
19512.557713	16892.179333	1495.637695	462.649170
19512.557713	16892.179333	1494.577148	720.009155
19512.557713	16892.179333	1493.516602	445.695251
19512.557713	16892.179333	1492.456055	349.661163
19512.557713	16892.179333	1491.394531	-47.951363
19512.557713	16892.179333	1490.333008	561.404724
19512.557713	16892.179333	1489.271484	438.991486
19512.557713	16892.179333	1488.209961	553.186401
19512.557713	16892.179333	1487.148438	462.733978
19512.557713	16892.179333	1486.085938	185.761215
19512.557713	16892.179333	1485.023438	593.007507
19512.557713	16892.179333	1483.960938	437.984863
19512.557713	16892.179333	1482.898438	321.457306
19512.557713	16892.179333	1481.834961	591.890442
19512.557713	16892.179333	1480.772461	801.719421
19512.557713	16892.179333	1479.708984	440.836182
19512.557713	16892.179333	1478.644531	334.224030
19512.557713	16892.179333	1477.581055	470.492615
19512.557713	16892.179333	1476.517578	355.289520
19512.557713	16892.179333	1475.453125	368.389954
19512.557713	16892.179333	1474.388672	563.456970
19512.557713	16892.179333	1473.323242	767.621582
19512.557713	16892.179333	1472.258789	144.169205
19512.557713	16892.179333	1471.193359	582.070984
19512.557713	16892.179333	1470.127930	919.053528
19512.557713	16892.179333	1469.062500	949.003601
19512.557713	16892.179333	1467.997070	833.247498
19512.557713	16892.179333	1466.930664	1004.774719
19512.557713	16892.179333	1465.865234	782.245178
19512.557713	16892.179333	1464.798828	1670.475952
19512.557713	16892.179333	1463.731445	1824.358276
19512.557713	16892.179333	1462.665039	2038.793091
19512.557713	16892.179333	1461.597656	1890.069092
19512.557713	16892.179333	1460.530273	1870.645508
19512.557713	16892.179333	1459.462891	2089.592529
19512.557713	16892.179333	1458.395508	1846.082031
19512.557713	16892.179333	1457.327148	1901.667480
19512.557713	16892.179333	1456.259766	1869.249268
19512.557713	16892.179333	1455.191406	2035.290527
19512.557713	16892.179333	1454.123047	1835.288086
19512.557713	16892.179333	1453.053711	1986.456299
19512.557713	16892.179333	1451.985352	1648.326782
19512.557713	16892.179333	1450.916016	1777.508667
19512.557713	16892.179333	1449.846680	1525.064209
19512.557713	16892.179333	1448.776367	1714.325928
19512.557713	16892.179333	1447.707031	1671.562012
19512.557713	16892.179333	1446.636719	1771.179688
19512.557713	16892.179333	1445.566406	1480.143066
19512.557713	16892.179333	1444.496094	1380.861938
19512.557713	16892.179333	1443.425781	1453.183472
19512.557713	16892.179333	1442.354492	1632.421631
19512.557713	16892.179333	1441.283203	1445.984741
19512.557713	16892.179333	1440.211914	1559.079590
19512.557713	16892.179333	1439.140625	1029.686157
19512.557713	16892.179333	1438.069336	876.216125
19512.557713	16892.179333	1436.997070	1132.622803
19512.557713	16892.179333	1435.924805	977.331177
19512.557713	16892.179333	1434.852539	584.948181
19512.557713	16892.179333	1433.780273	953.321045
19512.557713	16892.179333	1432.707031	499.220154
19512.557713	16892.179333	1431.633789	575.694641
19512.557713	16892.179333	1430.560547	493.521362
19512.557713	16892.179333	1429.487305	398.158691
19512.557713	16892.179333	1428.413086	190.889450
19512.557713	16892.179333	1427.339844	79.929604
19512.557713	16892.179333	1426.265625	113.079895
19512.557713	16892.179333	1425.191406	20.708611
19512.557713	16892.179333	1424.116211	-257.176147
19512.557713	16892.179333	1423.041992	-180.988876
19512.557713	16892.179333	1421.966797	27.146816
19512.557713	16892.179333	1420.891602	-103.065659
19512.557713	16892.179333	1419.816406	45.601490
19512.557713	16892.179333	1418.740234	6.760693
19512.557713	16892.179333	1417.665039	-152.107925
19512.557713	16892.179333	1416.588867	-153.700516
19512.557713	16892.179333	1415.512695	-238.107574
19512.557713	16892.179333	1414.435547	359.838654
19512.557713	16892.179333	1413.359375	331.808197
19512.557713	16892.179333	1412.282227	256.018372
19512.557713	16892.179333	1411.205078	54.801758
19512.557713	16892.179333	1410.127930	89.628166
19512.557713	16892.179333	1409.049805	332.445465
19512.557713	16892.179333	1407.972656	473.164032
19512.557713	16892.179333	1406.894531	438.526306
19512.557713	16892.179333	1405.816406	322.418610
19512.557713	16892.179333	1404.737305	380.471008
19512.557713	16892.179333	1403.659180	617.320984
19512.557713	16892.179333	1402.580078	753.731873
19512.557713	16892.179333	1401.500977	1054.923218
19512.557713	16892.179333	1400.421875	641.618469
19512.557713	16892.179333	1399.341797	730.345093
19512.557713	16892.179333	1398.262695	664.984985
19512.557713	16892.179333	1397.182617	555.920105
19512.557713	16892.179333	1396.102539	775.474609
19512.557713	16892.179333	1395.021484	1060.744751
19512.557713	16892.179333	1393.941406	707.363037
19512.557713	16892.179333	1392.860352	704.710815
19512.557713	16892.179333	1391.779297	515.244141
19512.557713	16892.179333	1390.698242	329.505035
19512.557713	16892.179333	1389.616211	574.209595
19512.557713	16892.179333	1388.535156	569.588257
19512.557713	16892.179333	1387.453125	604.508179
19512.557713	16892.179333	1386.371094	632.049744
19512.557713	16892.179333	1385.288086	570.627014
19512.557713	16892.179333	1384.206055	351.494415
19512.557713	16892.179333	1383.123047	1009.809448
19512.557713	16892.179333	1382.040039	621.354919
19512.557713	16892.179333	1380.957031	612.653015
19512.557713	16892.179333	1379.873047	720.249329
19512.557713	16892.179333	1378.789063	633.771912
19512.557713	16892.179333	1377.705078	694.617859
19512.557713	16892.179333	1376.621094	723.442139
19512.557713	16892.179333	1375.537109	937.516968
19512.557713	16892.179333	1374.452148	813.277222
19512.557713	16892.179333	1373.367188	586.490784
19512.557713	16892.179333	1372.282227	860.392578
19512.557713	16892.179333	1371.197266	599.299744
19512.557713	16892.179333	1370.112305	418.884674
19512.557713	16892.179333	1369.026367	645.313477
19512.557713	16892.179333	1367.940430	874.288696
19512.557713	16892.179333	1366.854492	694.887146
19512.557713	16892.179333	1365.767578	927.939209
19512.557713	16892.179333	1364.681641	847.928528
19512.557713	16892.179333	1363.594727	495.622925
19512.557713	16892.179333	1362.507813	455.900024
19512.557713	16892.179333	1361.419922	740.424805
19512.557713	16892.179333	1360.333008	404.707031
19512.557713	16892.179333	1359.245117	790.228455
19512.557713	16892.179333	1358.157227	697.118164
19512.557713	16892.179333	1357.069336	121.728287
19512.557713	16892.179333	1355.981445	492.096375
19512.557713	16892.179333	1354.892578	417.446564
19512.557713	16892.179333	1353.803711	381.321594
19512.557713	16892.179333	1352.714844	301.870300
19512.557713	16892.179333	1351.625000	595.547668
19512.557713	16892.179333	1350.536133	764.242188
19512.557713	16892.179333	1349.446289	987.806702
19512.557713	16892.179333	1348.356445	1010.191528
19512.557713	16892.179333	1347.266602	1031.082642
19512.557713	16892.179333	1346.175781	1176.902222
19512.557713	16892.179333	1345.085938	478.223114
19512.557713	16892.179333	1343.995117	853.821289
19512.557713	16892.179333	1342.903320	1148.367310
19512.557713	16892.179333	1341.812500	841.714722
19512.557713	16892.179333	1340.720703	862.071533
19512.557713	16892.179333	1339.629883	1086.277100
19512.557713	16892.179333	1338.538086	1152.383667
19512.557713	16892.179333	1337.445313	1165.886108
19512.557713	16892.179333	1336.353516	1165.544922
19512.557713	16892.179333	1335.260742	1199.276245
19512.557713	16892.179333	1334.167969	1182.894287
19512.557713	16892.179333	1333.075195	1533.908936
19512.557713	16892.179333	1331.981445	1351.673462
19512.557713	16892.179333	1330.888672	1384.689697
19512.557713	16892.179333	1329.794922	1282.235962
19512.557713	16892.179333	1328.701172	1050.418701
19512.557713	16892.179333	1327.606445	692.359131
19512.557713	16892.179333	1326.512695	1017.206665
19512.557713	16892.179333	1325.417969	1168.923950
19512.557713	16892.179333	1324.323242	987.578186
19512.557713	16892.179333	1323.227539	1219.507446
19512.557713	16892.179333	1322.132813	1047.233643
19512.557713	16892.179333	1321.037109	971.372314
19512.557713	16892.179333	1319.941406	1132.826294
19512.557713	16892.179333	1318.845703	1084.175781
19512.557713	16892.179333	1317.750000	802.890015
19512.557713	16892.179333	1316.653320	925.438354
19512.557713	16892.179333	1315.556641	778.436096
19512.557713	16892.179333	1314.459961	777.203857
19512.557713	16892.179333	1313.363281	964.038757
19512.557713	16892.179333	1312.265625	1004.027832
19512.557713	16892.179333	1311.167969	879.190247
19512.557713	16892.179333	1310.070313	825.047791
19512.557713	16892.179333	1308.972656	1003.559753
19512.557713	16892.179333	1307.874023	803.789917
19512.557713	16892.179333	1306.776367	712.086304
19512.557713	16892.179333	1305.677734	570.367188
19512.557713	16892.179333	1304.579102	290.430695
19512.557713	16892.179333	1303.479492	424.791992
19512.557713	16892.179333	1302.380859	534.974487
19512.557713	16892.179333	1301.281250	691.433960
19512.557713	16892.179333	1300.181641	590.091431
19512.557713	16892.179333	1299.081055	330.276672
19512.557713	16892.179333	1297.981445	447.750946
19512.557713	16892.179333	1296.880859	498.210724
19512.557713	16892.179333	1295.780273	405.037689
19512.557713	16892.179333	1294.679688	303.198944
19512.557713	16892.179333	1293.578125	98.305763
19512.557713	16892.179333	1292.476563	476.015137
19512.557713	16892.179333	1291.375000	353.206268
19512.557713	16892.179333	1290.273438	310.580627
19512.557713	16892.179333	1289.171875	142.269379
19512.557713	16892.179333	1288.069336	416.880035
19512.557713	16892.179333	1286.966797	393.116302
19512.557713	16892.179333	1285.864258	362.097656
19512.557713	16892.179333	1284.761719	599.470886
19512.557713	16892.179333	1283.658203	732.757629
19512.557713	16892.179333	1282.554688	769.864685
19512.557713	16892.179333	1281.451172	650.036499
19512.557713	16892.179333	1280.347656	396.859283
19512.557713	16892.179333	1279.244141	756.532654
19512.557713	16892.179333	1278.139648	610.371338
19512.557713	16892.179333	1277.035156	507.713623
19512.557713	16892.179333	1275.930664	553.573547
19512.557713	16892.179333	1274.825195	437.394836
19512.557713	16892.179333	1273.720703	720.095703
19512.557713	16892.179333	1272.615234	506.409058
19512.557713	16892.179333	1271.508789	358.702484
19512.557713	16892.179333	1270.403320	630.649963
19512.557713	16892.179333	1269.297852	647.037170
19512.557713	16892.179333	1268.191406	429.069580
19512.557713	16892.179333	1267.084961	664.290527
19512.557713	16892.179333	1265.977539	475.091064
19512.557713	16892.179333	1264.871094	478.322937
19512.557713	16892.179333	1263.763672	177.295380
19512.557713	16892.179333	1262.656250	405.631683
19512.557713	16892.179333	1261.548828	603.724854
19512.557713	16892.179333	1260.440430	596.864502
19512.557713	16892.179333	1259.333008	563.146423
19512.557713	16892.179333	1258.224609	429.241272
19512.557713	16892.179333	1257.115234	393.184631
19512.557713	16892.179333	1256.006836	552.400513
19512.557713	16892.179333	1254.897461	449.170776
19512.557713	16892.179333	1253.788086	531.845398
19512.557713	16892.179333	1252.678711	572.274475
19512.557713	16892.179333	1251.569336	536.712341
19512.557713	16892.179333	1250.458984	687.169250
19512.557713	16892.179333	1249.349609	456.979645
19512.557713	16892.179333	1248.239258	553.007263
19512.557713	16892.179333	1247.127930	283.889374
19512.557713	16892.179333	1246.017578	269.610748
19512.557713	16892.179333	1244.906250	346.498108
19512.557713	16892.179333	1243.794922	344.760925
19512.557713	16892.179333	1242.683594	240.829391
19512.557713	16892.179333	1241.571289	436.543793
19512.557713	16892.179333	1240.459961	307.774017
19512.557713	16892.179333	1239.347656	110.690300
19512.557713	16892.179333	1238.234375	59.310669
19512.557713	16892.179333	1237.122070	350.524719
19512.557713	16892.179333	1236.008789	147.908829
19512.557713	16892.179333	1234.896484	186.297989
19512.557713	16892.179333	1233.782227	130.459549
19512.557713	16892.179333	1232.668945	151.824661
19512.557713	16892.179333	1231.555664	47.073322
19512.557713	16892.179333	1230.441406	361.899109
19512.557713	16892.179333	1229.327148	206.535431
19512.557713	16892.179333	1228.211914	157.882797
19512.557713	16892.179333	1227.097656	71.083496
19512.557713	16892.179333	1225.982422	250.648834
19512.557713	16892.179333	1224.867188	77.699127
19512.557713	16892.179333	1223.751953	109.768280
19512.557713	16892.179333	1222.635742	21.914850
19512.557713	16892.179333	1221.520508	-46.368816
19512.557713	16892.179333	1220.404297	-12.802241
19512.557713	16892.179333	1219.287109	-10.183667
19512.557713	16892.179333	1218.170898	42.329163
19512.557713	16892.179333	1217.053711	-145.895630
19512.557713	16892.179333	1215.936523	-28.817373
19512.557713	16892.179333	1214.819336	-26.745829
19512.557713	16892.179333	1213.702148	-209.805222
19512.557713	16892.179333	1212.583984	19.203304
19512.557713	16892.179333	1211.465820	21.139027
19512.557713	16892.179333	1210.347656	-195.964035
19512.557713	16892.179333	1209.229492	-221.636276
19512.557713	16892.179333	1208.110352	-97.077507
19512.557713	16892.179333	1206.992188	60.692448
19512.557713	16892.179333	1205.873047	-96.599884
19512.557713	16892.179333	1204.752930	24.040321
19512.557713	16892.179333	1203.633789	-223.240356
19512.557713	16892.179333	1202.513672	-77.321198
19512.557713	16892.179333	1201.393555	-60.631351
19512.557713	16892.179333	1200.273438	-97.499962
19512.557713	16892.179333	1199.152344	-57.316666
19512.557713	16892.179333	1198.032227	-77.344353
19512.557713	16892.179333	1196.911133	3.603523
19512.557713	16892.179333	1195.790039	-87.823669
19512.557713	16892.179333	1194.667969	99.826004
19512.557713	16892.179333	1193.545898	17.473553
19512.557713	16892.179333	1192.424805	73.727783
19512.557713	16892.179333	1191.301758	101.662842
19512.557713	16892.179333	1190.179688	192.261337
19512.557713	16892.179333	1189.056641	3.667908
19512.557713	16892.179333	1187.933594	-92.795631
19512.557713	16892.179333	1186.810547	83.944077
19512.557713	16892.179333	1185.687500	10.741625
19512.557713	16892.179333	1184.563477	-22.758219
19512.557713	16892.179333	1183.440430	-60.607330
19512.557713	16892.179333	1182.316406	-0.970483
19512.557713	16892.179333	1181.191406	39.391521
19512.557713	16892.179333	1180.067383	153.632385
19512.557713	16892.179333	1178.942383	176.481445
19512.557713	16892.179333	1177.817383	-58.387115
19512.557713	16892.179333	1176.692383	189.106018
19512.557713	16892.179333	1175.566406	8.132438
19512.557713	16892.179333	1174.440430	10.036511
19512.557713	16892.179333	1173.314453	-77.024261
19512.557713	16892.179333	1172.188477	76.953331
19512.557713	16892.179333	1171.062500	154.747894
19512.557713	16892.179333	1169.935547	-194.650970
19512.557713	16892.179333	1168.808594	107.543007
19512.557713	16892.179333	1167.681641	134.991287
19512.557713	16892.179333	1166.553711	14.040652
19512.557713	16892.179333	1165.426758	91.241692
19512.557713	16892.179333	1164.298828	126.755325
19512.557713	16892.179333	1163.170898	-7.512519
19512.557713	16892.179333	1162.041992	96.212372
19512.557713	16892.179333	1160.914063	-23.286238
19512.557713	16892.179333	1159.785156	126.380447
19512.557713	16892.179333	1158.656250	16.864841
19512.557713	16892.179333	1157.526367	-5.744677
19512.557713	16892.179333	1156.397461	-85.616707
19512.557713	16892.179333	1155.267578	9.168147
19512.557713	16892.179333	1154.137695	-123.049797
19512.557713	16892.179333	1153.006836	-115.836761
19512.557713	16892.179333	1151.876953	-131.008987
19512.557713	16892.179333	1150.746094	-415.466125
19512.557713	16892.179333	1149.615234	-192.244400
19512.557713	16892.179333	1148.484375	-322.336365
19512.557713	16892.179333	1147.352539	-253.916061
19512.557713	16892.179333	1146.220703	-210.687363
19512.557713	16892.179333	1145.088867	-290.033417
19512.557713	16892.179333	1143.957031	-368.864746
19512.557713	16892.179333	1142.825195	-175.136719
19512.557713	16892.179333	1141.692383	-102.234749
19512.557713	16892.179333	1140.559570	-121.360176
19512.557713	16892.179333	1139.426758	-147.523041
19512.557713	16892.179333	1138.292969	-238.948853
19512.557713	16892.179333	1137.159180	-54.686256
19512.557713	16892.179333	1136.025391	-148.381989
19512.557713	16892.179333	1134.891602	261.518433
19512.557713	16892.179333	1133.757813	193.585068
19512.557713	16892.179333	1132.623047	-144.716553
19512.557713	16892.179333	1131.488281	-78.842751
19512.557713	16892.179333	1130.353516	-42.227283
19512.557713	16892.179333	1129.217773	24.825565
19512.557713	16892.179333	1128.083008	199.167938
19512.557713	16892.179333	1126.947266	83.443321
19512.557713	16892.179333	1125.811523	22.412750
19512.557713	16892.179333	1124.674805	289.441528
19512.557713	16892.179333	1123.539063	-31.978674
19512.557713	16892.179333	1122.402344	-63.599648
19512.557713	16892.179333	1121.265625	214.238525
19512.557713	16892.179333	1120.127930	277.139099
19512.557713	16892.179333	1118.990234	252.022018
19512.557713	16892.179333	1117.853516	447.584900
19512.557713	16892.179333	1116.714844	388.668304
19512.557713	16892.179333	1115.577148	305.568420
19512.557713	16892.179333	1114.439453	325.400055
19512.557713	16892.179333	1113.300781	96.441780
19512.557713	16892.179333	1112.162109	185.979370
19512.557713	16892.179333	1111.022461	245.656433
19512.557713	16892.179333	1109.883789	178.594101
19512.557713	16892.179333	1108.744141	50.819637
19512.557713	16892.179333	1107.604492	158.945480
19512.557713	16892.179333	1106.463867	291.267212
19512.557713	16892.179333	1105.324219	308.025970
19512.557713	16892.179333	1104.183594	166.570526
19512.557713	16892.179333	1103.042969	240.943466
19512.557713	16892.179333	1101.902344	448.486755
19512.557713	16892.179333	1100.760742	438.561920
19512.557713	16892.179333	1099.619141	394.040039
19512.557713	16892.179333	1098.477539	229.903748
19512.557713	16892.179333	1097.335938	368.071167
19512.557713	16892.179333	1096.193359	420.770782
19512.557713	16892.179333	1095.051758	452.401764
19512.557713	16892.179333	1093.909180	630.502747
19512.557713	16892.179333	1092.765625	632.456421
19512.557713	16892.179333	1091.623047	476.067017
19512.557713	16892.179333	1090.479492	352.247528
19512.557713	16892.179333	1089.335938	162.297699
19512.557713	16892.179333	1088.192383	224.481522
19512.557713	16892.179333	1087.047852	534.520874
19512.557713	16892.179333	1085.903320	481.350525
19512.557713	16892.179333	1084.758789	342.922119
19512.557713	16892.179333	1083.614258	441.610931
19512.557713	16892.179333	1082.469727	175.567734
19512.557713	16892.179333	1081.324219	457.537445
19512.557713	16892.179333	1080.178711	415.554993
19512.557713	16892.179333	1079.033203	362.312256
19512.557713	16892.179333	1077.886719	575.751099
19512.557713	16892.179333	1076.740234	437.379486
19512.557713	16892.179333	1075.593750	429.346283
19512.557713	16892.179333	1074.447266	647.442993
19512.557713	16892.179333	1073.300781	348.847717
19512.557713	16892.179333	1072.153320	579.156311
19512.557713	16892.179333	1071.005859	340.640961
19512.557713	16892.179333	1069.858398	338.098938
19512.557713	16892.179333	1068.709961	332.334839
19512.557713	16892.179333	1067.561523	306.554688
19512.557713	16892.179333	1066.413086	225.944519
19512.557713	16892.179333	1065.264648	178.899445
19512.557713	16892.179333	1064.116211	183.478546
19512.557713	16892.179333	1062.966797	274.441040
19512.557713	16892.179333	1061.817383	406.001312
19512.557713	16892.179333	1060.667969	216.593475
19512.557713	16892.179333	1059.517578	443.201141
19512.557713	16892.179333	1058.368164	281.835327
19512.557713	16892.179333	1057.217773	202.513336
19512.557713	16892.179333	1056.067383	592.948059
19512.557713	16892.179333	1054.916016	657.718506
19512.557713	16892.179333	1053.764648	464.988861
19512.557713	16892.179333	1052.613281	313.972656
19512.557713	16892.179333	1051.461914	578.717407
19512.557713	16892.179333	1050.310547	527.213989
19512.557713	16892.179333	1049.158203	796.669922
19512.557713	16892.179333	1048.005859	840.074097
19512.557713	16892.179333	1046.853516	518.702576
19512.557713	16892.179333	1045.700195	485.080963
19512.557713	16892.179333	1044.547852	393.597443
19512.557713	16892.179333	1043.394531	484.771271
19512.557713	16892.179333	1042.240234	655.552185
19512.557713	16892.179333	1041.086914	715.039673
19512.557713	16892.179333	1039.932617	446.481110
19512.557713	16892.179333	1038.778320	520.467712
19512.557713	16892.179333	1037.624023	609.591980
19512.557713	16892.179333	1036.469727	804.081177
19512.557713	16892.179333	1035.314453	1045.265015
19512.557713	16892.179333	1034.159180	1223.891235
19512.557713	16892.179333	1033.003906	1265.960693
19512.557713	16892.179333	1031.847656	1119.724487
19512.557713	16892.179333	1030.692383	1121.557251
19512.557713	16892.179333	1029.536133	1519.398438
19512.557713	16892.179333	1028.378906	1143.937744
19512.557713	16892.179333	1027.222656	805.015198
19512.557713	16892.179333	1026.065430	921.823547
19512.557713	16892.179333	1024.908203	590.259705
19512.557713	16892.179333	1023.750977	442.351715
19512.557713	16892.179333	1022.593750	602.908936
19512.557713	16892.179333	1021.435547	449.465424
19512.557713	16892.179333	1020.277344	395.517853
19512.557713	16892.179333	1019.119141	603.240845
19512.557713	16892.179333	1017.959961	117.056839
19512.557713	16892.179333	1016.800781	308.044861
19512.557713	16892.179333	1015.641602	492.375580
19512.557713	16892.179333	1014.482422	117.344734
19512.557713	16892.179333	1013.323242	137.083984
19512.557713	16892.179333	1012.163086	220.376785
19512.557713	16892.179333	1011.002930	322.271240
19512.557713	16892.179333	1009.842773	157.889206
19512.557713	16892.179333	1008.681641	339.109711
19512.557713	16892.179333	1007.520508	167.406799
19512.557713	16892.179333	1006.359375	102.437531
19512.557713	16892.179333	1005.198242	206.011292
19512.557713	16892.179333	1004.037109	191.324234
19512.557713	16892.179333	1002.875000	243.878082
19512.557713	16892.179333	1001.712891	480.520264
19512.557713	16892.179333	1000.550781	399.577759
19512.557713	16892.179333	999.387695	360.725983
19512.557713	16892.179333	998.224609	334.828156
19512.557713	16892.179333	997.061523	229.277634
19512.557713	16892.179333	995.898438	119.686577
19512.557713	16892.179333	994.734375	-14.609645
19512.557713	16892.179333	993.571289	86.160072
19512.557713	16892.179333	992.407227	10.460514
19512.557713	16892.179333	991.242188	179.843109
19512.557713	16892.179333	990.078125	-144.830856
19512.557713	16892.179333	988.913086	-69.934830
19512.557713	16892.179333	987.748047	15.494496
19512.557713	16892.179333	986.583008	212.532135
19512.557713	16892.179333	985.416992	312.081421
19512.557713	16892.179333	984.250977	51.158489
19512.557713	16892.179333	983.084961	83.387207
19512.557713	16892.179333	981.918945	93.340637
19512.557713	16892.179333	980.751953	71.537140
19512.557713	16892.179333	979.584961	-107.657341
19512.557713	16892.179333	978.417969	236.978699
19512.557713	16892.179333	977.250977	18.664789
19512.557713	16892.179333	976.083008	140.239426
19512.557713	16892.179333	974.915039	268.055054
19512.557713	16892.179333	973.747070	83.885872
19512.557713	16892.179333	972.579102	135.806900
19512.557713	16892.179333	971.410156	-206.974426
19512.557713	16892.179333	970.242188	-187.700821
19512.557713	16892.179333	969.072266	-75.669556
19512.557713	16892.179333	967.903320	24.232624
19512.557713	16892.179333	966.733398	-95.148720
19512.557713	16892.179333	965.563477	64.666100
19512.557713	16892.179333	964.393555	-23.742081
19512.557713	16892.179333	963.223633	-116.856911
19512.557713	16892.179333	962.052734	-76.039619
19512.557713	16892.179333	960.881836	-21.259602
19512.557713	16892.179333	959.710938	99.073700
19512.557713	16892.179333	958.540039	74.966866
19512.557713	16892.179333	957.368164	133.439362
19512.557713	16892.179333	956.196289	-68.622612
19512.557713	16892.179333	955.024414	120.187874
19512.557713	16892.179333	953.851563	72.433159
19512.557713	16892.179333	952.679688	72.129295
19512.557713	16892.179333	951.506836	125.550606
19512.557713	16892.179333	950.333984	-42.539658
19512.557713	16892.179333	949.160156	-276.024628
19512.557713	16892.179333	947.986328	-5.648798
19512.557713	16892.179333	946.812500	-240.300201
19512.557713	16892.179333	945.638672	148.435898
19512.557713	16892.179333	944.464844	19.075733
19512.557713	16892.179333	943.290039	-164.279602
19512.557713	16892.179333	942.115234	-134.804214
19512.557713	16892.179333	940.940430	-132.786530
19512.557713	16892.179333	939.764648	16.790434
19512.557713	16892.179333	938.588867	-15.468067
19512.557713	16892.179333	937.413086	130.077240
19512.557713	16892.179333	936.237305	410.585114
19512.557713	16892.179333	935.060547	-163.054489
19512.557713	16892.179333	933.883789	314.960999
19512.557713	16892.179333	932.707031	333.544220
19512.557713	16892.179333	931.530273	-51.273003
19512.557713	16892.179333	930.352539	123.983109
19512.557713	16892.179333	929.175781	-39.795540
19512.557713	16892.179333	927.998047	-36.201023
19512.557713	16892.179333	926.819336	91.796402
19512.557713	16892.179333	925.641602	256.186401
19512.557713	16892.179333	924.462891	208.195114
19512.557713	16892.179333	923.284180	-92.792755
19512.557713	16892.179333	922.104492	285.872162
19512.557713	16892.179333	920.924805	357.879303
19512.557713	16892.179333	919.746094	367.826324
19512.557713	16892.179333	919.551758	232.182785
19512.557713	16892.179333	918.386719	-137.330856
19512.557713	16892.179333	917.220703	287.972626
19512.557713	16892.179333	916.054688	40.642033
19512.557713	16892.179333	914.887695	41.771866
19512.557713	16892.179333	913.721680	27.893030
19512.557713	16892.179333	912.554688	-35.214111
19512.557713	16892.179333	911.387695	119.950439
19512.557713	16892.179333	910.220703	281.455414
19512.557713	16892.179333	909.052734	-136.765015
19512.557713	16892.179333	907.885742	155.146347
19512.557713	16892.179333	906.717773	245.955994
19512.557713	16892.179333	905.548828	56.691525
19512.557713	16892.179333	904.380859	29.911339
19512.557713	16892.179333	903.211914	114.247040
19512.557713	16892.179333	902.042969	-19.367737
19512.557713	16892.179333	900.874023	182.393433
19512.557713	16892.179333	899.704102	33.853241
19512.557713	16892.179333	898.535156	51.884602
19512.557713	16892.179333	897.365234	91.251755
19512.557713	16892.179333	896.194336	0.415829
19512.557713	16892.179333	895.024414	-128.808838
19512.557713	16892.179333	893.853516	40.673946
19512.557713	16892.179333	892.682617	-212.225647
19512.557713	16892.179333	891.511719	253.588257
19512.557713	16892.179333	890.340820	-1.403718
19512.557713	16892.179333	889.168945	231.825989
19512.557713	16892.179333	887.997070	200.693436
19512.557713	16892.179333	886.825195	92.858887
19512.557713	16892.179333	885.653320	-298.261536
19512.557713	16892.179333	884.480469	-11.950912
19512.557713	16892.179333	883.307617	44.263451
19512.557713	16892.179333	882.134766	-137.995331
19512.557713	16892.179333	880.961914	201.290359
19512.557713	16892.179333	879.788086	276.556122
19512.557713	16892.179333	878.614258	173.061768
19512.557713	16892.179333	877.440430	284.443970
19512.557713	16892.179333	876.266602	172.464508
19512.557713	16892.179333	875.091797	-81.937225
19512.557713	16892.179333	873.916992	-76.886246
19512.557713	16892.179333	872.742188	11.045170
19512.557713	16892.179333	871.567383	-177.320755
19512.557713	16892.179333	870.391602	-59.673630
19512.557713	16892.179333	869.215820	87.654526
19512.557713	16892.179333	868.040039	135.097214
19512.557713	16892.179333	866.864258	-129.611267
19512.557713	16892.179333	865.687500	-58.805145
19512.557713	16892.179333	864.510742	65.019478
19512.557713	16892.179333	863.333984	356.419098
19512.557713	16892.179333	862.157227	255.206085
19512.557713	16892.179333	860.979492	158.272705
19512.557713	16892.179333	859.802734	67.722603
19512.557713	16892.179333	858.625000	189.227142
19512.557713	16892.179333	857.446289	60.543907
19512.557713	16892.179333	856.268555	-2.406993
19512.557713	16892.179333	855.089844	140.198029
19512.557713	16892.179333	853.911133	178.927292
19512.557713	16892.179333	852.731445	204.928757
19512.557713	16892.179333	851.552734	-16.863766
19512.557713	16892.179333	850.373047	-122.124870
19512.557713	16892.179333	849.193359	-129.987396
19512.557713	16892.179333	848.013672	-245.791489
19512.557713	16892.179333	846.833008	-52.635426
19512.557713	16892.179333	845.652344	-147.273132
19512.557713	16892.179333	844.471680	-2.892426
19512.557713	16892.179333	843.291016	18.770008
19512.557713	16892.179333	842.110352	15.038046
19512.557713	16892.179333	840.928711	-172.592972
19512.557713	16892.179333	839.747070	-169.968750
19512.557713	16892.179333	838.564453	-116.646767
19512.557713	16892.179333	837.382813	143.644913
19512.557713	16892.179333	836.200195	61.680424
19512.557713	16892.179333	835.017578	152.877716
19512.557713	16892.179333	833.834961	-353.421844
19512.557713	16892.179333	832.651367	-198.887177
19512.557713	16892.179333	831.467773	217.233704
19512.557713	16892.179333	830.284180	-60.960064
19512.557713	16892.179333	829.100586	63.829865
19512.557713	16892.179333	827.916992	-58.197777
19512.557713	16892.179333	826.732422	-93.739380
19512.557713	16892.179333	825.547852	64.652351
19512.557713	16892.179333	824.363281	104.930038
19512.557713	16892.179333	823.177734	-122.438759
19512.557713	16892.179333	821.992188	8.413228
19512.557713	16892.179333	820.806641	48.614349
19512.557713	16892.179333	819.621094	-48.109386
19512.557713	16892.179333	818.434570	42.574696
19512.557713	16892.179333	817.249023	-26.791512
19512.557713	16892.179333	816.062500	65.903191
19512.557713	16892.179333	814.875000	13.355389
19512.557713	16892.179333	813.688477	-154.910477
19512.557713	16892.179333	812.500977	173.243958
19512.557713	16892.179333	811.313477	19.686049
19512.557713	16892.179333	810.125977	-203.219574
19512.557713	16892.179333	808.937500	101.539154
19512.557713	16892.179333	807.749023	-117.141029
19512.557713	16892.179333	806.560547	-184.483429
19512.557713	16892.179333	805.372070	-134.193817
19512.557713	16892.179333	804.182617	102.970238
19512.557713	16892.179333	802.994141	71.223030
19512.557713	16892.179333	801.803711	209.515686
19512.557713	16892.179333	800.614258	286.841003
19512.557713	16892.179333	799.424805	-196.201248
19512.557713	16892.179333	798.234375	-1.398134
19512.557713	16892.179333	797.043945	-257.704315
19512.557713	16892.179333	795.852539	62.792294
19512.557713	16892.179333	794.662109	-57.207329
19512.557713	16892.179333	793.470703	-22.061949
19512.557713	16892.179333	792.279297	103.150826
19512.557713	16892.179333	791.087891	-171.960358
19512.557713	16892.179333	789.895508	-0.755145
19512.557713	16892.179333	788.703125	122.161629
19512.557713	16892.179333	787.510742	-217.822128
19512.557713	16892.179333	786.318359	-2.875163
19512.557713	16892.179333	785.125000	-81.117020
19512.557713	16892.179333	783.931641	83.400307
19512.557713	16892.179333	782.738281	44.836189
19512.557713	16892.179333	781.544922	322.131256
19512.557713	16892.179333	780.350586	-128.590103
19512.557713	16892.179333	779.156250	-104.489090
19512.557713	16892.179333	777.961914	203.882706
19512.557713	16892.179333	776.767578	123.288170
19512.557713	16892.179333	775.572266	-7.470749
19512.557713	16892.179333	774.376953	45.634335
19512.557713	16892.179333	773.181641	115.378006
19512.557713	16892.179333	771.986328	-126.150688
19512.557713	16892.179333	770.790039	292.203522
19512.557713	16892.179333	769.593750	397.180145
19512.557713	16892.179333	768.397461	207.762741
19512.557713	16892.179333	767.201172	383.550079
19512.557713	16892.179333	766.003906	-185.611282
19512.557713	16892.179333	764.806641	-114.221954
19512.557713	16892.179333	763.609375	255.299301
19512.557713	16892.179333	762.412109	174.236832
19512.557713	16892.179333	761.213867	34.784580
19512.557713	16892.179333	760.015625	-21.307802
19512.557713	16892.179333	758.817383	-46.183708
19512.557713	16892.179333	757.618164	16.391680
19512.557713	16892.179333	756.419922	133.022430
19512.557713	16892.179333	755.220703	128.764877
19512.557713	16892.179333	754.021484	109.865021
19512.557713	16892.179333	752.821289	473.920746
19512.557713	16892.179333	751.621094	-19.671467
19512.557713	16892.179333	750.420898	54.902081
19512.557713	16892.179333	749.220703	299.957001
19512.557713	16892.179333	748.020508	176.707352
19512.557713	16892.179333	746.819336	296.731201
19512.557713	16892.179333	745.618164	106.866798
19512.557713	16892.179333	744.416992	314.007874
19512.557713	16892.179333	743.214844	265.384735
19512.557713	16892.179333	742.012695	364.222473
19512.557713	16892.179333	740.810547	367.389465
19512.557713	16892.179333	739.608398	295.711182
19512.557713	16892.179333	738.406250	522.983765
19512.557713	16892.179333	737.203125	534.189087
19512.557713	16892.179333	736.000000	840.031189
19512.557713	16892.179333	734.795898	902.886353
19512.557713	16892.179333	733.592773	1069.361084
19512.557713	16892.179333	732.388672	1227.392334
19512.557713	16892.179333	731.184570	953.932373
19512.557713	16892.179333	729.979492	1134.566284
19512.557713	16892.179333	728.775391	979.227417
19512.557713	16892.179333	727.570313	825.945740
19512.557713	16892.179333	726.365234	525.527527
19512.557713	16892.179333	725.160156	463.382263
19512.557713	16892.179333	723.954102	334.903320
19512.557713	16892.179333	722.748047	471.444000
19512.557713	16892.179333	721.541992	289.011505
19512.557713	16892.179333	720.334961	172.807617
19512.557713	16892.179333	719.128906	137.264771
19512.557713	16892.179333	717.921875	412.000031
19512.557713	16892.179333	716.714844	154.910034
19512.557713	16892.179333	715.506836	94.309608
19512.557713	16892.179333	714.298828	-40.793072
19512.557713	16892.179333	713.090820	-146.990326
19512.557713	16892.179333	711.882813	-11.417440
19512.557713	16892.179333	710.674805	136.401672
19512.557713	16892.179333	709.465820	1.031538
19512.557713	16892.179333	708.256836	-163.294632
19512.557713	16892.179333	707.047852	300.141449
19512.557713	16892.179333	705.837891	-97.673958
19512.557713	16892.179333	704.627930	105.269936
19512.557713	16892.179333	703.417969	120.228615
19512.557713	16892.179333	702.208008	19.533718
19512.557713	16892.179333	700.998047	-27.580734
19512.557713	16892.179333	699.787109	-14.958912
19512.557713	16892.179333	698.576172	-169.466461
19512.557713	16892.179333	697.364258	-66.305099
19512.557713	16892.179333	696.153320	-41.613403
19512.557713	16892.179333	694.941406	36.551170
19512.557713	16892.179333	693.729492	54.831177
19512.557713	16892.179333	692.516602	237.798096
19512.557713	16892.179333	691.304688	282.601166
19512.557713	16892.179333	690.091797	281.985107
19512.557713	16892.179333	688.878906	334.794067
19512.557713	16892.179333	687.665039	10.835574
19512.557713	16892.179333	686.451172	368.020386
19512.557713	16892.179333	685.237305	467.791748
19512.557713	16892.179333	684.023438	244.489380
19512.557713	16892.179333	682.809570	329.644501
19512.557713	16892.179333	681.594727	490.732361
19512.557713	16892.179333	680.379883	456.373138
19512.557713	16892.179333	679.165039	430.144989
19512.557713	16892.179333	677.949219	455.194824
19512.557713	16892.179333	676.733398	321.951813
19512.557713	16892.179333	675.517578	116.777336
19512.557713	16892.179333	674.301758	172.368744
19512.557713	16892.179333	673.084961	131.343430
19512.557713	16892.179333	671.869141	258.543060
19512.557713	16892.179333	670.651367	106.499092
19512.557713	16892.179333	669.434570	229.340561
19512.557713	16892.179333	668.216797	183.827255
19512.557713	16892.179333	667.000000	302.295685
19512.557713	16892.179333	665.781250	350.897583
19512.557713	16892.179333	664.563477	266.132141
19512.557713	16892.179333	663.344727	519.469543
19512.557713	16892.179333	662.125977	182.463257
19512.557713	16892.179333	660.907227	451.896851
19512.557713	16892.179333	659.688477	491.717926
19512.557713	16892.179333	658.468750	154.627289
19512.557713	16892.179333	657.249023	270.043976
19512.557713	16892.179333	656.029297	338.234131
19512.557713	16892.179333	654.808594	666.197144
19512.557713	16892.179333	653.587891	554.022339
19512.557713	16892.179333	652.367188	284.282501
19512.557713	16892.179333	651.146484	313.156006
19512.557713	16892.179333	649.924805	303.069733
19512.557713	16892.179333	648.704102	254.050507
19512.557713	16892.179333	647.482422	296.928131
19512.557713	16892.179333	646.259766	163.953018
19512.557713	16892.179333	645.037109	94.271919
19512.557713	16892.179333	643.815430	89.891251
19512.557713	16892.179333	642.591797	265.126740
19512.557713	16892.179333	641.369141	172.728683
19512.557713	16892.179333	640.145508	249.703857
19512.557713	16892.179333	638.921875	432.679962
19512.557713	16892.179333	637.698242	352.273102
19512.557713	16892.179333	636.474609	379.929474
19512.557713	16892.179333	635.250000	332.018860
19512.557713	16892.179333	634.025391	302.391968
19512.557713	16892.179333	632.800781	319.581024
19512.557713	16892.179333	631.575195	477.315033
19512.557713	16892.179333	630.349609	257.896210
19512.557713	16892.179333	629.124023	-63.385315
19512.557713	16892.179333	627.898438	53.336742
19512.557713	16892.179333	626.671875	-164.068130
19512.557713	16892.179333	625.445313	200.866699
19512.557713	16892.179333	624.218750	26.109194
19512.557713	16892.179333	622.992188	109.824593
19512.557713	16892.179333	621.764648	179.179123
19512.557713	16892.179333	620.537109	162.983490
19512.557713	16892.179333	619.309570	-22.098911
19512.557713	16892.179333	618.081055	12.441779
19512.557713	16892.179333	616.852539	-3.935022
19512.557713	16892.179333	615.624023	225.576706
19512.557713	16892.179333	614.395508	5.798649
19512.557713	16892.179333	613.166992	-59.539310
19512.557713	16892.179333	611.937500	-281.337585
19512.557713	16892.179333	610.708008	-214.712585
19512.557713	16892.179333	609.477539	-192.855759
19512.557713	16892.179333	608.248047	19.756914
19512.557713	16892.179333	607.017578	-9.311755
19512.557713	16892.179333	605.787109	-26.255968
19512.557713	16892.179333	604.555664	-177.152084
19512.557713	16892.179333	603.325195	16.778284
19512.557713	16892.179333	602.093750	-95.646461
19512.557713	16892.179333	600.861328	-49.940472
19512.557713	16892.179333	599.629883	62.590973
19512.557713	16892.179333	598.397461	108.141075
19512.557713	16892.179333	597.165039	123.228958
19512.557713	16892.179333	595.932617	32.922684
19512.557713	16892.179333	594.699219	-83.725357
19512.557713	16892.179333	593.465820	-263.141205
19512.557713	16892.179333	592.232422	-276.516510
19512.557713	16892.179333	590.999023	-4.539001
19512.557713	16892.179333	589.764648	-109.111450
19512.557713	16892.179333	588.530273	158.586395
19512.557713	16892.179333	587.295898	-251.486694
19512.557713	16892.179333	586.061523	169.753082
19512.557713	16892.179333	584.826172	-325.138092
19512.557713	16892.179333	583.590820	-120.425804
19512.557713	16892.179333	582.355469	-214.942230
19512.557713	16892.179333	581.119141	-16.465212
19512.557713	16892.179333	579.882813	10.188986
19512.557713	16892.179333	578.646484	-199.501266
19512.557713	16892.179333	577.410156	-19.399397
19512.557713	16892.179333	576.172852	69.751846
19512.557713	16892.179333	574.935547	110.403877
19512.557713	16892.179333	573.698242	235.777252
19512.557713	16892.179333	572.460938	129.061264
19512.557713	16892.179333	571.222656	-60.330608
19512.557713	16892.179333	569.984375	-94.364891
19512.557713	16892.179333	568.746094	-9.434333
19512.557713	16892.179333	567.506836	-156.375488
19512.557713	16892.179333	566.267578	115.948616
19512.557713	16892.179333	565.028320	-4.772731
19512.557713	16892.179333	563.789063	142.491501
19512.557713	16892.179333	562.548828	15.766046
19512.557713	16892.179333	561.309570	144.840637
19512.557713	16892.179333	560.068359	181.242981
19512.557713	16892.179333	558.828125	-72.211388
19512.557713	16892.179333	557.586914	-144.439636
19512.557713	16892.179333	556.345703	-214.615479
19512.557713	16892.179333	555.104492	165.833038
19512.557713	16892.179333	553.863281	-29.049509
19512.557713	16892.179333	552.621094	103.902115
19512.557713	16892.179333	551.378906	1.609783
19512.557713	16892.179333	550.136719	-116.702332
19512.557713	16892.179333	548.893555	58.421986
19512.557713	16892.179333	547.650391	221.433777
19512.557713	16892.179333	546.407227	30.894978
19512.557713	16892.179333	545.164063	-115.362953
19512.557713	16892.179333	543.919922	-167.180756
19512.557713	16892.179333	542.675781	-36.291210
19512.557713	16892.179333	541.431641	82.525650
19512.557713	16892.179333	540.186523	36.790367
19512.557713	16892.179333	538.941406	61.310947
19512.557713	16892.179333	537.696289	7.633392
19512.557713	16892.179333	536.451172	122.436462
19512.557713	16892.179333	535.205078	177.078476
19512.557713	16892.179333	533.959961	29.302691
19512.557713	16892.179333	532.712891	-78.310112
19512.557713	16892.179333	531.466797	212.836700
19512.557713	16892.179333	530.219727	-133.053070
19512.557713	16892.179333	528.972656	-98.279549
19512.557713	16892.179333	527.725586	146.734009
19512.557713	16892.179333	526.478516	123.454887
19512.557713	16892.179333	525.230469	0.157047
19512.557713	16892.179333	523.982422	253.100494
19512.557713	16892.179333	522.734375	-192.159866
19512.557713	16892.179333	521.485352	-59.211529
19512.557713	16892.179333	520.236328	33.726597
19512.557713	16892.179333	518.987305	118.666183
19512.557713	16892.179333	517.737305	15.728507
19512.557713	16892.179333	516.488281	34.766167
19512.557713	16892.179333	515.238281	95.783417
19512.557713	16892.179333	513.988281	-56.910027
19512.557713	16892.179333	512.737305	40.113453
19512.557713	16892.179333	511.486328	161.087097
19512.557713	16892.179333	510.235352	-131.146179
19512.557713	16892.179333	508.984375	163.500549
19512.557713	16892.179333	507.732422	206.651779
19512.557713	16892.179333	506.480469	375.485413
19512.557713	16892.179333	505.228516	306.947357
19512.557713	16892.179333	503.976563	336.168915
19512.557713	16892.179333	502.723633	285.660828
19512.557713	16892.179333	501.470703	613.883545
19512.557713	16892.179333	500.217773	557.407349
19512.557713	16892.179333	498.963867	451.164429
19512.557713	16892.179333	497.709961	585.993591
19512.557713	16892.179333	496.456055	649.091614
19512.557713	16892.179333	495.202148	604.664795
19512.557713	16892.179333	493.947266	878.744385
19512.557713	16892.179333	492.692383	840.271851
19512.557713	16892.179333	491.437500	1165.923706
19512.557713	16892.179333	490.181641	910.582031
19512.557713	16892.179333	488.926758	1168.458618
19512.557713	16892.179333	487.670898	956.959351
19512.557713	16892.179333	486.414063	952.281433
19512.557713	16892.179333	485.158203	1186.096802
19512.557713	16892.179333	483.901367	837.572449
19512.557713	16892.179333	482.644531	1037.491943
19512.557713	16892.179333	481.386719	1126.062134
19512.557713	16892.179333	480.128906	942.507568
19512.557713	16892.179333	478.871094	1279.156738
19512.557713	16892.179333	477.613281	1065.789307
19512.557713	16892.179333	476.355469	1227.533936
19512.557713	16892.179333	475.096680	1307.799316
19512.557713	16892.179333	473.837891	1251.095825
19512.557713	16892.179333	472.578125	1352.999268
19512.557713	16892.179333	471.319336	1486.509399
19512.557713	16892.179333	470.059570	1596.084839
19512.557713	16892.179333	468.799805	1491.471313
19512.557713	16892.179333	467.539063	1372.926758
19512.557713	16892.179333	466.278320	1553.468140
19512.557713	16892.179333	465.017578	1551.592651
19512.557713	16892.179333	463.756836	1500.086426
19512.557713	16892.179333	462.495117	1587.047607
19512.557713	16892.179333	461.233398	1562.982178
19512.557713	16892.179333	459.971680	1445.759399
19512.557713	16892.179333	458.709961	1714.234131
19512.557713	16892.179333	457.447266	1432.500488
19512.557713	16892.179333	456.184570	1591.722046
19512.557713	16892.179333	454.921875	1657.744751
19512.557713	16892.179333	453.658203	1705.731567
19512.557713	16892.179333	452.394531	1789.048218
19512.557713	16892.179333	451.130859	1818.744507
19512.557713	16892.179333	449.867188	1848.177002
19512.557713	16892.179333	448.602539	1575.136719
19512.557713	16892.179333	447.337891	1744.265991
19512.557713	16892.179333	446.073242	1897.238037
19512.557713	16892.179333	444.807617	1828.762085
19512.557713	16892.179333	443.542969	2150.734375
19512.557713	16892.179333	442.276367	1955.296631
19512.557713	16892.179333	441.010742	1846.390747
19512.557713	16892.179333	439.744141	1871.257324
19512.557713	16892.179333	438.478516	2167.825928
19512.557713	16892.179333	437.210938	2331.770020
19512.557713	16892.179333	435.944336	1821.202759
19512.557713	16892.179333	434.676758	1972.459839
19512.557713	16892.179333	433.409180	2225.630127
19512.557713	16892.179333	432.141602	2220.195801
19512.557713	16892.179333	430.873047	1926.759521
19512.557713	16892.179333	429.604492	2154.630127
19512.557713	16892.179333	428.335938	2322.809570
19512.557713	16892.179333	427.067383	2368.338379
19512.557713	16892.179333	425.797852	2190.926514
19512.557713	16892.179333	424.528320	2485.057861
19512.557713	16892.179333	423.258789	2406.737793
19512.557713	16892.179333	421.988281	2103.633789
19512.557713	16892.179333	420.717773	2116.451904
19512.557713	16892.179333	419.447266	2468.544922
19512.557713	16892.179333	418.175781	2279.387695
19512.557713	16892.179333	416.905273	2071.876465
19512.557713	16892.179333	415.633789	2171.990479
19512.557713	16892.179333	414.362305	2031.675171
19512.557713	16892.179333	413.089844	2116.307617
19512.557713	16892.179333	411.817383	2164.684570
19512.557713	16892.179333	410.544922	1962.906006
19512.557713	16892.179333	409.272461	1936.833374
19512.557713	16892.179333	407.999023	2035.298828
19512.557713	16892.179333	406.725586	2307.233398
19512.557713	16892.179333	405.452148	2140.779297
19512.557713	16892.179333	404.177734	1973.285156
19512.557713	16892.179333	402.903320	2233.924072
19512.557713	16892.179333	401.628906	2162.157959
19512.557713	16892.179333	400.354492	2159.742432
19512.557713	16892.179333	399.079102	1913.209106
19512.557713	16892.179333	397.803711	2160.890869
19512.557713	16892.179333	396.528320	1784.615234
19512.557713	16892.179333	395.251953	2172.378418
19512.557713	16892.179333	393.976563	2110.493408
19512.557713	16892.179333	392.700195	1859.343994
19512.557713	16892.179333	391.422852	1974.490479
19512.557713	16892.179333	390.145508	1912.049805
19512.557713	16892.179333	388.869141	1752.280884
19512.557713	16892.179333	387.590820	1747.250488
19512.557713	16892.179333	386.313477	1756.205688
19512.557713	16892.179333	385.035156	1902.101929
19512.557713	16892.179333	383.756836	1792.210938
19512.557713	16892.179333	382.478516	1713.725830
19512.557713	16892.179333	381.199219	2025.801636
19512.557713	16892.179333	379.919922	1728.687256
19512.557713	16892.179333	378.640625	1827.840088
19512.557713	16892.179333	377.360352	1891.672607
19512.557713	16892.179333	376.080078	1531.975586
19512.557713	16892.179333	374.799805	1677.363037
19512.557713	16892.179333	373.519531	1752.197876
19512.557713	16892.179333	372.238281	1719.369263
19512.557713	16892.179333	370.957031	1479.530640
19512.557713	16892.179333	369.675781	1469.260010
19512.557713	16892.179333	368.394531	1400.001099
19512.557713	16892.179333	367.112305	1723.562012
19512.557713	16892.179333	365.830078	1415.326782
19512.557713	16892.179333	364.546875	1334.206055
19512.557713	16892.179333	363.264648	1275.715698
19512.557713	16892.179333	361.981445	1473.173828
19512.557713	16892.179333	360.698242	1348.523560
19512.557713	16892.179333	359.414063	1308.391479
19512.557713	16892.179333	358.129883	1119.331299
19512.557713	16892.179333	356.845703	1220.811279
19512.557713	16892.179333	355.561523	1105.165283
19512.557713	16892.179333	354.276367	939.517822
19512.557713	16892.179333	352.991211	1359.328247
19512.557713	16892.179333	351.706055	1217.886719
19512.557713	16892.179333	350.420898	857.329285
19512.557713	16892.179333	349.134766	646.583923
19512.557713	16892.179333	347.848633	771.931946
19512.557713	16892.179333	346.561523	1011.682739
19512.557713	16892.179333	345.275391	834.122009
19512.557713	16892.179333	343.988281	627.270081
19512.557713	16892.179333	342.700195	827.499512
19512.557713	16892.179333	341.413086	286.542542
19512.557713	16892.179333	340.125000	834.942261
19512.557713	16892.179333	338.836914	721.488098
19512.557713	16892.179333	337.548828	584.152161
19512.557713	16892.179333	336.259766	769.562927
19512.557713	16892.179333	334.970703	665.341980
19512.557713	16892.179333	333.681641	13.963645
19512.557713	16892.179333	332.391602	322.082306
19512.557713	16892.179333	331.101563	158.371078
19512.557713	16892.179333	329.811523	243.063721
19512.557713	16892.179333	328.521484	244.962341
19512.557713	16892.179333	327.230469	7.132881
19512.557713	16892.179333	325.939453	98.444809
19512.557713	16892.179333	324.648438	120.172340
19512.557713	16892.179333	323.356445	73.998688
19512.557713	16892.179333	322.064453	273.152618
19512.557713	16892.179333	320.772461	-82.768272
19512.557713	16892.179333	319.480469	26.669302
19512.557713	16892.179333	318.187500	1.984226
19512.557713	16892.179333	316.894531	-361.425903
19512.557713	16892.179333	315.601563	-248.621216
19512.557713	16892.179333	314.307617	113.867622
19512.557713	16892.179333	313.013672	171.980499
19512.557713	16892.179333	311.719727	31.901865
19512.557713	16892.179333	310.425781	-150.121765
19512.557713	16892.179333	309.130859	-36.896770
19512.557713	16892.179333	307.835938	-75.955025
19512.557713	16892.179333	306.541016	41.123814
19512.557713	16892.179333	305.245117	-212.394287
19512.557713	16892.179333	303.949219	-244.571579
19512.557713	16892.179333	302.653320	61.808865
19512.557713	16892.179333	301.356445	478.790894
19512.557713	16892.179333	300.060547	78.361908
19512.557713	16892.179333	298.763672	410.353882
