#X		#Y		#Wave		#Intensity
19477.924574	16935.486833	2000.043945	-189.675919
19477.924574	16935.486833	1999.080078	87.671852
19477.924574	16935.486833	1998.116211	-34.292175
19477.924574	16935.486833	1997.151367	113.617226
19477.924574	16935.486833	1996.186523	-338.429688
19477.924574	16935.486833	1995.222656	39.261822
19477.924574	16935.486833	1994.256836	47.516132
19477.924574	16935.486833	1993.291992	159.481522
19477.924574	16935.486833	1992.327148	-3.685275
19477.924574	16935.486833	1991.361328	53.265034
19477.924574	16935.486833	1990.395508	50.537037
19477.924574	16935.486833	1989.429688	332.123413
19477.924574	16935.486833	1988.463867	-81.842621
19477.924574	16935.486833	1987.497070	139.822342
19477.924574	16935.486833	1986.531250	-155.720673
19477.924574	16935.486833	1985.564453	-149.709061
19477.924574	16935.486833	1984.597656	217.017807
19477.924574	16935.486833	1983.630859	14.893407
19477.924574	16935.486833	1982.664063	136.366760
19477.924574	16935.486833	1981.696289	99.467033
19477.924574	16935.486833	1980.728516	20.382698
19477.924574	16935.486833	1979.761719	-34.179420
19477.924574	16935.486833	1978.792969	481.548859
19477.924574	16935.486833	1977.825195	424.085236
19477.924574	16935.486833	1976.857422	235.629868
19477.924574	16935.486833	1975.888672	246.991425
19477.924574	16935.486833	1974.919922	134.796570
19477.924574	16935.486833	1973.951172	-4.660781
19477.924574	16935.486833	1972.982422	23.504969
19477.924574	16935.486833	1972.013672	364.712555
19477.924574	16935.486833	1971.043945	298.798676
19477.924574	16935.486833	1970.075195	37.992050
19477.924574	16935.486833	1969.105469	637.379211
19477.924574	16935.486833	1968.135742	245.716309
19477.924574	16935.486833	1967.165039	322.220032
19477.924574	16935.486833	1966.195313	228.574966
19477.924574	16935.486833	1965.224609	304.791992
19477.924574	16935.486833	1964.253906	324.217346
19477.924574	16935.486833	1963.283203	213.022934
19477.924574	16935.486833	1962.312500	318.378601
19477.924574	16935.486833	1961.341797	418.661133
19477.924574	16935.486833	1960.370117	38.958900
19477.924574	16935.486833	1959.399414	-99.606819
19477.924574	16935.486833	1958.427734	175.033203
19477.924574	16935.486833	1957.455078	392.913391
19477.924574	16935.486833	1956.483398	433.569489
19477.924574	16935.486833	1955.511719	247.940796
19477.924574	16935.486833	1954.539063	386.751404
19477.924574	16935.486833	1953.566406	432.039307
19477.924574	16935.486833	1952.593750	509.168976
19477.924574	16935.486833	1951.621094	492.838776
19477.924574	16935.486833	1950.647461	-132.686905
19477.924574	16935.486833	1949.674805	221.769073
19477.924574	16935.486833	1948.701172	251.931671
19477.924574	16935.486833	1947.727539	498.038239
19477.924574	16935.486833	1946.753906	-4.586261
19477.924574	16935.486833	1945.780273	47.488548
19477.924574	16935.486833	1944.805664	153.463806
19477.924574	16935.486833	1943.831055	-98.792221
19477.924574	16935.486833	1942.856445	41.390858
19477.924574	16935.486833	1941.881836	-429.091980
19477.924574	16935.486833	1940.907227	105.701012
19477.924574	16935.486833	1939.932617	314.244781
19477.924574	16935.486833	1938.957031	25.179197
19477.924574	16935.486833	1937.981445	-136.410675
19477.924574	16935.486833	1937.005859	98.877625
19477.924574	16935.486833	1936.030273	378.126190
19477.924574	16935.486833	1935.054688	209.088959
19477.924574	16935.486833	1934.078125	324.098694
19477.924574	16935.486833	1933.101563	201.578278
19477.924574	16935.486833	1932.125000	-165.679489
19477.924574	16935.486833	1931.148438	-89.918961
19477.924574	16935.486833	1930.171875	5.353757
19477.924574	16935.486833	1929.194336	156.830399
19477.924574	16935.486833	1928.217773	256.856934
19477.924574	16935.486833	1927.240234	12.053331
19477.924574	16935.486833	1926.262695	297.826721
19477.924574	16935.486833	1925.284180	268.161469
19477.924574	16935.486833	1924.306641	-15.678432
19477.924574	16935.486833	1923.328125	62.192204
19477.924574	16935.486833	1922.350586	171.769745
19477.924574	16935.486833	1921.372070	132.302521
19477.924574	16935.486833	1920.392578	315.059265
19477.924574	16935.486833	1919.414063	131.495255
19477.924574	16935.486833	1918.434570	331.245331
19477.924574	16935.486833	1917.456055	-35.328979
19477.924574	16935.486833	1916.476563	-77.229736
19477.924574	16935.486833	1915.497070	229.758453
19477.924574	16935.486833	1914.516602	129.265823
19477.924574	16935.486833	1913.537109	-115.094231
19477.924574	16935.486833	1912.556641	116.115425
19477.924574	16935.486833	1911.576172	-20.895773
19477.924574	16935.486833	1910.595703	-238.296982
19477.924574	16935.486833	1909.615234	39.088299
19477.924574	16935.486833	1908.633789	-151.449829
19477.924574	16935.486833	1907.653320	-183.579361
19477.924574	16935.486833	1906.671875	-308.250183
19477.924574	16935.486833	1905.690430	85.815269
19477.924574	16935.486833	1904.708984	158.348038
19477.924574	16935.486833	1903.727539	260.059540
19477.924574	16935.486833	1902.745117	106.184975
19477.924574	16935.486833	1901.762695	310.072083
19477.924574	16935.486833	1900.780273	44.326752
19477.924574	16935.486833	1899.797852	175.173950
19477.924574	16935.486833	1898.815430	-75.856674
19477.924574	16935.486833	1897.832031	332.163208
19477.924574	16935.486833	1896.849609	287.840698
19477.924574	16935.486833	1895.866211	301.875854
19477.924574	16935.486833	1894.882813	208.977585
19477.924574	16935.486833	1893.898438	164.712769
19477.924574	16935.486833	1892.915039	-39.870239
19477.924574	16935.486833	1891.930664	355.545715
19477.924574	16935.486833	1890.947266	-113.686340
19477.924574	16935.486833	1889.962891	-89.872406
19477.924574	16935.486833	1888.977539	-126.748749
19477.924574	16935.486833	1887.993164	132.480896
19477.924574	16935.486833	1887.007813	-23.323477
19477.924574	16935.486833	1886.023438	150.878464
19477.924574	16935.486833	1885.038086	-4.867770
19477.924574	16935.486833	1884.051758	137.748260
19477.924574	16935.486833	1883.066406	-56.731201
19477.924574	16935.486833	1882.081055	221.596359
19477.924574	16935.486833	1881.094727	112.014297
19477.924574	16935.486833	1880.108398	164.838531
19477.924574	16935.486833	1879.122070	-22.228018
19477.924574	16935.486833	1878.135742	20.912081
19477.924574	16935.486833	1877.148438	105.213974
19477.924574	16935.486833	1876.162109	153.155273
19477.924574	16935.486833	1875.174805	-133.031235
19477.924574	16935.486833	1874.187500	-5.180174
19477.924574	16935.486833	1873.199219	134.726028
19477.924574	16935.486833	1872.211914	1.143420
19477.924574	16935.486833	1871.223633	-267.867188
19477.924574	16935.486833	1870.236328	-55.435665
19477.924574	16935.486833	1869.248047	-191.329422
19477.924574	16935.486833	1868.258789	-269.142609
19477.924574	16935.486833	1867.270508	49.531960
19477.924574	16935.486833	1866.282227	116.713654
19477.924574	16935.486833	1865.292969	48.540970
19477.924574	16935.486833	1864.303711	-343.371613
19477.924574	16935.486833	1863.314453	-186.788300
19477.924574	16935.486833	1862.324219	-56.832321
19477.924574	16935.486833	1861.334961	46.501102
19477.924574	16935.486833	1860.344727	-16.793898
19477.924574	16935.486833	1859.354492	-82.487663
19477.924574	16935.486833	1858.364258	247.630188
19477.924574	16935.486833	1857.374023	213.264175
19477.924574	16935.486833	1856.383789	10.025031
19477.924574	16935.486833	1855.392578	-115.958717
19477.924574	16935.486833	1854.401367	49.894131
19477.924574	16935.486833	1853.410156	-54.372108
19477.924574	16935.486833	1852.418945	130.671631
19477.924574	16935.486833	1851.426758	-183.281784
19477.924574	16935.486833	1850.435547	-58.555565
19477.924574	16935.486833	1849.443359	131.164383
19477.924574	16935.486833	1848.451172	161.814743
19477.924574	16935.486833	1847.458984	-74.896172
19477.924574	16935.486833	1846.466797	6.316133
19477.924574	16935.486833	1845.473633	-66.595840
19477.924574	16935.486833	1844.480469	214.339767
19477.924574	16935.486833	1843.487305	78.809792
19477.924574	16935.486833	1842.494141	70.836937
19477.924574	16935.486833	1841.500977	-247.487686
19477.924574	16935.486833	1840.506836	119.784386
19477.924574	16935.486833	1839.513672	10.746241
19477.924574	16935.486833	1838.519531	43.586514
19477.924574	16935.486833	1837.525391	-36.590015
19477.924574	16935.486833	1836.530273	-135.985382
19477.924574	16935.486833	1835.536133	65.003441
19477.924574	16935.486833	1834.541016	148.170349
19477.924574	16935.486833	1833.545898	-56.969654
19477.924574	16935.486833	1832.550781	30.940123
19477.924574	16935.486833	1831.555664	109.184082
19477.924574	16935.486833	1830.560547	273.798584
19477.924574	16935.486833	1829.564453	323.110687
19477.924574	16935.486833	1828.568359	46.002743
19477.924574	16935.486833	1827.572266	210.448563
19477.924574	16935.486833	1826.576172	-6.622900
19477.924574	16935.486833	1825.580078	-142.099121
19477.924574	16935.486833	1824.583008	-272.756714
19477.924574	16935.486833	1823.585938	169.616867
19477.924574	16935.486833	1822.588867	34.089218
19477.924574	16935.486833	1821.591797	4.028728
19477.924574	16935.486833	1820.594727	-38.036060
19477.924574	16935.486833	1819.596680	226.536041
19477.924574	16935.486833	1818.599609	215.509201
19477.924574	16935.486833	1817.601563	39.209469
19477.924574	16935.486833	1816.603516	193.361359
19477.924574	16935.486833	1815.604492	165.478943
19477.924574	16935.486833	1814.606445	166.285690
19477.924574	16935.486833	1813.607422	107.228470
19477.924574	16935.486833	1812.608398	7.479180
19477.924574	16935.486833	1811.609375	175.640625
19477.924574	16935.486833	1810.610352	37.561657
19477.924574	16935.486833	1809.610352	-69.421570
19477.924574	16935.486833	1808.611328	148.735214
19477.924574	16935.486833	1807.611328	72.753769
19477.924574	16935.486833	1806.611328	-43.871433
19477.924574	16935.486833	1805.610352	71.277603
19477.924574	16935.486833	1804.610352	-69.287682
19477.924574	16935.486833	1803.609375	435.050629
19477.924574	16935.486833	1802.608398	65.119225
19477.924574	16935.486833	1801.607422	-106.549377
19477.924574	16935.486833	1800.606445	237.421097
19477.924574	16935.486833	1799.605469	127.735023
19477.924574	16935.486833	1798.603516	199.396057
19477.924574	16935.486833	1797.601563	-313.544250
19477.924574	16935.486833	1796.599609	84.858780
19477.924574	16935.486833	1795.597656	-106.012711
19477.924574	16935.486833	1794.595703	-56.036331
19477.924574	16935.486833	1793.592773	108.297188
19477.924574	16935.486833	1792.589844	-177.977859
19477.924574	16935.486833	1791.587891	-35.246906
19477.924574	16935.486833	1790.583984	64.489510
19477.924574	16935.486833	1789.581055	40.252190
19477.924574	16935.486833	1788.577148	23.112679
19477.924574	16935.486833	1787.574219	-22.657896
19477.924574	16935.486833	1786.570313	-163.701096
19477.924574	16935.486833	1785.566406	68.967018
19477.924574	16935.486833	1784.561523	125.370888
19477.924574	16935.486833	1783.557617	212.623947
19477.924574	16935.486833	1782.552734	85.670128
19477.924574	16935.486833	1781.547852	289.321777
19477.924574	16935.486833	1780.542969	131.357635
19477.924574	16935.486833	1779.538086	341.929565
19477.924574	16935.486833	1778.532227	103.061638
19477.924574	16935.486833	1777.527344	130.414978
19477.924574	16935.486833	1776.521484	93.534409
19477.924574	16935.486833	1775.515625	4.328386
19477.924574	16935.486833	1774.508789	150.260269
19477.924574	16935.486833	1773.502930	-292.928223
19477.924574	16935.486833	1772.496094	218.543594
19477.924574	16935.486833	1771.489258	159.975082
19477.924574	16935.486833	1770.482422	42.018181
19477.924574	16935.486833	1769.475586	104.397057
19477.924574	16935.486833	1768.467773	211.766159
19477.924574	16935.486833	1767.460938	176.684433
19477.924574	16935.486833	1766.453125	72.763893
19477.924574	16935.486833	1765.445313	118.206703
19477.924574	16935.486833	1764.437500	220.463684
19477.924574	16935.486833	1763.428711	320.237793
19477.924574	16935.486833	1762.420898	310.879761
19477.924574	16935.486833	1761.412109	396.237305
19477.924574	16935.486833	1760.403320	-68.147217
19477.924574	16935.486833	1759.393555	-91.858124
19477.924574	16935.486833	1758.384766	40.666843
19477.924574	16935.486833	1757.375000	87.827576
19477.924574	16935.486833	1756.366211	11.796023
19477.924574	16935.486833	1755.356445	330.983521
19477.924574	16935.486833	1754.345703	112.797852
19477.924574	16935.486833	1753.335938	-8.375736
19477.924574	16935.486833	1752.325195	54.930382
19477.924574	16935.486833	1751.315430	115.769775
19477.924574	16935.486833	1750.304688	-83.597237
19477.924574	16935.486833	1749.292969	-79.649590
19477.924574	16935.486833	1748.282227	63.680439
19477.924574	16935.486833	1747.270508	303.769958
19477.924574	16935.486833	1746.259766	-188.777878
19477.924574	16935.486833	1745.248047	-81.179939
19477.924574	16935.486833	1744.235352	255.403229
19477.924574	16935.486833	1743.223633	74.622200
19477.924574	16935.486833	1742.211914	-35.338688
19477.924574	16935.486833	1741.199219	-131.174240
19477.924574	16935.486833	1740.186523	171.806122
19477.924574	16935.486833	1739.173828	141.881638
19477.924574	16935.486833	1738.160156	-29.666134
19477.924574	16935.486833	1737.147461	-57.339993
19477.924574	16935.486833	1736.133789	-127.535805
19477.924574	16935.486833	1735.120117	-89.322311
19477.924574	16935.486833	1734.106445	-367.094055
19477.924574	16935.486833	1733.091797	-194.663513
19477.924574	16935.486833	1732.078125	88.379425
19477.924574	16935.486833	1731.063477	265.210480
19477.924574	16935.486833	1730.048828	206.333588
19477.924574	16935.486833	1729.034180	-66.917175
19477.924574	16935.486833	1728.019531	-99.965576
19477.924574	16935.486833	1727.003906	-29.495577
19477.924574	16935.486833	1725.988281	-130.957947
19477.924574	16935.486833	1724.972656	-74.788124
19477.924574	16935.486833	1723.957031	56.574570
19477.924574	16935.486833	1722.941406	152.518936
19477.924574	16935.486833	1721.924805	-175.012344
19477.924574	16935.486833	1720.909180	-79.216759
19477.924574	16935.486833	1719.892578	-277.427856
19477.924574	16935.486833	1718.875977	-221.769669
19477.924574	16935.486833	1717.858398	45.301838
19477.924574	16935.486833	1716.841797	-99.011749
19477.924574	16935.486833	1715.824219	3.326553
19477.924574	16935.486833	1714.806641	190.107162
19477.924574	16935.486833	1713.789063	177.121338
19477.924574	16935.486833	1712.770508	272.067078
19477.924574	16935.486833	1711.752930	369.250305
19477.924574	16935.486833	1710.734375	346.613556
19477.924574	16935.486833	1709.715820	58.744587
19477.924574	16935.486833	1708.697266	78.253059
19477.924574	16935.486833	1707.678711	268.914703
19477.924574	16935.486833	1706.659180	-110.471275
19477.924574	16935.486833	1705.640625	227.722260
19477.924574	16935.486833	1704.621094	24.163687
19477.924574	16935.486833	1703.600586	509.708618
19477.924574	16935.486833	1702.581055	224.002243
19477.924574	16935.486833	1701.561523	249.949158
19477.924574	16935.486833	1700.541016	-47.462299
19477.924574	16935.486833	1699.520508	561.557556
19477.924574	16935.486833	1698.500000	212.534622
19477.924574	16935.486833	1697.478516	-138.773483
19477.924574	16935.486833	1696.458008	151.351593
19477.924574	16935.486833	1695.436523	118.327110
19477.924574	16935.486833	1694.415039	132.038864
19477.924574	16935.486833	1693.393555	307.094788
19477.924574	16935.486833	1692.372070	-53.610092
19477.924574	16935.486833	1691.349609	376.164032
19477.924574	16935.486833	1690.327148	469.022034
19477.924574	16935.486833	1689.304688	253.210541
19477.924574	16935.486833	1688.282227	329.558258
19477.924574	16935.486833	1687.259766	468.899689
19477.924574	16935.486833	1686.236328	255.337723
19477.924574	16935.486833	1685.213867	445.890991
19477.924574	16935.486833	1684.190430	323.362213
19477.924574	16935.486833	1683.166016	324.556519
19477.924574	16935.486833	1682.142578	577.813232
19477.924574	16935.486833	1681.119141	546.157104
19477.924574	16935.486833	1680.094727	507.442535
19477.924574	16935.486833	1679.070313	541.003723
19477.924574	16935.486833	1678.045898	604.816040
19477.924574	16935.486833	1677.020508	367.677063
19477.924574	16935.486833	1675.996094	174.878174
19477.924574	16935.486833	1674.970703	306.139099
19477.924574	16935.486833	1673.945313	409.315857
19477.924574	16935.486833	1672.919922	733.784119
19477.924574	16935.486833	1671.893555	713.226257
19477.924574	16935.486833	1670.868164	785.803162
19477.924574	16935.486833	1669.841797	546.195129
19477.924574	16935.486833	1668.815430	870.145142
19477.924574	16935.486833	1667.789063	828.392334
19477.924574	16935.486833	1666.761719	467.694855
19477.924574	16935.486833	1665.735352	667.960449
19477.924574	16935.486833	1664.708008	679.614929
19477.924574	16935.486833	1663.680664	616.768799
19477.924574	16935.486833	1662.653320	700.424866
19477.924574	16935.486833	1661.625000	1065.372437
19477.924574	16935.486833	1660.597656	1144.158325
19477.924574	16935.486833	1659.569336	502.237305
19477.924574	16935.486833	1658.541016	890.101013
19477.924574	16935.486833	1657.512695	982.660522
19477.924574	16935.486833	1656.483398	1126.239990
19477.924574	16935.486833	1655.455078	1132.677979
19477.924574	16935.486833	1654.425781	1250.534180
19477.924574	16935.486833	1653.396484	1068.775024
19477.924574	16935.486833	1652.366211	1423.285400
19477.924574	16935.486833	1651.336914	1350.562256
19477.924574	16935.486833	1650.306641	1379.920776
19477.924574	16935.486833	1649.276367	1237.538696
19477.924574	16935.486833	1648.246094	1542.860474
19477.924574	16935.486833	1647.215820	1446.804810
19477.924574	16935.486833	1646.185547	1554.794556
19477.924574	16935.486833	1645.154297	1521.282715
19477.924574	16935.486833	1644.123047	1566.552490
19477.924574	16935.486833	1643.091797	1400.886230
19477.924574	16935.486833	1642.060547	1506.329834
19477.924574	16935.486833	1641.028320	1695.084106
19477.924574	16935.486833	1639.997070	1853.630981
19477.924574	16935.486833	1638.964844	1815.250366
19477.924574	16935.486833	1637.931641	1709.706665
19477.924574	16935.486833	1636.899414	1956.015381
19477.924574	16935.486833	1635.867188	1586.607910
19477.924574	16935.486833	1634.833984	1571.319702
19477.924574	16935.486833	1633.800781	1748.016357
19477.924574	16935.486833	1632.767578	1894.550659
19477.924574	16935.486833	1631.734375	1511.450928
19477.924574	16935.486833	1630.700195	1662.538818
19477.924574	16935.486833	1629.666016	1942.992920
19477.924574	16935.486833	1628.631836	1943.671387
19477.924574	16935.486833	1627.597656	1773.341309
19477.924574	16935.486833	1626.563477	1732.427246
19477.924574	16935.486833	1625.528320	1853.184570
19477.924574	16935.486833	1624.493164	1802.989136
19477.924574	16935.486833	1623.458008	2076.035400
19477.924574	16935.486833	1622.422852	1811.099609
19477.924574	16935.486833	1621.387695	2014.767090
19477.924574	16935.486833	1620.351563	1978.353516
19477.924574	16935.486833	1619.315430	1988.082520
19477.924574	16935.486833	1618.279297	2189.244141
19477.924574	16935.486833	1617.243164	1989.042480
19477.924574	16935.486833	1616.207031	2289.252441
19477.924574	16935.486833	1615.169922	1989.958984
19477.924574	16935.486833	1614.132813	1951.217896
19477.924574	16935.486833	1613.095703	2106.053711
19477.924574	16935.486833	1612.058594	2081.117920
19477.924574	16935.486833	1611.020508	1982.468750
19477.924574	16935.486833	1609.983398	1994.407227
19477.924574	16935.486833	1608.945313	2471.452881
19477.924574	16935.486833	1607.907227	2227.747070
19477.924574	16935.486833	1606.868164	2377.715088
19477.924574	16935.486833	1605.830078	2014.459106
19477.924574	16935.486833	1604.791016	2171.316650
19477.924574	16935.486833	1603.751953	1870.353394
19477.924574	16935.486833	1602.712891	2066.284912
19477.924574	16935.486833	1601.673828	2296.637939
19477.924574	16935.486833	1600.633789	2198.146484
19477.924574	16935.486833	1599.594727	2419.205322
19477.924574	16935.486833	1598.554688	2373.601807
19477.924574	16935.486833	1597.513672	2004.053589
19477.924574	16935.486833	1596.473633	2431.793701
19477.924574	16935.486833	1595.433594	2507.978027
19477.924574	16935.486833	1594.392578	2388.955566
19477.924574	16935.486833	1593.351563	2481.211670
19477.924574	16935.486833	1592.310547	2121.257080
19477.924574	16935.486833	1591.268555	2479.771484
19477.924574	16935.486833	1590.227539	2624.784180
19477.924574	16935.486833	1589.185547	2657.344238
19477.924574	16935.486833	1588.143555	2410.093018
19477.924574	16935.486833	1587.100586	2385.391602
19477.924574	16935.486833	1586.058594	2429.509521
19477.924574	16935.486833	1585.015625	2260.451172
19477.924574	16935.486833	1583.972656	2508.592041
19477.924574	16935.486833	1582.929688	2374.007568
19477.924574	16935.486833	1581.886719	2145.575928
19477.924574	16935.486833	1580.843750	2354.741455
19477.924574	16935.486833	1579.799805	2289.049316
19477.924574	16935.486833	1578.755859	2157.015381
19477.924574	16935.486833	1577.711914	2295.183838
19477.924574	16935.486833	1576.666992	2362.377197
19477.924574	16935.486833	1575.623047	2255.682617
19477.924574	16935.486833	1574.578125	1940.870728
19477.924574	16935.486833	1573.533203	1994.480713
19477.924574	16935.486833	1572.488281	2114.427979
19477.924574	16935.486833	1571.443359	1813.666626
19477.924574	16935.486833	1570.397461	2201.138428
19477.924574	16935.486833	1569.351563	2238.812500
19477.924574	16935.486833	1568.305664	1915.474731
19477.924574	16935.486833	1567.259766	1971.558105
19477.924574	16935.486833	1566.213867	1856.352905
19477.924574	16935.486833	1565.166992	1750.367432
19477.924574	16935.486833	1564.120117	1975.550659
19477.924574	16935.486833	1563.073242	1983.823730
19477.924574	16935.486833	1562.026367	2158.760010
19477.924574	16935.486833	1560.978516	1514.456177
19477.924574	16935.486833	1559.930664	1929.073608
19477.924574	16935.486833	1558.883789	1663.836548
19477.924574	16935.486833	1557.834961	1615.403564
19477.924574	16935.486833	1556.787109	1744.903442
19477.924574	16935.486833	1555.739258	1967.879883
19477.924574	16935.486833	1554.690430	1652.916260
19477.924574	16935.486833	1553.641602	1787.064453
19477.924574	16935.486833	1552.592773	1554.403564
19477.924574	16935.486833	1551.542969	1581.573730
19477.924574	16935.486833	1550.494141	1604.247437
19477.924574	16935.486833	1549.444336	1570.045532
19477.924574	16935.486833	1548.394531	1629.263672
19477.924574	16935.486833	1547.344727	1681.695923
19477.924574	16935.486833	1546.293945	1486.123169
19477.924574	16935.486833	1545.244141	1424.940063
19477.924574	16935.486833	1544.193359	1188.689819
19477.924574	16935.486833	1543.142578	988.992065
19477.924574	16935.486833	1542.090820	1096.415039
19477.924574	16935.486833	1541.040039	1017.454407
19477.924574	16935.486833	1539.988281	1186.347168
19477.924574	16935.486833	1538.936523	1214.355225
19477.924574	16935.486833	1537.884766	817.548096
19477.924574	16935.486833	1536.833008	950.266602
19477.924574	16935.486833	1535.780273	1089.821533
19477.924574	16935.486833	1534.727539	895.603516
19477.924574	16935.486833	1533.674805	1117.006104
19477.924574	16935.486833	1532.622070	1172.705933
19477.924574	16935.486833	1531.569336	1074.147461
19477.924574	16935.486833	1530.515625	946.212341
19477.924574	16935.486833	1529.461914	1179.104980
19477.924574	16935.486833	1528.408203	808.691467
19477.924574	16935.486833	1527.354492	853.480835
19477.924574	16935.486833	1526.299805	1426.587158
19477.924574	16935.486833	1525.246094	993.142334
19477.924574	16935.486833	1524.191406	949.750977
19477.924574	16935.486833	1523.136719	664.027222
19477.924574	16935.486833	1522.081055	738.698975
19477.924574	16935.486833	1521.026367	836.086731
19477.924574	16935.486833	1519.970703	947.114136
19477.924574	16935.486833	1518.915039	603.125488
19477.924574	16935.486833	1517.859375	1160.270020
19477.924574	16935.486833	1516.802734	1002.143372
19477.924574	16935.486833	1515.747070	1106.651001
19477.924574	16935.486833	1514.690430	801.750549
19477.924574	16935.486833	1513.633789	791.102234
19477.924574	16935.486833	1512.577148	893.624878
19477.924574	16935.486833	1511.519531	939.685913
19477.924574	16935.486833	1510.461914	696.495911
19477.924574	16935.486833	1509.405273	767.645996
19477.924574	16935.486833	1508.346680	732.670898
19477.924574	16935.486833	1507.289063	365.730835
19477.924574	16935.486833	1506.231445	502.722687
19477.924574	16935.486833	1505.172852	531.369873
19477.924574	16935.486833	1504.114258	417.876495
19477.924574	16935.486833	1503.055664	638.618347
19477.924574	16935.486833	1501.996094	450.891418
19477.924574	16935.486833	1500.937500	51.248646
19477.924574	16935.486833	1499.877930	409.877045
19477.924574	16935.486833	1498.818359	276.773163
19477.924574	16935.486833	1497.757813	436.995056
19477.924574	16935.486833	1496.698242	437.188599
19477.924574	16935.486833	1495.637695	383.397003
19477.924574	16935.486833	1494.577148	331.997284
19477.924574	16935.486833	1493.516602	125.257607
19477.924574	16935.486833	1492.456055	360.272430
19477.924574	16935.486833	1491.394531	-24.092903
19477.924574	16935.486833	1490.333008	130.024353
19477.924574	16935.486833	1489.271484	142.357254
19477.924574	16935.486833	1488.209961	339.388855
19477.924574	16935.486833	1487.148438	196.627594
19477.924574	16935.486833	1486.085938	132.796722
19477.924574	16935.486833	1485.023438	289.584595
19477.924574	16935.486833	1483.960938	588.136292
19477.924574	16935.486833	1482.898438	504.397675
19477.924574	16935.486833	1481.834961	400.586670
19477.924574	16935.486833	1480.772461	126.105263
19477.924574	16935.486833	1479.708984	395.744141
19477.924574	16935.486833	1478.644531	348.580383
19477.924574	16935.486833	1477.581055	-73.564766
19477.924574	16935.486833	1476.517578	499.528656
19477.924574	16935.486833	1475.453125	481.887726
19477.924574	16935.486833	1474.388672	493.621338
19477.924574	16935.486833	1473.323242	258.665009
19477.924574	16935.486833	1472.258789	230.426666
19477.924574	16935.486833	1471.193359	592.501465
19477.924574	16935.486833	1470.127930	398.525177
19477.924574	16935.486833	1469.062500	484.845886
19477.924574	16935.486833	1467.997070	557.801941
19477.924574	16935.486833	1466.930664	682.544250
19477.924574	16935.486833	1465.865234	572.156982
19477.924574	16935.486833	1464.798828	332.158630
19477.924574	16935.486833	1463.731445	750.485474
19477.924574	16935.486833	1462.665039	747.619263
19477.924574	16935.486833	1461.597656	808.553772
19477.924574	16935.486833	1460.530273	1045.013428
19477.924574	16935.486833	1459.462891	1105.770142
19477.924574	16935.486833	1458.395508	971.650146
19477.924574	16935.486833	1457.327148	969.614258
19477.924574	16935.486833	1456.259766	976.460999
19477.924574	16935.486833	1455.191406	1118.767578
19477.924574	16935.486833	1454.123047	887.759583
19477.924574	16935.486833	1453.053711	977.923340
19477.924574	16935.486833	1451.985352	732.271362
19477.924574	16935.486833	1450.916016	746.153198
19477.924574	16935.486833	1449.846680	581.872070
19477.924574	16935.486833	1448.776367	898.985107
19477.924574	16935.486833	1447.707031	715.706787
19477.924574	16935.486833	1446.636719	784.002991
19477.924574	16935.486833	1445.566406	683.420349
19477.924574	16935.486833	1444.496094	834.517700
19477.924574	16935.486833	1443.425781	800.259949
19477.924574	16935.486833	1442.354492	231.060562
19477.924574	16935.486833	1441.283203	218.883575
19477.924574	16935.486833	1440.211914	392.217377
19477.924574	16935.486833	1439.140625	110.021057
19477.924574	16935.486833	1438.069336	457.241974
19477.924574	16935.486833	1436.997070	249.137848
19477.924574	16935.486833	1435.924805	30.834154
19477.924574	16935.486833	1434.852539	-45.653419
19477.924574	16935.486833	1433.780273	-86.531876
19477.924574	16935.486833	1432.707031	137.839798
19477.924574	16935.486833	1431.633789	48.219322
19477.924574	16935.486833	1430.560547	-2.631583
19477.924574	16935.486833	1429.487305	-0.716832
19477.924574	16935.486833	1428.413086	-94.818779
19477.924574	16935.486833	1427.339844	76.109749
19477.924574	16935.486833	1426.265625	127.463158
19477.924574	16935.486833	1425.191406	4.340123
19477.924574	16935.486833	1424.116211	-53.422096
19477.924574	16935.486833	1423.041992	313.101471
19477.924574	16935.486833	1421.966797	100.542603
19477.924574	16935.486833	1420.891602	91.393883
19477.924574	16935.486833	1419.816406	78.868095
19477.924574	16935.486833	1418.740234	-104.136360
19477.924574	16935.486833	1417.665039	216.554138
19477.924574	16935.486833	1416.588867	-66.478218
19477.924574	16935.486833	1415.512695	-428.825500
19477.924574	16935.486833	1414.435547	-195.692337
19477.924574	16935.486833	1413.359375	-82.185509
19477.924574	16935.486833	1412.282227	-60.698391
19477.924574	16935.486833	1411.205078	49.137318
19477.924574	16935.486833	1410.127930	-137.789932
19477.924574	16935.486833	1409.049805	-62.856098
19477.924574	16935.486833	1407.972656	-284.511078
19477.924574	16935.486833	1406.894531	-125.316925
19477.924574	16935.486833	1405.816406	-93.488106
19477.924574	16935.486833	1404.737305	-23.775087
19477.924574	16935.486833	1403.659180	-180.165939
19477.924574	16935.486833	1402.580078	-69.973740
19477.924574	16935.486833	1401.500977	-243.311905
19477.924574	16935.486833	1400.421875	-192.096771
19477.924574	16935.486833	1399.341797	80.171715
19477.924574	16935.486833	1398.262695	-195.708710
19477.924574	16935.486833	1397.182617	-133.903427
19477.924574	16935.486833	1396.102539	-49.503124
19477.924574	16935.486833	1395.021484	9.602126
19477.924574	16935.486833	1393.941406	108.533211
19477.924574	16935.486833	1392.860352	-236.038361
19477.924574	16935.486833	1391.779297	11.645781
19477.924574	16935.486833	1390.698242	81.454361
19477.924574	16935.486833	1389.616211	-99.201385
19477.924574	16935.486833	1388.535156	73.667297
19477.924574	16935.486833	1387.453125	158.065094
19477.924574	16935.486833	1386.371094	73.628654
19477.924574	16935.486833	1385.288086	92.568481
19477.924574	16935.486833	1384.206055	59.475834
19477.924574	16935.486833	1383.123047	207.502808
19477.924574	16935.486833	1382.040039	494.941772
19477.924574	16935.486833	1380.957031	159.200348
19477.924574	16935.486833	1379.873047	321.141968
19477.924574	16935.486833	1378.789063	243.669937
19477.924574	16935.486833	1377.705078	70.768036
19477.924574	16935.486833	1376.621094	121.248169
19477.924574	16935.486833	1375.537109	479.422241
19477.924574	16935.486833	1374.452148	583.611267
19477.924574	16935.486833	1373.367188	101.313492
19477.924574	16935.486833	1372.282227	167.581116
19477.924574	16935.486833	1371.197266	-11.031853
19477.924574	16935.486833	1370.112305	266.022766
19477.924574	16935.486833	1369.026367	78.152412
19477.924574	16935.486833	1367.940430	44.794247
19477.924574	16935.486833	1366.854492	227.791336
19477.924574	16935.486833	1365.767578	307.375641
19477.924574	16935.486833	1364.681641	200.360580
19477.924574	16935.486833	1363.594727	368.503815
19477.924574	16935.486833	1362.507813	291.364929
19477.924574	16935.486833	1361.419922	252.117676
19477.924574	16935.486833	1360.333008	105.256233
19477.924574	16935.486833	1359.245117	295.447266
19477.924574	16935.486833	1358.157227	478.886627
19477.924574	16935.486833	1357.069336	-1.615885
19477.924574	16935.486833	1355.981445	73.606895
19477.924574	16935.486833	1354.892578	239.469543
19477.924574	16935.486833	1353.803711	168.757278
19477.924574	16935.486833	1352.714844	519.486877
19477.924574	16935.486833	1351.625000	288.899414
19477.924574	16935.486833	1350.536133	218.123688
19477.924574	16935.486833	1349.446289	384.908325
19477.924574	16935.486833	1348.356445	548.909058
19477.924574	16935.486833	1347.266602	469.195343
19477.924574	16935.486833	1346.175781	716.756714
19477.924574	16935.486833	1345.085938	369.428101
19477.924574	16935.486833	1343.995117	526.423767
19477.924574	16935.486833	1342.903320	462.745148
19477.924574	16935.486833	1341.812500	457.161987
19477.924574	16935.486833	1340.720703	324.580658
19477.924574	16935.486833	1339.629883	222.797913
19477.924574	16935.486833	1338.538086	383.605194
19477.924574	16935.486833	1337.445313	725.536987
19477.924574	16935.486833	1336.353516	508.178558
19477.924574	16935.486833	1335.260742	525.374634
19477.924574	16935.486833	1334.167969	771.332336
19477.924574	16935.486833	1333.075195	641.929565
19477.924574	16935.486833	1331.981445	471.403107
19477.924574	16935.486833	1330.888672	489.218079
19477.924574	16935.486833	1329.794922	554.241577
19477.924574	16935.486833	1328.701172	499.838409
19477.924574	16935.486833	1327.606445	712.933167
19477.924574	16935.486833	1326.512695	732.527283
19477.924574	16935.486833	1325.417969	667.238586
19477.924574	16935.486833	1324.323242	808.212769
19477.924574	16935.486833	1323.227539	981.327759
19477.924574	16935.486833	1322.132813	677.461426
19477.924574	16935.486833	1321.037109	718.021118
19477.924574	16935.486833	1319.941406	617.347595
19477.924574	16935.486833	1318.845703	684.894775
19477.924574	16935.486833	1317.750000	624.903931
19477.924574	16935.486833	1316.653320	659.968201
19477.924574	16935.486833	1315.556641	735.164246
19477.924574	16935.486833	1314.459961	537.496948
19477.924574	16935.486833	1313.363281	589.865601
19477.924574	16935.486833	1312.265625	613.432007
19477.924574	16935.486833	1311.167969	553.262817
19477.924574	16935.486833	1310.070313	737.249512
19477.924574	16935.486833	1308.972656	390.586304
19477.924574	16935.486833	1307.874023	588.411865
19477.924574	16935.486833	1306.776367	543.072571
19477.924574	16935.486833	1305.677734	851.089111
19477.924574	16935.486833	1304.579102	670.590088
19477.924574	16935.486833	1303.479492	525.380554
19477.924574	16935.486833	1302.380859	573.554260
19477.924574	16935.486833	1301.281250	461.728149
19477.924574	16935.486833	1300.181641	485.595062
19477.924574	16935.486833	1299.081055	587.901550
19477.924574	16935.486833	1297.981445	482.133545
19477.924574	16935.486833	1296.880859	246.676010
19477.924574	16935.486833	1295.780273	377.383575
19477.924574	16935.486833	1294.679688	335.352783
19477.924574	16935.486833	1293.578125	92.717216
19477.924574	16935.486833	1292.476563	373.743408
19477.924574	16935.486833	1291.375000	247.570831
19477.924574	16935.486833	1290.273438	224.237396
19477.924574	16935.486833	1289.171875	168.769257
19477.924574	16935.486833	1288.069336	104.464348
19477.924574	16935.486833	1286.966797	257.174835
19477.924574	16935.486833	1285.864258	151.274597
19477.924574	16935.486833	1284.761719	237.578812
19477.924574	16935.486833	1283.658203	238.877777
19477.924574	16935.486833	1282.554688	384.041046
19477.924574	16935.486833	1281.451172	301.663177
19477.924574	16935.486833	1280.347656	364.678497
19477.924574	16935.486833	1279.244141	247.933456
19477.924574	16935.486833	1278.139648	253.197098
19477.924574	16935.486833	1277.035156	388.440308
19477.924574	16935.486833	1275.930664	43.294670
19477.924574	16935.486833	1274.825195	211.828156
19477.924574	16935.486833	1273.720703	121.645485
19477.924574	16935.486833	1272.615234	281.192352
19477.924574	16935.486833	1271.508789	205.350464
19477.924574	16935.486833	1270.403320	441.302460
19477.924574	16935.486833	1269.297852	437.544098
19477.924574	16935.486833	1268.191406	347.526276
19477.924574	16935.486833	1267.084961	349.860229
19477.924574	16935.486833	1265.977539	313.578949
19477.924574	16935.486833	1264.871094	224.888184
19477.924574	16935.486833	1263.763672	305.781036
19477.924574	16935.486833	1262.656250	348.319733
19477.924574	16935.486833	1261.548828	368.842865
19477.924574	16935.486833	1260.440430	369.291870
19477.924574	16935.486833	1259.333008	547.143677
19477.924574	16935.486833	1258.224609	520.237305
19477.924574	16935.486833	1257.115234	501.075592
19477.924574	16935.486833	1256.006836	286.139221
19477.924574	16935.486833	1254.897461	441.523254
19477.924574	16935.486833	1253.788086	523.795532
19477.924574	16935.486833	1252.678711	315.591644
19477.924574	16935.486833	1251.569336	302.179901
19477.924574	16935.486833	1250.458984	310.029175
19477.924574	16935.486833	1249.349609	121.342667
19477.924574	16935.486833	1248.239258	-34.436718
19477.924574	16935.486833	1247.127930	195.844177
19477.924574	16935.486833	1246.017578	112.486084
19477.924574	16935.486833	1244.906250	392.363647
19477.924574	16935.486833	1243.794922	110.030975
19477.924574	16935.486833	1242.683594	233.572784
19477.924574	16935.486833	1241.571289	38.643635
19477.924574	16935.486833	1240.459961	23.565680
19477.924574	16935.486833	1239.347656	120.655060
19477.924574	16935.486833	1238.234375	197.070770
19477.924574	16935.486833	1237.122070	161.853699
19477.924574	16935.486833	1236.008789	326.743835
19477.924574	16935.486833	1234.896484	196.520340
19477.924574	16935.486833	1233.782227	269.209839
19477.924574	16935.486833	1232.668945	337.228699
19477.924574	16935.486833	1231.555664	131.325272
19477.924574	16935.486833	1230.441406	139.201019
19477.924574	16935.486833	1229.327148	78.720551
19477.924574	16935.486833	1228.211914	222.417343
19477.924574	16935.486833	1227.097656	514.043274
19477.924574	16935.486833	1225.982422	104.545372
19477.924574	16935.486833	1224.867188	67.153496
19477.924574	16935.486833	1223.751953	86.399719
19477.924574	16935.486833	1222.635742	154.616364
19477.924574	16935.486833	1221.520508	133.922546
19477.924574	16935.486833	1220.404297	69.636360
19477.924574	16935.486833	1219.287109	143.908997
19477.924574	16935.486833	1218.170898	-123.064156
19477.924574	16935.486833	1217.053711	-72.109612
19477.924574	16935.486833	1215.936523	15.295568
19477.924574	16935.486833	1214.819336	143.675690
19477.924574	16935.486833	1213.702148	-175.968353
19477.924574	16935.486833	1212.583984	-33.845406
19477.924574	16935.486833	1211.465820	56.188690
19477.924574	16935.486833	1210.347656	193.097702
19477.924574	16935.486833	1209.229492	105.173561
19477.924574	16935.486833	1208.110352	50.305023
19477.924574	16935.486833	1206.992188	35.619576
19477.924574	16935.486833	1205.873047	-30.403013
19477.924574	16935.486833	1204.752930	53.743965
19477.924574	16935.486833	1203.633789	-26.493500
19477.924574	16935.486833	1202.513672	-99.428726
19477.924574	16935.486833	1201.393555	-261.739624
19477.924574	16935.486833	1200.273438	-193.573639
19477.924574	16935.486833	1199.152344	-93.118347
19477.924574	16935.486833	1198.032227	-101.538788
19477.924574	16935.486833	1196.911133	-83.894615
19477.924574	16935.486833	1195.790039	-219.888931
19477.924574	16935.486833	1194.667969	-35.254330
19477.924574	16935.486833	1193.545898	37.659706
19477.924574	16935.486833	1192.424805	-152.025482
19477.924574	16935.486833	1191.301758	-33.296909
19477.924574	16935.486833	1190.179688	-160.530792
19477.924574	16935.486833	1189.056641	21.126842
19477.924574	16935.486833	1187.933594	-123.858864
19477.924574	16935.486833	1186.810547	-133.203659
19477.924574	16935.486833	1185.687500	-91.156525
19477.924574	16935.486833	1184.563477	-35.379982
19477.924574	16935.486833	1183.440430	-45.887646
19477.924574	16935.486833	1182.316406	-26.411909
19477.924574	16935.486833	1181.191406	-150.565109
19477.924574	16935.486833	1180.067383	-32.430897
19477.924574	16935.486833	1178.942383	-110.425491
19477.924574	16935.486833	1177.817383	-160.593063
19477.924574	16935.486833	1176.692383	6.003028
19477.924574	16935.486833	1175.566406	176.713638
19477.924574	16935.486833	1174.440430	-45.444695
19477.924574	16935.486833	1173.314453	-277.957184
19477.924574	16935.486833	1172.188477	-241.812897
19477.924574	16935.486833	1171.062500	-163.063446
19477.924574	16935.486833	1169.935547	-144.406998
19477.924574	16935.486833	1168.808594	-169.971268
19477.924574	16935.486833	1167.681641	-227.395706
19477.924574	16935.486833	1166.553711	-13.960658
19477.924574	16935.486833	1165.426758	60.958630
19477.924574	16935.486833	1164.298828	-34.693886
19477.924574	16935.486833	1163.170898	-110.893280
19477.924574	16935.486833	1162.041992	-68.234528
19477.924574	16935.486833	1160.914063	61.671265
19477.924574	16935.486833	1159.785156	-213.626877
19477.924574	16935.486833	1158.656250	-71.047134
19477.924574	16935.486833	1157.526367	32.397369
19477.924574	16935.486833	1156.397461	-118.849304
19477.924574	16935.486833	1155.267578	-0.472918
19477.924574	16935.486833	1154.137695	-157.698029
19477.924574	16935.486833	1153.006836	-36.067242
19477.924574	16935.486833	1151.876953	71.658920
19477.924574	16935.486833	1150.746094	-79.832687
19477.924574	16935.486833	1149.615234	-41.303444
19477.924574	16935.486833	1148.484375	-150.562561
19477.924574	16935.486833	1147.352539	-16.961504
19477.924574	16935.486833	1146.220703	-62.780979
19477.924574	16935.486833	1145.088867	-169.714920
19477.924574	16935.486833	1143.957031	-78.814682
19477.924574	16935.486833	1142.825195	-203.584717
19477.924574	16935.486833	1141.692383	-57.583813
19477.924574	16935.486833	1140.559570	131.013184
19477.924574	16935.486833	1139.426758	-83.634117
19477.924574	16935.486833	1138.292969	157.597000
19477.924574	16935.486833	1137.159180	21.922522
19477.924574	16935.486833	1136.025391	222.970856
19477.924574	16935.486833	1134.891602	-67.901047
19477.924574	16935.486833	1133.757813	294.898132
19477.924574	16935.486833	1132.623047	236.682190
19477.924574	16935.486833	1131.488281	79.712456
19477.924574	16935.486833	1130.353516	314.533417
19477.924574	16935.486833	1129.217773	161.689163
19477.924574	16935.486833	1128.083008	271.433868
19477.924574	16935.486833	1126.947266	236.164780
19477.924574	16935.486833	1125.811523	-112.286133
19477.924574	16935.486833	1124.674805	1.230488
19477.924574	16935.486833	1123.539063	38.098328
19477.924574	16935.486833	1122.402344	56.981651
19477.924574	16935.486833	1121.265625	102.980377
19477.924574	16935.486833	1120.127930	116.126411
19477.924574	16935.486833	1118.990234	182.373367
19477.924574	16935.486833	1117.853516	172.165359
19477.924574	16935.486833	1116.714844	110.094505
19477.924574	16935.486833	1115.577148	-69.144791
19477.924574	16935.486833	1114.439453	239.440231
19477.924574	16935.486833	1113.300781	149.574463
19477.924574	16935.486833	1112.162109	93.376068
19477.924574	16935.486833	1111.022461	148.464355
19477.924574	16935.486833	1109.883789	64.951462
19477.924574	16935.486833	1108.744141	175.396515
19477.924574	16935.486833	1107.604492	260.150421
19477.924574	16935.486833	1106.463867	44.431858
19477.924574	16935.486833	1105.324219	239.836014
19477.924574	16935.486833	1104.183594	210.116791
19477.924574	16935.486833	1103.042969	290.414490
19477.924574	16935.486833	1101.902344	169.621552
19477.924574	16935.486833	1100.760742	342.944580
19477.924574	16935.486833	1099.619141	269.602295
19477.924574	16935.486833	1098.477539	248.545761
19477.924574	16935.486833	1097.335938	457.425232
19477.924574	16935.486833	1096.193359	412.267365
19477.924574	16935.486833	1095.051758	208.725479
19477.924574	16935.486833	1093.909180	333.304138
19477.924574	16935.486833	1092.765625	421.389771
19477.924574	16935.486833	1091.623047	370.540466
19477.924574	16935.486833	1090.479492	378.803314
19477.924574	16935.486833	1089.335938	202.388062
19477.924574	16935.486833	1088.192383	350.353271
19477.924574	16935.486833	1087.047852	385.652832
19477.924574	16935.486833	1085.903320	321.158844
19477.924574	16935.486833	1084.758789	321.562714
19477.924574	16935.486833	1083.614258	202.651596
19477.924574	16935.486833	1082.469727	316.820007
19477.924574	16935.486833	1081.324219	348.334015
19477.924574	16935.486833	1080.178711	274.734131
19477.924574	16935.486833	1079.033203	471.065338
19477.924574	16935.486833	1077.886719	473.247803
19477.924574	16935.486833	1076.740234	381.201172
19477.924574	16935.486833	1075.593750	126.286865
19477.924574	16935.486833	1074.447266	18.546030
19477.924574	16935.486833	1073.300781	233.781494
19477.924574	16935.486833	1072.153320	94.965805
19477.924574	16935.486833	1071.005859	319.649933
19477.924574	16935.486833	1069.858398	335.789124
19477.924574	16935.486833	1068.709961	284.640869
19477.924574	16935.486833	1067.561523	175.260345
19477.924574	16935.486833	1066.413086	43.485565
19477.924574	16935.486833	1065.264648	-76.950836
19477.924574	16935.486833	1064.116211	427.162262
19477.924574	16935.486833	1062.966797	442.265625
19477.924574	16935.486833	1061.817383	164.991028
19477.924574	16935.486833	1060.667969	258.795715
19477.924574	16935.486833	1059.517578	330.674927
19477.924574	16935.486833	1058.368164	520.005981
19477.924574	16935.486833	1057.217773	487.222412
19477.924574	16935.486833	1056.067383	558.302185
19477.924574	16935.486833	1054.916016	176.554718
19477.924574	16935.486833	1053.764648	499.307678
19477.924574	16935.486833	1052.613281	335.391418
19477.924574	16935.486833	1051.461914	334.700775
19477.924574	16935.486833	1050.310547	329.300507
19477.924574	16935.486833	1049.158203	470.935303
19477.924574	16935.486833	1048.005859	441.812103
19477.924574	16935.486833	1046.853516	397.044586
19477.924574	16935.486833	1045.700195	375.150635
19477.924574	16935.486833	1044.547852	539.773071
19477.924574	16935.486833	1043.394531	442.976746
19477.924574	16935.486833	1042.240234	546.664063
19477.924574	16935.486833	1041.086914	430.023224
19477.924574	16935.486833	1039.932617	489.071777
19477.924574	16935.486833	1038.778320	537.304443
19477.924574	16935.486833	1037.624023	322.791901
19477.924574	16935.486833	1036.469727	457.343170
19477.924574	16935.486833	1035.314453	524.463928
19477.924574	16935.486833	1034.159180	875.758545
19477.924574	16935.486833	1033.003906	538.483337
19477.924574	16935.486833	1031.847656	704.489502
19477.924574	16935.486833	1030.692383	1111.197021
19477.924574	16935.486833	1029.536133	995.040222
19477.924574	16935.486833	1028.378906	556.989990
19477.924574	16935.486833	1027.222656	1128.326172
19477.924574	16935.486833	1026.065430	685.177917
19477.924574	16935.486833	1024.908203	516.871033
19477.924574	16935.486833	1023.750977	537.425476
19477.924574	16935.486833	1022.593750	319.964874
19477.924574	16935.486833	1021.435547	387.992157
19477.924574	16935.486833	1020.277344	327.358734
19477.924574	16935.486833	1019.119141	199.799515
19477.924574	16935.486833	1017.959961	525.539978
19477.924574	16935.486833	1016.800781	368.937561
19477.924574	16935.486833	1015.641602	97.426437
19477.924574	16935.486833	1014.482422	218.528641
19477.924574	16935.486833	1013.323242	244.641174
19477.924574	16935.486833	1012.163086	374.766571
19477.924574	16935.486833	1011.002930	341.873993
19477.924574	16935.486833	1009.842773	411.008972
19477.924574	16935.486833	1008.681641	393.257782
19477.924574	16935.486833	1007.520508	276.267548
19477.924574	16935.486833	1006.359375	425.724396
19477.924574	16935.486833	1005.198242	253.685593
19477.924574	16935.486833	1004.037109	164.575500
19477.924574	16935.486833	1002.875000	534.390381
19477.924574	16935.486833	1001.712891	243.670212
19477.924574	16935.486833	1000.550781	342.579681
19477.924574	16935.486833	999.387695	133.962509
19477.924574	16935.486833	998.224609	226.716309
19477.924574	16935.486833	997.061523	-107.164169
19477.924574	16935.486833	995.898438	122.765068
19477.924574	16935.486833	994.734375	158.986191
19477.924574	16935.486833	993.571289	165.286667
19477.924574	16935.486833	992.407227	-100.356148
19477.924574	16935.486833	991.242188	-220.844116
19477.924574	16935.486833	990.078125	-61.684387
19477.924574	16935.486833	988.913086	243.602066
19477.924574	16935.486833	987.748047	-88.559273
19477.924574	16935.486833	986.583008	299.045135
19477.924574	16935.486833	985.416992	-59.118534
19477.924574	16935.486833	984.250977	73.971062
19477.924574	16935.486833	983.084961	190.666153
19477.924574	16935.486833	981.918945	33.213470
19477.924574	16935.486833	980.751953	-37.022545
19477.924574	16935.486833	979.584961	80.622238
19477.924574	16935.486833	978.417969	-37.339802
19477.924574	16935.486833	977.250977	-1.029095
19477.924574	16935.486833	976.083008	129.512360
19477.924574	16935.486833	974.915039	-138.965179
19477.924574	16935.486833	973.747070	-77.775482
19477.924574	16935.486833	972.579102	11.074298
19477.924574	16935.486833	971.410156	208.547836
19477.924574	16935.486833	970.242188	46.584976
19477.924574	16935.486833	969.072266	341.090912
19477.924574	16935.486833	967.903320	219.495773
19477.924574	16935.486833	966.733398	129.300262
19477.924574	16935.486833	965.563477	158.723740
19477.924574	16935.486833	964.393555	279.710266
19477.924574	16935.486833	963.223633	-16.831318
19477.924574	16935.486833	962.052734	178.886581
19477.924574	16935.486833	960.881836	261.485870
19477.924574	16935.486833	959.710938	202.928101
19477.924574	16935.486833	958.540039	39.794052
19477.924574	16935.486833	957.368164	179.408249
19477.924574	16935.486833	956.196289	139.472824
19477.924574	16935.486833	955.024414	154.127090
19477.924574	16935.486833	953.851563	-10.376797
19477.924574	16935.486833	952.679688	64.999817
19477.924574	16935.486833	951.506836	161.246887
19477.924574	16935.486833	950.333984	370.892853
19477.924574	16935.486833	949.160156	101.213181
19477.924574	16935.486833	947.986328	-53.763622
19477.924574	16935.486833	946.812500	-37.474392
19477.924574	16935.486833	945.638672	-160.842316
19477.924574	16935.486833	944.464844	100.365662
19477.924574	16935.486833	943.290039	161.026398
19477.924574	16935.486833	942.115234	-94.983772
19477.924574	16935.486833	940.940430	159.560379
19477.924574	16935.486833	939.764648	263.184021
19477.924574	16935.486833	938.588867	134.162048
19477.924574	16935.486833	937.413086	78.164970
19477.924574	16935.486833	936.237305	37.810600
19477.924574	16935.486833	935.060547	-9.506856
19477.924574	16935.486833	933.883789	29.407465
19477.924574	16935.486833	932.707031	238.267059
19477.924574	16935.486833	931.530273	38.189724
19477.924574	16935.486833	930.352539	-146.942184
19477.924574	16935.486833	929.175781	-4.911148
19477.924574	16935.486833	927.998047	29.628954
19477.924574	16935.486833	926.819336	143.674728
19477.924574	16935.486833	925.641602	251.166473
19477.924574	16935.486833	924.462891	68.204056
19477.924574	16935.486833	923.284180	-60.902237
19477.924574	16935.486833	922.104492	162.680939
19477.924574	16935.486833	920.924805	-52.437271
19477.924574	16935.486833	919.746094	-44.503128
19477.924574	16935.486833	919.551758	21.854050
19477.924574	16935.486833	918.386719	116.185715
19477.924574	16935.486833	917.220703	-71.018936
19477.924574	16935.486833	916.054688	79.112968
19477.924574	16935.486833	914.887695	-135.966278
19477.924574	16935.486833	913.721680	-119.062126
19477.924574	16935.486833	912.554688	-108.620125
19477.924574	16935.486833	911.387695	-160.450943
19477.924574	16935.486833	910.220703	-295.977936
19477.924574	16935.486833	909.052734	-101.026268
19477.924574	16935.486833	907.885742	-204.368042
19477.924574	16935.486833	906.717773	-22.419706
19477.924574	16935.486833	905.548828	-153.632034
19477.924574	16935.486833	904.380859	-74.710640
19477.924574	16935.486833	903.211914	-111.577965
19477.924574	16935.486833	902.042969	-32.722343
19477.924574	16935.486833	900.874023	-88.897255
19477.924574	16935.486833	899.704102	-102.215149
19477.924574	16935.486833	898.535156	-104.840530
19477.924574	16935.486833	897.365234	-68.928429
19477.924574	16935.486833	896.194336	52.597687
19477.924574	16935.486833	895.024414	323.883911
19477.924574	16935.486833	893.853516	113.552437
19477.924574	16935.486833	892.682617	20.970469
19477.924574	16935.486833	891.511719	-63.027664
19477.924574	16935.486833	890.340820	32.644325
19477.924574	16935.486833	889.168945	-117.626190
19477.924574	16935.486833	887.997070	35.723289
19477.924574	16935.486833	886.825195	176.175507
19477.924574	16935.486833	885.653320	77.221001
19477.924574	16935.486833	884.480469	-47.334953
19477.924574	16935.486833	883.307617	221.187332
19477.924574	16935.486833	882.134766	184.194382
19477.924574	16935.486833	880.961914	104.502907
19477.924574	16935.486833	879.788086	-24.259668
19477.924574	16935.486833	878.614258	-5.708559
19477.924574	16935.486833	877.440430	-136.546646
19477.924574	16935.486833	876.266602	-26.260015
19477.924574	16935.486833	875.091797	-255.170502
19477.924574	16935.486833	873.916992	113.128128
19477.924574	16935.486833	872.742188	123.067741
19477.924574	16935.486833	871.567383	137.259857
19477.924574	16935.486833	870.391602	-91.521729
19477.924574	16935.486833	869.215820	108.080399
19477.924574	16935.486833	868.040039	-148.310547
19477.924574	16935.486833	866.864258	55.467705
19477.924574	16935.486833	865.687500	-104.984947
19477.924574	16935.486833	864.510742	-126.990799
19477.924574	16935.486833	863.333984	-151.121994
19477.924574	16935.486833	862.157227	-60.325657
19477.924574	16935.486833	860.979492	-137.662140
19477.924574	16935.486833	859.802734	-89.465553
19477.924574	16935.486833	858.625000	-22.145765
19477.924574	16935.486833	857.446289	-165.376541
19477.924574	16935.486833	856.268555	-149.105270
19477.924574	16935.486833	855.089844	28.701458
19477.924574	16935.486833	853.911133	159.678375
19477.924574	16935.486833	852.731445	-6.861927
19477.924574	16935.486833	851.552734	-186.091461
19477.924574	16935.486833	850.373047	-29.678032
19477.924574	16935.486833	849.193359	-193.971344
19477.924574	16935.486833	848.013672	-271.158905
19477.924574	16935.486833	846.833008	110.151863
19477.924574	16935.486833	845.652344	45.658154
19477.924574	16935.486833	844.471680	-40.030712
19477.924574	16935.486833	843.291016	99.159416
19477.924574	16935.486833	842.110352	91.951134
19477.924574	16935.486833	840.928711	-131.532593
19477.924574	16935.486833	839.747070	-159.897339
19477.924574	16935.486833	838.564453	57.610676
19477.924574	16935.486833	837.382813	56.753071
19477.924574	16935.486833	836.200195	-211.050385
19477.924574	16935.486833	835.017578	-78.415039
19477.924574	16935.486833	833.834961	-134.321533
19477.924574	16935.486833	832.651367	-52.578659
19477.924574	16935.486833	831.467773	-42.852566
19477.924574	16935.486833	830.284180	-132.610245
19477.924574	16935.486833	829.100586	73.902023
19477.924574	16935.486833	827.916992	-39.130428
19477.924574	16935.486833	826.732422	17.090944
19477.924574	16935.486833	825.547852	24.644094
19477.924574	16935.486833	824.363281	-81.984886
19477.924574	16935.486833	823.177734	270.127472
19477.924574	16935.486833	821.992188	190.951721
19477.924574	16935.486833	820.806641	-84.703842
19477.924574	16935.486833	819.621094	-34.927383
19477.924574	16935.486833	818.434570	101.417389
19477.924574	16935.486833	817.249023	-15.706674
19477.924574	16935.486833	816.062500	95.223267
19477.924574	16935.486833	814.875000	214.544739
19477.924574	16935.486833	813.688477	-151.576233
19477.924574	16935.486833	812.500977	-2.738004
19477.924574	16935.486833	811.313477	51.100243
19477.924574	16935.486833	810.125977	96.469398
19477.924574	16935.486833	808.937500	-128.090118
19477.924574	16935.486833	807.749023	24.792582
19477.924574	16935.486833	806.560547	-134.345764
19477.924574	16935.486833	805.372070	-183.853241
19477.924574	16935.486833	804.182617	44.753857
19477.924574	16935.486833	802.994141	-17.438438
19477.924574	16935.486833	801.803711	232.074432
19477.924574	16935.486833	800.614258	224.587814
19477.924574	16935.486833	799.424805	-50.260368
19477.924574	16935.486833	798.234375	-348.160370
19477.924574	16935.486833	797.043945	-84.120186
19477.924574	16935.486833	795.852539	101.955048
19477.924574	16935.486833	794.662109	205.899567
19477.924574	16935.486833	793.470703	32.200367
19477.924574	16935.486833	792.279297	241.206924
19477.924574	16935.486833	791.087891	155.821075
19477.924574	16935.486833	789.895508	347.867981
19477.924574	16935.486833	788.703125	214.130768
19477.924574	16935.486833	787.510742	59.417446
19477.924574	16935.486833	786.318359	129.483353
19477.924574	16935.486833	785.125000	44.108624
19477.924574	16935.486833	783.931641	32.228737
19477.924574	16935.486833	782.738281	79.100937
19477.924574	16935.486833	781.544922	333.687531
19477.924574	16935.486833	780.350586	260.840820
19477.924574	16935.486833	779.156250	20.179911
19477.924574	16935.486833	777.961914	238.895630
19477.924574	16935.486833	776.767578	237.325241
19477.924574	16935.486833	775.572266	122.527946
19477.924574	16935.486833	774.376953	229.921783
19477.924574	16935.486833	773.181641	-48.333744
19477.924574	16935.486833	771.986328	130.225586
19477.924574	16935.486833	770.790039	-208.694672
19477.924574	16935.486833	769.593750	168.718124
19477.924574	16935.486833	768.397461	-145.007416
19477.924574	16935.486833	767.201172	104.477684
19477.924574	16935.486833	766.003906	345.458923
19477.924574	16935.486833	764.806641	299.635712
19477.924574	16935.486833	763.609375	293.546478
19477.924574	16935.486833	762.412109	67.805756
19477.924574	16935.486833	761.213867	-5.217111
19477.924574	16935.486833	760.015625	308.540710
19477.924574	16935.486833	758.817383	164.353882
19477.924574	16935.486833	757.618164	57.812378
19477.924574	16935.486833	756.419922	103.800583
19477.924574	16935.486833	755.220703	304.319366
19477.924574	16935.486833	754.021484	256.175812
19477.924574	16935.486833	752.821289	406.387451
19477.924574	16935.486833	751.621094	-17.619421
19477.924574	16935.486833	750.420898	360.013855
19477.924574	16935.486833	749.220703	376.427185
19477.924574	16935.486833	748.020508	286.383545
19477.924574	16935.486833	746.819336	240.140503
19477.924574	16935.486833	745.618164	160.505371
19477.924574	16935.486833	744.416992	197.619995
19477.924574	16935.486833	743.214844	578.644226
19477.924574	16935.486833	742.012695	177.881531
19477.924574	16935.486833	740.810547	104.391754
19477.924574	16935.486833	739.608398	493.383179
19477.924574	16935.486833	738.406250	290.618713
19477.924574	16935.486833	737.203125	591.847839
19477.924574	16935.486833	736.000000	722.175049
19477.924574	16935.486833	734.795898	550.564575
19477.924574	16935.486833	733.592773	701.552551
19477.924574	16935.486833	732.388672	642.271240
19477.924574	16935.486833	731.184570	591.282349
19477.924574	16935.486833	729.979492	814.803772
19477.924574	16935.486833	728.775391	374.836945
19477.924574	16935.486833	727.570313	327.927795
19477.924574	16935.486833	726.365234	270.589386
19477.924574	16935.486833	725.160156	504.153015
19477.924574	16935.486833	723.954102	415.522034
19477.924574	16935.486833	722.748047	445.272095
19477.924574	16935.486833	721.541992	263.113464
19477.924574	16935.486833	720.334961	294.841888
19477.924574	16935.486833	719.128906	139.654831
19477.924574	16935.486833	717.921875	-25.904451
19477.924574	16935.486833	716.714844	55.476360
19477.924574	16935.486833	715.506836	55.852562
19477.924574	16935.486833	714.298828	-24.732948
19477.924574	16935.486833	713.090820	114.473091
19477.924574	16935.486833	711.882813	75.245438
19477.924574	16935.486833	710.674805	154.122528
19477.924574	16935.486833	709.465820	154.147690
19477.924574	16935.486833	708.256836	197.618042
19477.924574	16935.486833	707.047852	0.697038
19477.924574	16935.486833	705.837891	108.250145
19477.924574	16935.486833	704.627930	-107.343300
19477.924574	16935.486833	703.417969	122.195412
19477.924574	16935.486833	702.208008	-74.825684
19477.924574	16935.486833	700.998047	-48.338802
19477.924574	16935.486833	699.787109	44.277149
19477.924574	16935.486833	698.576172	138.847153
19477.924574	16935.486833	697.364258	129.900375
19477.924574	16935.486833	696.153320	178.775284
19477.924574	16935.486833	694.941406	173.810013
19477.924574	16935.486833	693.729492	98.497795
19477.924574	16935.486833	692.516602	-53.312057
19477.924574	16935.486833	691.304688	100.621765
19477.924574	16935.486833	690.091797	341.170166
19477.924574	16935.486833	688.878906	149.936081
19477.924574	16935.486833	687.665039	4.127974
19477.924574	16935.486833	686.451172	254.632095
19477.924574	16935.486833	685.237305	22.026159
19477.924574	16935.486833	684.023438	445.585175
19477.924574	16935.486833	682.809570	400.601776
19477.924574	16935.486833	681.594727	322.559540
19477.924574	16935.486833	680.379883	403.247467
19477.924574	16935.486833	679.165039	382.801971
19477.924574	16935.486833	677.949219	634.358826
19477.924574	16935.486833	676.733398	452.971008
19477.924574	16935.486833	675.517578	512.634277
19477.924574	16935.486833	674.301758	460.957733
19477.924574	16935.486833	673.084961	444.229370
19477.924574	16935.486833	671.869141	316.237732
19477.924574	16935.486833	670.651367	315.850952
19477.924574	16935.486833	669.434570	294.798096
19477.924574	16935.486833	668.216797	226.342651
19477.924574	16935.486833	667.000000	452.021759
19477.924574	16935.486833	665.781250	399.849304
19477.924574	16935.486833	664.563477	431.924469
19477.924574	16935.486833	663.344727	215.131241
19477.924574	16935.486833	662.125977	458.785309
19477.924574	16935.486833	660.907227	441.251831
19477.924574	16935.486833	659.688477	347.618652
19477.924574	16935.486833	658.468750	391.571625
19477.924574	16935.486833	657.249023	279.334930
19477.924574	16935.486833	656.029297	175.271835
19477.924574	16935.486833	654.808594	247.720428
19477.924574	16935.486833	653.587891	63.489117
19477.924574	16935.486833	652.367188	234.259628
19477.924574	16935.486833	651.146484	107.383659
19477.924574	16935.486833	649.924805	240.980286
19477.924574	16935.486833	648.704102	341.622223
19477.924574	16935.486833	647.482422	372.424500
19477.924574	16935.486833	646.259766	345.732758
19477.924574	16935.486833	645.037109	415.291626
19477.924574	16935.486833	643.815430	400.724945
19477.924574	16935.486833	642.591797	287.748199
19477.924574	16935.486833	641.369141	397.984344
19477.924574	16935.486833	640.145508	262.362183
19477.924574	16935.486833	638.921875	358.058350
19477.924574	16935.486833	637.698242	660.364258
19477.924574	16935.486833	636.474609	373.084991
19477.924574	16935.486833	635.250000	274.077393
19477.924574	16935.486833	634.025391	132.071259
19477.924574	16935.486833	632.800781	411.340485
19477.924574	16935.486833	631.575195	412.331665
19477.924574	16935.486833	630.349609	327.380341
19477.924574	16935.486833	629.124023	352.750671
19477.924574	16935.486833	627.898438	418.898285
19477.924574	16935.486833	626.671875	278.597778
19477.924574	16935.486833	625.445313	207.724091
19477.924574	16935.486833	624.218750	294.043427
19477.924574	16935.486833	622.992188	214.872894
19477.924574	16935.486833	621.764648	227.512253
19477.924574	16935.486833	620.537109	178.844604
19477.924574	16935.486833	619.309570	-37.187923
19477.924574	16935.486833	618.081055	16.065941
19477.924574	16935.486833	616.852539	-12.358133
19477.924574	16935.486833	615.624023	22.366821
19477.924574	16935.486833	614.395508	120.202553
19477.924574	16935.486833	613.166992	-81.691887
19477.924574	16935.486833	611.937500	-212.253296
19477.924574	16935.486833	610.708008	-69.826469
19477.924574	16935.486833	609.477539	-74.188072
19477.924574	16935.486833	608.248047	-180.440247
19477.924574	16935.486833	607.017578	-46.463474
19477.924574	16935.486833	605.787109	-276.986969
19477.924574	16935.486833	604.555664	-198.133301
19477.924574	16935.486833	603.325195	-333.023560
19477.924574	16935.486833	602.093750	-24.442883
19477.924574	16935.486833	600.861328	-271.310272
19477.924574	16935.486833	599.629883	-125.676208
19477.924574	16935.486833	598.397461	-276.988129
19477.924574	16935.486833	597.165039	-103.082199
19477.924574	16935.486833	595.932617	19.884512
19477.924574	16935.486833	594.699219	-88.874786
19477.924574	16935.486833	593.465820	46.106674
19477.924574	16935.486833	592.232422	213.470703
19477.924574	16935.486833	590.999023	-212.174072
19477.924574	16935.486833	589.764648	162.119827
19477.924574	16935.486833	588.530273	-470.455963
19477.924574	16935.486833	587.295898	-307.398254
19477.924574	16935.486833	586.061523	-176.918655
19477.924574	16935.486833	584.826172	-233.145950
19477.924574	16935.486833	583.590820	-117.030884
19477.924574	16935.486833	582.355469	-23.314346
19477.924574	16935.486833	581.119141	43.964684
19477.924574	16935.486833	579.882813	-55.001831
19477.924574	16935.486833	578.646484	24.324558
19477.924574	16935.486833	577.410156	156.245987
19477.924574	16935.486833	576.172852	12.635499
19477.924574	16935.486833	574.935547	83.677406
19477.924574	16935.486833	573.698242	118.214882
19477.924574	16935.486833	572.460938	211.393829
19477.924574	16935.486833	571.222656	-162.932297
19477.924574	16935.486833	569.984375	45.512722
19477.924574	16935.486833	568.746094	150.683411
19477.924574	16935.486833	567.506836	128.374557
19477.924574	16935.486833	566.267578	229.376160
19477.924574	16935.486833	565.028320	-29.492043
19477.924574	16935.486833	563.789063	265.454956
19477.924574	16935.486833	562.548828	160.191498
19477.924574	16935.486833	561.309570	75.155807
19477.924574	16935.486833	560.068359	149.674454
19477.924574	16935.486833	558.828125	141.359146
19477.924574	16935.486833	557.586914	34.106396
19477.924574	16935.486833	556.345703	-89.264404
19477.924574	16935.486833	555.104492	17.437538
19477.924574	16935.486833	553.863281	-105.909492
19477.924574	16935.486833	552.621094	107.621841
19477.924574	16935.486833	551.378906	38.725937
19477.924574	16935.486833	550.136719	-88.619377
19477.924574	16935.486833	548.893555	-56.682133
19477.924574	16935.486833	547.650391	59.874599
19477.924574	16935.486833	546.407227	-11.008518
19477.924574	16935.486833	545.164063	79.286888
19477.924574	16935.486833	543.919922	294.404785
19477.924574	16935.486833	542.675781	165.103912
19477.924574	16935.486833	541.431641	49.945869
19477.924574	16935.486833	540.186523	73.711288
19477.924574	16935.486833	538.941406	49.168537
19477.924574	16935.486833	537.696289	264.047119
19477.924574	16935.486833	536.451172	-19.995726
19477.924574	16935.486833	535.205078	21.859486
19477.924574	16935.486833	533.959961	373.329956
19477.924574	16935.486833	532.712891	7.030503
19477.924574	16935.486833	531.466797	-216.413818
19477.924574	16935.486833	530.219727	90.681831
19477.924574	16935.486833	528.972656	134.497528
19477.924574	16935.486833	527.725586	-128.985626
19477.924574	16935.486833	526.478516	-233.720215
19477.924574	16935.486833	525.230469	111.284775
19477.924574	16935.486833	523.982422	171.138870
19477.924574	16935.486833	522.734375	-27.886093
19477.924574	16935.486833	521.485352	232.610901
19477.924574	16935.486833	520.236328	99.864105
19477.924574	16935.486833	518.987305	113.576797
19477.924574	16935.486833	517.737305	85.182976
19477.924574	16935.486833	516.488281	46.793232
19477.924574	16935.486833	515.238281	-127.853546
19477.924574	16935.486833	513.988281	200.503799
19477.924574	16935.486833	512.737305	77.998177
19477.924574	16935.486833	511.486328	141.812408
19477.924574	16935.486833	510.235352	83.461609
19477.924574	16935.486833	508.984375	297.408081
19477.924574	16935.486833	507.732422	443.212067
19477.924574	16935.486833	506.480469	430.874298
19477.924574	16935.486833	505.228516	370.532501
19477.924574	16935.486833	503.976563	328.218811
19477.924574	16935.486833	502.723633	365.914948
19477.924574	16935.486833	501.470703	269.640656
19477.924574	16935.486833	500.217773	497.232300
19477.924574	16935.486833	498.963867	516.876343
19477.924574	16935.486833	497.709961	266.767822
19477.924574	16935.486833	496.456055	476.219360
19477.924574	16935.486833	495.202148	661.605896
19477.924574	16935.486833	493.947266	717.109253
19477.924574	16935.486833	492.692383	920.306702
19477.924574	16935.486833	491.437500	812.037659
19477.924574	16935.486833	490.181641	1049.014648
19477.924574	16935.486833	488.926758	1108.312012
19477.924574	16935.486833	487.670898	1225.400391
19477.924574	16935.486833	486.414063	1513.911255
19477.924574	16935.486833	485.158203	1505.199707
19477.924574	16935.486833	483.901367	1380.839233
19477.924574	16935.486833	482.644531	1252.509033
19477.924574	16935.486833	481.386719	1223.812988
19477.924574	16935.486833	480.128906	1384.330444
19477.924574	16935.486833	478.871094	1066.736694
19477.924574	16935.486833	477.613281	1398.355103
19477.924574	16935.486833	476.355469	1614.307983
19477.924574	16935.486833	475.096680	1621.111572
19477.924574	16935.486833	473.837891	1391.043579
19477.924574	16935.486833	472.578125	1564.858154
19477.924574	16935.486833	471.319336	1468.010376
19477.924574	16935.486833	470.059570	1500.370850
19477.924574	16935.486833	468.799805	1546.542603
19477.924574	16935.486833	467.539063	1779.436768
19477.924574	16935.486833	466.278320	1809.413452
19477.924574	16935.486833	465.017578	1878.998901
19477.924574	16935.486833	463.756836	1638.540771
19477.924574	16935.486833	462.495117	1632.405640
19477.924574	16935.486833	461.233398	1822.708984
19477.924574	16935.486833	459.971680	1931.387329
19477.924574	16935.486833	458.709961	1857.264160
19477.924574	16935.486833	457.447266	1798.877930
19477.924574	16935.486833	456.184570	1805.807861
19477.924574	16935.486833	454.921875	1663.788208
19477.924574	16935.486833	453.658203	1846.846313
19477.924574	16935.486833	452.394531	1861.097900
19477.924574	16935.486833	451.130859	1877.104248
19477.924574	16935.486833	449.867188	2087.088379
19477.924574	16935.486833	448.602539	2070.860352
19477.924574	16935.486833	447.337891	2080.136719
19477.924574	16935.486833	446.073242	2079.238770
19477.924574	16935.486833	444.807617	1897.871216
19477.924574	16935.486833	443.542969	1803.397583
19477.924574	16935.486833	442.276367	2153.960449
19477.924574	16935.486833	441.010742	1971.769775
19477.924574	16935.486833	439.744141	2068.257080
19477.924574	16935.486833	438.478516	2051.615479
19477.924574	16935.486833	437.210938	2066.236816
19477.924574	16935.486833	435.944336	1914.400513
19477.924574	16935.486833	434.676758	2094.291504
19477.924574	16935.486833	433.409180	2119.540039
19477.924574	16935.486833	432.141602	2322.158936
19477.924574	16935.486833	430.873047	2253.600830
19477.924574	16935.486833	429.604492	2293.217041
19477.924574	16935.486833	428.335938	2099.328613
19477.924574	16935.486833	427.067383	2205.065430
19477.924574	16935.486833	425.797852	2154.290039
19477.924574	16935.486833	424.528320	2349.626709
19477.924574	16935.486833	423.258789	1914.981567
19477.924574	16935.486833	421.988281	2083.446045
19477.924574	16935.486833	420.717773	2089.511230
19477.924574	16935.486833	419.447266	2297.985596
19477.924574	16935.486833	418.175781	2107.523193
19477.924574	16935.486833	416.905273	2265.254883
19477.924574	16935.486833	415.633789	2278.351807
19477.924574	16935.486833	414.362305	2314.321533
19477.924574	16935.486833	413.089844	2105.276611
19477.924574	16935.486833	411.817383	2242.040527
19477.924574	16935.486833	410.544922	2535.381836
19477.924574	16935.486833	409.272461	2195.973877
19477.924574	16935.486833	407.999023	2141.101563
19477.924574	16935.486833	406.725586	2134.496094
19477.924574	16935.486833	405.452148	2258.701660
19477.924574	16935.486833	404.177734	2086.879150
19477.924574	16935.486833	402.903320	2151.972168
19477.924574	16935.486833	401.628906	2223.829834
19477.924574	16935.486833	400.354492	2158.959473
19477.924574	16935.486833	399.079102	1969.177368
19477.924574	16935.486833	397.803711	2312.567627
19477.924574	16935.486833	396.528320	2116.506348
19477.924574	16935.486833	395.251953	2253.019287
19477.924574	16935.486833	393.976563	2584.495850
19477.924574	16935.486833	392.700195	1980.298462
19477.924574	16935.486833	391.422852	2106.809814
19477.924574	16935.486833	390.145508	1937.586426
19477.924574	16935.486833	388.869141	1959.199951
19477.924574	16935.486833	387.590820	1979.217163
19477.924574	16935.486833	386.313477	1807.537598
19477.924574	16935.486833	385.035156	1959.636230
19477.924574	16935.486833	383.756836	1929.728271
19477.924574	16935.486833	382.478516	1751.186523
19477.924574	16935.486833	381.199219	2011.621338
19477.924574	16935.486833	379.919922	2115.421875
19477.924574	16935.486833	378.640625	1825.738525
19477.924574	16935.486833	377.360352	2009.861694
19477.924574	16935.486833	376.080078	1739.854492
19477.924574	16935.486833	374.799805	1741.842529
19477.924574	16935.486833	373.519531	2050.797607
19477.924574	16935.486833	372.238281	1751.137451
19477.924574	16935.486833	370.957031	1760.273682
19477.924574	16935.486833	369.675781	1821.856079
19477.924574	16935.486833	368.394531	1675.845337
19477.924574	16935.486833	367.112305	1564.552856
19477.924574	16935.486833	365.830078	1734.090942
19477.924574	16935.486833	364.546875	1871.643066
19477.924574	16935.486833	363.264648	1653.130615
19477.924574	16935.486833	361.981445	1593.996338
19477.924574	16935.486833	360.698242	1495.031616
19477.924574	16935.486833	359.414063	1627.368896
19477.924574	16935.486833	358.129883	1401.640503
19477.924574	16935.486833	356.845703	1567.030396
19477.924574	16935.486833	355.561523	1292.429810
19477.924574	16935.486833	354.276367	1410.508179
19477.924574	16935.486833	352.991211	1076.945313
19477.924574	16935.486833	351.706055	1147.517944
19477.924574	16935.486833	350.420898	1298.427368
19477.924574	16935.486833	349.134766	1184.638428
19477.924574	16935.486833	347.848633	1110.152100
19477.924574	16935.486833	346.561523	981.285522
19477.924574	16935.486833	345.275391	770.914917
19477.924574	16935.486833	343.988281	708.476013
19477.924574	16935.486833	342.700195	939.706970
19477.924574	16935.486833	341.413086	806.944946
19477.924574	16935.486833	340.125000	887.801331
19477.924574	16935.486833	338.836914	577.351929
19477.924574	16935.486833	337.548828	639.825989
19477.924574	16935.486833	336.259766	538.264038
19477.924574	16935.486833	334.970703	849.959961
19477.924574	16935.486833	333.681641	847.865417
19477.924574	16935.486833	332.391602	419.275299
19477.924574	16935.486833	331.101563	636.518616
19477.924574	16935.486833	329.811523	598.112671
19477.924574	16935.486833	328.521484	472.994568
19477.924574	16935.486833	327.230469	365.753235
19477.924574	16935.486833	325.939453	495.661041
19477.924574	16935.486833	324.648438	32.114887
19477.924574	16935.486833	323.356445	457.045410
19477.924574	16935.486833	322.064453	288.380219
19477.924574	16935.486833	320.772461	148.704285
19477.924574	16935.486833	319.480469	-4.782633
19477.924574	16935.486833	318.187500	112.474442
19477.924574	16935.486833	316.894531	-55.720322
19477.924574	16935.486833	315.601563	-5.702219
19477.924574	16935.486833	314.307617	-5.206450
19477.924574	16935.486833	313.013672	-197.446121
19477.924574	16935.486833	311.719727	83.450256
19477.924574	16935.486833	310.425781	-391.921936
19477.924574	16935.486833	309.130859	9.623017
19477.924574	16935.486833	307.835938	-109.145988
19477.924574	16935.486833	306.541016	-102.081589
19477.924574	16935.486833	305.245117	51.604923
19477.924574	16935.486833	303.949219	210.742828
19477.924574	16935.486833	302.653320	203.128769
19477.924574	16935.486833	301.356445	-43.048332
19477.924574	16935.486833	300.060547	355.576385
19477.924574	16935.486833	298.763672	424.402588
