#X		#Y		#Wave		#Intensity
19460.635957	16963.236167	2000.043945	-6.844252
19460.635957	16963.236167	1999.080078	-189.891357
19460.635957	16963.236167	1998.116211	-127.264763
19460.635957	16963.236167	1997.151367	-92.453568
19460.635957	16963.236167	1996.186523	197.010788
19460.635957	16963.236167	1995.222656	42.407337
19460.635957	16963.236167	1994.256836	117.729233
19460.635957	16963.236167	1993.291992	21.649689
19460.635957	16963.236167	1992.327148	143.005249
19460.635957	16963.236167	1991.361328	-156.951813
19460.635957	16963.236167	1990.395508	131.787643
19460.635957	16963.236167	1989.429688	-45.217865
19460.635957	16963.236167	1988.463867	198.003967
19460.635957	16963.236167	1987.497070	27.649893
19460.635957	16963.236167	1986.531250	-130.683929
19460.635957	16963.236167	1985.564453	84.036377
19460.635957	16963.236167	1984.597656	9.055425
19460.635957	16963.236167	1983.630859	180.914566
19460.635957	16963.236167	1982.664063	3.910751
19460.635957	16963.236167	1981.696289	91.018295
19460.635957	16963.236167	1980.728516	197.529251
19460.635957	16963.236167	1979.761719	214.758240
19460.635957	16963.236167	1978.792969	-96.743279
19460.635957	16963.236167	1977.825195	144.617783
19460.635957	16963.236167	1976.857422	-73.541542
19460.635957	16963.236167	1975.888672	-42.615379
19460.635957	16963.236167	1974.919922	479.087311
19460.635957	16963.236167	1973.951172	270.062653
19460.635957	16963.236167	1972.982422	-55.062691
19460.635957	16963.236167	1972.013672	297.904236
19460.635957	16963.236167	1971.043945	95.721268
19460.635957	16963.236167	1970.075195	14.184728
19460.635957	16963.236167	1969.105469	-10.834139
19460.635957	16963.236167	1968.135742	-105.052155
19460.635957	16963.236167	1967.165039	-91.009941
19460.635957	16963.236167	1966.195313	100.202965
19460.635957	16963.236167	1965.224609	145.853867
19460.635957	16963.236167	1964.253906	275.040466
19460.635957	16963.236167	1963.283203	241.516403
19460.635957	16963.236167	1962.312500	55.226521
19460.635957	16963.236167	1961.341797	373.396759
19460.635957	16963.236167	1960.370117	46.599300
19460.635957	16963.236167	1959.399414	423.421417
19460.635957	16963.236167	1958.427734	435.921844
19460.635957	16963.236167	1957.455078	59.721874
19460.635957	16963.236167	1956.483398	207.284149
19460.635957	16963.236167	1955.511719	126.044907
19460.635957	16963.236167	1954.539063	344.609772
19460.635957	16963.236167	1953.566406	363.931580
19460.635957	16963.236167	1952.593750	432.293396
19460.635957	16963.236167	1951.621094	254.880417
19460.635957	16963.236167	1950.647461	271.488617
19460.635957	16963.236167	1949.674805	322.389526
19460.635957	16963.236167	1948.701172	110.489708
19460.635957	16963.236167	1947.727539	271.728058
19460.635957	16963.236167	1946.753906	180.046829
19460.635957	16963.236167	1945.780273	78.522942
19460.635957	16963.236167	1944.805664	72.669876
19460.635957	16963.236167	1943.831055	-23.991739
19460.635957	16963.236167	1942.856445	347.766937
19460.635957	16963.236167	1941.881836	101.424583
19460.635957	16963.236167	1940.907227	173.844543
19460.635957	16963.236167	1939.932617	219.241562
19460.635957	16963.236167	1938.957031	78.341019
19460.635957	16963.236167	1937.981445	-175.245163
19460.635957	16963.236167	1937.005859	-149.488159
19460.635957	16963.236167	1936.030273	197.099777
19460.635957	16963.236167	1935.054688	161.517914
19460.635957	16963.236167	1934.078125	3.518280
19460.635957	16963.236167	1933.101563	183.384216
19460.635957	16963.236167	1932.125000	84.159599
19460.635957	16963.236167	1931.148438	21.671429
19460.635957	16963.236167	1930.171875	59.512188
19460.635957	16963.236167	1929.194336	121.804413
19460.635957	16963.236167	1928.217773	-58.050758
19460.635957	16963.236167	1927.240234	53.149929
19460.635957	16963.236167	1926.262695	-28.820644
19460.635957	16963.236167	1925.284180	-122.971184
19460.635957	16963.236167	1924.306641	-11.797480
19460.635957	16963.236167	1923.328125	-81.457932
19460.635957	16963.236167	1922.350586	124.969406
19460.635957	16963.236167	1921.372070	-17.935717
19460.635957	16963.236167	1920.392578	-9.361034
19460.635957	16963.236167	1919.414063	30.966599
19460.635957	16963.236167	1918.434570	-148.394714
19460.635957	16963.236167	1917.456055	287.372864
19460.635957	16963.236167	1916.476563	37.309723
19460.635957	16963.236167	1915.497070	109.410309
19460.635957	16963.236167	1914.516602	-138.032120
19460.635957	16963.236167	1913.537109	-263.417053
19460.635957	16963.236167	1912.556641	40.430599
19460.635957	16963.236167	1911.576172	68.707954
19460.635957	16963.236167	1910.595703	145.755722
19460.635957	16963.236167	1909.615234	49.777821
19460.635957	16963.236167	1908.633789	131.739136
19460.635957	16963.236167	1907.653320	174.721802
19460.635957	16963.236167	1906.671875	-179.286652
19460.635957	16963.236167	1905.690430	124.373192
19460.635957	16963.236167	1904.708984	84.654907
19460.635957	16963.236167	1903.727539	-93.767281
19460.635957	16963.236167	1902.745117	209.811554
19460.635957	16963.236167	1901.762695	143.441071
19460.635957	16963.236167	1900.780273	-42.081650
19460.635957	16963.236167	1899.797852	52.231838
19460.635957	16963.236167	1898.815430	-123.405479
19460.635957	16963.236167	1897.832031	-172.497757
19460.635957	16963.236167	1896.849609	-27.052189
19460.635957	16963.236167	1895.866211	-15.305722
19460.635957	16963.236167	1894.882813	-268.418335
19460.635957	16963.236167	1893.898438	-71.898125
19460.635957	16963.236167	1892.915039	-176.649261
19460.635957	16963.236167	1891.930664	-283.750427
19460.635957	16963.236167	1890.947266	7.470196
19460.635957	16963.236167	1889.962891	-50.997665
19460.635957	16963.236167	1888.977539	-17.164057
19460.635957	16963.236167	1887.993164	-77.964943
19460.635957	16963.236167	1887.007813	16.593399
19460.635957	16963.236167	1886.023438	62.621674
19460.635957	16963.236167	1885.038086	-306.114868
19460.635957	16963.236167	1884.051758	94.107887
19460.635957	16963.236167	1883.066406	171.718719
19460.635957	16963.236167	1882.081055	-114.314171
19460.635957	16963.236167	1881.094727	55.475601
19460.635957	16963.236167	1880.108398	121.026558
19460.635957	16963.236167	1879.122070	41.205128
19460.635957	16963.236167	1878.135742	36.537868
19460.635957	16963.236167	1877.148438	-130.372162
19460.635957	16963.236167	1876.162109	175.006714
19460.635957	16963.236167	1875.174805	126.818878
19460.635957	16963.236167	1874.187500	13.316979
19460.635957	16963.236167	1873.199219	-80.755310
19460.635957	16963.236167	1872.211914	-77.983810
19460.635957	16963.236167	1871.223633	-87.282639
19460.635957	16963.236167	1870.236328	-55.442829
19460.635957	16963.236167	1869.248047	77.980934
19460.635957	16963.236167	1868.258789	-204.506485
19460.635957	16963.236167	1867.270508	-184.688492
19460.635957	16963.236167	1866.282227	59.918755
19460.635957	16963.236167	1865.292969	-82.195023
19460.635957	16963.236167	1864.303711	46.361073
19460.635957	16963.236167	1863.314453	34.775356
19460.635957	16963.236167	1862.324219	25.625435
19460.635957	16963.236167	1861.334961	11.654982
19460.635957	16963.236167	1860.344727	26.676590
19460.635957	16963.236167	1859.354492	-25.887741
19460.635957	16963.236167	1858.364258	305.304535
19460.635957	16963.236167	1857.374023	252.718979
19460.635957	16963.236167	1856.383789	-140.001083
19460.635957	16963.236167	1855.392578	142.803940
19460.635957	16963.236167	1854.401367	227.755142
19460.635957	16963.236167	1853.410156	204.175522
19460.635957	16963.236167	1852.418945	371.046204
19460.635957	16963.236167	1851.426758	113.657616
19460.635957	16963.236167	1850.435547	-20.742878
19460.635957	16963.236167	1849.443359	-82.811470
19460.635957	16963.236167	1848.451172	-176.179047
19460.635957	16963.236167	1847.458984	233.838654
19460.635957	16963.236167	1846.466797	-69.060448
19460.635957	16963.236167	1845.473633	189.099518
19460.635957	16963.236167	1844.480469	98.127136
19460.635957	16963.236167	1843.487305	-50.580456
19460.635957	16963.236167	1842.494141	41.368000
19460.635957	16963.236167	1841.500977	203.033691
19460.635957	16963.236167	1840.506836	342.978363
19460.635957	16963.236167	1839.513672	112.512039
19460.635957	16963.236167	1838.519531	40.804466
19460.635957	16963.236167	1837.525391	46.027576
19460.635957	16963.236167	1836.530273	255.522339
19460.635957	16963.236167	1835.536133	-78.160812
19460.635957	16963.236167	1834.541016	71.169167
19460.635957	16963.236167	1833.545898	95.510490
19460.635957	16963.236167	1832.550781	107.807159
19460.635957	16963.236167	1831.555664	26.427032
19460.635957	16963.236167	1830.560547	19.468418
19460.635957	16963.236167	1829.564453	509.342438
19460.635957	16963.236167	1828.568359	-136.112717
19460.635957	16963.236167	1827.572266	370.336060
19460.635957	16963.236167	1826.576172	147.291046
19460.635957	16963.236167	1825.580078	94.584923
19460.635957	16963.236167	1824.583008	123.398216
19460.635957	16963.236167	1823.585938	68.247063
19460.635957	16963.236167	1822.588867	317.509125
19460.635957	16963.236167	1821.591797	374.903900
19460.635957	16963.236167	1820.594727	206.992630
19460.635957	16963.236167	1819.596680	3.168577
19460.635957	16963.236167	1818.599609	-28.165035
19460.635957	16963.236167	1817.601563	103.320450
19460.635957	16963.236167	1816.603516	237.102463
19460.635957	16963.236167	1815.604492	222.365112
19460.635957	16963.236167	1814.606445	353.584290
19460.635957	16963.236167	1813.607422	82.676239
19460.635957	16963.236167	1812.608398	208.985779
19460.635957	16963.236167	1811.609375	122.296959
19460.635957	16963.236167	1810.610352	104.946556
19460.635957	16963.236167	1809.610352	-53.533913
19460.635957	16963.236167	1808.611328	-90.083862
19460.635957	16963.236167	1807.611328	176.895966
19460.635957	16963.236167	1806.611328	101.965652
19460.635957	16963.236167	1805.610352	91.521782
19460.635957	16963.236167	1804.610352	-52.765198
19460.635957	16963.236167	1803.609375	-75.241730
19460.635957	16963.236167	1802.608398	281.929901
19460.635957	16963.236167	1801.607422	-234.964203
19460.635957	16963.236167	1800.606445	64.680466
19460.635957	16963.236167	1799.605469	235.263351
19460.635957	16963.236167	1798.603516	205.274445
19460.635957	16963.236167	1797.601563	177.612381
19460.635957	16963.236167	1796.599609	18.698128
19460.635957	16963.236167	1795.597656	160.272995
19460.635957	16963.236167	1794.595703	144.347809
19460.635957	16963.236167	1793.592773	254.711166
19460.635957	16963.236167	1792.589844	55.101921
19460.635957	16963.236167	1791.587891	139.077667
19460.635957	16963.236167	1790.583984	122.882355
19460.635957	16963.236167	1789.581055	223.342697
19460.635957	16963.236167	1788.577148	430.870209
19460.635957	16963.236167	1787.574219	209.606720
19460.635957	16963.236167	1786.570313	112.156807
19460.635957	16963.236167	1785.566406	426.470978
19460.635957	16963.236167	1784.561523	31.368505
19460.635957	16963.236167	1783.557617	-9.123390
19460.635957	16963.236167	1782.552734	104.958778
19460.635957	16963.236167	1781.547852	80.958412
19460.635957	16963.236167	1780.542969	216.220596
19460.635957	16963.236167	1779.538086	51.760357
19460.635957	16963.236167	1778.532227	284.279449
19460.635957	16963.236167	1777.527344	112.571724
19460.635957	16963.236167	1776.521484	342.443604
19460.635957	16963.236167	1775.515625	139.735199
19460.635957	16963.236167	1774.508789	51.038612
19460.635957	16963.236167	1773.502930	-142.208954
19460.635957	16963.236167	1772.496094	255.786591
19460.635957	16963.236167	1771.489258	314.049316
19460.635957	16963.236167	1770.482422	445.785889
19460.635957	16963.236167	1769.475586	302.097382
19460.635957	16963.236167	1768.467773	462.081421
19460.635957	16963.236167	1767.460938	353.848175
19460.635957	16963.236167	1766.453125	134.093231
19460.635957	16963.236167	1765.445313	87.440880
19460.635957	16963.236167	1764.437500	232.759949
19460.635957	16963.236167	1763.428711	268.889893
19460.635957	16963.236167	1762.420898	409.197723
19460.635957	16963.236167	1761.412109	118.098923
19460.635957	16963.236167	1760.403320	156.325745
19460.635957	16963.236167	1759.393555	125.754509
19460.635957	16963.236167	1758.384766	485.858429
19460.635957	16963.236167	1757.375000	7.542646
19460.635957	16963.236167	1756.366211	92.737793
19460.635957	16963.236167	1755.356445	76.032265
19460.635957	16963.236167	1754.345703	-149.004013
19460.635957	16963.236167	1753.335938	-154.014008
19460.635957	16963.236167	1752.325195	153.129257
19460.635957	16963.236167	1751.315430	-15.312505
19460.635957	16963.236167	1750.304688	-11.169652
19460.635957	16963.236167	1749.292969	-158.428818
19460.635957	16963.236167	1748.282227	-52.808136
19460.635957	16963.236167	1747.270508	-91.482224
19460.635957	16963.236167	1746.259766	-40.448128
19460.635957	16963.236167	1745.248047	-3.703033
19460.635957	16963.236167	1744.235352	-40.286201
19460.635957	16963.236167	1743.223633	24.594975
19460.635957	16963.236167	1742.211914	-7.445849
19460.635957	16963.236167	1741.199219	-129.269958
19460.635957	16963.236167	1740.186523	-152.015961
19460.635957	16963.236167	1739.173828	-40.349735
19460.635957	16963.236167	1738.160156	61.742249
19460.635957	16963.236167	1737.147461	-98.116158
19460.635957	16963.236167	1736.133789	175.916275
19460.635957	16963.236167	1735.120117	105.506142
19460.635957	16963.236167	1734.106445	-68.697845
19460.635957	16963.236167	1733.091797	-94.442307
19460.635957	16963.236167	1732.078125	-124.979362
19460.635957	16963.236167	1731.063477	32.882992
19460.635957	16963.236167	1730.048828	159.970093
19460.635957	16963.236167	1729.034180	-45.159107
19460.635957	16963.236167	1728.019531	11.069959
19460.635957	16963.236167	1727.003906	248.461060
19460.635957	16963.236167	1725.988281	189.089966
19460.635957	16963.236167	1724.972656	-30.374971
19460.635957	16963.236167	1723.957031	-226.318054
19460.635957	16963.236167	1722.941406	-321.121674
19460.635957	16963.236167	1721.924805	-176.076096
19460.635957	16963.236167	1720.909180	107.568573
19460.635957	16963.236167	1719.892578	7.781981
19460.635957	16963.236167	1718.875977	-139.066452
19460.635957	16963.236167	1717.858398	195.840134
19460.635957	16963.236167	1716.841797	-190.835495
19460.635957	16963.236167	1715.824219	87.395233
19460.635957	16963.236167	1714.806641	243.292770
19460.635957	16963.236167	1713.789063	246.400665
19460.635957	16963.236167	1712.770508	444.295258
19460.635957	16963.236167	1711.752930	137.323730
19460.635957	16963.236167	1710.734375	-42.879528
19460.635957	16963.236167	1709.715820	-44.754776
19460.635957	16963.236167	1708.697266	26.018974
19460.635957	16963.236167	1707.678711	61.497105
19460.635957	16963.236167	1706.659180	42.935226
19460.635957	16963.236167	1705.640625	113.406204
19460.635957	16963.236167	1704.621094	258.783783
19460.635957	16963.236167	1703.600586	-116.324043
19460.635957	16963.236167	1702.581055	303.068146
19460.635957	16963.236167	1701.561523	192.704178
19460.635957	16963.236167	1700.541016	-119.160675
19460.635957	16963.236167	1699.520508	-0.036077
19460.635957	16963.236167	1698.500000	69.791672
19460.635957	16963.236167	1697.478516	-204.643021
19460.635957	16963.236167	1696.458008	124.872795
19460.635957	16963.236167	1695.436523	-161.317566
19460.635957	16963.236167	1694.415039	256.825439
19460.635957	16963.236167	1693.393555	230.250015
19460.635957	16963.236167	1692.372070	-105.128914
19460.635957	16963.236167	1691.349609	-70.970612
19460.635957	16963.236167	1690.327148	51.952316
19460.635957	16963.236167	1689.304688	-28.613111
19460.635957	16963.236167	1688.282227	61.396561
19460.635957	16963.236167	1687.259766	284.497925
19460.635957	16963.236167	1686.236328	357.922058
19460.635957	16963.236167	1685.213867	344.832672
19460.635957	16963.236167	1684.190430	411.081604
19460.635957	16963.236167	1683.166016	-115.830284
19460.635957	16963.236167	1682.142578	263.175110
19460.635957	16963.236167	1681.119141	249.860062
19460.635957	16963.236167	1680.094727	-22.542591
19460.635957	16963.236167	1679.070313	90.066391
19460.635957	16963.236167	1678.045898	95.270096
19460.635957	16963.236167	1677.020508	387.269958
19460.635957	16963.236167	1675.996094	58.859619
19460.635957	16963.236167	1674.970703	341.319763
19460.635957	16963.236167	1673.945313	-1.056691
19460.635957	16963.236167	1672.919922	218.278229
19460.635957	16963.236167	1671.893555	169.523819
19460.635957	16963.236167	1670.868164	281.480103
19460.635957	16963.236167	1669.841797	293.187103
19460.635957	16963.236167	1668.815430	353.744659
19460.635957	16963.236167	1667.789063	216.335571
19460.635957	16963.236167	1666.761719	-191.089111
19460.635957	16963.236167	1665.735352	113.749649
19460.635957	16963.236167	1664.708008	222.967651
19460.635957	16963.236167	1663.680664	280.918884
19460.635957	16963.236167	1662.653320	287.637756
19460.635957	16963.236167	1661.625000	378.024384
19460.635957	16963.236167	1660.597656	335.815247
19460.635957	16963.236167	1659.569336	3.006670
19460.635957	16963.236167	1658.541016	420.982178
19460.635957	16963.236167	1657.512695	385.643372
19460.635957	16963.236167	1656.483398	361.894196
19460.635957	16963.236167	1655.455078	561.112061
19460.635957	16963.236167	1654.425781	551.205139
19460.635957	16963.236167	1653.396484	729.344299
19460.635957	16963.236167	1652.366211	559.161804
19460.635957	16963.236167	1651.336914	590.949402
19460.635957	16963.236167	1650.306641	683.025269
19460.635957	16963.236167	1649.276367	503.589661
19460.635957	16963.236167	1648.246094	595.594971
19460.635957	16963.236167	1647.215820	949.608887
19460.635957	16963.236167	1646.185547	844.353333
19460.635957	16963.236167	1645.154297	669.564148
19460.635957	16963.236167	1644.123047	619.984680
19460.635957	16963.236167	1643.091797	651.512573
19460.635957	16963.236167	1642.060547	1035.188232
19460.635957	16963.236167	1641.028320	964.659607
19460.635957	16963.236167	1639.997070	989.107361
19460.635957	16963.236167	1638.964844	851.435303
19460.635957	16963.236167	1637.931641	982.351868
19460.635957	16963.236167	1636.899414	833.137390
19460.635957	16963.236167	1635.867188	931.596008
19460.635957	16963.236167	1634.833984	999.920471
19460.635957	16963.236167	1633.800781	1089.031982
19460.635957	16963.236167	1632.767578	1071.709229
19460.635957	16963.236167	1631.734375	922.580383
19460.635957	16963.236167	1630.700195	1254.394897
19460.635957	16963.236167	1629.666016	1174.622803
19460.635957	16963.236167	1628.631836	967.771240
19460.635957	16963.236167	1627.597656	1139.947021
19460.635957	16963.236167	1626.563477	1351.331055
19460.635957	16963.236167	1625.528320	1042.934570
19460.635957	16963.236167	1624.493164	907.862427
19460.635957	16963.236167	1623.458008	1160.734985
19460.635957	16963.236167	1622.422852	1201.145264
19460.635957	16963.236167	1621.387695	1239.239136
19460.635957	16963.236167	1620.351563	1418.078857
19460.635957	16963.236167	1619.315430	1163.134033
19460.635957	16963.236167	1618.279297	1275.052612
19460.635957	16963.236167	1617.243164	1391.552734
19460.635957	16963.236167	1616.207031	1717.844604
19460.635957	16963.236167	1615.169922	1456.173950
19460.635957	16963.236167	1614.132813	1676.332886
19460.635957	16963.236167	1613.095703	1239.678223
19460.635957	16963.236167	1612.058594	1522.037476
19460.635957	16963.236167	1611.020508	1329.787109
19460.635957	16963.236167	1609.983398	1384.066528
19460.635957	16963.236167	1608.945313	1482.088623
19460.635957	16963.236167	1607.907227	1536.360352
19460.635957	16963.236167	1606.868164	1542.295410
19460.635957	16963.236167	1605.830078	1840.519287
19460.635957	16963.236167	1604.791016	1547.348633
19460.635957	16963.236167	1603.751953	1741.995239
19460.635957	16963.236167	1602.712891	1688.210327
19460.635957	16963.236167	1601.673828	1356.249146
19460.635957	16963.236167	1600.633789	1693.449463
19460.635957	16963.236167	1599.594727	1315.717651
19460.635957	16963.236167	1598.554688	1604.608887
19460.635957	16963.236167	1597.513672	1516.607056
19460.635957	16963.236167	1596.473633	1440.170898
19460.635957	16963.236167	1595.433594	1331.653931
19460.635957	16963.236167	1594.392578	1551.583618
19460.635957	16963.236167	1593.351563	1438.575806
19460.635957	16963.236167	1592.310547	1463.379639
19460.635957	16963.236167	1591.268555	1552.471924
19460.635957	16963.236167	1590.227539	1531.449707
19460.635957	16963.236167	1589.185547	1427.890381
19460.635957	16963.236167	1588.143555	1409.286255
19460.635957	16963.236167	1587.100586	1090.331421
19460.635957	16963.236167	1586.058594	1713.864380
19460.635957	16963.236167	1585.015625	1596.798950
19460.635957	16963.236167	1583.972656	1472.961182
19460.635957	16963.236167	1582.929688	1475.252930
19460.635957	16963.236167	1581.886719	1495.928955
19460.635957	16963.236167	1580.843750	1310.512085
19460.635957	16963.236167	1579.799805	1525.975830
19460.635957	16963.236167	1578.755859	1560.542358
19460.635957	16963.236167	1577.711914	1496.724731
19460.635957	16963.236167	1576.666992	1476.473022
19460.635957	16963.236167	1575.623047	1641.647949
19460.635957	16963.236167	1574.578125	1333.248779
19460.635957	16963.236167	1573.533203	1413.884033
19460.635957	16963.236167	1572.488281	1220.128906
19460.635957	16963.236167	1571.443359	1371.771851
19460.635957	16963.236167	1570.397461	1409.120728
19460.635957	16963.236167	1569.351563	1147.121826
19460.635957	16963.236167	1568.305664	1095.528198
19460.635957	16963.236167	1567.259766	964.065491
19460.635957	16963.236167	1566.213867	1323.828491
19460.635957	16963.236167	1565.166992	1096.602295
19460.635957	16963.236167	1564.120117	1280.535522
19460.635957	16963.236167	1563.073242	1190.533813
19460.635957	16963.236167	1562.026367	1253.566895
19460.635957	16963.236167	1560.978516	1419.337769
19460.635957	16963.236167	1559.930664	1115.139771
19460.635957	16963.236167	1558.883789	856.767456
19460.635957	16963.236167	1557.834961	958.907166
19460.635957	16963.236167	1556.787109	1279.989868
19460.635957	16963.236167	1555.739258	1245.400391
19460.635957	16963.236167	1554.690430	1249.653198
19460.635957	16963.236167	1553.641602	1422.624634
19460.635957	16963.236167	1552.592773	1203.739502
19460.635957	16963.236167	1551.542969	1410.994751
19460.635957	16963.236167	1550.494141	1383.686523
19460.635957	16963.236167	1549.444336	1415.678833
19460.635957	16963.236167	1548.394531	1256.519653
19460.635957	16963.236167	1547.344727	1124.830933
19460.635957	16963.236167	1546.293945	1352.840332
19460.635957	16963.236167	1545.244141	1209.999512
19460.635957	16963.236167	1544.193359	1065.034546
19460.635957	16963.236167	1543.142578	1088.522217
19460.635957	16963.236167	1542.090820	1109.823364
19460.635957	16963.236167	1541.040039	1092.570435
19460.635957	16963.236167	1539.988281	1575.476563
19460.635957	16963.236167	1538.936523	1476.526245
19460.635957	16963.236167	1537.884766	1489.050415
19460.635957	16963.236167	1536.833008	1331.297852
19460.635957	16963.236167	1535.780273	1443.981567
19460.635957	16963.236167	1534.727539	1322.839478
19460.635957	16963.236167	1533.674805	1406.175171
19460.635957	16963.236167	1532.622070	1491.856445
19460.635957	16963.236167	1531.569336	1348.401733
19460.635957	16963.236167	1530.515625	1563.602539
19460.635957	16963.236167	1529.461914	1207.166992
19460.635957	16963.236167	1528.408203	1066.445313
19460.635957	16963.236167	1527.354492	805.707825
19460.635957	16963.236167	1526.299805	1012.215088
19460.635957	16963.236167	1525.246094	1148.487061
19460.635957	16963.236167	1524.191406	978.872498
19460.635957	16963.236167	1523.136719	659.893372
19460.635957	16963.236167	1522.081055	667.365356
19460.635957	16963.236167	1521.026367	577.561401
19460.635957	16963.236167	1519.970703	703.028259
19460.635957	16963.236167	1518.915039	602.162537
19460.635957	16963.236167	1517.859375	682.538879
19460.635957	16963.236167	1516.802734	645.317322
19460.635957	16963.236167	1515.747070	517.722717
19460.635957	16963.236167	1514.690430	440.064758
19460.635957	16963.236167	1513.633789	765.155212
19460.635957	16963.236167	1512.577148	674.150818
19460.635957	16963.236167	1511.519531	639.825439
19460.635957	16963.236167	1510.461914	485.832214
19460.635957	16963.236167	1509.405273	684.579895
19460.635957	16963.236167	1508.346680	359.156799
19460.635957	16963.236167	1507.289063	562.614197
19460.635957	16963.236167	1506.231445	752.561890
19460.635957	16963.236167	1505.172852	228.969498
19460.635957	16963.236167	1504.114258	412.384094
19460.635957	16963.236167	1503.055664	257.255341
19460.635957	16963.236167	1501.996094	163.250397
19460.635957	16963.236167	1500.937500	270.227509
19460.635957	16963.236167	1499.877930	526.182983
19460.635957	16963.236167	1498.818359	400.983490
19460.635957	16963.236167	1497.757813	54.964653
19460.635957	16963.236167	1496.698242	-166.785797
19460.635957	16963.236167	1495.637695	46.735126
19460.635957	16963.236167	1494.577148	-5.637604
19460.635957	16963.236167	1493.516602	79.588478
19460.635957	16963.236167	1492.456055	144.634354
19460.635957	16963.236167	1491.394531	331.414398
19460.635957	16963.236167	1490.333008	281.798218
19460.635957	16963.236167	1489.271484	108.500847
19460.635957	16963.236167	1488.209961	54.706142
19460.635957	16963.236167	1487.148438	19.070555
19460.635957	16963.236167	1486.085938	73.589088
19460.635957	16963.236167	1485.023438	139.464645
19460.635957	16963.236167	1483.960938	45.750122
19460.635957	16963.236167	1482.898438	-180.472275
19460.635957	16963.236167	1481.834961	160.113190
19460.635957	16963.236167	1480.772461	-119.720108
19460.635957	16963.236167	1479.708984	-127.364166
19460.635957	16963.236167	1478.644531	240.341660
19460.635957	16963.236167	1477.581055	-11.974603
19460.635957	16963.236167	1476.517578	48.219799
19460.635957	16963.236167	1475.453125	-17.323181
19460.635957	16963.236167	1474.388672	22.789412
19460.635957	16963.236167	1473.323242	146.178909
19460.635957	16963.236167	1472.258789	-53.529911
19460.635957	16963.236167	1471.193359	-21.916597
19460.635957	16963.236167	1470.127930	-91.235229
19460.635957	16963.236167	1469.062500	254.377472
19460.635957	16963.236167	1467.997070	178.778931
19460.635957	16963.236167	1466.930664	-196.977249
19460.635957	16963.236167	1465.865234	428.753693
19460.635957	16963.236167	1464.798828	445.487305
19460.635957	16963.236167	1463.731445	491.415344
19460.635957	16963.236167	1462.665039	60.654396
19460.635957	16963.236167	1461.597656	185.205139
19460.635957	16963.236167	1460.530273	360.933350
19460.635957	16963.236167	1459.462891	356.706146
19460.635957	16963.236167	1458.395508	380.390533
19460.635957	16963.236167	1457.327148	364.049011
19460.635957	16963.236167	1456.259766	765.466553
19460.635957	16963.236167	1455.191406	434.768250
19460.635957	16963.236167	1454.123047	404.164795
19460.635957	16963.236167	1453.053711	433.904663
19460.635957	16963.236167	1451.985352	446.533478
19460.635957	16963.236167	1450.916016	357.108917
19460.635957	16963.236167	1449.846680	372.960327
19460.635957	16963.236167	1448.776367	774.356079
19460.635957	16963.236167	1447.707031	518.338928
19460.635957	16963.236167	1446.636719	435.248657
19460.635957	16963.236167	1445.566406	359.781250
19460.635957	16963.236167	1444.496094	466.420807
19460.635957	16963.236167	1443.425781	284.848694
19460.635957	16963.236167	1442.354492	114.808563
19460.635957	16963.236167	1441.283203	124.489983
19460.635957	16963.236167	1440.211914	503.802795
19460.635957	16963.236167	1439.140625	395.283783
19460.635957	16963.236167	1438.069336	514.860291
19460.635957	16963.236167	1436.997070	416.171143
19460.635957	16963.236167	1435.924805	170.830948
19460.635957	16963.236167	1434.852539	207.847198
19460.635957	16963.236167	1433.780273	255.051498
19460.635957	16963.236167	1432.707031	-45.116165
19460.635957	16963.236167	1431.633789	-144.834610
19460.635957	16963.236167	1430.560547	-64.225349
19460.635957	16963.236167	1429.487305	81.252213
19460.635957	16963.236167	1428.413086	19.259144
19460.635957	16963.236167	1427.339844	-42.467365
19460.635957	16963.236167	1426.265625	-165.971817
19460.635957	16963.236167	1425.191406	-93.377136
19460.635957	16963.236167	1424.116211	213.431305
19460.635957	16963.236167	1423.041992	-41.816147
19460.635957	16963.236167	1421.966797	90.493149
19460.635957	16963.236167	1420.891602	-16.940012
19460.635957	16963.236167	1419.816406	5.122125
19460.635957	16963.236167	1418.740234	102.861107
19460.635957	16963.236167	1417.665039	117.074471
19460.635957	16963.236167	1416.588867	280.834900
19460.635957	16963.236167	1415.512695	292.733215
19460.635957	16963.236167	1414.435547	271.722839
19460.635957	16963.236167	1413.359375	39.973446
19460.635957	16963.236167	1412.282227	203.937454
19460.635957	16963.236167	1411.205078	354.119263
19460.635957	16963.236167	1410.127930	329.887421
19460.635957	16963.236167	1409.049805	360.143127
19460.635957	16963.236167	1407.972656	333.693542
19460.635957	16963.236167	1406.894531	535.703125
19460.635957	16963.236167	1405.816406	367.911957
19460.635957	16963.236167	1404.737305	421.639648
19460.635957	16963.236167	1403.659180	268.995178
19460.635957	16963.236167	1402.580078	475.346985
19460.635957	16963.236167	1401.500977	415.465912
19460.635957	16963.236167	1400.421875	608.739990
19460.635957	16963.236167	1399.341797	601.627930
19460.635957	16963.236167	1398.262695	748.181030
19460.635957	16963.236167	1397.182617	523.489319
19460.635957	16963.236167	1396.102539	267.715759
19460.635957	16963.236167	1395.021484	441.844849
19460.635957	16963.236167	1393.941406	492.093048
19460.635957	16963.236167	1392.860352	665.730896
19460.635957	16963.236167	1391.779297	656.848572
19460.635957	16963.236167	1390.698242	763.205139
19460.635957	16963.236167	1389.616211	840.637085
19460.635957	16963.236167	1388.535156	957.863770
19460.635957	16963.236167	1387.453125	725.080444
19460.635957	16963.236167	1386.371094	1029.533081
19460.635957	16963.236167	1385.288086	957.140686
19460.635957	16963.236167	1384.206055	879.115784
19460.635957	16963.236167	1383.123047	1066.056763
19460.635957	16963.236167	1382.040039	752.289429
19460.635957	16963.236167	1380.957031	983.566711
19460.635957	16963.236167	1379.873047	1305.643799
19460.635957	16963.236167	1378.789063	1021.350098
19460.635957	16963.236167	1377.705078	1021.627991
19460.635957	16963.236167	1376.621094	1005.267761
19460.635957	16963.236167	1375.537109	836.161011
19460.635957	16963.236167	1374.452148	966.444397
19460.635957	16963.236167	1373.367188	1092.368408
19460.635957	16963.236167	1372.282227	745.602112
19460.635957	16963.236167	1371.197266	972.498291
19460.635957	16963.236167	1370.112305	1152.544189
19460.635957	16963.236167	1369.026367	785.794800
19460.635957	16963.236167	1367.940430	1210.939697
19460.635957	16963.236167	1366.854492	1110.067749
19460.635957	16963.236167	1365.767578	978.208801
19460.635957	16963.236167	1364.681641	980.615234
19460.635957	16963.236167	1363.594727	1067.456787
19460.635957	16963.236167	1362.507813	943.547546
19460.635957	16963.236167	1361.419922	766.804382
19460.635957	16963.236167	1360.333008	1076.227173
19460.635957	16963.236167	1359.245117	993.661804
19460.635957	16963.236167	1358.157227	726.854004
19460.635957	16963.236167	1357.069336	545.021484
19460.635957	16963.236167	1355.981445	452.757080
19460.635957	16963.236167	1354.892578	921.770935
19460.635957	16963.236167	1353.803711	809.716370
19460.635957	16963.236167	1352.714844	780.867859
19460.635957	16963.236167	1351.625000	789.859497
19460.635957	16963.236167	1350.536133	810.967224
19460.635957	16963.236167	1349.446289	977.417175
19460.635957	16963.236167	1348.356445	912.573425
19460.635957	16963.236167	1347.266602	1049.718262
19460.635957	16963.236167	1346.175781	1086.050415
19460.635957	16963.236167	1345.085938	1020.520874
19460.635957	16963.236167	1343.995117	1264.706299
19460.635957	16963.236167	1342.903320	1343.820557
19460.635957	16963.236167	1341.812500	983.038940
19460.635957	16963.236167	1340.720703	1203.028198
19460.635957	16963.236167	1339.629883	987.387024
19460.635957	16963.236167	1338.538086	1172.499146
19460.635957	16963.236167	1337.445313	1153.596313
19460.635957	16963.236167	1336.353516	1139.519043
19460.635957	16963.236167	1335.260742	1064.510864
19460.635957	16963.236167	1334.167969	773.182739
19460.635957	16963.236167	1333.075195	1065.910889
19460.635957	16963.236167	1331.981445	1031.408447
19460.635957	16963.236167	1330.888672	1083.820068
19460.635957	16963.236167	1329.794922	1030.304077
19460.635957	16963.236167	1328.701172	1124.775757
19460.635957	16963.236167	1327.606445	912.821899
19460.635957	16963.236167	1326.512695	818.121765
19460.635957	16963.236167	1325.417969	797.880859
19460.635957	16963.236167	1324.323242	1035.727295
19460.635957	16963.236167	1323.227539	1057.325928
19460.635957	16963.236167	1322.132813	1449.451660
19460.635957	16963.236167	1321.037109	1186.175293
19460.635957	16963.236167	1319.941406	1205.105591
19460.635957	16963.236167	1318.845703	1258.272461
19460.635957	16963.236167	1317.750000	1228.030640
19460.635957	16963.236167	1316.653320	1369.240356
19460.635957	16963.236167	1315.556641	1108.082397
19460.635957	16963.236167	1314.459961	1213.702148
19460.635957	16963.236167	1313.363281	1504.119995
19460.635957	16963.236167	1312.265625	1269.587402
19460.635957	16963.236167	1311.167969	1259.419312
19460.635957	16963.236167	1310.070313	1072.136353
19460.635957	16963.236167	1308.972656	902.577209
19460.635957	16963.236167	1307.874023	767.395752
19460.635957	16963.236167	1306.776367	649.367493
19460.635957	16963.236167	1305.677734	947.851624
19460.635957	16963.236167	1304.579102	599.426758
19460.635957	16963.236167	1303.479492	667.739075
19460.635957	16963.236167	1302.380859	782.563660
19460.635957	16963.236167	1301.281250	599.504333
19460.635957	16963.236167	1300.181641	785.959778
19460.635957	16963.236167	1299.081055	611.867310
19460.635957	16963.236167	1297.981445	769.548767
19460.635957	16963.236167	1296.880859	494.768188
19460.635957	16963.236167	1295.780273	672.227051
19460.635957	16963.236167	1294.679688	629.398987
19460.635957	16963.236167	1293.578125	769.484985
19460.635957	16963.236167	1292.476563	987.391479
19460.635957	16963.236167	1291.375000	990.931946
19460.635957	16963.236167	1290.273438	1133.650269
19460.635957	16963.236167	1289.171875	1101.449951
19460.635957	16963.236167	1288.069336	1241.057251
19460.635957	16963.236167	1286.966797	1275.369019
19460.635957	16963.236167	1285.864258	1197.093018
19460.635957	16963.236167	1284.761719	1003.642517
19460.635957	16963.236167	1283.658203	1000.495911
19460.635957	16963.236167	1282.554688	1043.768555
19460.635957	16963.236167	1281.451172	898.096313
19460.635957	16963.236167	1280.347656	1035.579590
19460.635957	16963.236167	1279.244141	644.948059
19460.635957	16963.236167	1278.139648	594.186096
19460.635957	16963.236167	1277.035156	583.051514
19460.635957	16963.236167	1275.930664	451.010223
19460.635957	16963.236167	1274.825195	380.099426
19460.635957	16963.236167	1273.720703	414.636383
19460.635957	16963.236167	1272.615234	373.825439
19460.635957	16963.236167	1271.508789	411.032867
19460.635957	16963.236167	1270.403320	425.445038
19460.635957	16963.236167	1269.297852	398.782806
19460.635957	16963.236167	1268.191406	450.126465
19460.635957	16963.236167	1267.084961	246.468124
19460.635957	16963.236167	1265.977539	304.069702
19460.635957	16963.236167	1264.871094	426.885162
19460.635957	16963.236167	1263.763672	334.911865
19460.635957	16963.236167	1262.656250	311.098999
19460.635957	16963.236167	1261.548828	182.836334
19460.635957	16963.236167	1260.440430	350.110382
19460.635957	16963.236167	1259.333008	348.865356
19460.635957	16963.236167	1258.224609	303.651398
19460.635957	16963.236167	1257.115234	383.381683
19460.635957	16963.236167	1256.006836	206.957474
19460.635957	16963.236167	1254.897461	359.305878
19460.635957	16963.236167	1253.788086	287.735474
19460.635957	16963.236167	1252.678711	402.827484
19460.635957	16963.236167	1251.569336	408.893555
19460.635957	16963.236167	1250.458984	441.635071
19460.635957	16963.236167	1249.349609	330.842041
19460.635957	16963.236167	1248.239258	487.679840
19460.635957	16963.236167	1247.127930	475.819458
19460.635957	16963.236167	1246.017578	353.511932
19460.635957	16963.236167	1244.906250	340.817108
19460.635957	16963.236167	1243.794922	206.973389
19460.635957	16963.236167	1242.683594	196.216309
19460.635957	16963.236167	1241.571289	367.950348
19460.635957	16963.236167	1240.459961	275.217682
19460.635957	16963.236167	1239.347656	148.962799
19460.635957	16963.236167	1238.234375	336.956390
19460.635957	16963.236167	1237.122070	277.980988
19460.635957	16963.236167	1236.008789	197.143127
19460.635957	16963.236167	1234.896484	131.047699
19460.635957	16963.236167	1233.782227	70.862534
19460.635957	16963.236167	1232.668945	194.883179
19460.635957	16963.236167	1231.555664	26.705433
19460.635957	16963.236167	1230.441406	57.485615
19460.635957	16963.236167	1229.327148	93.044449
19460.635957	16963.236167	1228.211914	135.917114
19460.635957	16963.236167	1227.097656	-7.201316
19460.635957	16963.236167	1225.982422	136.859818
19460.635957	16963.236167	1224.867188	115.235817
19460.635957	16963.236167	1223.751953	73.029503
19460.635957	16963.236167	1222.635742	238.828705
19460.635957	16963.236167	1221.520508	-33.430984
19460.635957	16963.236167	1220.404297	68.360321
19460.635957	16963.236167	1219.287109	-6.091063
19460.635957	16963.236167	1218.170898	97.982635
19460.635957	16963.236167	1217.053711	69.732216
19460.635957	16963.236167	1215.936523	77.470955
19460.635957	16963.236167	1214.819336	132.637680
19460.635957	16963.236167	1213.702148	26.733717
19460.635957	16963.236167	1212.583984	113.950226
19460.635957	16963.236167	1211.465820	-53.010693
19460.635957	16963.236167	1210.347656	56.483166
19460.635957	16963.236167	1209.229492	39.980042
19460.635957	16963.236167	1208.110352	171.565521
19460.635957	16963.236167	1206.992188	125.226814
19460.635957	16963.236167	1205.873047	-23.987387
19460.635957	16963.236167	1204.752930	-18.079697
19460.635957	16963.236167	1203.633789	-167.148636
19460.635957	16963.236167	1202.513672	-1.450362
19460.635957	16963.236167	1201.393555	112.434364
19460.635957	16963.236167	1200.273438	-103.342644
19460.635957	16963.236167	1199.152344	-289.297577
19460.635957	16963.236167	1198.032227	-274.317627
19460.635957	16963.236167	1196.911133	-168.622162
19460.635957	16963.236167	1195.790039	-180.975311
19460.635957	16963.236167	1194.667969	-292.897278
19460.635957	16963.236167	1193.545898	-201.908005
19460.635957	16963.236167	1192.424805	88.267715
19460.635957	16963.236167	1191.301758	39.236031
19460.635957	16963.236167	1190.179688	-278.752716
19460.635957	16963.236167	1189.056641	-139.266037
19460.635957	16963.236167	1187.933594	-342.532593
19460.635957	16963.236167	1186.810547	-35.377029
19460.635957	16963.236167	1185.687500	-142.899399
19460.635957	16963.236167	1184.563477	-116.122154
19460.635957	16963.236167	1183.440430	-3.234100
19460.635957	16963.236167	1182.316406	88.642120
19460.635957	16963.236167	1181.191406	43.423950
19460.635957	16963.236167	1180.067383	-71.211914
19460.635957	16963.236167	1178.942383	-171.933258
19460.635957	16963.236167	1177.817383	-15.294473
19460.635957	16963.236167	1176.692383	-110.149437
19460.635957	16963.236167	1175.566406	4.316997
19460.635957	16963.236167	1174.440430	-57.855648
19460.635957	16963.236167	1173.314453	-134.333740
19460.635957	16963.236167	1172.188477	41.128498
19460.635957	16963.236167	1171.062500	-101.133339
19460.635957	16963.236167	1169.935547	6.203531
19460.635957	16963.236167	1168.808594	16.635923
19460.635957	16963.236167	1167.681641	-20.875530
19460.635957	16963.236167	1166.553711	-154.230820
19460.635957	16963.236167	1165.426758	-188.410187
19460.635957	16963.236167	1164.298828	46.679234
19460.635957	16963.236167	1163.170898	12.556000
19460.635957	16963.236167	1162.041992	113.413719
19460.635957	16963.236167	1160.914063	-19.873932
19460.635957	16963.236167	1159.785156	211.027756
19460.635957	16963.236167	1158.656250	-22.319469
19460.635957	16963.236167	1157.526367	9.547367
19460.635957	16963.236167	1156.397461	82.432045
19460.635957	16963.236167	1155.267578	123.348610
19460.635957	16963.236167	1154.137695	215.558243
19460.635957	16963.236167	1153.006836	-176.364899
19460.635957	16963.236167	1151.876953	-50.087334
19460.635957	16963.236167	1150.746094	-7.224287
19460.635957	16963.236167	1149.615234	-19.758476
19460.635957	16963.236167	1148.484375	-158.547501
19460.635957	16963.236167	1147.352539	-166.161942
19460.635957	16963.236167	1146.220703	-115.453529
19460.635957	16963.236167	1145.088867	-150.398941
19460.635957	16963.236167	1143.957031	-92.523720
19460.635957	16963.236167	1142.825195	-58.607292
19460.635957	16963.236167	1141.692383	-113.052513
19460.635957	16963.236167	1140.559570	-221.769379
19460.635957	16963.236167	1139.426758	-156.476746
19460.635957	16963.236167	1138.292969	-32.397915
19460.635957	16963.236167	1137.159180	-89.544266
19460.635957	16963.236167	1136.025391	13.203261
19460.635957	16963.236167	1134.891602	-81.538239
19460.635957	16963.236167	1133.757813	-4.985633
19460.635957	16963.236167	1132.623047	102.114128
19460.635957	16963.236167	1131.488281	33.027290
19460.635957	16963.236167	1130.353516	201.310440
19460.635957	16963.236167	1129.217773	83.196976
19460.635957	16963.236167	1128.083008	162.792206
19460.635957	16963.236167	1126.947266	264.025787
19460.635957	16963.236167	1125.811523	139.300980
19460.635957	16963.236167	1124.674805	212.448669
19460.635957	16963.236167	1123.539063	31.412474
19460.635957	16963.236167	1122.402344	238.863876
19460.635957	16963.236167	1121.265625	104.204422
19460.635957	16963.236167	1120.127930	252.704239
19460.635957	16963.236167	1118.990234	39.388039
19460.635957	16963.236167	1117.853516	178.880341
19460.635957	16963.236167	1116.714844	194.626022
19460.635957	16963.236167	1115.577148	-16.325579
19460.635957	16963.236167	1114.439453	134.307312
19460.635957	16963.236167	1113.300781	266.976196
19460.635957	16963.236167	1112.162109	72.325279
19460.635957	16963.236167	1111.022461	313.421204
19460.635957	16963.236167	1109.883789	322.558533
19460.635957	16963.236167	1108.744141	92.095100
19460.635957	16963.236167	1107.604492	38.888203
19460.635957	16963.236167	1106.463867	42.584389
19460.635957	16963.236167	1105.324219	152.230621
19460.635957	16963.236167	1104.183594	137.563217
19460.635957	16963.236167	1103.042969	252.691681
19460.635957	16963.236167	1101.902344	68.567291
19460.635957	16963.236167	1100.760742	82.518013
19460.635957	16963.236167	1099.619141	202.423035
19460.635957	16963.236167	1098.477539	163.634064
19460.635957	16963.236167	1097.335938	194.250824
19460.635957	16963.236167	1096.193359	203.714371
19460.635957	16963.236167	1095.051758	334.662476
19460.635957	16963.236167	1093.909180	354.592346
19460.635957	16963.236167	1092.765625	393.185577
19460.635957	16963.236167	1091.623047	258.295135
19460.635957	16963.236167	1090.479492	261.056580
19460.635957	16963.236167	1089.335938	428.195282
19460.635957	16963.236167	1088.192383	282.902863
19460.635957	16963.236167	1087.047852	186.965729
19460.635957	16963.236167	1085.903320	59.804741
19460.635957	16963.236167	1084.758789	108.230637
19460.635957	16963.236167	1083.614258	155.063919
19460.635957	16963.236167	1082.469727	203.855545
19460.635957	16963.236167	1081.324219	23.782354
19460.635957	16963.236167	1080.178711	73.087746
19460.635957	16963.236167	1079.033203	29.930136
19460.635957	16963.236167	1077.886719	233.681503
19460.635957	16963.236167	1076.740234	147.558105
19460.635957	16963.236167	1075.593750	334.577698
19460.635957	16963.236167	1074.447266	219.357727
19460.635957	16963.236167	1073.300781	331.660126
19460.635957	16963.236167	1072.153320	407.940674
19460.635957	16963.236167	1071.005859	433.085724
19460.635957	16963.236167	1069.858398	364.835815
19460.635957	16963.236167	1068.709961	250.406281
19460.635957	16963.236167	1067.561523	155.140762
19460.635957	16963.236167	1066.413086	236.031693
19460.635957	16963.236167	1065.264648	129.040222
19460.635957	16963.236167	1064.116211	218.963531
19460.635957	16963.236167	1062.966797	125.846848
19460.635957	16963.236167	1061.817383	89.420738
19460.635957	16963.236167	1060.667969	108.404221
19460.635957	16963.236167	1059.517578	157.381485
19460.635957	16963.236167	1058.368164	153.259125
19460.635957	16963.236167	1057.217773	189.019684
19460.635957	16963.236167	1056.067383	112.487701
19460.635957	16963.236167	1054.916016	132.979630
19460.635957	16963.236167	1053.764648	202.661911
19460.635957	16963.236167	1052.613281	47.673508
19460.635957	16963.236167	1051.461914	2.335989
19460.635957	16963.236167	1050.310547	41.658432
19460.635957	16963.236167	1049.158203	3.301810
19460.635957	16963.236167	1048.005859	16.524590
19460.635957	16963.236167	1046.853516	-9.245198
19460.635957	16963.236167	1045.700195	123.371071
19460.635957	16963.236167	1044.547852	183.988083
19460.635957	16963.236167	1043.394531	52.376431
19460.635957	16963.236167	1042.240234	172.896637
19460.635957	16963.236167	1041.086914	213.010330
19460.635957	16963.236167	1039.932617	153.026917
19460.635957	16963.236167	1038.778320	147.512833
19460.635957	16963.236167	1037.624023	118.656868
19460.635957	16963.236167	1036.469727	414.102875
19460.635957	16963.236167	1035.314453	262.686157
19460.635957	16963.236167	1034.159180	721.370789
19460.635957	16963.236167	1033.003906	604.825012
19460.635957	16963.236167	1031.847656	432.419189
19460.635957	16963.236167	1030.692383	693.968201
19460.635957	16963.236167	1029.536133	736.208557
19460.635957	16963.236167	1028.378906	503.542725
19460.635957	16963.236167	1027.222656	457.176483
19460.635957	16963.236167	1026.065430	443.279602
19460.635957	16963.236167	1024.908203	173.249084
19460.635957	16963.236167	1023.750977	286.317688
19460.635957	16963.236167	1022.593750	-12.870705
19460.635957	16963.236167	1021.435547	194.409348
19460.635957	16963.236167	1020.277344	283.088196
19460.635957	16963.236167	1019.119141	232.195465
19460.635957	16963.236167	1017.959961	312.044403
19460.635957	16963.236167	1016.800781	319.282288
19460.635957	16963.236167	1015.641602	117.512924
19460.635957	16963.236167	1014.482422	300.044250
19460.635957	16963.236167	1013.323242	192.988892
19460.635957	16963.236167	1012.163086	118.042709
19460.635957	16963.236167	1011.002930	326.347290
19460.635957	16963.236167	1009.842773	-36.470074
19460.635957	16963.236167	1008.681641	196.224838
19460.635957	16963.236167	1007.520508	249.834457
19460.635957	16963.236167	1006.359375	43.870819
19460.635957	16963.236167	1005.198242	81.959213
19460.635957	16963.236167	1004.037109	30.502295
19460.635957	16963.236167	1002.875000	235.176132
19460.635957	16963.236167	1001.712891	264.610840
19460.635957	16963.236167	1000.550781	66.482536
19460.635957	16963.236167	999.387695	18.848021
19460.635957	16963.236167	998.224609	73.700790
19460.635957	16963.236167	997.061523	-8.187360
19460.635957	16963.236167	995.898438	4.822521
19460.635957	16963.236167	994.734375	-220.847626
19460.635957	16963.236167	993.571289	-160.970535
19460.635957	16963.236167	992.407227	-89.443863
19460.635957	16963.236167	991.242188	27.417147
19460.635957	16963.236167	990.078125	78.818466
19460.635957	16963.236167	988.913086	49.978455
19460.635957	16963.236167	987.748047	75.415283
19460.635957	16963.236167	986.583008	-133.507507
19460.635957	16963.236167	985.416992	-78.770561
19460.635957	16963.236167	984.250977	-118.860527
19460.635957	16963.236167	983.084961	123.891823
19460.635957	16963.236167	981.918945	1.591226
19460.635957	16963.236167	980.751953	-42.236271
19460.635957	16963.236167	979.584961	66.994102
19460.635957	16963.236167	978.417969	23.004280
19460.635957	16963.236167	977.250977	-75.519951
19460.635957	16963.236167	976.083008	5.816473
19460.635957	16963.236167	974.915039	274.959747
19460.635957	16963.236167	973.747070	-1.016651
19460.635957	16963.236167	972.579102	-138.038269
19460.635957	16963.236167	971.410156	74.137497
19460.635957	16963.236167	970.242188	-85.649658
19460.635957	16963.236167	969.072266	33.352875
19460.635957	16963.236167	967.903320	199.430038
19460.635957	16963.236167	966.733398	206.628159
19460.635957	16963.236167	965.563477	47.469799
19460.635957	16963.236167	964.393555	57.500084
19460.635957	16963.236167	963.223633	-111.417496
19460.635957	16963.236167	962.052734	45.724056
19460.635957	16963.236167	960.881836	-1.287967
19460.635957	16963.236167	959.710938	-85.686768
19460.635957	16963.236167	958.540039	49.084484
19460.635957	16963.236167	957.368164	-36.214405
19460.635957	16963.236167	956.196289	-140.181793
19460.635957	16963.236167	955.024414	3.758658
19460.635957	16963.236167	953.851563	83.083481
19460.635957	16963.236167	952.679688	-22.520239
19460.635957	16963.236167	951.506836	-19.592825
19460.635957	16963.236167	950.333984	-9.710081
19460.635957	16963.236167	949.160156	112.295807
19460.635957	16963.236167	947.986328	178.955521
19460.635957	16963.236167	946.812500	-172.723969
19460.635957	16963.236167	945.638672	-18.756174
19460.635957	16963.236167	944.464844	11.915665
19460.635957	16963.236167	943.290039	44.498283
19460.635957	16963.236167	942.115234	109.208984
19460.635957	16963.236167	940.940430	-270.354462
19460.635957	16963.236167	939.764648	62.834911
19460.635957	16963.236167	938.588867	157.293289
19460.635957	16963.236167	937.413086	-62.167702
19460.635957	16963.236167	936.237305	-151.311646
19460.635957	16963.236167	935.060547	-1.585303
19460.635957	16963.236167	933.883789	56.223850
19460.635957	16963.236167	932.707031	144.117859
19460.635957	16963.236167	931.530273	-43.395382
19460.635957	16963.236167	930.352539	148.761642
19460.635957	16963.236167	929.175781	91.370598
19460.635957	16963.236167	927.998047	31.975103
19460.635957	16963.236167	926.819336	192.040955
19460.635957	16963.236167	925.641602	-112.583633
19460.635957	16963.236167	924.462891	-48.456779
19460.635957	16963.236167	923.284180	32.664494
19460.635957	16963.236167	922.104492	-146.118073
19460.635957	16963.236167	920.924805	69.142616
19460.635957	16963.236167	919.746094	78.694557
19460.635957	16963.236167	919.551758	66.545448
19460.635957	16963.236167	918.386719	-18.658566
19460.635957	16963.236167	917.220703	-174.083191
19460.635957	16963.236167	916.054688	36.553703
19460.635957	16963.236167	914.887695	66.242371
19460.635957	16963.236167	913.721680	85.252304
19460.635957	16963.236167	912.554688	-6.352067
19460.635957	16963.236167	911.387695	101.929237
19460.635957	16963.236167	910.220703	-257.548340
19460.635957	16963.236167	909.052734	-162.052490
19460.635957	16963.236167	907.885742	-192.002014
19460.635957	16963.236167	906.717773	-51.990929
19460.635957	16963.236167	905.548828	-277.404114
19460.635957	16963.236167	904.380859	-41.913162
19460.635957	16963.236167	903.211914	-57.081974
19460.635957	16963.236167	902.042969	-135.953400
19460.635957	16963.236167	900.874023	-250.897614
19460.635957	16963.236167	899.704102	-79.345650
19460.635957	16963.236167	898.535156	-54.282364
19460.635957	16963.236167	897.365234	-124.695747
19460.635957	16963.236167	896.194336	-10.599622
19460.635957	16963.236167	895.024414	27.089621
19460.635957	16963.236167	893.853516	-49.724552
19460.635957	16963.236167	892.682617	-5.727431
19460.635957	16963.236167	891.511719	245.883621
19460.635957	16963.236167	890.340820	-66.159103
19460.635957	16963.236167	889.168945	-9.545651
19460.635957	16963.236167	887.997070	-50.392883
19460.635957	16963.236167	886.825195	-108.187256
19460.635957	16963.236167	885.653320	-19.925970
19460.635957	16963.236167	884.480469	-128.540421
19460.635957	16963.236167	883.307617	69.671967
19460.635957	16963.236167	882.134766	87.961014
19460.635957	16963.236167	880.961914	171.782654
19460.635957	16963.236167	879.788086	331.676056
19460.635957	16963.236167	878.614258	161.663208
19460.635957	16963.236167	877.440430	69.902138
19460.635957	16963.236167	876.266602	278.244232
19460.635957	16963.236167	875.091797	40.659241
19460.635957	16963.236167	873.916992	62.976822
19460.635957	16963.236167	872.742188	207.754410
19460.635957	16963.236167	871.567383	122.280876
19460.635957	16963.236167	870.391602	385.163544
19460.635957	16963.236167	869.215820	-2.196567
19460.635957	16963.236167	868.040039	123.377106
19460.635957	16963.236167	866.864258	160.255447
19460.635957	16963.236167	865.687500	-32.832268
19460.635957	16963.236167	864.510742	1.901782
19460.635957	16963.236167	863.333984	-182.699844
19460.635957	16963.236167	862.157227	-32.061195
19460.635957	16963.236167	860.979492	-140.755875
19460.635957	16963.236167	859.802734	-110.362976
19460.635957	16963.236167	858.625000	59.044708
19460.635957	16963.236167	857.446289	-7.558527
19460.635957	16963.236167	856.268555	-27.841490
19460.635957	16963.236167	855.089844	-178.685730
19460.635957	16963.236167	853.911133	-55.834442
19460.635957	16963.236167	852.731445	-90.910278
19460.635957	16963.236167	851.552734	-92.342590
19460.635957	16963.236167	850.373047	40.844284
19460.635957	16963.236167	849.193359	-198.356461
19460.635957	16963.236167	848.013672	-48.446056
19460.635957	16963.236167	846.833008	6.762259
19460.635957	16963.236167	845.652344	-49.496037
19460.635957	16963.236167	844.471680	-252.882355
19460.635957	16963.236167	843.291016	-111.618652
19460.635957	16963.236167	842.110352	-144.813614
19460.635957	16963.236167	840.928711	-7.893919
19460.635957	16963.236167	839.747070	-165.056580
19460.635957	16963.236167	838.564453	-183.616989
19460.635957	16963.236167	837.382813	-57.376900
19460.635957	16963.236167	836.200195	146.430603
19460.635957	16963.236167	835.017578	140.298050
19460.635957	16963.236167	833.834961	75.392151
19460.635957	16963.236167	832.651367	-71.314598
19460.635957	16963.236167	831.467773	67.181183
19460.635957	16963.236167	830.284180	4.319626
19460.635957	16963.236167	829.100586	2.231276
19460.635957	16963.236167	827.916992	-18.756054
19460.635957	16963.236167	826.732422	213.749878
19460.635957	16963.236167	825.547852	87.917656
19460.635957	16963.236167	824.363281	-79.789162
19460.635957	16963.236167	823.177734	-65.292908
19460.635957	16963.236167	821.992188	-17.347740
19460.635957	16963.236167	820.806641	-105.509644
19460.635957	16963.236167	819.621094	38.600941
19460.635957	16963.236167	818.434570	94.745140
19460.635957	16963.236167	817.249023	370.449493
19460.635957	16963.236167	816.062500	62.533451
19460.635957	16963.236167	814.875000	-73.842331
19460.635957	16963.236167	813.688477	-86.875679
19460.635957	16963.236167	812.500977	-74.860680
19460.635957	16963.236167	811.313477	104.270096
19460.635957	16963.236167	810.125977	-188.861603
19460.635957	16963.236167	808.937500	138.433762
19460.635957	16963.236167	807.749023	41.629993
19460.635957	16963.236167	806.560547	216.240433
19460.635957	16963.236167	805.372070	29.611439
19460.635957	16963.236167	804.182617	208.239044
19460.635957	16963.236167	802.994141	15.337199
19460.635957	16963.236167	801.803711	289.767578
19460.635957	16963.236167	800.614258	142.724518
19460.635957	16963.236167	799.424805	-12.645598
19460.635957	16963.236167	798.234375	182.254623
19460.635957	16963.236167	797.043945	385.364166
19460.635957	16963.236167	795.852539	144.462997
19460.635957	16963.236167	794.662109	251.557632
19460.635957	16963.236167	793.470703	254.407410
19460.635957	16963.236167	792.279297	523.788452
19460.635957	16963.236167	791.087891	149.597870
19460.635957	16963.236167	789.895508	204.368362
19460.635957	16963.236167	788.703125	105.044090
19460.635957	16963.236167	787.510742	-117.065666
19460.635957	16963.236167	786.318359	89.449921
19460.635957	16963.236167	785.125000	152.307938
19460.635957	16963.236167	783.931641	158.937088
19460.635957	16963.236167	782.738281	-119.340607
19460.635957	16963.236167	781.544922	-15.059646
19460.635957	16963.236167	780.350586	-116.627129
19460.635957	16963.236167	779.156250	-180.802612
19460.635957	16963.236167	777.961914	118.554245
19460.635957	16963.236167	776.767578	-45.449394
19460.635957	16963.236167	775.572266	-18.385851
19460.635957	16963.236167	774.376953	-5.921714
19460.635957	16963.236167	773.181641	257.648804
19460.635957	16963.236167	771.986328	307.297150
19460.635957	16963.236167	770.790039	234.453766
19460.635957	16963.236167	769.593750	57.862392
19460.635957	16963.236167	768.397461	132.246445
19460.635957	16963.236167	767.201172	187.881088
19460.635957	16963.236167	766.003906	98.317665
19460.635957	16963.236167	764.806641	93.716187
19460.635957	16963.236167	763.609375	254.844971
19460.635957	16963.236167	762.412109	136.146210
19460.635957	16963.236167	761.213867	100.300980
19460.635957	16963.236167	760.015625	-1.860596
19460.635957	16963.236167	758.817383	169.280426
19460.635957	16963.236167	757.618164	162.261444
19460.635957	16963.236167	756.419922	204.856644
19460.635957	16963.236167	755.220703	183.231827
19460.635957	16963.236167	754.021484	45.699802
19460.635957	16963.236167	752.821289	123.286087
19460.635957	16963.236167	751.621094	10.525283
19460.635957	16963.236167	750.420898	90.034439
19460.635957	16963.236167	749.220703	260.405182
19460.635957	16963.236167	748.020508	323.176483
19460.635957	16963.236167	746.819336	108.983971
19460.635957	16963.236167	745.618164	124.129143
19460.635957	16963.236167	744.416992	178.449768
19460.635957	16963.236167	743.214844	-21.302385
19460.635957	16963.236167	742.012695	418.978027
19460.635957	16963.236167	740.810547	256.291931
19460.635957	16963.236167	739.608398	233.942917
19460.635957	16963.236167	738.406250	263.123291
19460.635957	16963.236167	737.203125	246.850266
19460.635957	16963.236167	736.000000	158.339828
19460.635957	16963.236167	734.795898	232.701813
19460.635957	16963.236167	733.592773	412.106995
19460.635957	16963.236167	732.388672	269.846344
19460.635957	16963.236167	731.184570	284.193756
19460.635957	16963.236167	729.979492	368.524567
19460.635957	16963.236167	728.775391	393.020660
19460.635957	16963.236167	727.570313	215.627945
19460.635957	16963.236167	726.365234	77.367638
19460.635957	16963.236167	725.160156	-15.608888
19460.635957	16963.236167	723.954102	21.052982
19460.635957	16963.236167	722.748047	-59.649811
19460.635957	16963.236167	721.541992	178.489822
19460.635957	16963.236167	720.334961	264.267792
19460.635957	16963.236167	719.128906	160.759445
19460.635957	16963.236167	717.921875	-103.128090
19460.635957	16963.236167	716.714844	52.355366
19460.635957	16963.236167	715.506836	20.701843
19460.635957	16963.236167	714.298828	134.880386
19460.635957	16963.236167	713.090820	-100.267082
19460.635957	16963.236167	711.882813	-23.202318
19460.635957	16963.236167	710.674805	140.009399
19460.635957	16963.236167	709.465820	-284.042450
19460.635957	16963.236167	708.256836	-145.595535
19460.635957	16963.236167	707.047852	-9.319580
19460.635957	16963.236167	705.837891	7.844506
19460.635957	16963.236167	704.627930	57.760792
19460.635957	16963.236167	703.417969	-72.872253
19460.635957	16963.236167	702.208008	44.580368
19460.635957	16963.236167	700.998047	-12.318593
19460.635957	16963.236167	699.787109	-104.094200
19460.635957	16963.236167	698.576172	107.367920
19460.635957	16963.236167	697.364258	78.995750
19460.635957	16963.236167	696.153320	64.911667
19460.635957	16963.236167	694.941406	73.300453
19460.635957	16963.236167	693.729492	67.297211
19460.635957	16963.236167	692.516602	114.456749
19460.635957	16963.236167	691.304688	-20.597153
19460.635957	16963.236167	690.091797	-92.224968
19460.635957	16963.236167	688.878906	95.912758
19460.635957	16963.236167	687.665039	238.920502
19460.635957	16963.236167	686.451172	148.710083
19460.635957	16963.236167	685.237305	154.564163
19460.635957	16963.236167	684.023438	101.087624
19460.635957	16963.236167	682.809570	194.705719
19460.635957	16963.236167	681.594727	-28.438185
19460.635957	16963.236167	680.379883	-6.432933
19460.635957	16963.236167	679.165039	40.015881
19460.635957	16963.236167	677.949219	-277.038300
19460.635957	16963.236167	676.733398	153.104919
19460.635957	16963.236167	675.517578	70.754601
19460.635957	16963.236167	674.301758	143.460114
19460.635957	16963.236167	673.084961	8.001342
19460.635957	16963.236167	671.869141	117.298584
19460.635957	16963.236167	670.651367	-12.082111
19460.635957	16963.236167	669.434570	302.981812
19460.635957	16963.236167	668.216797	246.894226
19460.635957	16963.236167	667.000000	-125.089310
19460.635957	16963.236167	665.781250	67.405472
19460.635957	16963.236167	664.563477	137.550461
19460.635957	16963.236167	663.344727	30.434793
19460.635957	16963.236167	662.125977	169.692078
19460.635957	16963.236167	660.907227	227.414749
19460.635957	16963.236167	659.688477	-101.637741
19460.635957	16963.236167	658.468750	43.525139
19460.635957	16963.236167	657.249023	269.959076
19460.635957	16963.236167	656.029297	-34.620415
19460.635957	16963.236167	654.808594	14.725375
19460.635957	16963.236167	653.587891	275.455597
19460.635957	16963.236167	652.367188	308.368805
19460.635957	16963.236167	651.146484	324.969666
19460.635957	16963.236167	649.924805	10.329594
19460.635957	16963.236167	648.704102	102.067726
19460.635957	16963.236167	647.482422	55.620094
19460.635957	16963.236167	646.259766	-88.313400
19460.635957	16963.236167	645.037109	1.241339
19460.635957	16963.236167	643.815430	-4.674092
19460.635957	16963.236167	642.591797	143.599960
19460.635957	16963.236167	641.369141	80.777519
19460.635957	16963.236167	640.145508	174.133209
19460.635957	16963.236167	638.921875	90.982117
19460.635957	16963.236167	637.698242	214.643448
19460.635957	16963.236167	636.474609	56.450081
19460.635957	16963.236167	635.250000	38.133369
19460.635957	16963.236167	634.025391	-32.888912
19460.635957	16963.236167	632.800781	13.588202
19460.635957	16963.236167	631.575195	15.456187
19460.635957	16963.236167	630.349609	175.245209
19460.635957	16963.236167	629.124023	71.747169
19460.635957	16963.236167	627.898438	-3.395430
19460.635957	16963.236167	626.671875	0.391438
19460.635957	16963.236167	625.445313	60.804066
19460.635957	16963.236167	624.218750	-42.682030
19460.635957	16963.236167	622.992188	-105.698746
19460.635957	16963.236167	621.764648	59.772240
19460.635957	16963.236167	620.537109	4.803280
19460.635957	16963.236167	619.309570	-100.690643
19460.635957	16963.236167	618.081055	-80.875801
19460.635957	16963.236167	616.852539	102.552635
19460.635957	16963.236167	615.624023	-160.497192
19460.635957	16963.236167	614.395508	10.721774
19460.635957	16963.236167	613.166992	86.960442
19460.635957	16963.236167	611.937500	-131.557861
19460.635957	16963.236167	610.708008	-49.295811
19460.635957	16963.236167	609.477539	-39.719566
19460.635957	16963.236167	608.248047	14.222179
19460.635957	16963.236167	607.017578	9.641103
19460.635957	16963.236167	605.787109	-115.932281
19460.635957	16963.236167	604.555664	-136.632126
19460.635957	16963.236167	603.325195	-70.660004
19460.635957	16963.236167	602.093750	-99.435562
19460.635957	16963.236167	600.861328	22.895624
19460.635957	16963.236167	599.629883	-253.653168
19460.635957	16963.236167	598.397461	142.530609
19460.635957	16963.236167	597.165039	-158.094772
19460.635957	16963.236167	595.932617	-124.441521
19460.635957	16963.236167	594.699219	-332.310852
19460.635957	16963.236167	593.465820	-367.050171
19460.635957	16963.236167	592.232422	-275.037506
19460.635957	16963.236167	590.999023	-215.243744
19460.635957	16963.236167	589.764648	-81.073586
19460.635957	16963.236167	588.530273	57.062988
19460.635957	16963.236167	587.295898	-126.452347
19460.635957	16963.236167	586.061523	-68.739876
19460.635957	16963.236167	584.826172	-127.576454
19460.635957	16963.236167	583.590820	-3.590865
19460.635957	16963.236167	582.355469	-74.453255
19460.635957	16963.236167	581.119141	-267.756897
19460.635957	16963.236167	579.882813	-224.096466
19460.635957	16963.236167	578.646484	-80.096268
19460.635957	16963.236167	577.410156	-184.960663
19460.635957	16963.236167	576.172852	127.503128
19460.635957	16963.236167	574.935547	16.642733
19460.635957	16963.236167	573.698242	138.451920
19460.635957	16963.236167	572.460938	107.854172
19460.635957	16963.236167	571.222656	101.333252
19460.635957	16963.236167	569.984375	56.753231
19460.635957	16963.236167	568.746094	-65.933220
19460.635957	16963.236167	567.506836	-70.368324
19460.635957	16963.236167	566.267578	-122.852211
19460.635957	16963.236167	565.028320	173.098007
19460.635957	16963.236167	563.789063	298.780579
19460.635957	16963.236167	562.548828	16.134266
19460.635957	16963.236167	561.309570	79.799309
19460.635957	16963.236167	560.068359	95.436867
19460.635957	16963.236167	558.828125	91.085594
19460.635957	16963.236167	557.586914	84.753410
19460.635957	16963.236167	556.345703	-57.510574
19460.635957	16963.236167	555.104492	56.158077
19460.635957	16963.236167	553.863281	-125.970978
19460.635957	16963.236167	552.621094	55.631657
19460.635957	16963.236167	551.378906	17.440657
19460.635957	16963.236167	550.136719	178.998993
19460.635957	16963.236167	548.893555	27.021526
19460.635957	16963.236167	547.650391	156.603836
19460.635957	16963.236167	546.407227	-43.168278
19460.635957	16963.236167	545.164063	-49.280357
19460.635957	16963.236167	543.919922	32.407124
19460.635957	16963.236167	542.675781	128.039291
19460.635957	16963.236167	541.431641	36.196846
19460.635957	16963.236167	540.186523	157.738922
19460.635957	16963.236167	538.941406	59.982315
19460.635957	16963.236167	537.696289	151.605194
19460.635957	16963.236167	536.451172	95.764221
19460.635957	16963.236167	535.205078	8.087858
19460.635957	16963.236167	533.959961	137.546661
19460.635957	16963.236167	532.712891	101.695221
19460.635957	16963.236167	531.466797	-77.461159
19460.635957	16963.236167	530.219727	2.210898
19460.635957	16963.236167	528.972656	18.181833
19460.635957	16963.236167	527.725586	157.502350
19460.635957	16963.236167	526.478516	342.518005
19460.635957	16963.236167	525.230469	141.672180
19460.635957	16963.236167	523.982422	306.742615
19460.635957	16963.236167	522.734375	44.380325
19460.635957	16963.236167	521.485352	267.039185
19460.635957	16963.236167	520.236328	221.372665
19460.635957	16963.236167	518.987305	195.591034
19460.635957	16963.236167	517.737305	414.100098
19460.635957	16963.236167	516.488281	497.490234
19460.635957	16963.236167	515.238281	294.971100
19460.635957	16963.236167	513.988281	209.632141
19460.635957	16963.236167	512.737305	259.254791
19460.635957	16963.236167	511.486328	398.118774
19460.635957	16963.236167	510.235352	376.247192
19460.635957	16963.236167	508.984375	411.876923
19460.635957	16963.236167	507.732422	502.985138
19460.635957	16963.236167	506.480469	653.498657
19460.635957	16963.236167	505.228516	492.782959
19460.635957	16963.236167	503.976563	540.150574
19460.635957	16963.236167	502.723633	549.829224
19460.635957	16963.236167	501.470703	319.829285
19460.635957	16963.236167	500.217773	666.093811
19460.635957	16963.236167	498.963867	685.525879
19460.635957	16963.236167	497.709961	637.612061
19460.635957	16963.236167	496.456055	619.353699
19460.635957	16963.236167	495.202148	870.110352
19460.635957	16963.236167	493.947266	1077.188599
19460.635957	16963.236167	492.692383	930.142212
19460.635957	16963.236167	491.437500	729.715027
19460.635957	16963.236167	490.181641	750.691589
19460.635957	16963.236167	488.926758	664.871643
19460.635957	16963.236167	487.670898	1025.546021
19460.635957	16963.236167	486.414063	819.044739
19460.635957	16963.236167	485.158203	1078.639160
19460.635957	16963.236167	483.901367	1225.479492
19460.635957	16963.236167	482.644531	1135.267212
19460.635957	16963.236167	481.386719	1269.990234
19460.635957	16963.236167	480.128906	1238.793091
19460.635957	16963.236167	478.871094	878.032349
19460.635957	16963.236167	477.613281	1272.741211
19460.635957	16963.236167	476.355469	1233.317139
19460.635957	16963.236167	475.096680	1221.378418
19460.635957	16963.236167	473.837891	1136.375000
19460.635957	16963.236167	472.578125	1565.615112
19460.635957	16963.236167	471.319336	1539.385864
19460.635957	16963.236167	470.059570	1205.706421
19460.635957	16963.236167	468.799805	1303.312378
19460.635957	16963.236167	467.539063	1392.822510
19460.635957	16963.236167	466.278320	1554.950439
19460.635957	16963.236167	465.017578	1289.728394
19460.635957	16963.236167	463.756836	1447.485474
19460.635957	16963.236167	462.495117	1427.907227
19460.635957	16963.236167	461.233398	1510.401367
19460.635957	16963.236167	459.971680	1350.761108
19460.635957	16963.236167	458.709961	1676.568359
19460.635957	16963.236167	457.447266	1604.935913
19460.635957	16963.236167	456.184570	1582.211548
19460.635957	16963.236167	454.921875	1618.179932
19460.635957	16963.236167	453.658203	1663.677734
19460.635957	16963.236167	452.394531	1720.658447
19460.635957	16963.236167	451.130859	1704.673340
19460.635957	16963.236167	449.867188	1876.846436
19460.635957	16963.236167	448.602539	1663.947388
19460.635957	16963.236167	447.337891	1860.918579
19460.635957	16963.236167	446.073242	1829.900146
19460.635957	16963.236167	444.807617	1676.934448
19460.635957	16963.236167	443.542969	1700.165771
19460.635957	16963.236167	442.276367	1864.157349
19460.635957	16963.236167	441.010742	1941.454346
19460.635957	16963.236167	439.744141	1730.239258
19460.635957	16963.236167	438.478516	1996.767212
19460.635957	16963.236167	437.210938	2021.801514
19460.635957	16963.236167	435.944336	2154.104492
19460.635957	16963.236167	434.676758	1886.459717
19460.635957	16963.236167	433.409180	1735.914917
19460.635957	16963.236167	432.141602	1948.975952
19460.635957	16963.236167	430.873047	2032.292603
19460.635957	16963.236167	429.604492	1852.916626
19460.635957	16963.236167	428.335938	1923.435059
19460.635957	16963.236167	427.067383	2069.638428
19460.635957	16963.236167	425.797852	2054.891602
19460.635957	16963.236167	424.528320	1955.521484
19460.635957	16963.236167	423.258789	2043.192993
19460.635957	16963.236167	421.988281	1758.989014
19460.635957	16963.236167	420.717773	1966.507324
19460.635957	16963.236167	419.447266	2093.212646
19460.635957	16963.236167	418.175781	1998.546143
19460.635957	16963.236167	416.905273	1721.704590
19460.635957	16963.236167	415.633789	1744.804810
19460.635957	16963.236167	414.362305	1813.992310
19460.635957	16963.236167	413.089844	2038.441040
19460.635957	16963.236167	411.817383	1712.019653
19460.635957	16963.236167	410.544922	1603.335938
19460.635957	16963.236167	409.272461	1903.279053
19460.635957	16963.236167	407.999023	1580.474976
19460.635957	16963.236167	406.725586	1892.212524
19460.635957	16963.236167	405.452148	1836.659790
19460.635957	16963.236167	404.177734	1817.208862
19460.635957	16963.236167	402.903320	1960.415039
19460.635957	16963.236167	401.628906	1734.621582
19460.635957	16963.236167	400.354492	1698.704590
19460.635957	16963.236167	399.079102	1708.478271
19460.635957	16963.236167	397.803711	1760.018188
19460.635957	16963.236167	396.528320	1580.929688
19460.635957	16963.236167	395.251953	1708.091309
19460.635957	16963.236167	393.976563	1659.109131
19460.635957	16963.236167	392.700195	1780.050171
19460.635957	16963.236167	391.422852	1787.006836
19460.635957	16963.236167	390.145508	1792.758057
19460.635957	16963.236167	388.869141	1513.663818
19460.635957	16963.236167	387.590820	1530.542236
19460.635957	16963.236167	386.313477	1596.639160
19460.635957	16963.236167	385.035156	1651.641846
19460.635957	16963.236167	383.756836	1497.571289
19460.635957	16963.236167	382.478516	1580.876465
19460.635957	16963.236167	381.199219	1610.298584
19460.635957	16963.236167	379.919922	1543.203491
19460.635957	16963.236167	378.640625	1554.157837
19460.635957	16963.236167	377.360352	1441.389526
19460.635957	16963.236167	376.080078	1135.193970
19460.635957	16963.236167	374.799805	1467.104492
19460.635957	16963.236167	373.519531	1334.132446
19460.635957	16963.236167	372.238281	1112.324951
19460.635957	16963.236167	370.957031	1020.606262
19460.635957	16963.236167	369.675781	1122.755493
19460.635957	16963.236167	368.394531	1298.574341
19460.635957	16963.236167	367.112305	1213.072754
19460.635957	16963.236167	365.830078	1119.931519
19460.635957	16963.236167	364.546875	1113.863403
19460.635957	16963.236167	363.264648	966.627380
19460.635957	16963.236167	361.981445	1047.533813
19460.635957	16963.236167	360.698242	923.352173
19460.635957	16963.236167	359.414063	1029.044189
19460.635957	16963.236167	358.129883	1140.287476
19460.635957	16963.236167	356.845703	1019.371643
19460.635957	16963.236167	355.561523	1016.058472
19460.635957	16963.236167	354.276367	969.848877
19460.635957	16963.236167	352.991211	892.375061
19460.635957	16963.236167	351.706055	743.068359
19460.635957	16963.236167	350.420898	691.773438
19460.635957	16963.236167	349.134766	803.910645
19460.635957	16963.236167	347.848633	722.483215
19460.635957	16963.236167	346.561523	767.669739
19460.635957	16963.236167	345.275391	931.777954
19460.635957	16963.236167	343.988281	744.086670
19460.635957	16963.236167	342.700195	746.416016
19460.635957	16963.236167	341.413086	270.028564
19460.635957	16963.236167	340.125000	395.907104
19460.635957	16963.236167	338.836914	592.023682
19460.635957	16963.236167	337.548828	559.761658
19460.635957	16963.236167	336.259766	118.123665
19460.635957	16963.236167	334.970703	112.501549
19460.635957	16963.236167	333.681641	477.113953
19460.635957	16963.236167	332.391602	199.420471
19460.635957	16963.236167	331.101563	295.637390
19460.635957	16963.236167	329.811523	124.972763
19460.635957	16963.236167	328.521484	149.047867
19460.635957	16963.236167	327.230469	269.505768
19460.635957	16963.236167	325.939453	-26.880459
19460.635957	16963.236167	324.648438	-15.424106
19460.635957	16963.236167	323.356445	-23.135685
19460.635957	16963.236167	322.064453	174.784210
19460.635957	16963.236167	320.772461	-67.133018
19460.635957	16963.236167	319.480469	-209.151840
19460.635957	16963.236167	318.187500	78.629425
19460.635957	16963.236167	316.894531	-157.846008
19460.635957	16963.236167	315.601563	2.689411
19460.635957	16963.236167	314.307617	-67.533188
19460.635957	16963.236167	313.013672	-228.301239
19460.635957	16963.236167	311.719727	-180.500793
19460.635957	16963.236167	310.425781	-66.214256
19460.635957	16963.236167	309.130859	-39.052135
19460.635957	16963.236167	307.835938	-43.318974
19460.635957	16963.236167	306.541016	33.956100
19460.635957	16963.236167	305.245117	-54.618862
19460.635957	16963.236167	303.949219	-27.357386
19460.635957	16963.236167	302.653320	220.877838
19460.635957	16963.236167	301.356445	320.248688
19460.635957	16963.236167	300.060547	470.137787
19460.635957	16963.236167	298.763672	549.529236
