#X		#Y		#Wave		#Intensity
19478.406596	16945.525000	2000.043945	61.513695
19478.406596	16945.525000	1999.080078	112.118423
19478.406596	16945.525000	1998.116211	42.550098
19478.406596	16945.525000	1997.151367	120.933014
19478.406596	16945.525000	1996.186523	-465.500549
19478.406596	16945.525000	1995.222656	-29.384752
19478.406596	16945.525000	1994.256836	-208.351578
19478.406596	16945.525000	1993.291992	-113.106590
19478.406596	16945.525000	1992.327148	-261.216461
19478.406596	16945.525000	1991.361328	25.754751
19478.406596	16945.525000	1990.395508	94.178329
19478.406596	16945.525000	1989.429688	-65.704102
19478.406596	16945.525000	1988.463867	362.678802
19478.406596	16945.525000	1987.497070	72.997353
19478.406596	16945.525000	1986.531250	89.493988
19478.406596	16945.525000	1985.564453	439.251556
19478.406596	16945.525000	1984.597656	143.096130
19478.406596	16945.525000	1983.630859	101.116821
19478.406596	16945.525000	1982.664063	570.195374
19478.406596	16945.525000	1981.696289	97.244896
19478.406596	16945.525000	1980.728516	300.867706
19478.406596	16945.525000	1979.761719	405.144287
19478.406596	16945.525000	1978.792969	508.961426
19478.406596	16945.525000	1977.825195	241.946854
19478.406596	16945.525000	1976.857422	302.927124
19478.406596	16945.525000	1975.888672	551.066650
19478.406596	16945.525000	1974.919922	100.390518
19478.406596	16945.525000	1973.951172	120.728882
19478.406596	16945.525000	1972.982422	145.628296
19478.406596	16945.525000	1972.013672	545.035461
19478.406596	16945.525000	1971.043945	305.330200
19478.406596	16945.525000	1970.075195	501.739777
19478.406596	16945.525000	1969.105469	540.020020
19478.406596	16945.525000	1968.135742	610.018982
19478.406596	16945.525000	1967.165039	-128.460114
19478.406596	16945.525000	1966.195313	433.762665
19478.406596	16945.525000	1965.224609	305.869293
19478.406596	16945.525000	1964.253906	382.157227
19478.406596	16945.525000	1963.283203	312.906616
19478.406596	16945.525000	1962.312500	600.381775
19478.406596	16945.525000	1961.341797	235.305740
19478.406596	16945.525000	1960.370117	598.532959
19478.406596	16945.525000	1959.399414	498.877869
19478.406596	16945.525000	1958.427734	617.989990
19478.406596	16945.525000	1957.455078	124.495155
19478.406596	16945.525000	1956.483398	184.247284
19478.406596	16945.525000	1955.511719	113.507523
19478.406596	16945.525000	1954.539063	325.303619
19478.406596	16945.525000	1953.566406	389.413300
19478.406596	16945.525000	1952.593750	335.411102
19478.406596	16945.525000	1951.621094	313.224701
19478.406596	16945.525000	1950.647461	313.023102
19478.406596	16945.525000	1949.674805	140.791763
19478.406596	16945.525000	1948.701172	594.600647
19478.406596	16945.525000	1947.727539	363.240692
19478.406596	16945.525000	1946.753906	406.746216
19478.406596	16945.525000	1945.780273	-116.706329
19478.406596	16945.525000	1944.805664	-14.430297
19478.406596	16945.525000	1943.831055	38.661926
19478.406596	16945.525000	1942.856445	35.248287
19478.406596	16945.525000	1941.881836	328.459656
19478.406596	16945.525000	1940.907227	214.528320
19478.406596	16945.525000	1939.932617	183.914871
19478.406596	16945.525000	1938.957031	72.388397
19478.406596	16945.525000	1937.981445	107.862099
19478.406596	16945.525000	1937.005859	-13.508622
19478.406596	16945.525000	1936.030273	396.624847
19478.406596	16945.525000	1935.054688	49.868729
19478.406596	16945.525000	1934.078125	-61.739357
19478.406596	16945.525000	1933.101563	316.252289
19478.406596	16945.525000	1932.125000	74.863480
19478.406596	16945.525000	1931.148438	-90.596992
19478.406596	16945.525000	1930.171875	223.515396
19478.406596	16945.525000	1929.194336	-10.430593
19478.406596	16945.525000	1928.217773	232.602325
19478.406596	16945.525000	1927.240234	-152.875031
19478.406596	16945.525000	1926.262695	241.662415
19478.406596	16945.525000	1925.284180	418.516449
19478.406596	16945.525000	1924.306641	333.811737
19478.406596	16945.525000	1923.328125	41.460896
19478.406596	16945.525000	1922.350586	42.377354
19478.406596	16945.525000	1921.372070	43.307507
19478.406596	16945.525000	1920.392578	210.312561
19478.406596	16945.525000	1919.414063	-40.237469
19478.406596	16945.525000	1918.434570	380.634003
19478.406596	16945.525000	1917.456055	78.931450
19478.406596	16945.525000	1916.476563	23.830538
19478.406596	16945.525000	1915.497070	-14.147085
19478.406596	16945.525000	1914.516602	145.502365
19478.406596	16945.525000	1913.537109	-63.144997
19478.406596	16945.525000	1912.556641	-120.499687
19478.406596	16945.525000	1911.576172	-41.278854
19478.406596	16945.525000	1910.595703	59.886150
19478.406596	16945.525000	1909.615234	180.543564
19478.406596	16945.525000	1908.633789	-15.555213
19478.406596	16945.525000	1907.653320	-162.825287
19478.406596	16945.525000	1906.671875	255.070679
19478.406596	16945.525000	1905.690430	10.481198
19478.406596	16945.525000	1904.708984	-112.239342
19478.406596	16945.525000	1903.727539	25.595417
19478.406596	16945.525000	1902.745117	280.248322
19478.406596	16945.525000	1901.762695	72.508743
19478.406596	16945.525000	1900.780273	-110.778999
19478.406596	16945.525000	1899.797852	109.832832
19478.406596	16945.525000	1898.815430	-187.610443
19478.406596	16945.525000	1897.832031	35.460499
19478.406596	16945.525000	1896.849609	-198.556870
19478.406596	16945.525000	1895.866211	114.456108
19478.406596	16945.525000	1894.882813	344.772369
19478.406596	16945.525000	1893.898438	50.230629
19478.406596	16945.525000	1892.915039	59.499237
19478.406596	16945.525000	1891.930664	76.101242
19478.406596	16945.525000	1890.947266	85.452705
19478.406596	16945.525000	1889.962891	-45.968189
19478.406596	16945.525000	1888.977539	281.500519
19478.406596	16945.525000	1887.993164	222.993240
19478.406596	16945.525000	1887.007813	-87.804779
19478.406596	16945.525000	1886.023438	-255.308243
19478.406596	16945.525000	1885.038086	-92.812271
19478.406596	16945.525000	1884.051758	275.813599
19478.406596	16945.525000	1883.066406	81.798691
19478.406596	16945.525000	1882.081055	-36.948193
19478.406596	16945.525000	1881.094727	-208.930313
19478.406596	16945.525000	1880.108398	162.029999
19478.406596	16945.525000	1879.122070	-36.495792
19478.406596	16945.525000	1878.135742	92.126251
19478.406596	16945.525000	1877.148438	-111.073936
19478.406596	16945.525000	1876.162109	70.862625
19478.406596	16945.525000	1875.174805	221.297424
19478.406596	16945.525000	1874.187500	211.948669
19478.406596	16945.525000	1873.199219	67.111877
19478.406596	16945.525000	1872.211914	222.405777
19478.406596	16945.525000	1871.223633	-384.395905
19478.406596	16945.525000	1870.236328	213.633911
19478.406596	16945.525000	1869.248047	-134.111832
19478.406596	16945.525000	1868.258789	-273.751404
19478.406596	16945.525000	1867.270508	-67.615822
19478.406596	16945.525000	1866.282227	-69.397896
19478.406596	16945.525000	1865.292969	-61.479828
19478.406596	16945.525000	1864.303711	14.109844
19478.406596	16945.525000	1863.314453	169.408859
19478.406596	16945.525000	1862.324219	-143.873199
19478.406596	16945.525000	1861.334961	-10.292356
19478.406596	16945.525000	1860.344727	-50.568756
19478.406596	16945.525000	1859.354492	191.606750
19478.406596	16945.525000	1858.364258	21.017870
19478.406596	16945.525000	1857.374023	248.641678
19478.406596	16945.525000	1856.383789	114.320480
19478.406596	16945.525000	1855.392578	283.982544
19478.406596	16945.525000	1854.401367	222.077469
19478.406596	16945.525000	1853.410156	-112.251694
19478.406596	16945.525000	1852.418945	45.329449
19478.406596	16945.525000	1851.426758	-110.467636
19478.406596	16945.525000	1850.435547	288.038879
19478.406596	16945.525000	1849.443359	-29.164034
19478.406596	16945.525000	1848.451172	212.609421
19478.406596	16945.525000	1847.458984	-15.349360
19478.406596	16945.525000	1846.466797	-21.692341
19478.406596	16945.525000	1845.473633	157.346573
19478.406596	16945.525000	1844.480469	242.437531
19478.406596	16945.525000	1843.487305	522.422729
19478.406596	16945.525000	1842.494141	75.636414
19478.406596	16945.525000	1841.500977	122.176674
19478.406596	16945.525000	1840.506836	120.586838
19478.406596	16945.525000	1839.513672	22.787062
19478.406596	16945.525000	1838.519531	160.639099
19478.406596	16945.525000	1837.525391	332.076813
19478.406596	16945.525000	1836.530273	210.217758
19478.406596	16945.525000	1835.536133	299.841553
19478.406596	16945.525000	1834.541016	310.130157
19478.406596	16945.525000	1833.545898	625.456909
19478.406596	16945.525000	1832.550781	-101.666016
19478.406596	16945.525000	1831.555664	148.734314
19478.406596	16945.525000	1830.560547	276.574280
19478.406596	16945.525000	1829.564453	488.352112
19478.406596	16945.525000	1828.568359	308.849579
19478.406596	16945.525000	1827.572266	208.559204
19478.406596	16945.525000	1826.576172	218.622025
19478.406596	16945.525000	1825.580078	111.118500
19478.406596	16945.525000	1824.583008	70.767403
19478.406596	16945.525000	1823.585938	4.020604
19478.406596	16945.525000	1822.588867	54.714466
19478.406596	16945.525000	1821.591797	45.429489
19478.406596	16945.525000	1820.594727	-64.537010
19478.406596	16945.525000	1819.596680	266.316742
19478.406596	16945.525000	1818.599609	261.648651
19478.406596	16945.525000	1817.601563	134.803619
19478.406596	16945.525000	1816.603516	254.577652
19478.406596	16945.525000	1815.604492	156.411850
19478.406596	16945.525000	1814.606445	230.556305
19478.406596	16945.525000	1813.607422	259.152466
19478.406596	16945.525000	1812.608398	275.721222
19478.406596	16945.525000	1811.609375	249.165421
19478.406596	16945.525000	1810.610352	248.870438
19478.406596	16945.525000	1809.610352	382.425537
19478.406596	16945.525000	1808.611328	276.788605
19478.406596	16945.525000	1807.611328	159.180557
19478.406596	16945.525000	1806.611328	247.079742
19478.406596	16945.525000	1805.610352	301.432678
19478.406596	16945.525000	1804.610352	329.414642
19478.406596	16945.525000	1803.609375	307.162079
19478.406596	16945.525000	1802.608398	270.520844
19478.406596	16945.525000	1801.607422	54.749477
19478.406596	16945.525000	1800.606445	287.772522
19478.406596	16945.525000	1799.605469	258.096619
19478.406596	16945.525000	1798.603516	183.021423
19478.406596	16945.525000	1797.601563	396.580688
19478.406596	16945.525000	1796.599609	163.919769
19478.406596	16945.525000	1795.597656	174.527786
19478.406596	16945.525000	1794.595703	39.600880
19478.406596	16945.525000	1793.592773	90.600555
19478.406596	16945.525000	1792.589844	463.275909
19478.406596	16945.525000	1791.587891	-0.742784
19478.406596	16945.525000	1790.583984	14.247111
19478.406596	16945.525000	1789.581055	55.345638
19478.406596	16945.525000	1788.577148	-115.627121
19478.406596	16945.525000	1787.574219	313.456207
19478.406596	16945.525000	1786.570313	351.835297
19478.406596	16945.525000	1785.566406	282.992432
19478.406596	16945.525000	1784.561523	304.527161
19478.406596	16945.525000	1783.557617	325.956329
19478.406596	16945.525000	1782.552734	102.249504
19478.406596	16945.525000	1781.547852	-173.796188
19478.406596	16945.525000	1780.542969	170.861404
19478.406596	16945.525000	1779.538086	13.602375
19478.406596	16945.525000	1778.532227	98.787613
19478.406596	16945.525000	1777.527344	38.857052
19478.406596	16945.525000	1776.521484	382.830078
19478.406596	16945.525000	1775.515625	334.555267
19478.406596	16945.525000	1774.508789	260.070953
19478.406596	16945.525000	1773.502930	-177.857819
19478.406596	16945.525000	1772.496094	512.180237
19478.406596	16945.525000	1771.489258	473.014557
19478.406596	16945.525000	1770.482422	248.619308
19478.406596	16945.525000	1769.475586	183.208725
19478.406596	16945.525000	1768.467773	476.002350
19478.406596	16945.525000	1767.460938	353.432526
19478.406596	16945.525000	1766.453125	375.487610
19478.406596	16945.525000	1765.445313	257.519348
19478.406596	16945.525000	1764.437500	390.808594
19478.406596	16945.525000	1763.428711	94.887001
19478.406596	16945.525000	1762.420898	-110.968262
19478.406596	16945.525000	1761.412109	225.779144
19478.406596	16945.525000	1760.403320	29.241354
19478.406596	16945.525000	1759.393555	178.494629
19478.406596	16945.525000	1758.384766	438.889343
19478.406596	16945.525000	1757.375000	140.287292
19478.406596	16945.525000	1756.366211	97.357613
19478.406596	16945.525000	1755.356445	215.284012
19478.406596	16945.525000	1754.345703	288.093353
19478.406596	16945.525000	1753.335938	233.006241
19478.406596	16945.525000	1752.325195	21.703897
19478.406596	16945.525000	1751.315430	44.514843
19478.406596	16945.525000	1750.304688	145.239029
19478.406596	16945.525000	1749.292969	115.786224
19478.406596	16945.525000	1748.282227	133.509109
19478.406596	16945.525000	1747.270508	198.378952
19478.406596	16945.525000	1746.259766	-3.881975
19478.406596	16945.525000	1745.248047	266.292938
19478.406596	16945.525000	1744.235352	328.405365
19478.406596	16945.525000	1743.223633	-1.614680
19478.406596	16945.525000	1742.211914	-34.133385
19478.406596	16945.525000	1741.199219	-54.948975
19478.406596	16945.525000	1740.186523	94.061043
19478.406596	16945.525000	1739.173828	-21.376608
19478.406596	16945.525000	1738.160156	14.105619
19478.406596	16945.525000	1737.147461	150.892242
19478.406596	16945.525000	1736.133789	-35.570942
19478.406596	16945.525000	1735.120117	225.917313
19478.406596	16945.525000	1734.106445	126.515480
19478.406596	16945.525000	1733.091797	-50.739368
19478.406596	16945.525000	1732.078125	-86.645164
19478.406596	16945.525000	1731.063477	209.557419
19478.406596	16945.525000	1730.048828	229.931564
19478.406596	16945.525000	1729.034180	382.077301
19478.406596	16945.525000	1728.019531	267.977417
19478.406596	16945.525000	1727.003906	33.742771
19478.406596	16945.525000	1725.988281	169.038574
19478.406596	16945.525000	1724.972656	148.853592
19478.406596	16945.525000	1723.957031	-266.715973
19478.406596	16945.525000	1722.941406	-108.236023
19478.406596	16945.525000	1721.924805	75.946831
19478.406596	16945.525000	1720.909180	-170.375031
19478.406596	16945.525000	1719.892578	98.178825
19478.406596	16945.525000	1718.875977	-58.940361
19478.406596	16945.525000	1717.858398	-21.042408
19478.406596	16945.525000	1716.841797	-206.482483
19478.406596	16945.525000	1715.824219	-53.658237
19478.406596	16945.525000	1714.806641	110.749245
19478.406596	16945.525000	1713.789063	84.771912
19478.406596	16945.525000	1712.770508	-406.193390
19478.406596	16945.525000	1711.752930	-49.618011
19478.406596	16945.525000	1710.734375	-122.794937
19478.406596	16945.525000	1709.715820	-123.297287
19478.406596	16945.525000	1708.697266	-196.626221
19478.406596	16945.525000	1707.678711	-133.976257
19478.406596	16945.525000	1706.659180	50.504093
19478.406596	16945.525000	1705.640625	119.926735
19478.406596	16945.525000	1704.621094	139.991821
19478.406596	16945.525000	1703.600586	-126.005104
19478.406596	16945.525000	1702.581055	-45.158600
19478.406596	16945.525000	1701.561523	377.642487
19478.406596	16945.525000	1700.541016	90.393799
19478.406596	16945.525000	1699.520508	-51.627132
19478.406596	16945.525000	1698.500000	47.508400
19478.406596	16945.525000	1697.478516	-153.163177
19478.406596	16945.525000	1696.458008	55.792011
19478.406596	16945.525000	1695.436523	185.004410
19478.406596	16945.525000	1694.415039	-111.773293
19478.406596	16945.525000	1693.393555	356.463806
19478.406596	16945.525000	1692.372070	225.664032
19478.406596	16945.525000	1691.349609	45.716965
19478.406596	16945.525000	1690.327148	541.453735
19478.406596	16945.525000	1689.304688	347.326660
19478.406596	16945.525000	1688.282227	-87.532326
19478.406596	16945.525000	1687.259766	304.891541
19478.406596	16945.525000	1686.236328	84.979767
19478.406596	16945.525000	1685.213867	-36.814384
19478.406596	16945.525000	1684.190430	373.817719
19478.406596	16945.525000	1683.166016	300.884888
19478.406596	16945.525000	1682.142578	167.217789
19478.406596	16945.525000	1681.119141	182.906799
19478.406596	16945.525000	1680.094727	399.196350
19478.406596	16945.525000	1679.070313	638.664673
19478.406596	16945.525000	1678.045898	549.066772
19478.406596	16945.525000	1677.020508	370.805267
19478.406596	16945.525000	1675.996094	395.416687
19478.406596	16945.525000	1674.970703	128.530899
19478.406596	16945.525000	1673.945313	281.240143
19478.406596	16945.525000	1672.919922	482.766388
19478.406596	16945.525000	1671.893555	395.228699
19478.406596	16945.525000	1670.868164	549.943604
19478.406596	16945.525000	1669.841797	539.167358
19478.406596	16945.525000	1668.815430	656.412476
19478.406596	16945.525000	1667.789063	205.483032
19478.406596	16945.525000	1666.761719	290.040833
19478.406596	16945.525000	1665.735352	253.500580
19478.406596	16945.525000	1664.708008	293.698242
19478.406596	16945.525000	1663.680664	694.418030
19478.406596	16945.525000	1662.653320	532.059814
19478.406596	16945.525000	1661.625000	446.449280
19478.406596	16945.525000	1660.597656	244.581665
19478.406596	16945.525000	1659.569336	440.239807
19478.406596	16945.525000	1658.541016	247.649658
19478.406596	16945.525000	1657.512695	301.398529
19478.406596	16945.525000	1656.483398	921.944763
19478.406596	16945.525000	1655.455078	568.977478
19478.406596	16945.525000	1654.425781	420.462708
19478.406596	16945.525000	1653.396484	357.878540
19478.406596	16945.525000	1652.366211	539.023071
19478.406596	16945.525000	1651.336914	689.900146
19478.406596	16945.525000	1650.306641	659.674744
19478.406596	16945.525000	1649.276367	569.108337
19478.406596	16945.525000	1648.246094	682.673157
19478.406596	16945.525000	1647.215820	842.548279
19478.406596	16945.525000	1646.185547	763.504822
19478.406596	16945.525000	1645.154297	974.243042
19478.406596	16945.525000	1644.123047	1052.760864
19478.406596	16945.525000	1643.091797	936.561707
19478.406596	16945.525000	1642.060547	1137.807251
19478.406596	16945.525000	1641.028320	1047.068726
19478.406596	16945.525000	1639.997070	1215.752930
19478.406596	16945.525000	1638.964844	907.333130
19478.406596	16945.525000	1637.931641	948.595825
19478.406596	16945.525000	1636.899414	1223.619751
19478.406596	16945.525000	1635.867188	1535.552246
19478.406596	16945.525000	1634.833984	1180.972656
19478.406596	16945.525000	1633.800781	1150.386719
19478.406596	16945.525000	1632.767578	974.094788
19478.406596	16945.525000	1631.734375	980.545715
19478.406596	16945.525000	1630.700195	1368.461182
19478.406596	16945.525000	1629.666016	1453.409424
19478.406596	16945.525000	1628.631836	1415.833618
19478.406596	16945.525000	1627.597656	1013.188293
19478.406596	16945.525000	1626.563477	1137.426025
19478.406596	16945.525000	1625.528320	1256.991333
19478.406596	16945.525000	1624.493164	1461.958496
19478.406596	16945.525000	1623.458008	1452.125732
19478.406596	16945.525000	1622.422852	1363.818848
19478.406596	16945.525000	1621.387695	1321.713257
19478.406596	16945.525000	1620.351563	1238.091187
19478.406596	16945.525000	1619.315430	1468.270996
19478.406596	16945.525000	1618.279297	1553.058960
19478.406596	16945.525000	1617.243164	1573.257202
19478.406596	16945.525000	1616.207031	1814.810669
19478.406596	16945.525000	1615.169922	1606.751709
19478.406596	16945.525000	1614.132813	1659.236572
19478.406596	16945.525000	1613.095703	1796.983521
19478.406596	16945.525000	1612.058594	2116.708740
19478.406596	16945.525000	1611.020508	2116.142090
19478.406596	16945.525000	1609.983398	2067.242676
19478.406596	16945.525000	1608.945313	2322.322021
19478.406596	16945.525000	1607.907227	2450.713623
19478.406596	16945.525000	1606.868164	2436.372314
19478.406596	16945.525000	1605.830078	2541.737061
19478.406596	16945.525000	1604.791016	2900.172607
19478.406596	16945.525000	1603.751953	3419.523926
19478.406596	16945.525000	1602.712891	3600.624756
19478.406596	16945.525000	1601.673828	3163.144531
19478.406596	16945.525000	1600.633789	3479.932129
19478.406596	16945.525000	1599.594727	3047.321289
19478.406596	16945.525000	1598.554688	3145.768555
19478.406596	16945.525000	1597.513672	3398.156250
19478.406596	16945.525000	1596.473633	3076.198242
19478.406596	16945.525000	1595.433594	3000.161865
19478.406596	16945.525000	1594.392578	2841.527588
19478.406596	16945.525000	1593.351563	2719.737549
19478.406596	16945.525000	1592.310547	2744.949463
19478.406596	16945.525000	1591.268555	2917.071533
19478.406596	16945.525000	1590.227539	2648.643311
19478.406596	16945.525000	1589.185547	2196.841064
19478.406596	16945.525000	1588.143555	2236.102783
19478.406596	16945.525000	1587.100586	2034.616699
19478.406596	16945.525000	1586.058594	2477.522949
19478.406596	16945.525000	1585.015625	2136.359375
19478.406596	16945.525000	1583.972656	2233.123291
19478.406596	16945.525000	1582.929688	1720.411133
19478.406596	16945.525000	1581.886719	2170.144287
19478.406596	16945.525000	1580.843750	2028.828003
19478.406596	16945.525000	1579.799805	1901.365234
19478.406596	16945.525000	1578.755859	1899.945679
19478.406596	16945.525000	1577.711914	2120.640625
19478.406596	16945.525000	1576.666992	1734.816284
19478.406596	16945.525000	1575.623047	2017.381226
19478.406596	16945.525000	1574.578125	2045.958862
19478.406596	16945.525000	1573.533203	2040.288940
19478.406596	16945.525000	1572.488281	1924.925781
19478.406596	16945.525000	1571.443359	1789.106567
19478.406596	16945.525000	1570.397461	1900.299561
19478.406596	16945.525000	1569.351563	1750.976685
19478.406596	16945.525000	1568.305664	1969.689941
19478.406596	16945.525000	1567.259766	1290.540161
19478.406596	16945.525000	1566.213867	1651.042114
19478.406596	16945.525000	1565.166992	1488.505859
19478.406596	16945.525000	1564.120117	1791.909058
19478.406596	16945.525000	1563.073242	1414.992920
19478.406596	16945.525000	1562.026367	1303.071289
19478.406596	16945.525000	1560.978516	1369.268677
19478.406596	16945.525000	1559.930664	1230.193359
19478.406596	16945.525000	1558.883789	1424.304443
19478.406596	16945.525000	1557.834961	1164.580322
19478.406596	16945.525000	1556.787109	980.302368
19478.406596	16945.525000	1555.739258	1302.285278
19478.406596	16945.525000	1554.690430	1391.748047
19478.406596	16945.525000	1553.641602	1169.075439
19478.406596	16945.525000	1552.592773	1106.074951
19478.406596	16945.525000	1551.542969	1314.265015
19478.406596	16945.525000	1550.494141	1240.071045
19478.406596	16945.525000	1549.444336	1382.319824
19478.406596	16945.525000	1548.394531	1014.664795
19478.406596	16945.525000	1547.344727	979.569946
19478.406596	16945.525000	1546.293945	908.176880
19478.406596	16945.525000	1545.244141	984.812622
19478.406596	16945.525000	1544.193359	1229.853394
19478.406596	16945.525000	1543.142578	892.676880
19478.406596	16945.525000	1542.090820	926.380310
19478.406596	16945.525000	1541.040039	1101.135376
19478.406596	16945.525000	1539.988281	1219.104370
19478.406596	16945.525000	1538.936523	1141.699707
19478.406596	16945.525000	1537.884766	919.023682
19478.406596	16945.525000	1536.833008	1139.518677
19478.406596	16945.525000	1535.780273	1507.663086
19478.406596	16945.525000	1534.727539	1269.489990
19478.406596	16945.525000	1533.674805	1142.771851
19478.406596	16945.525000	1532.622070	1188.725952
19478.406596	16945.525000	1531.569336	1550.226196
19478.406596	16945.525000	1530.515625	1067.652100
19478.406596	16945.525000	1529.461914	1102.604370
19478.406596	16945.525000	1528.408203	929.001770
19478.406596	16945.525000	1527.354492	755.587097
19478.406596	16945.525000	1526.299805	877.091736
19478.406596	16945.525000	1525.246094	978.271973
19478.406596	16945.525000	1524.191406	528.832031
19478.406596	16945.525000	1523.136719	424.096680
19478.406596	16945.525000	1522.081055	772.598389
19478.406596	16945.525000	1521.026367	883.272156
19478.406596	16945.525000	1519.970703	783.430603
19478.406596	16945.525000	1518.915039	686.020813
19478.406596	16945.525000	1517.859375	849.086426
19478.406596	16945.525000	1516.802734	568.640991
19478.406596	16945.525000	1515.747070	639.153259
19478.406596	16945.525000	1514.690430	684.878479
19478.406596	16945.525000	1513.633789	755.597107
19478.406596	16945.525000	1512.577148	432.944397
19478.406596	16945.525000	1511.519531	438.379761
19478.406596	16945.525000	1510.461914	683.550476
19478.406596	16945.525000	1509.405273	372.798645
19478.406596	16945.525000	1508.346680	595.554932
19478.406596	16945.525000	1507.289063	115.778152
19478.406596	16945.525000	1506.231445	469.763916
19478.406596	16945.525000	1505.172852	439.851135
19478.406596	16945.525000	1504.114258	491.364044
19478.406596	16945.525000	1503.055664	506.875214
19478.406596	16945.525000	1501.996094	272.005280
19478.406596	16945.525000	1500.937500	41.877537
19478.406596	16945.525000	1499.877930	-34.618690
19478.406596	16945.525000	1498.818359	80.773659
19478.406596	16945.525000	1497.757813	498.435364
19478.406596	16945.525000	1496.698242	282.521912
19478.406596	16945.525000	1495.637695	-181.123306
19478.406596	16945.525000	1494.577148	-112.569992
19478.406596	16945.525000	1493.516602	-55.171387
19478.406596	16945.525000	1492.456055	-33.700714
19478.406596	16945.525000	1491.394531	-12.096806
19478.406596	16945.525000	1490.333008	117.730240
19478.406596	16945.525000	1489.271484	319.694672
19478.406596	16945.525000	1488.209961	-124.328331
19478.406596	16945.525000	1487.148438	113.893806
19478.406596	16945.525000	1486.085938	-178.868195
19478.406596	16945.525000	1485.023438	232.781509
19478.406596	16945.525000	1483.960938	142.827377
19478.406596	16945.525000	1482.898438	8.076177
19478.406596	16945.525000	1481.834961	206.283463
19478.406596	16945.525000	1480.772461	357.342773
19478.406596	16945.525000	1479.708984	-60.082386
19478.406596	16945.525000	1478.644531	145.170517
19478.406596	16945.525000	1477.581055	148.291092
19478.406596	16945.525000	1476.517578	-54.976658
19478.406596	16945.525000	1475.453125	137.092316
19478.406596	16945.525000	1474.388672	-65.853714
19478.406596	16945.525000	1473.323242	-8.110981
19478.406596	16945.525000	1472.258789	191.073166
19478.406596	16945.525000	1471.193359	179.434540
19478.406596	16945.525000	1470.127930	115.995827
19478.406596	16945.525000	1469.062500	349.126068
19478.406596	16945.525000	1467.997070	505.956085
19478.406596	16945.525000	1466.930664	521.522339
19478.406596	16945.525000	1465.865234	253.316040
19478.406596	16945.525000	1464.798828	488.844055
19478.406596	16945.525000	1463.731445	283.430817
19478.406596	16945.525000	1462.665039	451.277679
19478.406596	16945.525000	1461.597656	716.339478
19478.406596	16945.525000	1460.530273	625.782166
19478.406596	16945.525000	1459.462891	821.574219
19478.406596	16945.525000	1458.395508	866.453796
19478.406596	16945.525000	1457.327148	398.061859
19478.406596	16945.525000	1456.259766	483.045441
19478.406596	16945.525000	1455.191406	718.356995
19478.406596	16945.525000	1454.123047	529.208374
19478.406596	16945.525000	1453.053711	508.182556
19478.406596	16945.525000	1451.985352	497.632477
19478.406596	16945.525000	1450.916016	761.107178
19478.406596	16945.525000	1449.846680	648.509521
19478.406596	16945.525000	1448.776367	667.541992
19478.406596	16945.525000	1447.707031	687.269287
19478.406596	16945.525000	1446.636719	716.491577
19478.406596	16945.525000	1445.566406	711.310242
19478.406596	16945.525000	1444.496094	434.267822
19478.406596	16945.525000	1443.425781	839.375671
19478.406596	16945.525000	1442.354492	808.930847
19478.406596	16945.525000	1441.283203	458.274384
19478.406596	16945.525000	1440.211914	1121.923462
19478.406596	16945.525000	1439.140625	698.703796
19478.406596	16945.525000	1438.069336	831.614990
19478.406596	16945.525000	1436.997070	1204.532593
19478.406596	16945.525000	1435.924805	826.336243
19478.406596	16945.525000	1434.852539	940.539063
19478.406596	16945.525000	1433.780273	898.447205
19478.406596	16945.525000	1432.707031	787.110535
19478.406596	16945.525000	1431.633789	740.679626
19478.406596	16945.525000	1430.560547	875.308167
19478.406596	16945.525000	1429.487305	774.353088
19478.406596	16945.525000	1428.413086	1135.032715
19478.406596	16945.525000	1427.339844	1137.049316
19478.406596	16945.525000	1426.265625	1090.242676
19478.406596	16945.525000	1425.191406	949.578979
19478.406596	16945.525000	1424.116211	1295.522949
19478.406596	16945.525000	1423.041992	1282.937988
19478.406596	16945.525000	1421.966797	1016.750916
19478.406596	16945.525000	1420.891602	914.380127
19478.406596	16945.525000	1419.816406	1282.793945
19478.406596	16945.525000	1418.740234	1206.447754
19478.406596	16945.525000	1417.665039	935.794006
19478.406596	16945.525000	1416.588867	998.492493
19478.406596	16945.525000	1415.512695	918.072693
19478.406596	16945.525000	1414.435547	659.713379
19478.406596	16945.525000	1413.359375	913.924133
19478.406596	16945.525000	1412.282227	1309.453979
19478.406596	16945.525000	1411.205078	699.864868
19478.406596	16945.525000	1410.127930	967.656189
19478.406596	16945.525000	1409.049805	1008.612488
19478.406596	16945.525000	1407.972656	896.058899
19478.406596	16945.525000	1406.894531	890.114380
19478.406596	16945.525000	1405.816406	665.125549
19478.406596	16945.525000	1404.737305	892.404968
19478.406596	16945.525000	1403.659180	493.610596
19478.406596	16945.525000	1402.580078	405.594757
19478.406596	16945.525000	1401.500977	666.602051
19478.406596	16945.525000	1400.421875	865.155151
19478.406596	16945.525000	1399.341797	569.236938
19478.406596	16945.525000	1398.262695	654.744446
19478.406596	16945.525000	1397.182617	471.205017
19478.406596	16945.525000	1396.102539	549.786438
19478.406596	16945.525000	1395.021484	873.303894
19478.406596	16945.525000	1393.941406	303.163635
19478.406596	16945.525000	1392.860352	600.372009
19478.406596	16945.525000	1391.779297	619.129700
19478.406596	16945.525000	1390.698242	464.330353
19478.406596	16945.525000	1389.616211	691.367798
19478.406596	16945.525000	1388.535156	593.953796
19478.406596	16945.525000	1387.453125	391.076172
19478.406596	16945.525000	1386.371094	665.171387
19478.406596	16945.525000	1385.288086	524.026245
19478.406596	16945.525000	1384.206055	657.279358
19478.406596	16945.525000	1383.123047	302.917419
19478.406596	16945.525000	1382.040039	813.390076
19478.406596	16945.525000	1380.957031	685.626160
19478.406596	16945.525000	1379.873047	475.360077
19478.406596	16945.525000	1378.789063	355.908478
19478.406596	16945.525000	1377.705078	637.535950
19478.406596	16945.525000	1376.621094	563.751404
19478.406596	16945.525000	1375.537109	754.665222
19478.406596	16945.525000	1374.452148	523.691895
19478.406596	16945.525000	1373.367188	648.460144
19478.406596	16945.525000	1372.282227	588.402466
19478.406596	16945.525000	1371.197266	525.508240
19478.406596	16945.525000	1370.112305	743.071350
19478.406596	16945.525000	1369.026367	609.655273
19478.406596	16945.525000	1367.940430	321.468170
19478.406596	16945.525000	1366.854492	436.055969
19478.406596	16945.525000	1365.767578	490.128784
19478.406596	16945.525000	1364.681641	699.034973
19478.406596	16945.525000	1363.594727	708.625549
19478.406596	16945.525000	1362.507813	585.709778
19478.406596	16945.525000	1361.419922	969.693542
19478.406596	16945.525000	1360.333008	995.078735
19478.406596	16945.525000	1359.245117	901.240479
19478.406596	16945.525000	1358.157227	1053.663574
19478.406596	16945.525000	1357.069336	1110.442627
19478.406596	16945.525000	1355.981445	1471.967285
19478.406596	16945.525000	1354.892578	1401.001221
19478.406596	16945.525000	1353.803711	1371.675293
19478.406596	16945.525000	1352.714844	1094.258179
19478.406596	16945.525000	1351.625000	1533.864990
19478.406596	16945.525000	1350.536133	1763.619629
19478.406596	16945.525000	1349.446289	1540.943237
19478.406596	16945.525000	1348.356445	1769.644287
19478.406596	16945.525000	1347.266602	1830.489258
19478.406596	16945.525000	1346.175781	1811.140625
19478.406596	16945.525000	1345.085938	1902.571167
19478.406596	16945.525000	1343.995117	1767.046387
19478.406596	16945.525000	1342.903320	1876.907227
19478.406596	16945.525000	1341.812500	1765.768677
19478.406596	16945.525000	1340.720703	1962.386841
19478.406596	16945.525000	1339.629883	1783.632324
19478.406596	16945.525000	1338.538086	1721.839478
19478.406596	16945.525000	1337.445313	1680.466675
19478.406596	16945.525000	1336.353516	1400.051758
19478.406596	16945.525000	1335.260742	1456.529541
19478.406596	16945.525000	1334.167969	1379.640869
19478.406596	16945.525000	1333.075195	1437.109497
19478.406596	16945.525000	1331.981445	1306.434692
19478.406596	16945.525000	1330.888672	1533.897949
19478.406596	16945.525000	1329.794922	1379.463745
19478.406596	16945.525000	1328.701172	1237.837769
19478.406596	16945.525000	1327.606445	1333.484375
19478.406596	16945.525000	1326.512695	1538.587036
19478.406596	16945.525000	1325.417969	2011.833374
19478.406596	16945.525000	1324.323242	1706.333008
19478.406596	16945.525000	1323.227539	1970.448853
19478.406596	16945.525000	1322.132813	2173.834961
19478.406596	16945.525000	1321.037109	2295.868408
19478.406596	16945.525000	1319.941406	2020.426758
19478.406596	16945.525000	1318.845703	1789.536133
19478.406596	16945.525000	1317.750000	2236.595703
19478.406596	16945.525000	1316.653320	2021.099731
19478.406596	16945.525000	1315.556641	2001.471924
19478.406596	16945.525000	1314.459961	1796.568848
19478.406596	16945.525000	1313.363281	1477.449951
19478.406596	16945.525000	1312.265625	1397.480591
19478.406596	16945.525000	1311.167969	1371.430054
19478.406596	16945.525000	1310.070313	1177.855957
19478.406596	16945.525000	1308.972656	1101.339478
19478.406596	16945.525000	1307.874023	1140.800537
19478.406596	16945.525000	1306.776367	1018.021118
19478.406596	16945.525000	1305.677734	1191.152832
19478.406596	16945.525000	1304.579102	1085.615356
19478.406596	16945.525000	1303.479492	1031.590698
19478.406596	16945.525000	1302.380859	961.835083
19478.406596	16945.525000	1301.281250	884.695740
19478.406596	16945.525000	1300.181641	1309.137207
19478.406596	16945.525000	1299.081055	1123.226318
19478.406596	16945.525000	1297.981445	941.822632
19478.406596	16945.525000	1296.880859	666.257996
19478.406596	16945.525000	1295.780273	646.764404
19478.406596	16945.525000	1294.679688	644.081177
19478.406596	16945.525000	1293.578125	403.001678
19478.406596	16945.525000	1292.476563	543.299011
19478.406596	16945.525000	1291.375000	409.808136
19478.406596	16945.525000	1290.273438	274.985077
19478.406596	16945.525000	1289.171875	241.014435
19478.406596	16945.525000	1288.069336	211.652664
19478.406596	16945.525000	1286.966797	631.352417
19478.406596	16945.525000	1285.864258	203.479874
19478.406596	16945.525000	1284.761719	191.168930
19478.406596	16945.525000	1283.658203	57.554962
19478.406596	16945.525000	1282.554688	-157.020752
19478.406596	16945.525000	1281.451172	319.058044
19478.406596	16945.525000	1280.347656	361.218201
19478.406596	16945.525000	1279.244141	154.683365
19478.406596	16945.525000	1278.139648	289.516785
19478.406596	16945.525000	1277.035156	289.100708
19478.406596	16945.525000	1275.930664	45.422531
19478.406596	16945.525000	1274.825195	183.397049
19478.406596	16945.525000	1273.720703	477.836517
19478.406596	16945.525000	1272.615234	390.807800
19478.406596	16945.525000	1271.508789	251.845184
19478.406596	16945.525000	1270.403320	366.182770
19478.406596	16945.525000	1269.297852	645.563599
19478.406596	16945.525000	1268.191406	537.175842
19478.406596	16945.525000	1267.084961	741.796387
19478.406596	16945.525000	1265.977539	603.863586
19478.406596	16945.525000	1264.871094	676.234497
19478.406596	16945.525000	1263.763672	901.460510
19478.406596	16945.525000	1262.656250	744.498169
19478.406596	16945.525000	1261.548828	600.842590
19478.406596	16945.525000	1260.440430	664.531921
19478.406596	16945.525000	1259.333008	551.870483
19478.406596	16945.525000	1258.224609	550.808105
19478.406596	16945.525000	1257.115234	407.689667
19478.406596	16945.525000	1256.006836	602.085327
19478.406596	16945.525000	1254.897461	184.011307
19478.406596	16945.525000	1253.788086	249.267853
19478.406596	16945.525000	1252.678711	421.213593
19478.406596	16945.525000	1251.569336	440.306793
19478.406596	16945.525000	1250.458984	418.089233
19478.406596	16945.525000	1249.349609	309.299255
19478.406596	16945.525000	1248.239258	284.513458
19478.406596	16945.525000	1247.127930	467.699799
19478.406596	16945.525000	1246.017578	418.954132
19478.406596	16945.525000	1244.906250	334.933075
19478.406596	16945.525000	1243.794922	385.470306
19478.406596	16945.525000	1242.683594	363.197968
19478.406596	16945.525000	1241.571289	108.423477
19478.406596	16945.525000	1240.459961	353.574829
19478.406596	16945.525000	1239.347656	300.435486
19478.406596	16945.525000	1238.234375	452.289917
19478.406596	16945.525000	1237.122070	274.593628
19478.406596	16945.525000	1236.008789	272.139740
19478.406596	16945.525000	1234.896484	292.573273
19478.406596	16945.525000	1233.782227	127.981697
19478.406596	16945.525000	1232.668945	105.768463
19478.406596	16945.525000	1231.555664	224.129654
19478.406596	16945.525000	1230.441406	49.796368
19478.406596	16945.525000	1229.327148	41.438583
19478.406596	16945.525000	1228.211914	-54.077843
19478.406596	16945.525000	1227.097656	47.144409
19478.406596	16945.525000	1225.982422	298.109161
19478.406596	16945.525000	1224.867188	-104.109261
19478.406596	16945.525000	1223.751953	-21.843412
19478.406596	16945.525000	1222.635742	136.981461
19478.406596	16945.525000	1221.520508	36.649689
19478.406596	16945.525000	1220.404297	185.735168
19478.406596	16945.525000	1219.287109	9.186533
19478.406596	16945.525000	1218.170898	214.684738
19478.406596	16945.525000	1217.053711	39.682491
19478.406596	16945.525000	1215.936523	83.127464
19478.406596	16945.525000	1214.819336	-109.724991
19478.406596	16945.525000	1213.702148	-108.426132
19478.406596	16945.525000	1212.583984	60.129879
19478.406596	16945.525000	1211.465820	-1.335689
19478.406596	16945.525000	1210.347656	180.727478
19478.406596	16945.525000	1209.229492	120.385307
19478.406596	16945.525000	1208.110352	47.620544
19478.406596	16945.525000	1206.992188	68.474174
19478.406596	16945.525000	1205.873047	155.980438
19478.406596	16945.525000	1204.752930	159.437653
19478.406596	16945.525000	1203.633789	-11.337591
19478.406596	16945.525000	1202.513672	-33.281921
19478.406596	16945.525000	1201.393555	213.902435
19478.406596	16945.525000	1200.273438	-20.441170
19478.406596	16945.525000	1199.152344	-32.336056
19478.406596	16945.525000	1198.032227	-197.309006
19478.406596	16945.525000	1196.911133	-182.613342
19478.406596	16945.525000	1195.790039	73.777420
19478.406596	16945.525000	1194.667969	-79.566391
19478.406596	16945.525000	1193.545898	-90.655319
19478.406596	16945.525000	1192.424805	-94.655983
19478.406596	16945.525000	1191.301758	-127.274895
19478.406596	16945.525000	1190.179688	-167.472214
19478.406596	16945.525000	1189.056641	14.289339
19478.406596	16945.525000	1187.933594	-360.920471
19478.406596	16945.525000	1186.810547	-54.010181
19478.406596	16945.525000	1185.687500	-129.915573
19478.406596	16945.525000	1184.563477	-75.709183
19478.406596	16945.525000	1183.440430	80.919189
19478.406596	16945.525000	1182.316406	102.313042
19478.406596	16945.525000	1181.191406	31.999353
19478.406596	16945.525000	1180.067383	82.124504
19478.406596	16945.525000	1178.942383	-1.671320
19478.406596	16945.525000	1177.817383	-68.983971
19478.406596	16945.525000	1176.692383	-137.551956
19478.406596	16945.525000	1175.566406	-109.908943
19478.406596	16945.525000	1174.440430	-29.496365
19478.406596	16945.525000	1173.314453	-101.205032
19478.406596	16945.525000	1172.188477	14.341826
19478.406596	16945.525000	1171.062500	48.464336
19478.406596	16945.525000	1169.935547	72.376701
19478.406596	16945.525000	1168.808594	156.522507
19478.406596	16945.525000	1167.681641	-127.789803
19478.406596	16945.525000	1166.553711	-33.002377
19478.406596	16945.525000	1165.426758	-144.981400
19478.406596	16945.525000	1164.298828	-68.163773
19478.406596	16945.525000	1163.170898	-65.625198
19478.406596	16945.525000	1162.041992	-164.704453
19478.406596	16945.525000	1160.914063	0.537341
19478.406596	16945.525000	1159.785156	-235.526474
19478.406596	16945.525000	1158.656250	-161.612045
19478.406596	16945.525000	1157.526367	-50.622715
19478.406596	16945.525000	1156.397461	-196.334106
19478.406596	16945.525000	1155.267578	-189.468887
19478.406596	16945.525000	1154.137695	-15.014476
19478.406596	16945.525000	1153.006836	13.902987
19478.406596	16945.525000	1151.876953	-81.314041
19478.406596	16945.525000	1150.746094	97.677902
19478.406596	16945.525000	1149.615234	8.506799
19478.406596	16945.525000	1148.484375	94.803490
19478.406596	16945.525000	1147.352539	74.355721
19478.406596	16945.525000	1146.220703	455.961548
19478.406596	16945.525000	1145.088867	251.554581
19478.406596	16945.525000	1143.957031	427.945343
19478.406596	16945.525000	1142.825195	403.881897
19478.406596	16945.525000	1141.692383	359.854919
19478.406596	16945.525000	1140.559570	189.055298
19478.406596	16945.525000	1139.426758	321.764313
19478.406596	16945.525000	1138.292969	109.478439
19478.406596	16945.525000	1137.159180	74.718758
19478.406596	16945.525000	1136.025391	126.082977
19478.406596	16945.525000	1134.891602	232.260590
19478.406596	16945.525000	1133.757813	207.589539
19478.406596	16945.525000	1132.623047	62.228222
19478.406596	16945.525000	1131.488281	198.949936
19478.406596	16945.525000	1130.353516	132.119965
19478.406596	16945.525000	1129.217773	81.457169
19478.406596	16945.525000	1128.083008	76.266251
19478.406596	16945.525000	1126.947266	-161.702728
19478.406596	16945.525000	1125.811523	76.161652
19478.406596	16945.525000	1124.674805	1.578078
19478.406596	16945.525000	1123.539063	75.164124
19478.406596	16945.525000	1122.402344	25.069931
19478.406596	16945.525000	1121.265625	132.967651
19478.406596	16945.525000	1120.127930	-49.765972
19478.406596	16945.525000	1118.990234	195.896790
19478.406596	16945.525000	1117.853516	233.684967
19478.406596	16945.525000	1116.714844	203.798660
19478.406596	16945.525000	1115.577148	287.272430
19478.406596	16945.525000	1114.439453	333.963440
19478.406596	16945.525000	1113.300781	124.338097
19478.406596	16945.525000	1112.162109	322.318878
19478.406596	16945.525000	1111.022461	172.086945
19478.406596	16945.525000	1109.883789	200.069504
19478.406596	16945.525000	1108.744141	112.198990
19478.406596	16945.525000	1107.604492	390.685181
19478.406596	16945.525000	1106.463867	404.849762
19478.406596	16945.525000	1105.324219	171.120224
19478.406596	16945.525000	1104.183594	524.202148
19478.406596	16945.525000	1103.042969	231.951981
19478.406596	16945.525000	1101.902344	211.360168
19478.406596	16945.525000	1100.760742	88.515755
19478.406596	16945.525000	1099.619141	197.835861
19478.406596	16945.525000	1098.477539	244.787506
19478.406596	16945.525000	1097.335938	297.790802
19478.406596	16945.525000	1096.193359	323.870209
19478.406596	16945.525000	1095.051758	262.198090
19478.406596	16945.525000	1093.909180	101.860260
19478.406596	16945.525000	1092.765625	-56.817005
19478.406596	16945.525000	1091.623047	287.415070
19478.406596	16945.525000	1090.479492	390.499481
19478.406596	16945.525000	1089.335938	346.990448
19478.406596	16945.525000	1088.192383	385.862793
19478.406596	16945.525000	1087.047852	339.230560
19478.406596	16945.525000	1085.903320	249.319977
19478.406596	16945.525000	1084.758789	328.244537
19478.406596	16945.525000	1083.614258	280.275970
19478.406596	16945.525000	1082.469727	344.061005
19478.406596	16945.525000	1081.324219	247.783813
19478.406596	16945.525000	1080.178711	331.221588
19478.406596	16945.525000	1079.033203	342.667511
19478.406596	16945.525000	1077.886719	345.266663
19478.406596	16945.525000	1076.740234	407.364624
19478.406596	16945.525000	1075.593750	381.951935
19478.406596	16945.525000	1074.447266	199.702621
19478.406596	16945.525000	1073.300781	328.325989
19478.406596	16945.525000	1072.153320	209.648483
19478.406596	16945.525000	1071.005859	229.275711
19478.406596	16945.525000	1069.858398	100.707947
19478.406596	16945.525000	1068.709961	42.582127
19478.406596	16945.525000	1067.561523	367.640656
19478.406596	16945.525000	1066.413086	252.786163
19478.406596	16945.525000	1065.264648	174.077469
19478.406596	16945.525000	1064.116211	179.364471
19478.406596	16945.525000	1062.966797	91.018341
19478.406596	16945.525000	1061.817383	268.736725
19478.406596	16945.525000	1060.667969	168.996429
19478.406596	16945.525000	1059.517578	-21.065819
19478.406596	16945.525000	1058.368164	430.261719
19478.406596	16945.525000	1057.217773	210.781403
19478.406596	16945.525000	1056.067383	279.902039
19478.406596	16945.525000	1054.916016	43.537518
19478.406596	16945.525000	1053.764648	508.588837
19478.406596	16945.525000	1052.613281	249.316040
19478.406596	16945.525000	1051.461914	48.045547
19478.406596	16945.525000	1050.310547	147.888947
19478.406596	16945.525000	1049.158203	121.937767
19478.406596	16945.525000	1048.005859	297.956390
19478.406596	16945.525000	1046.853516	95.683411
19478.406596	16945.525000	1045.700195	169.446533
19478.406596	16945.525000	1044.547852	80.061729
19478.406596	16945.525000	1043.394531	17.602173
19478.406596	16945.525000	1042.240234	-54.580410
19478.406596	16945.525000	1041.086914	199.257843
19478.406596	16945.525000	1039.932617	184.627411
19478.406596	16945.525000	1038.778320	400.347656
19478.406596	16945.525000	1037.624023	357.041870
19478.406596	16945.525000	1036.469727	272.796204
19478.406596	16945.525000	1035.314453	423.815125
19478.406596	16945.525000	1034.159180	452.252045
19478.406596	16945.525000	1033.003906	702.917725
19478.406596	16945.525000	1031.847656	751.237305
19478.406596	16945.525000	1030.692383	628.968628
19478.406596	16945.525000	1029.536133	500.360138
19478.406596	16945.525000	1028.378906	665.329895
19478.406596	16945.525000	1027.222656	709.753174
19478.406596	16945.525000	1026.065430	776.889893
19478.406596	16945.525000	1024.908203	437.680756
19478.406596	16945.525000	1023.750977	341.579071
19478.406596	16945.525000	1022.593750	361.987427
19478.406596	16945.525000	1021.435547	167.012283
19478.406596	16945.525000	1020.277344	111.715492
19478.406596	16945.525000	1019.119141	-31.637075
19478.406596	16945.525000	1017.959961	218.262115
19478.406596	16945.525000	1016.800781	-67.769127
19478.406596	16945.525000	1015.641602	193.697144
19478.406596	16945.525000	1014.482422	66.385719
19478.406596	16945.525000	1013.323242	161.658127
19478.406596	16945.525000	1012.163086	91.046387
19478.406596	16945.525000	1011.002930	277.360596
19478.406596	16945.525000	1009.842773	95.179077
19478.406596	16945.525000	1008.681641	125.322815
19478.406596	16945.525000	1007.520508	-19.622639
19478.406596	16945.525000	1006.359375	97.432739
19478.406596	16945.525000	1005.198242	262.135590
19478.406596	16945.525000	1004.037109	106.904045
19478.406596	16945.525000	1002.875000	300.023834
19478.406596	16945.525000	1001.712891	173.816895
19478.406596	16945.525000	1000.550781	264.765839
19478.406596	16945.525000	999.387695	49.539070
19478.406596	16945.525000	998.224609	-273.111664
19478.406596	16945.525000	997.061523	70.419228
19478.406596	16945.525000	995.898438	-6.092735
19478.406596	16945.525000	994.734375	111.514938
19478.406596	16945.525000	993.571289	47.669571
19478.406596	16945.525000	992.407227	-14.233701
19478.406596	16945.525000	991.242188	9.057122
19478.406596	16945.525000	990.078125	172.039795
19478.406596	16945.525000	988.913086	-48.929768
19478.406596	16945.525000	987.748047	-48.785236
19478.406596	16945.525000	986.583008	-98.762856
19478.406596	16945.525000	985.416992	117.530128
19478.406596	16945.525000	984.250977	315.578033
19478.406596	16945.525000	983.084961	43.906342
19478.406596	16945.525000	981.918945	-81.412628
19478.406596	16945.525000	980.751953	105.724724
19478.406596	16945.525000	979.584961	281.330109
19478.406596	16945.525000	978.417969	232.138000
19478.406596	16945.525000	977.250977	-7.515666
19478.406596	16945.525000	976.083008	241.390594
19478.406596	16945.525000	974.915039	61.624405
19478.406596	16945.525000	973.747070	-132.896210
19478.406596	16945.525000	972.579102	37.526031
19478.406596	16945.525000	971.410156	76.344124
19478.406596	16945.525000	970.242188	177.021255
19478.406596	16945.525000	969.072266	-42.677456
19478.406596	16945.525000	967.903320	105.963356
19478.406596	16945.525000	966.733398	-40.384846
19478.406596	16945.525000	965.563477	-181.641785
19478.406596	16945.525000	964.393555	97.653442
19478.406596	16945.525000	963.223633	-140.512848
19478.406596	16945.525000	962.052734	25.443001
19478.406596	16945.525000	960.881836	-149.992447
19478.406596	16945.525000	959.710938	-31.532135
19478.406596	16945.525000	958.540039	96.107117
19478.406596	16945.525000	957.368164	32.989304
19478.406596	16945.525000	956.196289	-140.600113
19478.406596	16945.525000	955.024414	-24.856497
19478.406596	16945.525000	953.851563	15.379770
19478.406596	16945.525000	952.679688	70.685684
19478.406596	16945.525000	951.506836	-125.762032
19478.406596	16945.525000	950.333984	26.839725
19478.406596	16945.525000	949.160156	-13.755766
19478.406596	16945.525000	947.986328	-62.257088
19478.406596	16945.525000	946.812500	-58.615520
19478.406596	16945.525000	945.638672	-111.137810
19478.406596	16945.525000	944.464844	59.672028
19478.406596	16945.525000	943.290039	42.483143
19478.406596	16945.525000	942.115234	94.227646
19478.406596	16945.525000	940.940430	-38.356300
19478.406596	16945.525000	939.764648	1.830056
19478.406596	16945.525000	938.588867	142.084106
19478.406596	16945.525000	937.413086	171.495560
19478.406596	16945.525000	936.237305	104.562302
19478.406596	16945.525000	935.060547	115.558754
19478.406596	16945.525000	933.883789	-199.287933
19478.406596	16945.525000	932.707031	-134.768951
19478.406596	16945.525000	931.530273	-222.275085
19478.406596	16945.525000	930.352539	-188.758606
19478.406596	16945.525000	929.175781	-132.690598
19478.406596	16945.525000	927.998047	-312.326965
19478.406596	16945.525000	926.819336	130.826172
19478.406596	16945.525000	925.641602	305.536102
19478.406596	16945.525000	924.462891	48.103443
19478.406596	16945.525000	923.284180	-8.615637
19478.406596	16945.525000	922.104492	-53.050133
19478.406596	16945.525000	920.924805	13.027290
19478.406596	16945.525000	919.746094	25.859680
19478.406596	16945.525000	919.551758	-6.827912
19478.406596	16945.525000	918.386719	71.282700
19478.406596	16945.525000	917.220703	94.118904
19478.406596	16945.525000	916.054688	-73.265717
19478.406596	16945.525000	914.887695	104.939888
19478.406596	16945.525000	913.721680	-119.668396
19478.406596	16945.525000	912.554688	-143.913574
19478.406596	16945.525000	911.387695	-74.179482
19478.406596	16945.525000	910.220703	22.055107
19478.406596	16945.525000	909.052734	-188.143051
19478.406596	16945.525000	907.885742	-247.179794
19478.406596	16945.525000	906.717773	-116.331551
19478.406596	16945.525000	905.548828	241.024384
19478.406596	16945.525000	904.380859	83.902222
19478.406596	16945.525000	903.211914	167.595703
19478.406596	16945.525000	902.042969	83.943810
19478.406596	16945.525000	900.874023	120.633759
19478.406596	16945.525000	899.704102	283.718384
19478.406596	16945.525000	898.535156	100.104713
19478.406596	16945.525000	897.365234	8.269803
19478.406596	16945.525000	896.194336	30.578476
19478.406596	16945.525000	895.024414	-6.253466
19478.406596	16945.525000	893.853516	-2.348783
19478.406596	16945.525000	892.682617	219.448120
19478.406596	16945.525000	891.511719	-61.839642
19478.406596	16945.525000	890.340820	37.660629
19478.406596	16945.525000	889.168945	153.382339
19478.406596	16945.525000	887.997070	41.098366
19478.406596	16945.525000	886.825195	59.040794
19478.406596	16945.525000	885.653320	-49.177444
19478.406596	16945.525000	884.480469	82.611282
19478.406596	16945.525000	883.307617	143.140915
19478.406596	16945.525000	882.134766	89.764603
19478.406596	16945.525000	880.961914	-51.023861
19478.406596	16945.525000	879.788086	119.134415
19478.406596	16945.525000	878.614258	116.489113
19478.406596	16945.525000	877.440430	144.278137
19478.406596	16945.525000	876.266602	-47.315262
19478.406596	16945.525000	875.091797	-127.184303
19478.406596	16945.525000	873.916992	8.125896
19478.406596	16945.525000	872.742188	127.105202
19478.406596	16945.525000	871.567383	105.979797
19478.406596	16945.525000	870.391602	-89.643661
19478.406596	16945.525000	869.215820	-60.075787
19478.406596	16945.525000	868.040039	192.517029
19478.406596	16945.525000	866.864258	-112.613647
19478.406596	16945.525000	865.687500	-50.736317
19478.406596	16945.525000	864.510742	-132.825500
19478.406596	16945.525000	863.333984	7.971913
19478.406596	16945.525000	862.157227	-47.844444
19478.406596	16945.525000	860.979492	-127.974869
19478.406596	16945.525000	859.802734	215.112823
19478.406596	16945.525000	858.625000	100.453972
19478.406596	16945.525000	857.446289	-153.866013
19478.406596	16945.525000	856.268555	-165.275635
19478.406596	16945.525000	855.089844	-160.530823
19478.406596	16945.525000	853.911133	88.950859
19478.406596	16945.525000	852.731445	111.763771
19478.406596	16945.525000	851.552734	3.071516
19478.406596	16945.525000	850.373047	110.711594
19478.406596	16945.525000	849.193359	-60.682610
19478.406596	16945.525000	848.013672	-171.425934
19478.406596	16945.525000	846.833008	188.612900
19478.406596	16945.525000	845.652344	132.319336
19478.406596	16945.525000	844.471680	102.255524
19478.406596	16945.525000	843.291016	92.346855
19478.406596	16945.525000	842.110352	-153.813293
19478.406596	16945.525000	840.928711	54.234241
19478.406596	16945.525000	839.747070	-22.394352
19478.406596	16945.525000	838.564453	-44.560307
19478.406596	16945.525000	837.382813	-78.878265
19478.406596	16945.525000	836.200195	66.265602
19478.406596	16945.525000	835.017578	-85.104156
19478.406596	16945.525000	833.834961	-28.823832
19478.406596	16945.525000	832.651367	-59.278290
19478.406596	16945.525000	831.467773	-111.940887
19478.406596	16945.525000	830.284180	-5.474072
19478.406596	16945.525000	829.100586	-98.518822
19478.406596	16945.525000	827.916992	64.182343
19478.406596	16945.525000	826.732422	210.660355
19478.406596	16945.525000	825.547852	-25.452412
19478.406596	16945.525000	824.363281	147.037064
19478.406596	16945.525000	823.177734	-125.289619
19478.406596	16945.525000	821.992188	304.553558
19478.406596	16945.525000	820.806641	-100.554787
19478.406596	16945.525000	819.621094	47.457291
19478.406596	16945.525000	818.434570	320.013000
19478.406596	16945.525000	817.249023	19.507164
19478.406596	16945.525000	816.062500	139.100922
19478.406596	16945.525000	814.875000	63.696171
19478.406596	16945.525000	813.688477	-67.993576
19478.406596	16945.525000	812.500977	3.172987
19478.406596	16945.525000	811.313477	5.979273
19478.406596	16945.525000	810.125977	-37.451931
19478.406596	16945.525000	808.937500	115.788551
19478.406596	16945.525000	807.749023	44.144466
19478.406596	16945.525000	806.560547	82.820641
19478.406596	16945.525000	805.372070	-33.038624
19478.406596	16945.525000	804.182617	196.049896
19478.406596	16945.525000	802.994141	-222.685638
19478.406596	16945.525000	801.803711	126.517242
19478.406596	16945.525000	800.614258	94.684715
19478.406596	16945.525000	799.424805	44.770687
19478.406596	16945.525000	798.234375	-15.196921
19478.406596	16945.525000	797.043945	221.251556
19478.406596	16945.525000	795.852539	173.169342
19478.406596	16945.525000	794.662109	155.070526
19478.406596	16945.525000	793.470703	110.899605
19478.406596	16945.525000	792.279297	250.813965
19478.406596	16945.525000	791.087891	208.514664
19478.406596	16945.525000	789.895508	148.171875
19478.406596	16945.525000	788.703125	-8.218891
19478.406596	16945.525000	787.510742	5.369596
19478.406596	16945.525000	786.318359	46.878658
19478.406596	16945.525000	785.125000	-55.607628
19478.406596	16945.525000	783.931641	-88.169685
19478.406596	16945.525000	782.738281	-212.696259
19478.406596	16945.525000	781.544922	-161.437363
19478.406596	16945.525000	780.350586	177.345169
19478.406596	16945.525000	779.156250	-17.235441
19478.406596	16945.525000	777.961914	-18.146021
19478.406596	16945.525000	776.767578	10.818513
19478.406596	16945.525000	775.572266	97.585648
19478.406596	16945.525000	774.376953	-240.725311
19478.406596	16945.525000	773.181641	-44.360401
19478.406596	16945.525000	771.986328	159.836655
19478.406596	16945.525000	770.790039	152.529510
19478.406596	16945.525000	769.593750	37.509628
19478.406596	16945.525000	768.397461	-7.767841
19478.406596	16945.525000	767.201172	-158.705139
19478.406596	16945.525000	766.003906	90.812401
19478.406596	16945.525000	764.806641	244.549149
19478.406596	16945.525000	763.609375	161.175156
19478.406596	16945.525000	762.412109	-9.836751
19478.406596	16945.525000	761.213867	213.311508
19478.406596	16945.525000	760.015625	259.169739
19478.406596	16945.525000	758.817383	115.915863
19478.406596	16945.525000	757.618164	62.183800
19478.406596	16945.525000	756.419922	153.598892
19478.406596	16945.525000	755.220703	-23.536125
19478.406596	16945.525000	754.021484	254.623825
19478.406596	16945.525000	752.821289	198.669525
19478.406596	16945.525000	751.621094	45.297729
19478.406596	16945.525000	750.420898	114.459915
19478.406596	16945.525000	749.220703	171.611481
19478.406596	16945.525000	748.020508	28.082811
19478.406596	16945.525000	746.819336	67.237961
19478.406596	16945.525000	745.618164	128.152939
19478.406596	16945.525000	744.416992	335.859344
19478.406596	16945.525000	743.214844	49.301231
19478.406596	16945.525000	742.012695	290.546967
19478.406596	16945.525000	740.810547	134.913376
19478.406596	16945.525000	739.608398	445.332550
19478.406596	16945.525000	738.406250	255.906494
19478.406596	16945.525000	737.203125	500.637665
19478.406596	16945.525000	736.000000	420.170929
19478.406596	16945.525000	734.795898	575.485229
19478.406596	16945.525000	733.592773	754.444519
19478.406596	16945.525000	732.388672	449.986572
19478.406596	16945.525000	731.184570	587.203857
19478.406596	16945.525000	729.979492	623.334961
19478.406596	16945.525000	728.775391	586.154297
19478.406596	16945.525000	727.570313	343.115112
19478.406596	16945.525000	726.365234	288.095215
19478.406596	16945.525000	725.160156	179.630402
19478.406596	16945.525000	723.954102	110.716911
19478.406596	16945.525000	722.748047	75.396828
19478.406596	16945.525000	721.541992	295.067322
19478.406596	16945.525000	720.334961	-36.861340
19478.406596	16945.525000	719.128906	-32.760338
19478.406596	16945.525000	717.921875	-54.393852
19478.406596	16945.525000	716.714844	-196.561310
19478.406596	16945.525000	715.506836	-119.499023
19478.406596	16945.525000	714.298828	-192.580536
19478.406596	16945.525000	713.090820	-216.324570
19478.406596	16945.525000	711.882813	91.468903
19478.406596	16945.525000	710.674805	-133.687546
19478.406596	16945.525000	709.465820	110.741150
19478.406596	16945.525000	708.256836	-53.266724
19478.406596	16945.525000	707.047852	-22.020813
19478.406596	16945.525000	705.837891	64.379128
19478.406596	16945.525000	704.627930	81.708427
19478.406596	16945.525000	703.417969	75.341087
19478.406596	16945.525000	702.208008	59.086643
19478.406596	16945.525000	700.998047	180.694122
19478.406596	16945.525000	699.787109	93.446495
19478.406596	16945.525000	698.576172	-283.259552
19478.406596	16945.525000	697.364258	7.548394
19478.406596	16945.525000	696.153320	-146.635895
19478.406596	16945.525000	694.941406	177.406769
19478.406596	16945.525000	693.729492	219.932648
19478.406596	16945.525000	692.516602	346.996124
19478.406596	16945.525000	691.304688	-210.414612
19478.406596	16945.525000	690.091797	-8.656682
19478.406596	16945.525000	688.878906	-19.321323
19478.406596	16945.525000	687.665039	105.608719
19478.406596	16945.525000	686.451172	122.384071
19478.406596	16945.525000	685.237305	9.466854
19478.406596	16945.525000	684.023438	326.723480
19478.406596	16945.525000	682.809570	-65.085068
19478.406596	16945.525000	681.594727	8.560388
19478.406596	16945.525000	680.379883	-51.323715
19478.406596	16945.525000	679.165039	-93.538872
19478.406596	16945.525000	677.949219	-57.269009
19478.406596	16945.525000	676.733398	106.478951
19478.406596	16945.525000	675.517578	9.296129
19478.406596	16945.525000	674.301758	-27.073978
19478.406596	16945.525000	673.084961	-10.508657
19478.406596	16945.525000	671.869141	-86.083397
19478.406596	16945.525000	670.651367	267.522430
19478.406596	16945.525000	669.434570	125.293602
19478.406596	16945.525000	668.216797	-144.201508
19478.406596	16945.525000	667.000000	-78.710159
19478.406596	16945.525000	665.781250	-238.411774
19478.406596	16945.525000	664.563477	-4.585090
19478.406596	16945.525000	663.344727	195.871445
19478.406596	16945.525000	662.125977	47.949207
19478.406596	16945.525000	660.907227	158.321472
19478.406596	16945.525000	659.688477	88.710396
19478.406596	16945.525000	658.468750	224.457520
19478.406596	16945.525000	657.249023	332.782776
19478.406596	16945.525000	656.029297	124.416100
19478.406596	16945.525000	654.808594	103.755768
19478.406596	16945.525000	653.587891	61.621304
19478.406596	16945.525000	652.367188	-31.272934
19478.406596	16945.525000	651.146484	36.031563
19478.406596	16945.525000	649.924805	130.659668
19478.406596	16945.525000	648.704102	49.567253
19478.406596	16945.525000	647.482422	415.481140
19478.406596	16945.525000	646.259766	273.910645
19478.406596	16945.525000	645.037109	151.931168
19478.406596	16945.525000	643.815430	26.119923
19478.406596	16945.525000	642.591797	272.862518
19478.406596	16945.525000	641.369141	30.149370
19478.406596	16945.525000	640.145508	146.234879
19478.406596	16945.525000	638.921875	246.709946
19478.406596	16945.525000	637.698242	216.624878
19478.406596	16945.525000	636.474609	219.699936
19478.406596	16945.525000	635.250000	320.191101
19478.406596	16945.525000	634.025391	264.894257
19478.406596	16945.525000	632.800781	-35.638344
19478.406596	16945.525000	631.575195	74.683372
19478.406596	16945.525000	630.349609	-147.764740
19478.406596	16945.525000	629.124023	-21.823011
19478.406596	16945.525000	627.898438	63.260033
19478.406596	16945.525000	626.671875	-24.730137
19478.406596	16945.525000	625.445313	258.730621
19478.406596	16945.525000	624.218750	231.089081
19478.406596	16945.525000	622.992188	-76.358437
19478.406596	16945.525000	621.764648	-113.531403
19478.406596	16945.525000	620.537109	-80.704689
19478.406596	16945.525000	619.309570	20.142635
19478.406596	16945.525000	618.081055	93.815773
19478.406596	16945.525000	616.852539	-46.046238
19478.406596	16945.525000	615.624023	-79.035789
19478.406596	16945.525000	614.395508	-16.862488
19478.406596	16945.525000	613.166992	84.146866
19478.406596	16945.525000	611.937500	-22.382071
19478.406596	16945.525000	610.708008	-192.802750
19478.406596	16945.525000	609.477539	104.207817
19478.406596	16945.525000	608.248047	59.966450
19478.406596	16945.525000	607.017578	-119.858696
19478.406596	16945.525000	605.787109	-14.691662
19478.406596	16945.525000	604.555664	-124.541382
19478.406596	16945.525000	603.325195	9.771733
19478.406596	16945.525000	602.093750	-43.738132
19478.406596	16945.525000	600.861328	-64.237686
19478.406596	16945.525000	599.629883	-71.108322
19478.406596	16945.525000	598.397461	3.381205
19478.406596	16945.525000	597.165039	79.849228
19478.406596	16945.525000	595.932617	77.048668
19478.406596	16945.525000	594.699219	87.869255
19478.406596	16945.525000	593.465820	-23.055330
19478.406596	16945.525000	592.232422	-52.659779
19478.406596	16945.525000	590.999023	-45.449139
19478.406596	16945.525000	589.764648	-26.562872
19478.406596	16945.525000	588.530273	108.315895
19478.406596	16945.525000	587.295898	79.037453
19478.406596	16945.525000	586.061523	117.442299
19478.406596	16945.525000	584.826172	-104.730049
19478.406596	16945.525000	583.590820	-66.129951
19478.406596	16945.525000	582.355469	-69.920959
19478.406596	16945.525000	581.119141	-0.297104
19478.406596	16945.525000	579.882813	198.631927
19478.406596	16945.525000	578.646484	189.262985
19478.406596	16945.525000	577.410156	340.031860
19478.406596	16945.525000	576.172852	257.555176
19478.406596	16945.525000	574.935547	142.435623
19478.406596	16945.525000	573.698242	416.714325
19478.406596	16945.525000	572.460938	205.451859
19478.406596	16945.525000	571.222656	431.624237
19478.406596	16945.525000	569.984375	286.105103
19478.406596	16945.525000	568.746094	392.962708
19478.406596	16945.525000	567.506836	557.618286
19478.406596	16945.525000	566.267578	626.060364
19478.406596	16945.525000	565.028320	407.858887
19478.406596	16945.525000	563.789063	786.200928
19478.406596	16945.525000	562.548828	649.017456
19478.406596	16945.525000	561.309570	692.726196
19478.406596	16945.525000	560.068359	763.429810
19478.406596	16945.525000	558.828125	676.567078
19478.406596	16945.525000	557.586914	689.758484
19478.406596	16945.525000	556.345703	570.458008
19478.406596	16945.525000	555.104492	566.541687
19478.406596	16945.525000	553.863281	616.481018
19478.406596	16945.525000	552.621094	822.007629
19478.406596	16945.525000	551.378906	572.571106
19478.406596	16945.525000	550.136719	789.689514
19478.406596	16945.525000	548.893555	770.781982
19478.406596	16945.525000	547.650391	679.055298
19478.406596	16945.525000	546.407227	581.687439
19478.406596	16945.525000	545.164063	540.041931
19478.406596	16945.525000	543.919922	772.642883
19478.406596	16945.525000	542.675781	631.442749
19478.406596	16945.525000	541.431641	911.966675
19478.406596	16945.525000	540.186523	571.670349
19478.406596	16945.525000	538.941406	965.230225
19478.406596	16945.525000	537.696289	855.001221
19478.406596	16945.525000	536.451172	771.679810
19478.406596	16945.525000	535.205078	1021.543762
19478.406596	16945.525000	533.959961	903.873047
19478.406596	16945.525000	532.712891	933.650574
19478.406596	16945.525000	531.466797	848.666504
19478.406596	16945.525000	530.219727	977.984436
19478.406596	16945.525000	528.972656	801.322327
19478.406596	16945.525000	527.725586	848.453979
19478.406596	16945.525000	526.478516	1029.395142
19478.406596	16945.525000	525.230469	1118.561279
19478.406596	16945.525000	523.982422	1173.320068
19478.406596	16945.525000	522.734375	1142.110596
19478.406596	16945.525000	521.485352	1112.845825
19478.406596	16945.525000	520.236328	1150.430176
19478.406596	16945.525000	518.987305	1243.360962
19478.406596	16945.525000	517.737305	1259.913696
19478.406596	16945.525000	516.488281	1182.947998
19478.406596	16945.525000	515.238281	1355.922363
19478.406596	16945.525000	513.988281	1233.169800
19478.406596	16945.525000	512.737305	1585.279663
19478.406596	16945.525000	511.486328	1401.477539
19478.406596	16945.525000	510.235352	1427.390137
19478.406596	16945.525000	508.984375	1571.405762
19478.406596	16945.525000	507.732422	1740.085815
19478.406596	16945.525000	506.480469	1565.764282
19478.406596	16945.525000	505.228516	1783.774170
19478.406596	16945.525000	503.976563	1784.561890
19478.406596	16945.525000	502.723633	1789.089722
19478.406596	16945.525000	501.470703	1677.435303
19478.406596	16945.525000	500.217773	1946.304077
19478.406596	16945.525000	498.963867	1939.114502
19478.406596	16945.525000	497.709961	2059.258301
19478.406596	16945.525000	496.456055	2335.166260
19478.406596	16945.525000	495.202148	2262.914551
19478.406596	16945.525000	493.947266	2344.531250
19478.406596	16945.525000	492.692383	2234.036621
19478.406596	16945.525000	491.437500	2379.932861
19478.406596	16945.525000	490.181641	2272.972412
19478.406596	16945.525000	488.926758	2540.012451
19478.406596	16945.525000	487.670898	2654.867432
19478.406596	16945.525000	486.414063	2968.811523
19478.406596	16945.525000	485.158203	2747.202393
19478.406596	16945.525000	483.901367	2963.805420
19478.406596	16945.525000	482.644531	2817.746826
19478.406596	16945.525000	481.386719	2984.475098
19478.406596	16945.525000	480.128906	3224.842773
19478.406596	16945.525000	478.871094	3038.273438
19478.406596	16945.525000	477.613281	2986.094727
19478.406596	16945.525000	476.355469	3261.499512
19478.406596	16945.525000	475.096680	3580.070068
19478.406596	16945.525000	473.837891	3612.162598
19478.406596	16945.525000	472.578125	3272.731689
19478.406596	16945.525000	471.319336	3777.571777
19478.406596	16945.525000	470.059570	3606.041748
19478.406596	16945.525000	468.799805	3420.969971
19478.406596	16945.525000	467.539063	3706.757568
19478.406596	16945.525000	466.278320	3940.946289
19478.406596	16945.525000	465.017578	3820.932129
19478.406596	16945.525000	463.756836	3734.580811
19478.406596	16945.525000	462.495117	3899.269531
19478.406596	16945.525000	461.233398	3830.935303
19478.406596	16945.525000	459.971680	3839.632080
19478.406596	16945.525000	458.709961	3821.377930
19478.406596	16945.525000	457.447266	4038.736328
19478.406596	16945.525000	456.184570	4062.838135
19478.406596	16945.525000	454.921875	4097.706543
19478.406596	16945.525000	453.658203	3920.568115
19478.406596	16945.525000	452.394531	3980.714111
19478.406596	16945.525000	451.130859	4134.570801
19478.406596	16945.525000	449.867188	3987.781982
19478.406596	16945.525000	448.602539	4123.312012
19478.406596	16945.525000	447.337891	4128.004883
19478.406596	16945.525000	446.073242	4578.805664
19478.406596	16945.525000	444.807617	4436.850098
19478.406596	16945.525000	443.542969	4196.234375
19478.406596	16945.525000	442.276367	4177.265137
19478.406596	16945.525000	441.010742	4006.838623
19478.406596	16945.525000	439.744141	4321.540527
19478.406596	16945.525000	438.478516	4469.595215
19478.406596	16945.525000	437.210938	4355.058105
19478.406596	16945.525000	435.944336	4486.241211
19478.406596	16945.525000	434.676758	4582.580566
19478.406596	16945.525000	433.409180	4540.618164
19478.406596	16945.525000	432.141602	4435.647461
19478.406596	16945.525000	430.873047	4192.456055
19478.406596	16945.525000	429.604492	4595.060547
19478.406596	16945.525000	428.335938	4378.073730
19478.406596	16945.525000	427.067383	4287.891602
19478.406596	16945.525000	425.797852	4461.531738
19478.406596	16945.525000	424.528320	4397.296875
19478.406596	16945.525000	423.258789	4581.689453
19478.406596	16945.525000	421.988281	4496.306152
19478.406596	16945.525000	420.717773	4554.271484
19478.406596	16945.525000	419.447266	4565.914063
19478.406596	16945.525000	418.175781	4418.631348
19478.406596	16945.525000	416.905273	4527.107910
19478.406596	16945.525000	415.633789	4722.304688
19478.406596	16945.525000	414.362305	4376.003906
19478.406596	16945.525000	413.089844	4624.545410
19478.406596	16945.525000	411.817383	4539.770020
19478.406596	16945.525000	410.544922	4532.234375
19478.406596	16945.525000	409.272461	4142.856445
19478.406596	16945.525000	407.999023	4415.101563
19478.406596	16945.525000	406.725586	4417.826660
19478.406596	16945.525000	405.452148	4564.934082
19478.406596	16945.525000	404.177734	4481.891113
19478.406596	16945.525000	402.903320	4357.851563
19478.406596	16945.525000	401.628906	4565.133301
19478.406596	16945.525000	400.354492	4379.555176
19478.406596	16945.525000	399.079102	4208.994141
19478.406596	16945.525000	397.803711	4262.851074
19478.406596	16945.525000	396.528320	4269.877930
19478.406596	16945.525000	395.251953	4405.696777
19478.406596	16945.525000	393.976563	4444.171387
19478.406596	16945.525000	392.700195	4465.559082
19478.406596	16945.525000	391.422852	4014.086914
19478.406596	16945.525000	390.145508	4305.710938
19478.406596	16945.525000	388.869141	4135.769043
19478.406596	16945.525000	387.590820	4306.968262
19478.406596	16945.525000	386.313477	4184.708008
19478.406596	16945.525000	385.035156	3996.638916
19478.406596	16945.525000	383.756836	3968.510742
19478.406596	16945.525000	382.478516	3900.622803
19478.406596	16945.525000	381.199219	3949.501221
19478.406596	16945.525000	379.919922	3835.462646
19478.406596	16945.525000	378.640625	3992.802002
19478.406596	16945.525000	377.360352	4000.111328
19478.406596	16945.525000	376.080078	3693.562012
19478.406596	16945.525000	374.799805	3632.050537
19478.406596	16945.525000	373.519531	3703.634277
19478.406596	16945.525000	372.238281	3340.278076
19478.406596	16945.525000	370.957031	3342.627197
19478.406596	16945.525000	369.675781	3688.051025
19478.406596	16945.525000	368.394531	3524.174072
19478.406596	16945.525000	367.112305	3278.990967
19478.406596	16945.525000	365.830078	3246.403076
19478.406596	16945.525000	364.546875	3031.951172
19478.406596	16945.525000	363.264648	3119.172852
19478.406596	16945.525000	361.981445	3072.741211
19478.406596	16945.525000	360.698242	3123.167969
19478.406596	16945.525000	359.414063	2841.105469
19478.406596	16945.525000	358.129883	2635.389404
19478.406596	16945.525000	356.845703	2754.712158
19478.406596	16945.525000	355.561523	2755.111084
19478.406596	16945.525000	354.276367	2681.019775
19478.406596	16945.525000	352.991211	2449.019287
19478.406596	16945.525000	351.706055	2257.647949
19478.406596	16945.525000	350.420898	2457.360596
19478.406596	16945.525000	349.134766	2552.577148
19478.406596	16945.525000	347.848633	2385.818115
19478.406596	16945.525000	346.561523	1905.144897
19478.406596	16945.525000	345.275391	1970.819824
19478.406596	16945.525000	343.988281	1885.494507
19478.406596	16945.525000	342.700195	1721.420410
19478.406596	16945.525000	341.413086	1841.831665
19478.406596	16945.525000	340.125000	1774.020630
19478.406596	16945.525000	338.836914	1621.835449
19478.406596	16945.525000	337.548828	1564.767822
19478.406596	16945.525000	336.259766	1522.942139
19478.406596	16945.525000	334.970703	1409.467896
19478.406596	16945.525000	333.681641	1168.813721
19478.406596	16945.525000	332.391602	691.702393
19478.406596	16945.525000	331.101563	1082.055908
19478.406596	16945.525000	329.811523	899.362793
19478.406596	16945.525000	328.521484	1021.671143
19478.406596	16945.525000	327.230469	938.578918
19478.406596	16945.525000	325.939453	493.298798
19478.406596	16945.525000	324.648438	758.914246
19478.406596	16945.525000	323.356445	340.688202
19478.406596	16945.525000	322.064453	444.545380
19478.406596	16945.525000	320.772461	475.786285
19478.406596	16945.525000	319.480469	81.938705
19478.406596	16945.525000	318.187500	48.802731
19478.406596	16945.525000	316.894531	88.532784
19478.406596	16945.525000	315.601563	186.225098
19478.406596	16945.525000	314.307617	55.754955
19478.406596	16945.525000	313.013672	117.615219
19478.406596	16945.525000	311.719727	52.779030
19478.406596	16945.525000	310.425781	-55.879364
19478.406596	16945.525000	309.130859	-221.590714
19478.406596	16945.525000	307.835938	-129.300537
19478.406596	16945.525000	306.541016	21.873068
19478.406596	16945.525000	305.245117	-368.559509
19478.406596	16945.525000	303.949219	-78.164772
19478.406596	16945.525000	302.653320	44.313831
19478.406596	16945.525000	301.356445	232.183655
19478.406596	16945.525000	300.060547	588.840515
19478.406596	16945.525000	298.763672	348.576416
