#X		#Y		#Wave		#Intensity
19453.823511	16933.283333	2000.043945	-40.909546
19453.823511	16933.283333	1999.080078	43.997013
19453.823511	16933.283333	1998.116211	195.769272
19453.823511	16933.283333	1997.151367	117.098495
19453.823511	16933.283333	1996.186523	-68.011322
19453.823511	16933.283333	1995.222656	-89.490044
19453.823511	16933.283333	1994.256836	-113.354904
19453.823511	16933.283333	1993.291992	33.716019
19453.823511	16933.283333	1992.327148	-205.435318
19453.823511	16933.283333	1991.361328	-1.329941
19453.823511	16933.283333	1990.395508	-67.009010
19453.823511	16933.283333	1989.429688	-152.396240
19453.823511	16933.283333	1988.463867	-86.780502
19453.823511	16933.283333	1987.497070	65.450317
19453.823511	16933.283333	1986.531250	76.707375
19453.823511	16933.283333	1985.564453	-203.751938
19453.823511	16933.283333	1984.597656	94.435318
19453.823511	16933.283333	1983.630859	-148.746185
19453.823511	16933.283333	1982.664063	149.420670
19453.823511	16933.283333	1981.696289	106.558243
19453.823511	16933.283333	1980.728516	81.048912
19453.823511	16933.283333	1979.761719	102.517052
19453.823511	16933.283333	1978.792969	-19.196005
19453.823511	16933.283333	1977.825195	-212.428757
19453.823511	16933.283333	1976.857422	1.753858
19453.823511	16933.283333	1975.888672	-277.709015
19453.823511	16933.283333	1974.919922	67.271935
19453.823511	16933.283333	1973.951172	27.287052
19453.823511	16933.283333	1972.982422	-5.249036
19453.823511	16933.283333	1972.013672	16.515816
19453.823511	16933.283333	1971.043945	25.981970
19453.823511	16933.283333	1970.075195	104.497040
19453.823511	16933.283333	1969.105469	173.160049
19453.823511	16933.283333	1968.135742	-31.723034
19453.823511	16933.283333	1967.165039	14.824512
19453.823511	16933.283333	1966.195313	63.835709
19453.823511	16933.283333	1965.224609	-59.551083
19453.823511	16933.283333	1964.253906	112.638054
19453.823511	16933.283333	1963.283203	188.763245
19453.823511	16933.283333	1962.312500	141.797913
19453.823511	16933.283333	1961.341797	-220.165359
19453.823511	16933.283333	1960.370117	180.862122
19453.823511	16933.283333	1959.399414	116.755028
19453.823511	16933.283333	1958.427734	-131.791260
19453.823511	16933.283333	1957.455078	146.081589
19453.823511	16933.283333	1956.483398	-26.122927
19453.823511	16933.283333	1955.511719	35.302765
19453.823511	16933.283333	1954.539063	-45.839977
19453.823511	16933.283333	1953.566406	192.536026
19453.823511	16933.283333	1952.593750	-43.380779
19453.823511	16933.283333	1951.621094	177.728882
19453.823511	16933.283333	1950.647461	69.644997
19453.823511	16933.283333	1949.674805	-190.652390
19453.823511	16933.283333	1948.701172	52.483620
19453.823511	16933.283333	1947.727539	81.968376
19453.823511	16933.283333	1946.753906	126.172020
19453.823511	16933.283333	1945.780273	77.115105
19453.823511	16933.283333	1944.805664	-18.529732
19453.823511	16933.283333	1943.831055	-180.368607
19453.823511	16933.283333	1942.856445	253.810486
19453.823511	16933.283333	1941.881836	62.555481
19453.823511	16933.283333	1940.907227	-23.210674
19453.823511	16933.283333	1939.932617	-10.904852
19453.823511	16933.283333	1938.957031	-15.752809
19453.823511	16933.283333	1937.981445	114.158958
19453.823511	16933.283333	1937.005859	-304.730927
19453.823511	16933.283333	1936.030273	67.656784
19453.823511	16933.283333	1935.054688	-96.399422
19453.823511	16933.283333	1934.078125	351.702850
19453.823511	16933.283333	1933.101563	109.310753
19453.823511	16933.283333	1932.125000	478.870789
19453.823511	16933.283333	1931.148438	-128.080704
19453.823511	16933.283333	1930.171875	304.975037
19453.823511	16933.283333	1929.194336	-86.474854
19453.823511	16933.283333	1928.217773	30.897766
19453.823511	16933.283333	1927.240234	94.427307
19453.823511	16933.283333	1926.262695	116.357567
19453.823511	16933.283333	1925.284180	162.714722
19453.823511	16933.283333	1924.306641	-50.012768
19453.823511	16933.283333	1923.328125	345.730103
19453.823511	16933.283333	1922.350586	108.586182
19453.823511	16933.283333	1921.372070	-160.235291
19453.823511	16933.283333	1920.392578	-150.574875
19453.823511	16933.283333	1919.414063	-153.152893
19453.823511	16933.283333	1918.434570	-167.947678
19453.823511	16933.283333	1917.456055	-170.562256
19453.823511	16933.283333	1916.476563	61.071835
19453.823511	16933.283333	1915.497070	-85.564987
19453.823511	16933.283333	1914.516602	97.143150
19453.823511	16933.283333	1913.537109	-61.681957
19453.823511	16933.283333	1912.556641	74.576820
19453.823511	16933.283333	1911.576172	118.120712
19453.823511	16933.283333	1910.595703	54.374901
19453.823511	16933.283333	1909.615234	-104.415138
19453.823511	16933.283333	1908.633789	153.483551
19453.823511	16933.283333	1907.653320	-0.445581
19453.823511	16933.283333	1906.671875	-100.755585
19453.823511	16933.283333	1905.690430	105.778404
19453.823511	16933.283333	1904.708984	261.077667
19453.823511	16933.283333	1903.727539	-175.239182
19453.823511	16933.283333	1902.745117	-197.665939
19453.823511	16933.283333	1901.762695	-346.651428
19453.823511	16933.283333	1900.780273	-232.856354
19453.823511	16933.283333	1899.797852	9.785147
19453.823511	16933.283333	1898.815430	94.225655
19453.823511	16933.283333	1897.832031	78.912682
19453.823511	16933.283333	1896.849609	58.703484
19453.823511	16933.283333	1895.866211	-19.857977
19453.823511	16933.283333	1894.882813	-15.800341
19453.823511	16933.283333	1893.898438	194.755417
19453.823511	16933.283333	1892.915039	-138.967896
19453.823511	16933.283333	1891.930664	195.331207
19453.823511	16933.283333	1890.947266	264.770233
19453.823511	16933.283333	1889.962891	54.943485
19453.823511	16933.283333	1888.977539	192.289856
19453.823511	16933.283333	1887.993164	-36.936234
19453.823511	16933.283333	1887.007813	192.509735
19453.823511	16933.283333	1886.023438	-24.578577
19453.823511	16933.283333	1885.038086	253.213135
19453.823511	16933.283333	1884.051758	137.985840
19453.823511	16933.283333	1883.066406	-57.259506
19453.823511	16933.283333	1882.081055	38.439812
19453.823511	16933.283333	1881.094727	143.763168
19453.823511	16933.283333	1880.108398	108.452080
19453.823511	16933.283333	1879.122070	-111.032951
19453.823511	16933.283333	1878.135742	8.667016
19453.823511	16933.283333	1877.148438	-58.208271
19453.823511	16933.283333	1876.162109	165.477524
19453.823511	16933.283333	1875.174805	25.876192
19453.823511	16933.283333	1874.187500	79.934616
19453.823511	16933.283333	1873.199219	102.468567
19453.823511	16933.283333	1872.211914	-83.152832
19453.823511	16933.283333	1871.223633	113.503120
19453.823511	16933.283333	1870.236328	-98.750900
19453.823511	16933.283333	1869.248047	-245.669876
19453.823511	16933.283333	1868.258789	-351.471130
19453.823511	16933.283333	1867.270508	-365.421783
19453.823511	16933.283333	1866.282227	-302.069489
19453.823511	16933.283333	1865.292969	-233.952332
19453.823511	16933.283333	1864.303711	-306.044800
19453.823511	16933.283333	1863.314453	56.660519
19453.823511	16933.283333	1862.324219	-143.558167
19453.823511	16933.283333	1861.334961	-63.645092
19453.823511	16933.283333	1860.344727	13.776742
19453.823511	16933.283333	1859.354492	344.572968
19453.823511	16933.283333	1858.364258	252.850632
19453.823511	16933.283333	1857.374023	-56.054642
19453.823511	16933.283333	1856.383789	-77.809227
19453.823511	16933.283333	1855.392578	-162.316910
19453.823511	16933.283333	1854.401367	211.354614
19453.823511	16933.283333	1853.410156	278.619080
19453.823511	16933.283333	1852.418945	-230.346100
19453.823511	16933.283333	1851.426758	-23.333576
19453.823511	16933.283333	1850.435547	325.719452
19453.823511	16933.283333	1849.443359	-65.070854
19453.823511	16933.283333	1848.451172	197.034775
19453.823511	16933.283333	1847.458984	-8.247147
19453.823511	16933.283333	1846.466797	169.358459
19453.823511	16933.283333	1845.473633	38.685589
19453.823511	16933.283333	1844.480469	-0.528178
19453.823511	16933.283333	1843.487305	196.064529
19453.823511	16933.283333	1842.494141	-30.956486
19453.823511	16933.283333	1841.500977	170.263962
19453.823511	16933.283333	1840.506836	210.204147
19453.823511	16933.283333	1839.513672	98.566826
19453.823511	16933.283333	1838.519531	251.392731
19453.823511	16933.283333	1837.525391	365.640594
19453.823511	16933.283333	1836.530273	-87.420563
19453.823511	16933.283333	1835.536133	420.818787
19453.823511	16933.283333	1834.541016	320.971191
19453.823511	16933.283333	1833.545898	338.804199
19453.823511	16933.283333	1832.550781	145.225800
19453.823511	16933.283333	1831.555664	532.743530
19453.823511	16933.283333	1830.560547	310.273254
19453.823511	16933.283333	1829.564453	152.636322
19453.823511	16933.283333	1828.568359	208.581116
19453.823511	16933.283333	1827.572266	199.660141
19453.823511	16933.283333	1826.576172	301.031403
19453.823511	16933.283333	1825.580078	246.401733
19453.823511	16933.283333	1824.583008	189.336426
19453.823511	16933.283333	1823.585938	-16.417816
19453.823511	16933.283333	1822.588867	199.732559
19453.823511	16933.283333	1821.591797	178.469040
19453.823511	16933.283333	1820.594727	427.922272
19453.823511	16933.283333	1819.596680	550.245178
19453.823511	16933.283333	1818.599609	253.281815
19453.823511	16933.283333	1817.601563	143.164230
19453.823511	16933.283333	1816.603516	243.731400
19453.823511	16933.283333	1815.604492	411.229767
19453.823511	16933.283333	1814.606445	296.167877
19453.823511	16933.283333	1813.607422	295.950867
19453.823511	16933.283333	1812.608398	140.154236
19453.823511	16933.283333	1811.609375	125.484901
19453.823511	16933.283333	1810.610352	-16.002565
19453.823511	16933.283333	1809.610352	179.664474
19453.823511	16933.283333	1808.611328	-306.180359
19453.823511	16933.283333	1807.611328	221.589905
19453.823511	16933.283333	1806.611328	56.033665
19453.823511	16933.283333	1805.610352	342.074493
19453.823511	16933.283333	1804.610352	147.759445
19453.823511	16933.283333	1803.609375	218.578262
19453.823511	16933.283333	1802.608398	126.913872
19453.823511	16933.283333	1801.607422	68.647026
19453.823511	16933.283333	1800.606445	277.695648
19453.823511	16933.283333	1799.605469	453.186615
19453.823511	16933.283333	1798.603516	354.125153
19453.823511	16933.283333	1797.601563	-81.363327
19453.823511	16933.283333	1796.599609	15.180109
19453.823511	16933.283333	1795.597656	-21.935980
19453.823511	16933.283333	1794.595703	98.270798
19453.823511	16933.283333	1793.592773	421.004578
19453.823511	16933.283333	1792.589844	-88.308090
19453.823511	16933.283333	1791.587891	146.029129
19453.823511	16933.283333	1790.583984	606.563904
19453.823511	16933.283333	1789.581055	30.602026
19453.823511	16933.283333	1788.577148	214.567078
19453.823511	16933.283333	1787.574219	412.682129
19453.823511	16933.283333	1786.570313	-39.315063
19453.823511	16933.283333	1785.566406	396.678284
19453.823511	16933.283333	1784.561523	-133.815842
19453.823511	16933.283333	1783.557617	97.258247
19453.823511	16933.283333	1782.552734	266.323303
19453.823511	16933.283333	1781.547852	-88.031204
19453.823511	16933.283333	1780.542969	302.034576
19453.823511	16933.283333	1779.538086	252.014877
19453.823511	16933.283333	1778.532227	482.460602
19453.823511	16933.283333	1777.527344	151.830597
19453.823511	16933.283333	1776.521484	125.429695
19453.823511	16933.283333	1775.515625	258.152466
19453.823511	16933.283333	1774.508789	378.883545
19453.823511	16933.283333	1773.502930	157.502258
19453.823511	16933.283333	1772.496094	45.367661
19453.823511	16933.283333	1771.489258	267.952667
19453.823511	16933.283333	1770.482422	-112.515999
19453.823511	16933.283333	1769.475586	133.612137
19453.823511	16933.283333	1768.467773	263.313202
19453.823511	16933.283333	1767.460938	-17.501429
19453.823511	16933.283333	1766.453125	48.007019
19453.823511	16933.283333	1765.445313	6.714260
19453.823511	16933.283333	1764.437500	5.673180
19453.823511	16933.283333	1763.428711	424.138916
19453.823511	16933.283333	1762.420898	110.046936
19453.823511	16933.283333	1761.412109	54.288155
19453.823511	16933.283333	1760.403320	133.523788
19453.823511	16933.283333	1759.393555	148.707977
19453.823511	16933.283333	1758.384766	-23.268230
19453.823511	16933.283333	1757.375000	60.473915
19453.823511	16933.283333	1756.366211	134.649933
19453.823511	16933.283333	1755.356445	244.234055
19453.823511	16933.283333	1754.345703	17.679428
19453.823511	16933.283333	1753.335938	-36.137875
19453.823511	16933.283333	1752.325195	-186.986176
19453.823511	16933.283333	1751.315430	184.837036
19453.823511	16933.283333	1750.304688	-46.522720
19453.823511	16933.283333	1749.292969	10.567419
19453.823511	16933.283333	1748.282227	93.574013
19453.823511	16933.283333	1747.270508	-10.215176
19453.823511	16933.283333	1746.259766	-118.751320
19453.823511	16933.283333	1745.248047	86.882011
19453.823511	16933.283333	1744.235352	-64.276001
19453.823511	16933.283333	1743.223633	266.298462
19453.823511	16933.283333	1742.211914	-76.200996
19453.823511	16933.283333	1741.199219	-194.383652
19453.823511	16933.283333	1740.186523	-154.454178
19453.823511	16933.283333	1739.173828	142.597534
19453.823511	16933.283333	1738.160156	-346.140717
19453.823511	16933.283333	1737.147461	87.519630
19453.823511	16933.283333	1736.133789	68.158142
19453.823511	16933.283333	1735.120117	-196.474442
19453.823511	16933.283333	1734.106445	170.717926
19453.823511	16933.283333	1733.091797	-167.022888
19453.823511	16933.283333	1732.078125	-56.954979
19453.823511	16933.283333	1731.063477	95.416679
19453.823511	16933.283333	1730.048828	-265.850189
19453.823511	16933.283333	1729.034180	-167.784531
19453.823511	16933.283333	1728.019531	-206.385941
19453.823511	16933.283333	1727.003906	-190.887466
19453.823511	16933.283333	1725.988281	-236.651077
19453.823511	16933.283333	1724.972656	-270.686157
19453.823511	16933.283333	1723.957031	-347.119202
19453.823511	16933.283333	1722.941406	25.737675
19453.823511	16933.283333	1721.924805	-13.208175
19453.823511	16933.283333	1720.909180	1.893852
19453.823511	16933.283333	1719.892578	-206.421310
19453.823511	16933.283333	1718.875977	-83.271088
19453.823511	16933.283333	1717.858398	-331.558838
19453.823511	16933.283333	1716.841797	-253.187469
19453.823511	16933.283333	1715.824219	22.438150
19453.823511	16933.283333	1714.806641	-80.260109
19453.823511	16933.283333	1713.789063	-77.293503
19453.823511	16933.283333	1712.770508	115.797676
19453.823511	16933.283333	1711.752930	62.280975
19453.823511	16933.283333	1710.734375	114.344810
19453.823511	16933.283333	1709.715820	86.553902
19453.823511	16933.283333	1708.697266	-86.737732
19453.823511	16933.283333	1707.678711	-32.482704
19453.823511	16933.283333	1706.659180	-95.563347
19453.823511	16933.283333	1705.640625	73.470116
19453.823511	16933.283333	1704.621094	-196.008865
19453.823511	16933.283333	1703.600586	29.127060
19453.823511	16933.283333	1702.581055	148.677582
19453.823511	16933.283333	1701.561523	-57.542446
19453.823511	16933.283333	1700.541016	-41.192921
19453.823511	16933.283333	1699.520508	319.392944
19453.823511	16933.283333	1698.500000	192.731354
19453.823511	16933.283333	1697.478516	28.609552
19453.823511	16933.283333	1696.458008	98.585564
19453.823511	16933.283333	1695.436523	168.487213
19453.823511	16933.283333	1694.415039	111.963943
19453.823511	16933.283333	1693.393555	350.186279
19453.823511	16933.283333	1692.372070	47.975117
19453.823511	16933.283333	1691.349609	190.148788
19453.823511	16933.283333	1690.327148	177.915482
19453.823511	16933.283333	1689.304688	30.064915
19453.823511	16933.283333	1688.282227	429.125031
19453.823511	16933.283333	1687.259766	262.510498
19453.823511	16933.283333	1686.236328	229.080551
19453.823511	16933.283333	1685.213867	403.519012
19453.823511	16933.283333	1684.190430	164.487015
19453.823511	16933.283333	1683.166016	224.375702
19453.823511	16933.283333	1682.142578	223.511765
19453.823511	16933.283333	1681.119141	453.680115
19453.823511	16933.283333	1680.094727	364.021027
19453.823511	16933.283333	1679.070313	351.354492
19453.823511	16933.283333	1678.045898	252.351089
19453.823511	16933.283333	1677.020508	300.277985
19453.823511	16933.283333	1675.996094	422.772797
19453.823511	16933.283333	1674.970703	230.457047
19453.823511	16933.283333	1673.945313	606.914551
19453.823511	16933.283333	1672.919922	554.399841
19453.823511	16933.283333	1671.893555	334.111725
19453.823511	16933.283333	1670.868164	295.588409
19453.823511	16933.283333	1669.841797	240.742233
19453.823511	16933.283333	1668.815430	404.778229
19453.823511	16933.283333	1667.789063	319.609253
19453.823511	16933.283333	1666.761719	143.662430
19453.823511	16933.283333	1665.735352	642.669617
19453.823511	16933.283333	1664.708008	143.248016
19453.823511	16933.283333	1663.680664	186.038376
19453.823511	16933.283333	1662.653320	421.842224
19453.823511	16933.283333	1661.625000	522.647156
19453.823511	16933.283333	1660.597656	551.321960
19453.823511	16933.283333	1659.569336	705.483643
19453.823511	16933.283333	1658.541016	399.390320
19453.823511	16933.283333	1657.512695	451.239960
19453.823511	16933.283333	1656.483398	447.287720
19453.823511	16933.283333	1655.455078	684.892822
19453.823511	16933.283333	1654.425781	453.273682
19453.823511	16933.283333	1653.396484	377.291962
19453.823511	16933.283333	1652.366211	846.853210
19453.823511	16933.283333	1651.336914	840.422119
19453.823511	16933.283333	1650.306641	871.101929
19453.823511	16933.283333	1649.276367	486.461334
19453.823511	16933.283333	1648.246094	556.604675
19453.823511	16933.283333	1647.215820	559.450684
19453.823511	16933.283333	1646.185547	847.490417
19453.823511	16933.283333	1645.154297	803.885132
19453.823511	16933.283333	1644.123047	1059.289673
19453.823511	16933.283333	1643.091797	1085.163696
19453.823511	16933.283333	1642.060547	816.767883
19453.823511	16933.283333	1641.028320	956.165771
19453.823511	16933.283333	1639.997070	826.847900
19453.823511	16933.283333	1638.964844	836.503113
19453.823511	16933.283333	1637.931641	1029.040527
19453.823511	16933.283333	1636.899414	1029.384033
19453.823511	16933.283333	1635.867188	909.384460
19453.823511	16933.283333	1634.833984	1205.904297
19453.823511	16933.283333	1633.800781	1268.660767
19453.823511	16933.283333	1632.767578	1070.035645
19453.823511	16933.283333	1631.734375	1121.229004
19453.823511	16933.283333	1630.700195	1042.927490
19453.823511	16933.283333	1629.666016	1036.315308
19453.823511	16933.283333	1628.631836	807.842407
19453.823511	16933.283333	1627.597656	840.564392
19453.823511	16933.283333	1626.563477	1217.499634
19453.823511	16933.283333	1625.528320	739.676697
19453.823511	16933.283333	1624.493164	1268.902710
19453.823511	16933.283333	1623.458008	1292.289917
19453.823511	16933.283333	1622.422852	1248.733643
19453.823511	16933.283333	1621.387695	1516.773926
19453.823511	16933.283333	1620.351563	1438.589600
19453.823511	16933.283333	1619.315430	1076.675293
19453.823511	16933.283333	1618.279297	1090.891235
19453.823511	16933.283333	1617.243164	1245.789185
19453.823511	16933.283333	1616.207031	1310.717529
19453.823511	16933.283333	1615.169922	1405.595703
19453.823511	16933.283333	1614.132813	762.910339
19453.823511	16933.283333	1613.095703	1410.935791
19453.823511	16933.283333	1612.058594	1063.432617
19453.823511	16933.283333	1611.020508	1020.134766
19453.823511	16933.283333	1609.983398	1303.905151
19453.823511	16933.283333	1608.945313	1569.158081
19453.823511	16933.283333	1607.907227	1120.668945
19453.823511	16933.283333	1606.868164	1473.351685
19453.823511	16933.283333	1605.830078	1165.473267
19453.823511	16933.283333	1604.791016	1156.830933
19453.823511	16933.283333	1603.751953	1352.946289
19453.823511	16933.283333	1602.712891	1578.906128
19453.823511	16933.283333	1601.673828	1593.256348
19453.823511	16933.283333	1600.633789	1161.617554
19453.823511	16933.283333	1599.594727	1520.875977
19453.823511	16933.283333	1598.554688	1516.918701
19453.823511	16933.283333	1597.513672	1643.951904
19453.823511	16933.283333	1596.473633	1557.330078
19453.823511	16933.283333	1595.433594	1310.000244
19453.823511	16933.283333	1594.392578	1613.903809
19453.823511	16933.283333	1593.351563	1619.261230
19453.823511	16933.283333	1592.310547	1553.491577
19453.823511	16933.283333	1591.268555	1639.244995
19453.823511	16933.283333	1590.227539	1541.442261
19453.823511	16933.283333	1589.185547	1604.291382
19453.823511	16933.283333	1588.143555	1657.979736
19453.823511	16933.283333	1587.100586	1569.503540
19453.823511	16933.283333	1586.058594	1345.833862
19453.823511	16933.283333	1585.015625	1505.095093
19453.823511	16933.283333	1583.972656	1444.318115
19453.823511	16933.283333	1582.929688	1631.074219
19453.823511	16933.283333	1581.886719	1749.071045
19453.823511	16933.283333	1580.843750	1413.551880
19453.823511	16933.283333	1579.799805	1364.454468
19453.823511	16933.283333	1578.755859	1498.586914
19453.823511	16933.283333	1577.711914	1300.789795
19453.823511	16933.283333	1576.666992	1329.690674
19453.823511	16933.283333	1575.623047	1189.302734
19453.823511	16933.283333	1574.578125	1367.012939
19453.823511	16933.283333	1573.533203	1601.885132
19453.823511	16933.283333	1572.488281	1619.462769
19453.823511	16933.283333	1571.443359	1252.963623
19453.823511	16933.283333	1570.397461	1302.703125
19453.823511	16933.283333	1569.351563	1309.051147
19453.823511	16933.283333	1568.305664	1347.440186
19453.823511	16933.283333	1567.259766	1257.929688
19453.823511	16933.283333	1566.213867	1061.151367
19453.823511	16933.283333	1565.166992	1421.733154
19453.823511	16933.283333	1564.120117	1247.941284
19453.823511	16933.283333	1563.073242	1074.274780
19453.823511	16933.283333	1562.026367	1042.242188
19453.823511	16933.283333	1560.978516	1094.709961
19453.823511	16933.283333	1559.930664	973.823120
19453.823511	16933.283333	1558.883789	866.734070
19453.823511	16933.283333	1557.834961	1124.639038
19453.823511	16933.283333	1556.787109	969.798401
19453.823511	16933.283333	1555.739258	1065.850464
19453.823511	16933.283333	1554.690430	993.261658
19453.823511	16933.283333	1553.641602	1144.088623
19453.823511	16933.283333	1552.592773	809.631042
19453.823511	16933.283333	1551.542969	577.875000
19453.823511	16933.283333	1550.494141	1179.830933
19453.823511	16933.283333	1549.444336	786.560547
19453.823511	16933.283333	1548.394531	814.678528
19453.823511	16933.283333	1547.344727	622.070557
19453.823511	16933.283333	1546.293945	1016.730896
19453.823511	16933.283333	1545.244141	624.081360
19453.823511	16933.283333	1544.193359	525.102173
19453.823511	16933.283333	1543.142578	448.978180
19453.823511	16933.283333	1542.090820	468.459900
19453.823511	16933.283333	1541.040039	488.009460
19453.823511	16933.283333	1539.988281	321.238556
19453.823511	16933.283333	1538.936523	386.409821
19453.823511	16933.283333	1537.884766	640.213440
19453.823511	16933.283333	1536.833008	348.802490
19453.823511	16933.283333	1535.780273	500.464935
19453.823511	16933.283333	1534.727539	388.740448
19453.823511	16933.283333	1533.674805	735.739136
19453.823511	16933.283333	1532.622070	440.315186
19453.823511	16933.283333	1531.569336	598.967346
19453.823511	16933.283333	1530.515625	517.130371
19453.823511	16933.283333	1529.461914	632.767517
19453.823511	16933.283333	1528.408203	542.049255
19453.823511	16933.283333	1527.354492	258.704773
19453.823511	16933.283333	1526.299805	605.825500
19453.823511	16933.283333	1525.246094	662.757996
19453.823511	16933.283333	1524.191406	554.315308
19453.823511	16933.283333	1523.136719	414.280365
19453.823511	16933.283333	1522.081055	242.672653
19453.823511	16933.283333	1521.026367	250.152451
19453.823511	16933.283333	1519.970703	524.922180
19453.823511	16933.283333	1518.915039	514.406982
19453.823511	16933.283333	1517.859375	485.878906
19453.823511	16933.283333	1516.802734	47.826591
19453.823511	16933.283333	1515.747070	336.358643
19453.823511	16933.283333	1514.690430	348.877563
19453.823511	16933.283333	1513.633789	239.347046
19453.823511	16933.283333	1512.577148	414.882904
19453.823511	16933.283333	1511.519531	192.526917
19453.823511	16933.283333	1510.461914	501.556946
19453.823511	16933.283333	1509.405273	354.041534
19453.823511	16933.283333	1508.346680	48.513573
19453.823511	16933.283333	1507.289063	-44.441563
19453.823511	16933.283333	1506.231445	124.739510
19453.823511	16933.283333	1505.172852	151.686951
19453.823511	16933.283333	1504.114258	192.267883
19453.823511	16933.283333	1503.055664	124.580513
19453.823511	16933.283333	1501.996094	61.536465
19453.823511	16933.283333	1500.937500	149.794479
19453.823511	16933.283333	1499.877930	195.255569
19453.823511	16933.283333	1498.818359	218.245392
19453.823511	16933.283333	1497.757813	74.455238
19453.823511	16933.283333	1496.698242	226.177811
19453.823511	16933.283333	1495.637695	111.951599
19453.823511	16933.283333	1494.577148	-162.138412
19453.823511	16933.283333	1493.516602	-230.966782
19453.823511	16933.283333	1492.456055	40.509892
19453.823511	16933.283333	1491.394531	298.473663
19453.823511	16933.283333	1490.333008	184.872421
19453.823511	16933.283333	1489.271484	-133.463364
19453.823511	16933.283333	1488.209961	-100.404396
19453.823511	16933.283333	1487.148438	47.528240
19453.823511	16933.283333	1486.085938	-202.762222
19453.823511	16933.283333	1485.023438	-155.885101
19453.823511	16933.283333	1483.960938	-216.882996
19453.823511	16933.283333	1482.898438	-293.487976
19453.823511	16933.283333	1481.834961	165.150848
19453.823511	16933.283333	1480.772461	-136.057770
19453.823511	16933.283333	1479.708984	-446.015839
19453.823511	16933.283333	1478.644531	-185.039200
19453.823511	16933.283333	1477.581055	-458.659088
19453.823511	16933.283333	1476.517578	67.475471
19453.823511	16933.283333	1475.453125	-187.907104
19453.823511	16933.283333	1474.388672	-353.202393
19453.823511	16933.283333	1473.323242	109.890472
19453.823511	16933.283333	1472.258789	187.139862
19453.823511	16933.283333	1471.193359	-4.872239
19453.823511	16933.283333	1470.127930	303.592896
19453.823511	16933.283333	1469.062500	-56.237873
19453.823511	16933.283333	1467.997070	-77.079193
19453.823511	16933.283333	1466.930664	-140.500732
19453.823511	16933.283333	1465.865234	-28.958035
19453.823511	16933.283333	1464.798828	183.635956
19453.823511	16933.283333	1463.731445	30.664570
19453.823511	16933.283333	1462.665039	310.064178
19453.823511	16933.283333	1461.597656	605.334534
19453.823511	16933.283333	1460.530273	556.078674
19453.823511	16933.283333	1459.462891	524.984192
19453.823511	16933.283333	1458.395508	176.314957
19453.823511	16933.283333	1457.327148	304.220917
19453.823511	16933.283333	1456.259766	516.822632
19453.823511	16933.283333	1455.191406	429.912170
19453.823511	16933.283333	1454.123047	604.103516
19453.823511	16933.283333	1453.053711	296.646576
19453.823511	16933.283333	1451.985352	516.461853
19453.823511	16933.283333	1450.916016	324.699646
19453.823511	16933.283333	1449.846680	263.944122
19453.823511	16933.283333	1448.776367	382.857788
19453.823511	16933.283333	1447.707031	129.069153
19453.823511	16933.283333	1446.636719	86.690292
19453.823511	16933.283333	1445.566406	2.732688
19453.823511	16933.283333	1444.496094	606.280396
19453.823511	16933.283333	1443.425781	235.007202
19453.823511	16933.283333	1442.354492	148.232498
19453.823511	16933.283333	1441.283203	204.598129
19453.823511	16933.283333	1440.211914	139.502548
19453.823511	16933.283333	1439.140625	14.156705
19453.823511	16933.283333	1438.069336	-3.302714
19453.823511	16933.283333	1436.997070	69.350349
19453.823511	16933.283333	1435.924805	-10.535767
19453.823511	16933.283333	1434.852539	-133.472824
19453.823511	16933.283333	1433.780273	262.005920
19453.823511	16933.283333	1432.707031	220.294891
19453.823511	16933.283333	1431.633789	-90.826401
19453.823511	16933.283333	1430.560547	-118.858047
19453.823511	16933.283333	1429.487305	-97.677078
19453.823511	16933.283333	1428.413086	-89.710953
19453.823511	16933.283333	1427.339844	-299.063934
19453.823511	16933.283333	1426.265625	-429.866119
19453.823511	16933.283333	1425.191406	-66.555511
19453.823511	16933.283333	1424.116211	104.360741
19453.823511	16933.283333	1423.041992	139.160294
19453.823511	16933.283333	1421.966797	-125.215836
19453.823511	16933.283333	1420.891602	-29.409222
19453.823511	16933.283333	1419.816406	-159.955200
19453.823511	16933.283333	1418.740234	-171.278381
19453.823511	16933.283333	1417.665039	82.848930
19453.823511	16933.283333	1416.588867	172.884430
19453.823511	16933.283333	1415.512695	-247.696899
19453.823511	16933.283333	1414.435547	188.920990
19453.823511	16933.283333	1413.359375	7.373073
19453.823511	16933.283333	1412.282227	298.916687
19453.823511	16933.283333	1411.205078	250.842819
19453.823511	16933.283333	1410.127930	-248.800003
19453.823511	16933.283333	1409.049805	-107.199165
19453.823511	16933.283333	1407.972656	172.915955
19453.823511	16933.283333	1406.894531	166.194336
19453.823511	16933.283333	1405.816406	151.697800
19453.823511	16933.283333	1404.737305	-188.700089
19453.823511	16933.283333	1403.659180	249.899307
19453.823511	16933.283333	1402.580078	259.696503
19453.823511	16933.283333	1401.500977	413.229523
19453.823511	16933.283333	1400.421875	439.818329
19453.823511	16933.283333	1399.341797	488.563477
19453.823511	16933.283333	1398.262695	371.889862
19453.823511	16933.283333	1397.182617	305.952179
19453.823511	16933.283333	1396.102539	172.729218
19453.823511	16933.283333	1395.021484	654.874634
19453.823511	16933.283333	1393.941406	144.613327
19453.823511	16933.283333	1392.860352	140.241318
19453.823511	16933.283333	1391.779297	174.824875
19453.823511	16933.283333	1390.698242	-144.868835
19453.823511	16933.283333	1389.616211	171.257675
19453.823511	16933.283333	1388.535156	293.305145
19453.823511	16933.283333	1387.453125	236.935852
19453.823511	16933.283333	1386.371094	283.211609
19453.823511	16933.283333	1385.288086	29.718513
19453.823511	16933.283333	1384.206055	104.687370
19453.823511	16933.283333	1383.123047	144.134705
19453.823511	16933.283333	1382.040039	100.553551
19453.823511	16933.283333	1380.957031	190.312546
19453.823511	16933.283333	1379.873047	289.785370
19453.823511	16933.283333	1378.789063	246.070221
19453.823511	16933.283333	1377.705078	223.154846
19453.823511	16933.283333	1376.621094	140.665680
19453.823511	16933.283333	1375.537109	25.442047
19453.823511	16933.283333	1374.452148	287.350250
19453.823511	16933.283333	1373.367188	348.921539
19453.823511	16933.283333	1372.282227	79.135803
19453.823511	16933.283333	1371.197266	427.140961
19453.823511	16933.283333	1370.112305	358.588776
19453.823511	16933.283333	1369.026367	582.265869
19453.823511	16933.283333	1367.940430	269.097565
19453.823511	16933.283333	1366.854492	298.341034
19453.823511	16933.283333	1365.767578	100.394524
19453.823511	16933.283333	1364.681641	312.498932
19453.823511	16933.283333	1363.594727	310.525635
19453.823511	16933.283333	1362.507813	269.563416
19453.823511	16933.283333	1361.419922	147.374130
19453.823511	16933.283333	1360.333008	83.793648
19453.823511	16933.283333	1359.245117	327.953735
19453.823511	16933.283333	1358.157227	495.308136
19453.823511	16933.283333	1357.069336	-42.325535
19453.823511	16933.283333	1355.981445	168.993530
19453.823511	16933.283333	1354.892578	31.308865
19453.823511	16933.283333	1353.803711	320.698792
19453.823511	16933.283333	1352.714844	85.143074
19453.823511	16933.283333	1351.625000	181.707001
19453.823511	16933.283333	1350.536133	82.515846
19453.823511	16933.283333	1349.446289	290.728241
19453.823511	16933.283333	1348.356445	154.689636
19453.823511	16933.283333	1347.266602	258.450104
19453.823511	16933.283333	1346.175781	304.209991
19453.823511	16933.283333	1345.085938	406.507874
19453.823511	16933.283333	1343.995117	327.089050
19453.823511	16933.283333	1342.903320	352.599518
19453.823511	16933.283333	1341.812500	251.206161
19453.823511	16933.283333	1340.720703	7.771999
19453.823511	16933.283333	1339.629883	194.488983
19453.823511	16933.283333	1338.538086	260.200897
19453.823511	16933.283333	1337.445313	222.373962
19453.823511	16933.283333	1336.353516	247.240707
19453.823511	16933.283333	1335.260742	379.143372
19453.823511	16933.283333	1334.167969	373.609863
19453.823511	16933.283333	1333.075195	372.785919
19453.823511	16933.283333	1331.981445	323.427460
19453.823511	16933.283333	1330.888672	236.795609
19453.823511	16933.283333	1329.794922	327.342621
19453.823511	16933.283333	1328.701172	166.002335
19453.823511	16933.283333	1327.606445	102.851265
19453.823511	16933.283333	1326.512695	190.267105
19453.823511	16933.283333	1325.417969	295.491730
19453.823511	16933.283333	1324.323242	264.099274
19453.823511	16933.283333	1323.227539	307.080627
19453.823511	16933.283333	1322.132813	79.031593
19453.823511	16933.283333	1321.037109	287.624298
19453.823511	16933.283333	1319.941406	-39.208027
19453.823511	16933.283333	1318.845703	157.162613
19453.823511	16933.283333	1317.750000	297.407257
19453.823511	16933.283333	1316.653320	190.384293
19453.823511	16933.283333	1315.556641	177.528610
19453.823511	16933.283333	1314.459961	276.708466
19453.823511	16933.283333	1313.363281	287.559692
19453.823511	16933.283333	1312.265625	270.515137
19453.823511	16933.283333	1311.167969	337.985992
19453.823511	16933.283333	1310.070313	89.549492
19453.823511	16933.283333	1308.972656	95.540649
19453.823511	16933.283333	1307.874023	239.769470
19453.823511	16933.283333	1306.776367	141.269547
19453.823511	16933.283333	1305.677734	214.827835
19453.823511	16933.283333	1304.579102	60.204784
19453.823511	16933.283333	1303.479492	-136.408554
19453.823511	16933.283333	1302.380859	117.526833
19453.823511	16933.283333	1301.281250	221.872528
19453.823511	16933.283333	1300.181641	-61.458904
19453.823511	16933.283333	1299.081055	154.936661
19453.823511	16933.283333	1297.981445	220.709152
19453.823511	16933.283333	1296.880859	-54.988441
19453.823511	16933.283333	1295.780273	18.961298
19453.823511	16933.283333	1294.679688	-99.794128
19453.823511	16933.283333	1293.578125	-154.862106
19453.823511	16933.283333	1292.476563	-116.582359
19453.823511	16933.283333	1291.375000	15.612500
19453.823511	16933.283333	1290.273438	-158.049957
19453.823511	16933.283333	1289.171875	70.870697
19453.823511	16933.283333	1288.069336	-20.615499
19453.823511	16933.283333	1286.966797	-116.252831
19453.823511	16933.283333	1285.864258	-55.581326
19453.823511	16933.283333	1284.761719	-88.545303
19453.823511	16933.283333	1283.658203	-136.835785
19453.823511	16933.283333	1282.554688	-347.687439
19453.823511	16933.283333	1281.451172	-37.583649
19453.823511	16933.283333	1280.347656	-122.152351
19453.823511	16933.283333	1279.244141	-207.910141
19453.823511	16933.283333	1278.139648	-25.430687
19453.823511	16933.283333	1277.035156	-53.634388
19453.823511	16933.283333	1275.930664	-77.520264
19453.823511	16933.283333	1274.825195	-18.878704
19453.823511	16933.283333	1273.720703	-89.532227
19453.823511	16933.283333	1272.615234	-14.322318
19453.823511	16933.283333	1271.508789	-39.935421
19453.823511	16933.283333	1270.403320	31.329210
19453.823511	16933.283333	1269.297852	-62.773834
19453.823511	16933.283333	1268.191406	168.758179
19453.823511	16933.283333	1267.084961	99.699913
19453.823511	16933.283333	1265.977539	118.311951
19453.823511	16933.283333	1264.871094	41.896355
19453.823511	16933.283333	1263.763672	-62.934834
19453.823511	16933.283333	1262.656250	54.530434
19453.823511	16933.283333	1261.548828	158.080231
19453.823511	16933.283333	1260.440430	11.526061
19453.823511	16933.283333	1259.333008	96.322105
19453.823511	16933.283333	1258.224609	-24.587366
19453.823511	16933.283333	1257.115234	89.046722
19453.823511	16933.283333	1256.006836	149.121826
19453.823511	16933.283333	1254.897461	0.670205
19453.823511	16933.283333	1253.788086	265.819794
19453.823511	16933.283333	1252.678711	124.747314
19453.823511	16933.283333	1251.569336	320.229156
19453.823511	16933.283333	1250.458984	290.504700
19453.823511	16933.283333	1249.349609	202.662613
19453.823511	16933.283333	1248.239258	307.083008
19453.823511	16933.283333	1247.127930	345.741455
19453.823511	16933.283333	1246.017578	221.427826
19453.823511	16933.283333	1244.906250	107.227310
19453.823511	16933.283333	1243.794922	573.832214
19453.823511	16933.283333	1242.683594	340.214172
19453.823511	16933.283333	1241.571289	307.694702
19453.823511	16933.283333	1240.459961	495.057709
19453.823511	16933.283333	1239.347656	151.046661
19453.823511	16933.283333	1238.234375	358.256287
19453.823511	16933.283333	1237.122070	170.300613
19453.823511	16933.283333	1236.008789	166.878189
19453.823511	16933.283333	1234.896484	299.749512
19453.823511	16933.283333	1233.782227	127.144508
19453.823511	16933.283333	1232.668945	185.229813
19453.823511	16933.283333	1231.555664	139.162827
19453.823511	16933.283333	1230.441406	-64.600227
19453.823511	16933.283333	1229.327148	-87.445175
19453.823511	16933.283333	1228.211914	-37.445095
19453.823511	16933.283333	1227.097656	-9.966380
19453.823511	16933.283333	1225.982422	-141.259735
19453.823511	16933.283333	1224.867188	-115.273438
19453.823511	16933.283333	1223.751953	-325.742798
19453.823511	16933.283333	1222.635742	-93.615898
19453.823511	16933.283333	1221.520508	-269.841095
19453.823511	16933.283333	1220.404297	-209.729645
19453.823511	16933.283333	1219.287109	-98.405586
19453.823511	16933.283333	1218.170898	-373.713623
19453.823511	16933.283333	1217.053711	-198.457306
19453.823511	16933.283333	1215.936523	-94.104385
19453.823511	16933.283333	1214.819336	-210.638138
19453.823511	16933.283333	1213.702148	-154.553589
19453.823511	16933.283333	1212.583984	-280.195435
19453.823511	16933.283333	1211.465820	-198.236343
19453.823511	16933.283333	1210.347656	-174.622543
19453.823511	16933.283333	1209.229492	-289.485718
19453.823511	16933.283333	1208.110352	-183.961624
19453.823511	16933.283333	1206.992188	78.728416
19453.823511	16933.283333	1205.873047	-182.447952
19453.823511	16933.283333	1204.752930	-74.222115
19453.823511	16933.283333	1203.633789	-95.139450
19453.823511	16933.283333	1202.513672	-73.685577
19453.823511	16933.283333	1201.393555	-218.577911
19453.823511	16933.283333	1200.273438	-24.344620
19453.823511	16933.283333	1199.152344	23.440907
19453.823511	16933.283333	1198.032227	-346.358246
19453.823511	16933.283333	1196.911133	-250.515015
19453.823511	16933.283333	1195.790039	-83.363884
19453.823511	16933.283333	1194.667969	23.320520
19453.823511	16933.283333	1193.545898	92.561211
19453.823511	16933.283333	1192.424805	-128.856934
19453.823511	16933.283333	1191.301758	-32.746704
19453.823511	16933.283333	1190.179688	317.048859
19453.823511	16933.283333	1189.056641	76.848236
19453.823511	16933.283333	1187.933594	89.534012
19453.823511	16933.283333	1186.810547	62.160126
19453.823511	16933.283333	1185.687500	152.821548
19453.823511	16933.283333	1184.563477	-150.375748
19453.823511	16933.283333	1183.440430	11.111886
19453.823511	16933.283333	1182.316406	-197.368134
19453.823511	16933.283333	1181.191406	-176.640839
19453.823511	16933.283333	1180.067383	-198.756104
19453.823511	16933.283333	1178.942383	124.025864
19453.823511	16933.283333	1177.817383	-272.843597
19453.823511	16933.283333	1176.692383	-73.556610
19453.823511	16933.283333	1175.566406	71.461319
19453.823511	16933.283333	1174.440430	169.304214
19453.823511	16933.283333	1173.314453	-136.966080
19453.823511	16933.283333	1172.188477	-4.719380
19453.823511	16933.283333	1171.062500	228.303452
19453.823511	16933.283333	1169.935547	192.315399
19453.823511	16933.283333	1168.808594	193.572815
19453.823511	16933.283333	1167.681641	22.268442
19453.823511	16933.283333	1166.553711	166.841721
19453.823511	16933.283333	1165.426758	150.419708
19453.823511	16933.283333	1164.298828	192.692398
19453.823511	16933.283333	1163.170898	128.963303
19453.823511	16933.283333	1162.041992	163.583801
19453.823511	16933.283333	1160.914063	94.802467
19453.823511	16933.283333	1159.785156	-16.321926
19453.823511	16933.283333	1158.656250	153.455765
19453.823511	16933.283333	1157.526367	15.275818
19453.823511	16933.283333	1156.397461	222.061035
19453.823511	16933.283333	1155.267578	-60.065674
19453.823511	16933.283333	1154.137695	-231.108978
19453.823511	16933.283333	1153.006836	-52.616230
19453.823511	16933.283333	1151.876953	-56.388832
19453.823511	16933.283333	1150.746094	-92.937057
19453.823511	16933.283333	1149.615234	-54.321964
19453.823511	16933.283333	1148.484375	-89.415138
19453.823511	16933.283333	1147.352539	38.216312
19453.823511	16933.283333	1146.220703	65.163841
19453.823511	16933.283333	1145.088867	-26.711691
19453.823511	16933.283333	1143.957031	-13.885336
19453.823511	16933.283333	1142.825195	-0.761835
19453.823511	16933.283333	1141.692383	88.193031
19453.823511	16933.283333	1140.559570	3.660875
19453.823511	16933.283333	1139.426758	-158.065750
19453.823511	16933.283333	1138.292969	118.693710
19453.823511	16933.283333	1137.159180	26.843725
19453.823511	16933.283333	1136.025391	-21.274305
19453.823511	16933.283333	1134.891602	86.579475
19453.823511	16933.283333	1133.757813	-8.780856
19453.823511	16933.283333	1132.623047	-39.296059
19453.823511	16933.283333	1131.488281	71.424965
19453.823511	16933.283333	1130.353516	79.737350
19453.823511	16933.283333	1129.217773	101.594711
19453.823511	16933.283333	1128.083008	-209.557724
19453.823511	16933.283333	1126.947266	-15.025331
19453.823511	16933.283333	1125.811523	-137.611969
19453.823511	16933.283333	1124.674805	141.745163
19453.823511	16933.283333	1123.539063	107.321861
19453.823511	16933.283333	1122.402344	6.324057
19453.823511	16933.283333	1121.265625	21.633694
19453.823511	16933.283333	1120.127930	125.455940
19453.823511	16933.283333	1118.990234	83.448280
19453.823511	16933.283333	1117.853516	1.278191
19453.823511	16933.283333	1116.714844	-134.151505
19453.823511	16933.283333	1115.577148	40.898491
19453.823511	16933.283333	1114.439453	-70.638206
19453.823511	16933.283333	1113.300781	-147.628998
19453.823511	16933.283333	1112.162109	5.152358
19453.823511	16933.283333	1111.022461	135.975082
19453.823511	16933.283333	1109.883789	-55.912758
19453.823511	16933.283333	1108.744141	-32.246033
19453.823511	16933.283333	1107.604492	20.307255
19453.823511	16933.283333	1106.463867	230.418457
19453.823511	16933.283333	1105.324219	49.953354
19453.823511	16933.283333	1104.183594	134.151230
19453.823511	16933.283333	1103.042969	47.420540
19453.823511	16933.283333	1101.902344	32.401802
19453.823511	16933.283333	1100.760742	48.719212
19453.823511	16933.283333	1099.619141	89.904495
19453.823511	16933.283333	1098.477539	-119.884239
19453.823511	16933.283333	1097.335938	-157.250580
19453.823511	16933.283333	1096.193359	72.540787
19453.823511	16933.283333	1095.051758	379.645935
19453.823511	16933.283333	1093.909180	146.558929
19453.823511	16933.283333	1092.765625	34.006130
19453.823511	16933.283333	1091.623047	74.401802
19453.823511	16933.283333	1090.479492	56.253361
19453.823511	16933.283333	1089.335938	336.444733
19453.823511	16933.283333	1088.192383	291.952515
19453.823511	16933.283333	1087.047852	198.345505
19453.823511	16933.283333	1085.903320	185.664139
19453.823511	16933.283333	1084.758789	267.314697
19453.823511	16933.283333	1083.614258	324.181976
19453.823511	16933.283333	1082.469727	385.525757
19453.823511	16933.283333	1081.324219	519.777954
19453.823511	16933.283333	1080.178711	439.838654
19453.823511	16933.283333	1079.033203	213.604431
19453.823511	16933.283333	1077.886719	381.645660
19453.823511	16933.283333	1076.740234	405.349060
19453.823511	16933.283333	1075.593750	218.630692
19453.823511	16933.283333	1074.447266	8.945755
19453.823511	16933.283333	1073.300781	138.003342
19453.823511	16933.283333	1072.153320	303.664581
19453.823511	16933.283333	1071.005859	512.769592
19453.823511	16933.283333	1069.858398	315.537354
19453.823511	16933.283333	1068.709961	-52.147793
19453.823511	16933.283333	1067.561523	191.347504
19453.823511	16933.283333	1066.413086	-2.851606
19453.823511	16933.283333	1065.264648	118.948425
19453.823511	16933.283333	1064.116211	-101.613564
19453.823511	16933.283333	1062.966797	139.586792
19453.823511	16933.283333	1061.817383	221.468353
19453.823511	16933.283333	1060.667969	-124.689377
19453.823511	16933.283333	1059.517578	155.614746
19453.823511	16933.283333	1058.368164	258.283295
19453.823511	16933.283333	1057.217773	211.617126
19453.823511	16933.283333	1056.067383	68.275696
19453.823511	16933.283333	1054.916016	124.912308
19453.823511	16933.283333	1053.764648	220.342773
19453.823511	16933.283333	1052.613281	213.155243
19453.823511	16933.283333	1051.461914	121.580444
19453.823511	16933.283333	1050.310547	173.724121
19453.823511	16933.283333	1049.158203	195.338913
19453.823511	16933.283333	1048.005859	274.955811
19453.823511	16933.283333	1046.853516	407.752838
19453.823511	16933.283333	1045.700195	425.127045
19453.823511	16933.283333	1044.547852	135.064514
19453.823511	16933.283333	1043.394531	286.564026
19453.823511	16933.283333	1042.240234	426.947968
19453.823511	16933.283333	1041.086914	481.153992
19453.823511	16933.283333	1039.932617	232.360275
19453.823511	16933.283333	1038.778320	156.229141
19453.823511	16933.283333	1037.624023	-122.467529
19453.823511	16933.283333	1036.469727	143.690521
19453.823511	16933.283333	1035.314453	225.847885
19453.823511	16933.283333	1034.159180	200.063705
19453.823511	16933.283333	1033.003906	370.902802
19453.823511	16933.283333	1031.847656	527.734253
19453.823511	16933.283333	1030.692383	463.414734
19453.823511	16933.283333	1029.536133	534.974976
19453.823511	16933.283333	1028.378906	352.710052
19453.823511	16933.283333	1027.222656	577.363831
19453.823511	16933.283333	1026.065430	446.324005
19453.823511	16933.283333	1024.908203	423.929535
19453.823511	16933.283333	1023.750977	143.897675
19453.823511	16933.283333	1022.593750	305.615509
19453.823511	16933.283333	1021.435547	22.836451
19453.823511	16933.283333	1020.277344	276.241455
19453.823511	16933.283333	1019.119141	289.694275
19453.823511	16933.283333	1017.959961	171.936386
19453.823511	16933.283333	1016.800781	235.205582
19453.823511	16933.283333	1015.641602	7.799212
19453.823511	16933.283333	1014.482422	-208.637756
19453.823511	16933.283333	1013.323242	-9.442745
19453.823511	16933.283333	1012.163086	33.129456
19453.823511	16933.283333	1011.002930	76.141113
19453.823511	16933.283333	1009.842773	35.293869
19453.823511	16933.283333	1008.681641	3.055462
19453.823511	16933.283333	1007.520508	-106.300743
19453.823511	16933.283333	1006.359375	360.788239
19453.823511	16933.283333	1005.198242	108.580711
19453.823511	16933.283333	1004.037109	138.368179
19453.823511	16933.283333	1002.875000	-14.137691
19453.823511	16933.283333	1001.712891	-154.743362
19453.823511	16933.283333	1000.550781	64.657135
19453.823511	16933.283333	999.387695	101.798775
19453.823511	16933.283333	998.224609	160.222900
19453.823511	16933.283333	997.061523	335.146820
19453.823511	16933.283333	995.898438	34.100365
19453.823511	16933.283333	994.734375	115.027298
19453.823511	16933.283333	993.571289	111.010315
19453.823511	16933.283333	992.407227	-135.993256
19453.823511	16933.283333	991.242188	125.979889
19453.823511	16933.283333	990.078125	452.643524
19453.823511	16933.283333	988.913086	-15.871388
19453.823511	16933.283333	987.748047	106.531563
19453.823511	16933.283333	986.583008	56.772846
19453.823511	16933.283333	985.416992	-56.873993
19453.823511	16933.283333	984.250977	-26.128777
19453.823511	16933.283333	983.084961	71.382072
19453.823511	16933.283333	981.918945	173.192307
19453.823511	16933.283333	980.751953	25.885860
19453.823511	16933.283333	979.584961	-92.231529
19453.823511	16933.283333	978.417969	72.828949
19453.823511	16933.283333	977.250977	-215.164581
19453.823511	16933.283333	976.083008	-230.614655
19453.823511	16933.283333	974.915039	86.645958
19453.823511	16933.283333	973.747070	77.313095
19453.823511	16933.283333	972.579102	156.518173
19453.823511	16933.283333	971.410156	-47.496971
19453.823511	16933.283333	970.242188	-138.118759
19453.823511	16933.283333	969.072266	-31.392300
19453.823511	16933.283333	967.903320	10.267656
19453.823511	16933.283333	966.733398	57.891010
19453.823511	16933.283333	965.563477	72.180405
19453.823511	16933.283333	964.393555	-95.795265
19453.823511	16933.283333	963.223633	113.876648
19453.823511	16933.283333	962.052734	-66.947021
19453.823511	16933.283333	960.881836	-33.641624
19453.823511	16933.283333	959.710938	-118.118736
19453.823511	16933.283333	958.540039	-64.065338
19453.823511	16933.283333	957.368164	197.590134
19453.823511	16933.283333	956.196289	-71.527557
19453.823511	16933.283333	955.024414	3.869210
19453.823511	16933.283333	953.851563	35.096050
19453.823511	16933.283333	952.679688	30.550642
19453.823511	16933.283333	951.506836	-260.944977
19453.823511	16933.283333	950.333984	4.851319
19453.823511	16933.283333	949.160156	-69.416908
19453.823511	16933.283333	947.986328	-168.173523
19453.823511	16933.283333	946.812500	41.068302
19453.823511	16933.283333	945.638672	98.029785
19453.823511	16933.283333	944.464844	-13.099126
19453.823511	16933.283333	943.290039	-15.448399
19453.823511	16933.283333	942.115234	83.689056
19453.823511	16933.283333	940.940430	44.192627
19453.823511	16933.283333	939.764648	328.508453
19453.823511	16933.283333	938.588867	-2.941502
19453.823511	16933.283333	937.413086	100.854980
19453.823511	16933.283333	936.237305	2.341737
19453.823511	16933.283333	935.060547	-27.285227
19453.823511	16933.283333	933.883789	7.622721
19453.823511	16933.283333	932.707031	-65.715210
19453.823511	16933.283333	931.530273	143.646759
19453.823511	16933.283333	930.352539	-143.831802
19453.823511	16933.283333	929.175781	121.657837
19453.823511	16933.283333	927.998047	-47.321102
19453.823511	16933.283333	926.819336	83.003242
19453.823511	16933.283333	925.641602	-131.710709
19453.823511	16933.283333	924.462891	-28.464294
19453.823511	16933.283333	923.284180	-108.083382
19453.823511	16933.283333	922.104492	-106.669090
19453.823511	16933.283333	920.924805	-109.420280
19453.823511	16933.283333	919.746094	-100.000618
19453.823511	16933.283333	919.551758	198.726898
19453.823511	16933.283333	918.386719	25.545492
19453.823511	16933.283333	917.220703	-174.557541
19453.823511	16933.283333	916.054688	-9.388446
19453.823511	16933.283333	914.887695	-78.728195
19453.823511	16933.283333	913.721680	-100.355591
19453.823511	16933.283333	912.554688	77.100632
19453.823511	16933.283333	911.387695	-68.974327
19453.823511	16933.283333	910.220703	-103.066475
19453.823511	16933.283333	909.052734	-103.990082
19453.823511	16933.283333	907.885742	152.001556
19453.823511	16933.283333	906.717773	18.410385
19453.823511	16933.283333	905.548828	65.064796
19453.823511	16933.283333	904.380859	10.209598
19453.823511	16933.283333	903.211914	77.524376
19453.823511	16933.283333	902.042969	-140.857590
19453.823511	16933.283333	900.874023	-290.867645
19453.823511	16933.283333	899.704102	248.199265
19453.823511	16933.283333	898.535156	178.826355
19453.823511	16933.283333	897.365234	70.179367
19453.823511	16933.283333	896.194336	-42.563774
19453.823511	16933.283333	895.024414	-126.333893
19453.823511	16933.283333	893.853516	141.319809
19453.823511	16933.283333	892.682617	45.130283
19453.823511	16933.283333	891.511719	-24.169859
19453.823511	16933.283333	890.340820	9.837561
19453.823511	16933.283333	889.168945	-117.271446
19453.823511	16933.283333	887.997070	139.738007
19453.823511	16933.283333	886.825195	55.989151
19453.823511	16933.283333	885.653320	-112.359650
19453.823511	16933.283333	884.480469	-113.488327
19453.823511	16933.283333	883.307617	69.000137
19453.823511	16933.283333	882.134766	150.328537
19453.823511	16933.283333	880.961914	87.247002
19453.823511	16933.283333	879.788086	-280.981110
19453.823511	16933.283333	878.614258	-150.173645
19453.823511	16933.283333	877.440430	-64.775803
19453.823511	16933.283333	876.266602	-101.000389
19453.823511	16933.283333	875.091797	107.958862
19453.823511	16933.283333	873.916992	34.625900
19453.823511	16933.283333	872.742188	-191.085144
19453.823511	16933.283333	871.567383	-149.041412
19453.823511	16933.283333	870.391602	-331.403534
19453.823511	16933.283333	869.215820	17.309504
19453.823511	16933.283333	868.040039	-95.064400
19453.823511	16933.283333	866.864258	-102.476402
19453.823511	16933.283333	865.687500	17.639360
19453.823511	16933.283333	864.510742	-16.536905
19453.823511	16933.283333	863.333984	146.672516
19453.823511	16933.283333	862.157227	36.406258
19453.823511	16933.283333	860.979492	59.773090
19453.823511	16933.283333	859.802734	122.154961
19453.823511	16933.283333	858.625000	-6.547004
19453.823511	16933.283333	857.446289	-213.246979
19453.823511	16933.283333	856.268555	33.950710
19453.823511	16933.283333	855.089844	-189.117386
19453.823511	16933.283333	853.911133	-237.624573
19453.823511	16933.283333	852.731445	-84.989578
19453.823511	16933.283333	851.552734	-229.953445
19453.823511	16933.283333	850.373047	-253.828156
19453.823511	16933.283333	849.193359	-134.128830
19453.823511	16933.283333	848.013672	-57.552879
19453.823511	16933.283333	846.833008	18.988665
19453.823511	16933.283333	845.652344	-173.029099
19453.823511	16933.283333	844.471680	-117.008682
19453.823511	16933.283333	843.291016	12.737203
19453.823511	16933.283333	842.110352	-60.379547
19453.823511	16933.283333	840.928711	118.440880
19453.823511	16933.283333	839.747070	20.743904
19453.823511	16933.283333	838.564453	-232.504684
19453.823511	16933.283333	837.382813	-92.684494
19453.823511	16933.283333	836.200195	-67.523880
19453.823511	16933.283333	835.017578	31.268652
19453.823511	16933.283333	833.834961	-70.453659
19453.823511	16933.283333	832.651367	-155.779831
19453.823511	16933.283333	831.467773	-241.086334
19453.823511	16933.283333	830.284180	-307.971130
19453.823511	16933.283333	829.100586	-98.922829
19453.823511	16933.283333	827.916992	24.200796
19453.823511	16933.283333	826.732422	12.425848
19453.823511	16933.283333	825.547852	-254.680756
19453.823511	16933.283333	824.363281	289.044678
19453.823511	16933.283333	823.177734	-47.451942
19453.823511	16933.283333	821.992188	177.535019
19453.823511	16933.283333	820.806641	-1.684312
19453.823511	16933.283333	819.621094	0.752935
19453.823511	16933.283333	818.434570	-39.660530
19453.823511	16933.283333	817.249023	-2.575493
19453.823511	16933.283333	816.062500	-77.676064
19453.823511	16933.283333	814.875000	91.898575
19453.823511	16933.283333	813.688477	141.110992
19453.823511	16933.283333	812.500977	143.417557
19453.823511	16933.283333	811.313477	196.643066
19453.823511	16933.283333	810.125977	-243.158279
19453.823511	16933.283333	808.937500	-79.929558
19453.823511	16933.283333	807.749023	160.585693
19453.823511	16933.283333	806.560547	111.888901
19453.823511	16933.283333	805.372070	73.366241
19453.823511	16933.283333	804.182617	30.771812
19453.823511	16933.283333	802.994141	57.339912
19453.823511	16933.283333	801.803711	-170.384949
19453.823511	16933.283333	800.614258	16.836742
19453.823511	16933.283333	799.424805	177.520737
19453.823511	16933.283333	798.234375	193.782272
19453.823511	16933.283333	797.043945	41.313454
19453.823511	16933.283333	795.852539	-302.127930
19453.823511	16933.283333	794.662109	14.821552
19453.823511	16933.283333	793.470703	167.088181
19453.823511	16933.283333	792.279297	-40.188610
19453.823511	16933.283333	791.087891	49.023724
19453.823511	16933.283333	789.895508	-243.458633
19453.823511	16933.283333	788.703125	64.892487
19453.823511	16933.283333	787.510742	13.929925
19453.823511	16933.283333	786.318359	84.674492
19453.823511	16933.283333	785.125000	-53.548016
19453.823511	16933.283333	783.931641	132.708618
19453.823511	16933.283333	782.738281	126.244461
19453.823511	16933.283333	781.544922	6.236562
19453.823511	16933.283333	780.350586	-101.594910
19453.823511	16933.283333	779.156250	218.102600
19453.823511	16933.283333	777.961914	146.660385
19453.823511	16933.283333	776.767578	24.573809
19453.823511	16933.283333	775.572266	78.672279
19453.823511	16933.283333	774.376953	221.785004
19453.823511	16933.283333	773.181641	69.282310
19453.823511	16933.283333	771.986328	173.802139
19453.823511	16933.283333	770.790039	67.828003
19453.823511	16933.283333	769.593750	97.380630
19453.823511	16933.283333	768.397461	112.720978
19453.823511	16933.283333	767.201172	318.072876
19453.823511	16933.283333	766.003906	296.884491
19453.823511	16933.283333	764.806641	225.131821
19453.823511	16933.283333	763.609375	106.884346
19453.823511	16933.283333	762.412109	174.502609
19453.823511	16933.283333	761.213867	193.571335
19453.823511	16933.283333	760.015625	-5.517368
19453.823511	16933.283333	758.817383	162.886078
19453.823511	16933.283333	757.618164	48.569389
19453.823511	16933.283333	756.419922	309.622620
19453.823511	16933.283333	755.220703	122.575111
19453.823511	16933.283333	754.021484	405.592560
19453.823511	16933.283333	752.821289	-3.361695
19453.823511	16933.283333	751.621094	307.686737
19453.823511	16933.283333	750.420898	27.836632
19453.823511	16933.283333	749.220703	237.850845
19453.823511	16933.283333	748.020508	30.562542
19453.823511	16933.283333	746.819336	-150.500793
19453.823511	16933.283333	745.618164	133.776123
19453.823511	16933.283333	744.416992	0.980350
19453.823511	16933.283333	743.214844	365.529846
19453.823511	16933.283333	742.012695	230.604492
19453.823511	16933.283333	740.810547	304.994446
19453.823511	16933.283333	739.608398	174.032913
19453.823511	16933.283333	738.406250	232.177994
19453.823511	16933.283333	737.203125	167.534912
19453.823511	16933.283333	736.000000	531.203735
19453.823511	16933.283333	734.795898	345.756317
19453.823511	16933.283333	733.592773	731.208496
19453.823511	16933.283333	732.388672	573.792664
19453.823511	16933.283333	731.184570	524.876770
19453.823511	16933.283333	729.979492	604.485535
19453.823511	16933.283333	728.775391	324.457458
19453.823511	16933.283333	727.570313	514.372253
19453.823511	16933.283333	726.365234	266.459351
19453.823511	16933.283333	725.160156	161.089005
19453.823511	16933.283333	723.954102	318.584564
19453.823511	16933.283333	722.748047	138.859238
19453.823511	16933.283333	721.541992	161.734528
19453.823511	16933.283333	720.334961	166.476913
19453.823511	16933.283333	719.128906	343.574402
19453.823511	16933.283333	717.921875	-131.017380
19453.823511	16933.283333	716.714844	37.892475
19453.823511	16933.283333	715.506836	-53.853588
19453.823511	16933.283333	714.298828	-63.503967
19453.823511	16933.283333	713.090820	-17.147305
19453.823511	16933.283333	711.882813	125.231277
19453.823511	16933.283333	710.674805	173.357605
19453.823511	16933.283333	709.465820	55.233955
19453.823511	16933.283333	708.256836	3.114268
19453.823511	16933.283333	707.047852	90.997833
19453.823511	16933.283333	705.837891	-45.302727
19453.823511	16933.283333	704.627930	-13.626972
19453.823511	16933.283333	703.417969	159.922836
19453.823511	16933.283333	702.208008	45.414398
19453.823511	16933.283333	700.998047	58.786480
19453.823511	16933.283333	699.787109	-67.826332
19453.823511	16933.283333	698.576172	271.057098
19453.823511	16933.283333	697.364258	198.202118
19453.823511	16933.283333	696.153320	113.294853
19453.823511	16933.283333	694.941406	-21.586611
19453.823511	16933.283333	693.729492	-106.601402
19453.823511	16933.283333	692.516602	-153.752060
19453.823511	16933.283333	691.304688	-161.072449
19453.823511	16933.283333	690.091797	19.050083
19453.823511	16933.283333	688.878906	242.882553
19453.823511	16933.283333	687.665039	11.834251
19453.823511	16933.283333	686.451172	227.398972
19453.823511	16933.283333	685.237305	201.570313
19453.823511	16933.283333	684.023438	263.341949
19453.823511	16933.283333	682.809570	153.625488
19453.823511	16933.283333	681.594727	175.333832
19453.823511	16933.283333	680.379883	270.625244
19453.823511	16933.283333	679.165039	206.468079
19453.823511	16933.283333	677.949219	297.524994
19453.823511	16933.283333	676.733398	18.210434
19453.823511	16933.283333	675.517578	250.352158
19453.823511	16933.283333	674.301758	263.430267
19453.823511	16933.283333	673.084961	-2.092085
19453.823511	16933.283333	671.869141	-88.618935
19453.823511	16933.283333	670.651367	188.657730
19453.823511	16933.283333	669.434570	280.829651
19453.823511	16933.283333	668.216797	249.629852
19453.823511	16933.283333	667.000000	232.242905
19453.823511	16933.283333	665.781250	331.971985
19453.823511	16933.283333	664.563477	219.017334
19453.823511	16933.283333	663.344727	429.695343
19453.823511	16933.283333	662.125977	405.894379
19453.823511	16933.283333	660.907227	318.473633
19453.823511	16933.283333	659.688477	256.780609
19453.823511	16933.283333	658.468750	452.945679
19453.823511	16933.283333	657.249023	367.222809
19453.823511	16933.283333	656.029297	289.359985
19453.823511	16933.283333	654.808594	336.342804
19453.823511	16933.283333	653.587891	525.937317
19453.823511	16933.283333	652.367188	94.944305
19453.823511	16933.283333	651.146484	252.580521
19453.823511	16933.283333	649.924805	207.950485
19453.823511	16933.283333	648.704102	97.860802
19453.823511	16933.283333	647.482422	405.575104
19453.823511	16933.283333	646.259766	392.286560
19453.823511	16933.283333	645.037109	323.463135
19453.823511	16933.283333	643.815430	117.999001
19453.823511	16933.283333	642.591797	349.807953
19453.823511	16933.283333	641.369141	211.464798
19453.823511	16933.283333	640.145508	102.734161
19453.823511	16933.283333	638.921875	336.045532
19453.823511	16933.283333	637.698242	254.793640
19453.823511	16933.283333	636.474609	307.879181
19453.823511	16933.283333	635.250000	147.396118
19453.823511	16933.283333	634.025391	42.194256
19453.823511	16933.283333	632.800781	-179.620605
19453.823511	16933.283333	631.575195	-18.310144
19453.823511	16933.283333	630.349609	69.766792
19453.823511	16933.283333	629.124023	276.143829
19453.823511	16933.283333	627.898438	-273.608337
19453.823511	16933.283333	626.671875	-6.290651
19453.823511	16933.283333	625.445313	134.539230
19453.823511	16933.283333	624.218750	48.370113
19453.823511	16933.283333	622.992188	125.809921
19453.823511	16933.283333	621.764648	173.533981
19453.823511	16933.283333	620.537109	-208.591064
19453.823511	16933.283333	619.309570	-186.648621
19453.823511	16933.283333	618.081055	53.888035
19453.823511	16933.283333	616.852539	63.733513
19453.823511	16933.283333	615.624023	104.984169
19453.823511	16933.283333	614.395508	-37.015553
19453.823511	16933.283333	613.166992	-3.841132
19453.823511	16933.283333	611.937500	-307.362610
19453.823511	16933.283333	610.708008	-105.116852
19453.823511	16933.283333	609.477539	12.338507
19453.823511	16933.283333	608.248047	1.792926
19453.823511	16933.283333	607.017578	-42.285751
19453.823511	16933.283333	605.787109	-263.398804
19453.823511	16933.283333	604.555664	-158.203705
19453.823511	16933.283333	603.325195	7.783035
19453.823511	16933.283333	602.093750	-73.984917
19453.823511	16933.283333	600.861328	-293.334991
19453.823511	16933.283333	599.629883	-180.746063
19453.823511	16933.283333	598.397461	-168.452347
19453.823511	16933.283333	597.165039	-62.018932
19453.823511	16933.283333	595.932617	-14.608868
19453.823511	16933.283333	594.699219	66.047661
19453.823511	16933.283333	593.465820	-102.594612
19453.823511	16933.283333	592.232422	-12.323710
19453.823511	16933.283333	590.999023	-90.839745
19453.823511	16933.283333	589.764648	-59.613331
19453.823511	16933.283333	588.530273	-244.121033
19453.823511	16933.283333	587.295898	-44.492622
19453.823511	16933.283333	586.061523	-56.656654
19453.823511	16933.283333	584.826172	-49.314415
19453.823511	16933.283333	583.590820	124.430885
19453.823511	16933.283333	582.355469	-58.380539
19453.823511	16933.283333	581.119141	-268.608307
19453.823511	16933.283333	579.882813	92.742233
19453.823511	16933.283333	578.646484	-278.058197
19453.823511	16933.283333	577.410156	-46.147079
19453.823511	16933.283333	576.172852	-174.351028
19453.823511	16933.283333	574.935547	-187.184875
19453.823511	16933.283333	573.698242	-84.719681
19453.823511	16933.283333	572.460938	134.924683
19453.823511	16933.283333	571.222656	14.315934
19453.823511	16933.283333	569.984375	118.408226
19453.823511	16933.283333	568.746094	-297.285492
19453.823511	16933.283333	567.506836	-39.002350
19453.823511	16933.283333	566.267578	-196.850525
19453.823511	16933.283333	565.028320	-9.117854
19453.823511	16933.283333	563.789063	-49.910553
19453.823511	16933.283333	562.548828	-98.561615
19453.823511	16933.283333	561.309570	6.895427
19453.823511	16933.283333	560.068359	-14.564440
19453.823511	16933.283333	558.828125	157.015884
19453.823511	16933.283333	557.586914	-110.269363
19453.823511	16933.283333	556.345703	109.876251
19453.823511	16933.283333	555.104492	238.264420
19453.823511	16933.283333	553.863281	-5.648621
19453.823511	16933.283333	552.621094	132.336899
19453.823511	16933.283333	551.378906	-8.326238
19453.823511	16933.283333	550.136719	76.919685
19453.823511	16933.283333	548.893555	150.389526
19453.823511	16933.283333	547.650391	307.481415
19453.823511	16933.283333	546.407227	61.604565
19453.823511	16933.283333	545.164063	37.599823
19453.823511	16933.283333	543.919922	42.732983
19453.823511	16933.283333	542.675781	88.661957
19453.823511	16933.283333	541.431641	35.358349
19453.823511	16933.283333	540.186523	429.165894
19453.823511	16933.283333	538.941406	99.719040
19453.823511	16933.283333	537.696289	365.002991
19453.823511	16933.283333	536.451172	4.543828
19453.823511	16933.283333	535.205078	349.284668
19453.823511	16933.283333	533.959961	266.608948
19453.823511	16933.283333	532.712891	71.301369
19453.823511	16933.283333	531.466797	29.398722
19453.823511	16933.283333	530.219727	127.202126
19453.823511	16933.283333	528.972656	141.492371
19453.823511	16933.283333	527.725586	347.789398
19453.823511	16933.283333	526.478516	230.064209
19453.823511	16933.283333	525.230469	286.864685
19453.823511	16933.283333	523.982422	14.028135
19453.823511	16933.283333	522.734375	-51.332054
19453.823511	16933.283333	521.485352	94.513359
19453.823511	16933.283333	520.236328	174.387848
19453.823511	16933.283333	518.987305	254.191681
19453.823511	16933.283333	517.737305	84.097145
19453.823511	16933.283333	516.488281	268.362518
19453.823511	16933.283333	515.238281	332.490509
19453.823511	16933.283333	513.988281	353.972321
19453.823511	16933.283333	512.737305	160.624252
19453.823511	16933.283333	511.486328	245.886505
19453.823511	16933.283333	510.235352	276.918488
19453.823511	16933.283333	508.984375	153.201721
19453.823511	16933.283333	507.732422	222.813751
19453.823511	16933.283333	506.480469	501.100708
19453.823511	16933.283333	505.228516	562.791809
19453.823511	16933.283333	503.976563	539.399414
19453.823511	16933.283333	502.723633	303.488739
19453.823511	16933.283333	501.470703	695.262878
19453.823511	16933.283333	500.217773	635.017029
19453.823511	16933.283333	498.963867	773.565796
19453.823511	16933.283333	497.709961	649.526184
19453.823511	16933.283333	496.456055	755.097107
19453.823511	16933.283333	495.202148	1012.959839
19453.823511	16933.283333	493.947266	624.533752
19453.823511	16933.283333	492.692383	930.386414
19453.823511	16933.283333	491.437500	883.243591
19453.823511	16933.283333	490.181641	1044.203613
19453.823511	16933.283333	488.926758	1135.658203
19453.823511	16933.283333	487.670898	995.793030
19453.823511	16933.283333	486.414063	1285.440308
19453.823511	16933.283333	485.158203	1284.092896
19453.823511	16933.283333	483.901367	1276.873169
19453.823511	16933.283333	482.644531	1489.009766
19453.823511	16933.283333	481.386719	1716.343384
19453.823511	16933.283333	480.128906	1602.906982
19453.823511	16933.283333	478.871094	1618.301270
19453.823511	16933.283333	477.613281	1670.118774
19453.823511	16933.283333	476.355469	1666.033936
19453.823511	16933.283333	475.096680	1706.034424
19453.823511	16933.283333	473.837891	1776.640625
19453.823511	16933.283333	472.578125	1674.126587
19453.823511	16933.283333	471.319336	1942.318359
19453.823511	16933.283333	470.059570	1908.671875
19453.823511	16933.283333	468.799805	1811.511353
19453.823511	16933.283333	467.539063	1894.697266
19453.823511	16933.283333	466.278320	2110.127930
19453.823511	16933.283333	465.017578	2004.789673
19453.823511	16933.283333	463.756836	1953.033936
19453.823511	16933.283333	462.495117	1962.482910
19453.823511	16933.283333	461.233398	1896.926880
19453.823511	16933.283333	459.971680	2157.159424
19453.823511	16933.283333	458.709961	2077.735840
19453.823511	16933.283333	457.447266	2099.684570
19453.823511	16933.283333	456.184570	2015.990356
19453.823511	16933.283333	454.921875	2093.007813
19453.823511	16933.283333	453.658203	2079.693604
19453.823511	16933.283333	452.394531	2332.295654
19453.823511	16933.283333	451.130859	2350.921143
19453.823511	16933.283333	449.867188	2445.806885
19453.823511	16933.283333	448.602539	2394.882813
19453.823511	16933.283333	447.337891	2314.952881
19453.823511	16933.283333	446.073242	2540.791016
19453.823511	16933.283333	444.807617	2408.524902
19453.823511	16933.283333	443.542969	2610.582275
19453.823511	16933.283333	442.276367	2783.469238
19453.823511	16933.283333	441.010742	2426.472656
19453.823511	16933.283333	439.744141	2395.963379
19453.823511	16933.283333	438.478516	2483.500488
19453.823511	16933.283333	437.210938	2830.291748
19453.823511	16933.283333	435.944336	2641.787354
19453.823511	16933.283333	434.676758	2439.506592
19453.823511	16933.283333	433.409180	2481.141357
19453.823511	16933.283333	432.141602	2277.964111
19453.823511	16933.283333	430.873047	2501.710693
19453.823511	16933.283333	429.604492	2743.875244
19453.823511	16933.283333	428.335938	2611.558838
19453.823511	16933.283333	427.067383	2495.859863
19453.823511	16933.283333	425.797852	2600.704834
19453.823511	16933.283333	424.528320	2413.255859
19453.823511	16933.283333	423.258789	2305.251709
19453.823511	16933.283333	421.988281	2381.377441
19453.823511	16933.283333	420.717773	2437.708740
19453.823511	16933.283333	419.447266	2407.583740
19453.823511	16933.283333	418.175781	2641.316895
19453.823511	16933.283333	416.905273	2544.884521
19453.823511	16933.283333	415.633789	2603.697754
19453.823511	16933.283333	414.362305	2543.677246
19453.823511	16933.283333	413.089844	2553.160645
19453.823511	16933.283333	411.817383	2190.886719
19453.823511	16933.283333	410.544922	2350.708496
19453.823511	16933.283333	409.272461	2193.933350
19453.823511	16933.283333	407.999023	2564.551514
19453.823511	16933.283333	406.725586	2289.830566
19453.823511	16933.283333	405.452148	2460.594971
19453.823511	16933.283333	404.177734	2576.972656
19453.823511	16933.283333	402.903320	2606.712891
19453.823511	16933.283333	401.628906	2266.960205
19453.823511	16933.283333	400.354492	2195.670410
19453.823511	16933.283333	399.079102	2068.099121
19453.823511	16933.283333	397.803711	2203.009277
19453.823511	16933.283333	396.528320	2319.463379
19453.823511	16933.283333	395.251953	2330.156494
19453.823511	16933.283333	393.976563	2544.240479
19453.823511	16933.283333	392.700195	2529.265381
19453.823511	16933.283333	391.422852	2237.958496
19453.823511	16933.283333	390.145508	2246.500488
19453.823511	16933.283333	388.869141	2300.847900
19453.823511	16933.283333	387.590820	2362.919189
19453.823511	16933.283333	386.313477	2273.729736
19453.823511	16933.283333	385.035156	2207.406738
19453.823511	16933.283333	383.756836	2095.793457
19453.823511	16933.283333	382.478516	2120.526611
19453.823511	16933.283333	381.199219	2196.280273
19453.823511	16933.283333	379.919922	2154.671143
19453.823511	16933.283333	378.640625	2082.709961
19453.823511	16933.283333	377.360352	2082.399658
19453.823511	16933.283333	376.080078	1993.018311
19453.823511	16933.283333	374.799805	1689.834229
19453.823511	16933.283333	373.519531	1879.571411
19453.823511	16933.283333	372.238281	1862.849854
19453.823511	16933.283333	370.957031	1707.788818
19453.823511	16933.283333	369.675781	1725.963745
19453.823511	16933.283333	368.394531	1705.764893
19453.823511	16933.283333	367.112305	1762.209595
19453.823511	16933.283333	365.830078	1906.567017
19453.823511	16933.283333	364.546875	1806.601318
19453.823511	16933.283333	363.264648	1471.978027
19453.823511	16933.283333	361.981445	1281.656372
19453.823511	16933.283333	360.698242	1484.401611
19453.823511	16933.283333	359.414063	1531.293091
19453.823511	16933.283333	358.129883	1267.899780
19453.823511	16933.283333	356.845703	1220.004761
19453.823511	16933.283333	355.561523	1372.316895
19453.823511	16933.283333	354.276367	1357.290161
19453.823511	16933.283333	352.991211	1035.708862
19453.823511	16933.283333	351.706055	1113.599487
19453.823511	16933.283333	350.420898	1061.759766
19453.823511	16933.283333	349.134766	1288.393433
19453.823511	16933.283333	347.848633	1247.772583
19453.823511	16933.283333	346.561523	1197.538330
19453.823511	16933.283333	345.275391	968.577881
19453.823511	16933.283333	343.988281	1117.163452
19453.823511	16933.283333	342.700195	1024.562622
19453.823511	16933.283333	341.413086	683.544312
19453.823511	16933.283333	340.125000	721.428162
19453.823511	16933.283333	338.836914	508.735504
19453.823511	16933.283333	337.548828	761.010742
19453.823511	16933.283333	336.259766	666.618652
19453.823511	16933.283333	334.970703	503.607605
19453.823511	16933.283333	333.681641	429.554596
19453.823511	16933.283333	332.391602	136.423904
19453.823511	16933.283333	331.101563	143.994461
19453.823511	16933.283333	329.811523	67.477150
19453.823511	16933.283333	328.521484	356.816925
19453.823511	16933.283333	327.230469	437.839478
19453.823511	16933.283333	325.939453	198.251892
19453.823511	16933.283333	324.648438	-204.465118
19453.823511	16933.283333	323.356445	-8.033646
19453.823511	16933.283333	322.064453	255.248779
19453.823511	16933.283333	320.772461	-19.654358
19453.823511	16933.283333	319.480469	-104.250816
19453.823511	16933.283333	318.187500	-70.127769
19453.823511	16933.283333	316.894531	-108.213577
19453.823511	16933.283333	315.601563	37.716267
19453.823511	16933.283333	314.307617	-225.792679
19453.823511	16933.283333	313.013672	-2.627103
19453.823511	16933.283333	311.719727	7.452581
19453.823511	16933.283333	310.425781	-92.766006
19453.823511	16933.283333	309.130859	-133.532501
19453.823511	16933.283333	307.835938	-137.258942
19453.823511	16933.283333	306.541016	-100.402908
19453.823511	16933.283333	305.245117	-81.317169
19453.823511	16933.283333	303.949219	-48.183048
19453.823511	16933.283333	302.653320	4.407607
19453.823511	16933.283333	301.356445	103.985573
19453.823511	16933.283333	300.060547	450.532745
19453.823511	16933.283333	298.763672	573.004883
