#X		#Y		#Wave		#Intensity
19459.125745	16951.645833	2000.043945	-97.312042
19459.125745	16951.645833	1999.080078	-78.174149
19459.125745	16951.645833	1998.116211	-144.004196
19459.125745	16951.645833	1997.151367	57.622780
19459.125745	16951.645833	1996.186523	-75.525986
19459.125745	16951.645833	1995.222656	-23.046757
19459.125745	16951.645833	1994.256836	115.917442
19459.125745	16951.645833	1993.291992	21.852034
19459.125745	16951.645833	1992.327148	247.018951
19459.125745	16951.645833	1991.361328	182.303253
19459.125745	16951.645833	1990.395508	278.303864
19459.125745	16951.645833	1989.429688	-96.056000
19459.125745	16951.645833	1988.463867	120.844986
19459.125745	16951.645833	1987.497070	23.366390
19459.125745	16951.645833	1986.531250	138.444519
19459.125745	16951.645833	1985.564453	87.665199
19459.125745	16951.645833	1984.597656	88.670845
19459.125745	16951.645833	1983.630859	5.492464
19459.125745	16951.645833	1982.664063	152.031097
19459.125745	16951.645833	1981.696289	278.619507
19459.125745	16951.645833	1980.728516	138.230377
19459.125745	16951.645833	1979.761719	-17.059589
19459.125745	16951.645833	1978.792969	143.683151
19459.125745	16951.645833	1977.825195	42.529480
19459.125745	16951.645833	1976.857422	-26.612387
19459.125745	16951.645833	1975.888672	96.673996
19459.125745	16951.645833	1974.919922	-61.500690
19459.125745	16951.645833	1973.951172	29.461103
19459.125745	16951.645833	1972.982422	-185.581451
19459.125745	16951.645833	1972.013672	144.394821
19459.125745	16951.645833	1971.043945	101.828888
19459.125745	16951.645833	1970.075195	-14.775634
19459.125745	16951.645833	1969.105469	23.865574
19459.125745	16951.645833	1968.135742	254.631943
19459.125745	16951.645833	1967.165039	231.451035
19459.125745	16951.645833	1966.195313	-25.834232
19459.125745	16951.645833	1965.224609	-132.849701
19459.125745	16951.645833	1964.253906	55.611252
19459.125745	16951.645833	1963.283203	74.047676
19459.125745	16951.645833	1962.312500	156.414612
19459.125745	16951.645833	1961.341797	-41.888626
19459.125745	16951.645833	1960.370117	192.916122
19459.125745	16951.645833	1959.399414	304.557007
19459.125745	16951.645833	1958.427734	32.373547
19459.125745	16951.645833	1957.455078	190.630859
19459.125745	16951.645833	1956.483398	66.001549
19459.125745	16951.645833	1955.511719	44.625660
19459.125745	16951.645833	1954.539063	15.842193
19459.125745	16951.645833	1953.566406	-148.138367
19459.125745	16951.645833	1952.593750	152.287796
19459.125745	16951.645833	1951.621094	86.528130
19459.125745	16951.645833	1950.647461	87.075523
19459.125745	16951.645833	1949.674805	161.256119
19459.125745	16951.645833	1948.701172	73.333717
19459.125745	16951.645833	1947.727539	76.240387
19459.125745	16951.645833	1946.753906	-19.057146
19459.125745	16951.645833	1945.780273	81.964447
19459.125745	16951.645833	1944.805664	254.075867
19459.125745	16951.645833	1943.831055	11.548941
19459.125745	16951.645833	1942.856445	29.055258
19459.125745	16951.645833	1941.881836	-24.574453
19459.125745	16951.645833	1940.907227	176.762939
19459.125745	16951.645833	1939.932617	52.006470
19459.125745	16951.645833	1938.957031	106.184219
19459.125745	16951.645833	1937.981445	99.070763
19459.125745	16951.645833	1937.005859	-45.239746
19459.125745	16951.645833	1936.030273	133.800903
19459.125745	16951.645833	1935.054688	23.799446
19459.125745	16951.645833	1934.078125	-117.996582
19459.125745	16951.645833	1933.101563	-34.536400
19459.125745	16951.645833	1932.125000	66.018051
19459.125745	16951.645833	1931.148438	75.988190
19459.125745	16951.645833	1930.171875	63.931709
19459.125745	16951.645833	1929.194336	215.768753
19459.125745	16951.645833	1928.217773	103.411072
19459.125745	16951.645833	1927.240234	409.228119
19459.125745	16951.645833	1926.262695	52.401257
19459.125745	16951.645833	1925.284180	228.567276
19459.125745	16951.645833	1924.306641	111.405357
19459.125745	16951.645833	1923.328125	33.384396
19459.125745	16951.645833	1922.350586	-44.607510
19459.125745	16951.645833	1921.372070	-71.272446
19459.125745	16951.645833	1920.392578	-63.732792
19459.125745	16951.645833	1919.414063	-300.350555
19459.125745	16951.645833	1918.434570	97.815651
19459.125745	16951.645833	1917.456055	163.906631
19459.125745	16951.645833	1916.476563	112.852997
19459.125745	16951.645833	1915.497070	-169.951401
19459.125745	16951.645833	1914.516602	-8.689470
19459.125745	16951.645833	1913.537109	-91.367058
19459.125745	16951.645833	1912.556641	-91.097595
19459.125745	16951.645833	1911.576172	-163.958069
19459.125745	16951.645833	1910.595703	-192.908096
19459.125745	16951.645833	1909.615234	-48.811623
19459.125745	16951.645833	1908.633789	63.569187
19459.125745	16951.645833	1907.653320	-165.140915
19459.125745	16951.645833	1906.671875	107.990463
19459.125745	16951.645833	1905.690430	88.807014
19459.125745	16951.645833	1904.708984	125.638985
19459.125745	16951.645833	1903.727539	-151.554504
19459.125745	16951.645833	1902.745117	-153.608932
19459.125745	16951.645833	1901.762695	12.250873
19459.125745	16951.645833	1900.780273	-225.805084
19459.125745	16951.645833	1899.797852	158.947845
19459.125745	16951.645833	1898.815430	96.079018
19459.125745	16951.645833	1897.832031	57.562439
19459.125745	16951.645833	1896.849609	74.983315
19459.125745	16951.645833	1895.866211	92.410683
19459.125745	16951.645833	1894.882813	-18.957638
19459.125745	16951.645833	1893.898438	98.123787
19459.125745	16951.645833	1892.915039	232.173599
19459.125745	16951.645833	1891.930664	-34.569248
19459.125745	16951.645833	1890.947266	33.908928
19459.125745	16951.645833	1889.962891	0.402757
19459.125745	16951.645833	1888.977539	165.973602
19459.125745	16951.645833	1887.993164	42.674099
19459.125745	16951.645833	1887.007813	188.781296
19459.125745	16951.645833	1886.023438	215.961014
19459.125745	16951.645833	1885.038086	182.501083
19459.125745	16951.645833	1884.051758	-44.949356
19459.125745	16951.645833	1883.066406	190.814514
19459.125745	16951.645833	1882.081055	53.158104
19459.125745	16951.645833	1881.094727	150.676346
19459.125745	16951.645833	1880.108398	248.164307
19459.125745	16951.645833	1879.122070	151.790588
19459.125745	16951.645833	1878.135742	-118.958824
19459.125745	16951.645833	1877.148438	39.098846
19459.125745	16951.645833	1876.162109	54.227783
19459.125745	16951.645833	1875.174805	-58.959030
19459.125745	16951.645833	1874.187500	-186.621719
19459.125745	16951.645833	1873.199219	-106.091179
19459.125745	16951.645833	1872.211914	-178.033997
19459.125745	16951.645833	1871.223633	137.143265
19459.125745	16951.645833	1870.236328	-171.856827
19459.125745	16951.645833	1869.248047	-117.977982
19459.125745	16951.645833	1868.258789	35.022533
19459.125745	16951.645833	1867.270508	23.574734
19459.125745	16951.645833	1866.282227	48.388668
19459.125745	16951.645833	1865.292969	87.696831
19459.125745	16951.645833	1864.303711	141.487411
19459.125745	16951.645833	1863.314453	81.721802
19459.125745	16951.645833	1862.324219	-16.662441
19459.125745	16951.645833	1861.334961	54.019550
19459.125745	16951.645833	1860.344727	32.932438
19459.125745	16951.645833	1859.354492	-75.046959
19459.125745	16951.645833	1858.364258	94.552498
19459.125745	16951.645833	1857.374023	360.601349
19459.125745	16951.645833	1856.383789	49.962318
19459.125745	16951.645833	1855.392578	89.184227
19459.125745	16951.645833	1854.401367	181.441727
19459.125745	16951.645833	1853.410156	261.602417
19459.125745	16951.645833	1852.418945	16.285843
19459.125745	16951.645833	1851.426758	180.795654
19459.125745	16951.645833	1850.435547	31.964197
19459.125745	16951.645833	1849.443359	-27.671938
19459.125745	16951.645833	1848.451172	86.143951
19459.125745	16951.645833	1847.458984	125.247208
19459.125745	16951.645833	1846.466797	5.400916
19459.125745	16951.645833	1845.473633	-95.147018
19459.125745	16951.645833	1844.480469	-10.325405
19459.125745	16951.645833	1843.487305	168.310471
19459.125745	16951.645833	1842.494141	195.279526
19459.125745	16951.645833	1841.500977	68.261833
19459.125745	16951.645833	1840.506836	-102.012344
19459.125745	16951.645833	1839.513672	47.596199
19459.125745	16951.645833	1838.519531	153.860107
19459.125745	16951.645833	1837.525391	401.897522
19459.125745	16951.645833	1836.530273	101.846848
19459.125745	16951.645833	1835.536133	140.708725
19459.125745	16951.645833	1834.541016	45.001793
19459.125745	16951.645833	1833.545898	-5.048353
19459.125745	16951.645833	1832.550781	-50.293865
19459.125745	16951.645833	1831.555664	43.726563
19459.125745	16951.645833	1830.560547	17.655895
19459.125745	16951.645833	1829.564453	-140.436920
19459.125745	16951.645833	1828.568359	-104.105484
19459.125745	16951.645833	1827.572266	35.363506
19459.125745	16951.645833	1826.576172	-17.154575
19459.125745	16951.645833	1825.580078	138.989090
19459.125745	16951.645833	1824.583008	81.632889
19459.125745	16951.645833	1823.585938	14.683321
19459.125745	16951.645833	1822.588867	41.221832
19459.125745	16951.645833	1821.591797	271.440216
19459.125745	16951.645833	1820.594727	-28.011667
19459.125745	16951.645833	1819.596680	27.194641
19459.125745	16951.645833	1818.599609	209.301788
19459.125745	16951.645833	1817.601563	65.616737
19459.125745	16951.645833	1816.603516	137.454407
19459.125745	16951.645833	1815.604492	276.268188
19459.125745	16951.645833	1814.606445	96.665192
19459.125745	16951.645833	1813.607422	-39.823185
19459.125745	16951.645833	1812.608398	223.271408
19459.125745	16951.645833	1811.609375	177.650558
19459.125745	16951.645833	1810.610352	282.691681
19459.125745	16951.645833	1809.610352	28.980867
19459.125745	16951.645833	1808.611328	-21.453506
19459.125745	16951.645833	1807.611328	167.132507
19459.125745	16951.645833	1806.611328	152.475037
19459.125745	16951.645833	1805.610352	314.608276
19459.125745	16951.645833	1804.610352	49.017982
19459.125745	16951.645833	1803.609375	242.090393
19459.125745	16951.645833	1802.608398	174.756165
19459.125745	16951.645833	1801.607422	136.062637
19459.125745	16951.645833	1800.606445	-10.075605
19459.125745	16951.645833	1799.605469	80.089020
19459.125745	16951.645833	1798.603516	473.237976
19459.125745	16951.645833	1797.601563	45.484707
19459.125745	16951.645833	1796.599609	183.182281
19459.125745	16951.645833	1795.597656	79.914268
19459.125745	16951.645833	1794.595703	174.555206
19459.125745	16951.645833	1793.592773	99.858688
19459.125745	16951.645833	1792.589844	122.874893
19459.125745	16951.645833	1791.587891	183.969635
19459.125745	16951.645833	1790.583984	407.024353
19459.125745	16951.645833	1789.581055	258.328674
19459.125745	16951.645833	1788.577148	209.681931
19459.125745	16951.645833	1787.574219	220.541901
19459.125745	16951.645833	1786.570313	183.740005
19459.125745	16951.645833	1785.566406	296.872650
19459.125745	16951.645833	1784.561523	-20.847879
19459.125745	16951.645833	1783.557617	177.854935
19459.125745	16951.645833	1782.552734	402.609039
19459.125745	16951.645833	1781.547852	372.723999
19459.125745	16951.645833	1780.542969	183.471909
19459.125745	16951.645833	1779.538086	127.395447
19459.125745	16951.645833	1778.532227	-2.398825
19459.125745	16951.645833	1777.527344	134.008789
19459.125745	16951.645833	1776.521484	-14.840171
19459.125745	16951.645833	1775.515625	161.815308
19459.125745	16951.645833	1774.508789	224.337509
19459.125745	16951.645833	1773.502930	179.914093
19459.125745	16951.645833	1772.496094	149.707382
19459.125745	16951.645833	1771.489258	86.227600
19459.125745	16951.645833	1770.482422	127.163002
19459.125745	16951.645833	1769.475586	47.003586
19459.125745	16951.645833	1768.467773	56.989349
19459.125745	16951.645833	1767.460938	114.366165
19459.125745	16951.645833	1766.453125	107.634727
19459.125745	16951.645833	1765.445313	153.025330
19459.125745	16951.645833	1764.437500	212.575867
19459.125745	16951.645833	1763.428711	101.379669
19459.125745	16951.645833	1762.420898	42.316917
19459.125745	16951.645833	1761.412109	227.290207
19459.125745	16951.645833	1760.403320	16.501791
19459.125745	16951.645833	1759.393555	132.619064
19459.125745	16951.645833	1758.384766	236.798981
19459.125745	16951.645833	1757.375000	186.984833
19459.125745	16951.645833	1756.366211	-42.777542
19459.125745	16951.645833	1755.356445	84.892456
19459.125745	16951.645833	1754.345703	-80.972221
19459.125745	16951.645833	1753.335938	186.145325
19459.125745	16951.645833	1752.325195	55.703529
19459.125745	16951.645833	1751.315430	34.052502
19459.125745	16951.645833	1750.304688	-217.008667
19459.125745	16951.645833	1749.292969	120.648743
19459.125745	16951.645833	1748.282227	-19.342632
19459.125745	16951.645833	1747.270508	29.727179
19459.125745	16951.645833	1746.259766	-204.810715
19459.125745	16951.645833	1745.248047	37.884312
19459.125745	16951.645833	1744.235352	115.101189
19459.125745	16951.645833	1743.223633	-91.137253
19459.125745	16951.645833	1742.211914	-35.279388
19459.125745	16951.645833	1741.199219	-76.276733
19459.125745	16951.645833	1740.186523	47.895435
19459.125745	16951.645833	1739.173828	35.109226
19459.125745	16951.645833	1738.160156	67.099541
19459.125745	16951.645833	1737.147461	70.719948
19459.125745	16951.645833	1736.133789	79.003632
19459.125745	16951.645833	1735.120117	115.526390
19459.125745	16951.645833	1734.106445	142.552948
19459.125745	16951.645833	1733.091797	-44.966171
19459.125745	16951.645833	1732.078125	205.844635
19459.125745	16951.645833	1731.063477	84.250511
19459.125745	16951.645833	1730.048828	-77.393158
19459.125745	16951.645833	1729.034180	-243.738571
19459.125745	16951.645833	1728.019531	-75.703575
19459.125745	16951.645833	1727.003906	-140.856415
19459.125745	16951.645833	1725.988281	-15.378627
19459.125745	16951.645833	1724.972656	-21.786617
19459.125745	16951.645833	1723.957031	-44.714005
19459.125745	16951.645833	1722.941406	261.658752
19459.125745	16951.645833	1721.924805	-165.960480
19459.125745	16951.645833	1720.909180	-40.851181
19459.125745	16951.645833	1719.892578	-87.472778
19459.125745	16951.645833	1718.875977	-14.243695
19459.125745	16951.645833	1717.858398	94.159058
19459.125745	16951.645833	1716.841797	-243.980148
19459.125745	16951.645833	1715.824219	-112.181610
19459.125745	16951.645833	1714.806641	-93.226814
19459.125745	16951.645833	1713.789063	57.180401
19459.125745	16951.645833	1712.770508	73.647018
19459.125745	16951.645833	1711.752930	47.805569
19459.125745	16951.645833	1710.734375	99.375565
19459.125745	16951.645833	1709.715820	-151.832413
19459.125745	16951.645833	1708.697266	-100.340500
19459.125745	16951.645833	1707.678711	-27.803667
19459.125745	16951.645833	1706.659180	37.620193
19459.125745	16951.645833	1705.640625	39.664791
19459.125745	16951.645833	1704.621094	-12.261397
19459.125745	16951.645833	1703.600586	55.323288
19459.125745	16951.645833	1702.581055	-31.829580
19459.125745	16951.645833	1701.561523	68.445297
19459.125745	16951.645833	1700.541016	4.654863
19459.125745	16951.645833	1699.520508	25.159048
19459.125745	16951.645833	1698.500000	148.643784
19459.125745	16951.645833	1697.478516	-18.273735
19459.125745	16951.645833	1696.458008	23.156647
19459.125745	16951.645833	1695.436523	45.802681
19459.125745	16951.645833	1694.415039	47.339001
19459.125745	16951.645833	1693.393555	-33.048424
19459.125745	16951.645833	1692.372070	-176.598434
19459.125745	16951.645833	1691.349609	-2.102215
19459.125745	16951.645833	1690.327148	106.820114
19459.125745	16951.645833	1689.304688	194.621155
19459.125745	16951.645833	1688.282227	90.699791
19459.125745	16951.645833	1687.259766	19.493017
19459.125745	16951.645833	1686.236328	-9.677241
19459.125745	16951.645833	1685.213867	-111.283539
19459.125745	16951.645833	1684.190430	-180.197174
19459.125745	16951.645833	1683.166016	196.842026
19459.125745	16951.645833	1682.142578	242.207428
19459.125745	16951.645833	1681.119141	145.142776
19459.125745	16951.645833	1680.094727	225.425919
19459.125745	16951.645833	1679.070313	146.989929
19459.125745	16951.645833	1678.045898	257.493530
19459.125745	16951.645833	1677.020508	337.596313
19459.125745	16951.645833	1675.996094	95.853706
19459.125745	16951.645833	1674.970703	276.133148
19459.125745	16951.645833	1673.945313	157.958755
19459.125745	16951.645833	1672.919922	63.100609
19459.125745	16951.645833	1671.893555	389.965210
19459.125745	16951.645833	1670.868164	302.021454
19459.125745	16951.645833	1669.841797	325.870850
19459.125745	16951.645833	1668.815430	184.348251
19459.125745	16951.645833	1667.789063	205.820435
19459.125745	16951.645833	1666.761719	285.443817
19459.125745	16951.645833	1665.735352	188.136765
19459.125745	16951.645833	1664.708008	69.894157
19459.125745	16951.645833	1663.680664	284.338074
19459.125745	16951.645833	1662.653320	324.227905
19459.125745	16951.645833	1661.625000	340.815674
19459.125745	16951.645833	1660.597656	294.598175
19459.125745	16951.645833	1659.569336	346.001648
19459.125745	16951.645833	1658.541016	53.387634
19459.125745	16951.645833	1657.512695	409.166870
19459.125745	16951.645833	1656.483398	225.792511
19459.125745	16951.645833	1655.455078	453.600403
19459.125745	16951.645833	1654.425781	325.976593
19459.125745	16951.645833	1653.396484	228.563995
19459.125745	16951.645833	1652.366211	354.019714
19459.125745	16951.645833	1651.336914	298.373199
19459.125745	16951.645833	1650.306641	365.711487
19459.125745	16951.645833	1649.276367	539.727417
19459.125745	16951.645833	1648.246094	641.746826
19459.125745	16951.645833	1647.215820	444.533997
19459.125745	16951.645833	1646.185547	435.197083
19459.125745	16951.645833	1645.154297	421.204590
19459.125745	16951.645833	1644.123047	673.752380
19459.125745	16951.645833	1643.091797	363.060883
19459.125745	16951.645833	1642.060547	590.002808
19459.125745	16951.645833	1641.028320	478.630676
19459.125745	16951.645833	1639.997070	439.089508
19459.125745	16951.645833	1638.964844	536.165283
19459.125745	16951.645833	1637.931641	575.307983
19459.125745	16951.645833	1636.899414	711.644043
19459.125745	16951.645833	1635.867188	641.947693
19459.125745	16951.645833	1634.833984	634.736267
19459.125745	16951.645833	1633.800781	338.348297
19459.125745	16951.645833	1632.767578	722.057922
19459.125745	16951.645833	1631.734375	712.493774
19459.125745	16951.645833	1630.700195	705.233704
19459.125745	16951.645833	1629.666016	709.525452
19459.125745	16951.645833	1628.631836	565.899109
19459.125745	16951.645833	1627.597656	835.928528
19459.125745	16951.645833	1626.563477	690.011902
19459.125745	16951.645833	1625.528320	731.232910
19459.125745	16951.645833	1624.493164	966.415649
19459.125745	16951.645833	1623.458008	716.643677
19459.125745	16951.645833	1622.422852	921.722473
19459.125745	16951.645833	1621.387695	588.965271
19459.125745	16951.645833	1620.351563	692.451843
19459.125745	16951.645833	1619.315430	745.141907
19459.125745	16951.645833	1618.279297	906.222778
19459.125745	16951.645833	1617.243164	659.051453
19459.125745	16951.645833	1616.207031	672.523376
19459.125745	16951.645833	1615.169922	704.431152
19459.125745	16951.645833	1614.132813	697.147583
19459.125745	16951.645833	1613.095703	1021.698853
19459.125745	16951.645833	1612.058594	820.836548
19459.125745	16951.645833	1611.020508	698.371155
19459.125745	16951.645833	1609.983398	481.538513
19459.125745	16951.645833	1608.945313	679.257507
19459.125745	16951.645833	1607.907227	934.459412
19459.125745	16951.645833	1606.868164	881.142151
19459.125745	16951.645833	1605.830078	823.256531
19459.125745	16951.645833	1604.791016	896.543579
19459.125745	16951.645833	1603.751953	960.611450
19459.125745	16951.645833	1602.712891	829.174622
19459.125745	16951.645833	1601.673828	861.061096
19459.125745	16951.645833	1600.633789	617.065613
19459.125745	16951.645833	1599.594727	821.397644
19459.125745	16951.645833	1598.554688	742.994690
19459.125745	16951.645833	1597.513672	813.980591
19459.125745	16951.645833	1596.473633	717.262878
19459.125745	16951.645833	1595.433594	958.221375
19459.125745	16951.645833	1594.392578	976.357056
19459.125745	16951.645833	1593.351563	666.197815
19459.125745	16951.645833	1592.310547	927.731567
19459.125745	16951.645833	1591.268555	819.692810
19459.125745	16951.645833	1590.227539	964.115723
19459.125745	16951.645833	1589.185547	803.388550
19459.125745	16951.645833	1588.143555	961.558411
19459.125745	16951.645833	1587.100586	901.833496
19459.125745	16951.645833	1586.058594	892.598511
19459.125745	16951.645833	1585.015625	908.601074
19459.125745	16951.645833	1583.972656	846.700806
19459.125745	16951.645833	1582.929688	945.246094
19459.125745	16951.645833	1581.886719	727.631226
19459.125745	16951.645833	1580.843750	922.412476
19459.125745	16951.645833	1579.799805	940.808960
19459.125745	16951.645833	1578.755859	1064.546387
19459.125745	16951.645833	1577.711914	721.283691
19459.125745	16951.645833	1576.666992	975.524170
19459.125745	16951.645833	1575.623047	1119.864746
19459.125745	16951.645833	1574.578125	822.633789
19459.125745	16951.645833	1573.533203	902.962036
19459.125745	16951.645833	1572.488281	862.084595
19459.125745	16951.645833	1571.443359	853.265808
19459.125745	16951.645833	1570.397461	1111.940796
19459.125745	16951.645833	1569.351563	881.443359
19459.125745	16951.645833	1568.305664	776.752747
19459.125745	16951.645833	1567.259766	822.924255
19459.125745	16951.645833	1566.213867	656.683167
19459.125745	16951.645833	1565.166992	659.538940
19459.125745	16951.645833	1564.120117	845.092896
19459.125745	16951.645833	1563.073242	683.622009
19459.125745	16951.645833	1562.026367	834.940369
19459.125745	16951.645833	1560.978516	623.407227
19459.125745	16951.645833	1559.930664	719.998718
19459.125745	16951.645833	1558.883789	891.871338
19459.125745	16951.645833	1557.834961	479.879211
19459.125745	16951.645833	1556.787109	551.484924
19459.125745	16951.645833	1555.739258	689.216736
19459.125745	16951.645833	1554.690430	594.452698
19459.125745	16951.645833	1553.641602	627.381470
19459.125745	16951.645833	1552.592773	482.630615
19459.125745	16951.645833	1551.542969	501.989471
19459.125745	16951.645833	1550.494141	566.937866
19459.125745	16951.645833	1549.444336	634.182800
19459.125745	16951.645833	1548.394531	596.726135
19459.125745	16951.645833	1547.344727	511.533386
19459.125745	16951.645833	1546.293945	617.576538
19459.125745	16951.645833	1545.244141	550.713074
19459.125745	16951.645833	1544.193359	483.923706
19459.125745	16951.645833	1543.142578	660.563660
19459.125745	16951.645833	1542.090820	609.793640
19459.125745	16951.645833	1541.040039	484.075195
19459.125745	16951.645833	1539.988281	549.386536
19459.125745	16951.645833	1538.936523	473.828644
19459.125745	16951.645833	1537.884766	434.706848
19459.125745	16951.645833	1536.833008	525.136902
19459.125745	16951.645833	1535.780273	533.821777
19459.125745	16951.645833	1534.727539	510.767670
19459.125745	16951.645833	1533.674805	322.047333
19459.125745	16951.645833	1532.622070	251.488419
19459.125745	16951.645833	1531.569336	480.574860
19459.125745	16951.645833	1530.515625	364.747192
19459.125745	16951.645833	1529.461914	376.058167
19459.125745	16951.645833	1528.408203	371.546356
19459.125745	16951.645833	1527.354492	199.293289
19459.125745	16951.645833	1526.299805	-2.307119
19459.125745	16951.645833	1525.246094	72.771278
19459.125745	16951.645833	1524.191406	338.245575
19459.125745	16951.645833	1523.136719	191.298004
19459.125745	16951.645833	1522.081055	101.102936
19459.125745	16951.645833	1521.026367	38.186058
19459.125745	16951.645833	1519.970703	118.015877
19459.125745	16951.645833	1518.915039	57.508720
19459.125745	16951.645833	1517.859375	184.964828
19459.125745	16951.645833	1516.802734	289.802063
19459.125745	16951.645833	1515.747070	215.912582
19459.125745	16951.645833	1514.690430	196.409088
19459.125745	16951.645833	1513.633789	-46.937946
19459.125745	16951.645833	1512.577148	112.395317
19459.125745	16951.645833	1511.519531	61.467613
19459.125745	16951.645833	1510.461914	241.191818
19459.125745	16951.645833	1509.405273	5.074309
19459.125745	16951.645833	1508.346680	126.124840
19459.125745	16951.645833	1507.289063	-35.190998
19459.125745	16951.645833	1506.231445	-117.322182
19459.125745	16951.645833	1505.172852	-235.483078
19459.125745	16951.645833	1504.114258	37.062027
19459.125745	16951.645833	1503.055664	-198.324219
19459.125745	16951.645833	1501.996094	153.235779
19459.125745	16951.645833	1500.937500	17.342375
19459.125745	16951.645833	1499.877930	-50.747540
19459.125745	16951.645833	1498.818359	-111.973427
19459.125745	16951.645833	1497.757813	29.853117
19459.125745	16951.645833	1496.698242	31.908035
19459.125745	16951.645833	1495.637695	115.186043
19459.125745	16951.645833	1494.577148	15.950509
19459.125745	16951.645833	1493.516602	-40.358829
19459.125745	16951.645833	1492.456055	-110.091309
19459.125745	16951.645833	1491.394531	-44.577682
19459.125745	16951.645833	1490.333008	45.753704
19459.125745	16951.645833	1489.271484	-19.227741
19459.125745	16951.645833	1488.209961	28.442091
19459.125745	16951.645833	1487.148438	-2.602765
19459.125745	16951.645833	1486.085938	99.198845
19459.125745	16951.645833	1485.023438	-44.180435
19459.125745	16951.645833	1483.960938	17.253769
19459.125745	16951.645833	1482.898438	62.997761
19459.125745	16951.645833	1481.834961	-3.614594
19459.125745	16951.645833	1480.772461	-70.120461
19459.125745	16951.645833	1479.708984	-17.418657
19459.125745	16951.645833	1478.644531	53.299801
19459.125745	16951.645833	1477.581055	-57.848392
19459.125745	16951.645833	1476.517578	15.277371
19459.125745	16951.645833	1475.453125	-35.140999
19459.125745	16951.645833	1474.388672	-127.961700
19459.125745	16951.645833	1473.323242	-54.552505
19459.125745	16951.645833	1472.258789	-129.350204
19459.125745	16951.645833	1471.193359	-78.350204
19459.125745	16951.645833	1470.127930	170.064575
19459.125745	16951.645833	1469.062500	127.035858
19459.125745	16951.645833	1467.997070	88.451454
19459.125745	16951.645833	1466.930664	-70.844093
19459.125745	16951.645833	1465.865234	101.285713
19459.125745	16951.645833	1464.798828	-86.953491
19459.125745	16951.645833	1463.731445	-37.767460
19459.125745	16951.645833	1462.665039	233.033569
19459.125745	16951.645833	1461.597656	-28.352165
19459.125745	16951.645833	1460.530273	47.970982
19459.125745	16951.645833	1459.462891	184.215958
19459.125745	16951.645833	1458.395508	370.453125
19459.125745	16951.645833	1457.327148	218.468048
19459.125745	16951.645833	1456.259766	250.023788
19459.125745	16951.645833	1455.191406	85.044014
19459.125745	16951.645833	1454.123047	-72.242111
19459.125745	16951.645833	1453.053711	26.392632
19459.125745	16951.645833	1451.985352	172.093506
19459.125745	16951.645833	1450.916016	-107.487709
19459.125745	16951.645833	1449.846680	90.435425
19459.125745	16951.645833	1448.776367	117.224197
19459.125745	16951.645833	1447.707031	152.986130
19459.125745	16951.645833	1446.636719	278.075745
19459.125745	16951.645833	1445.566406	368.016418
19459.125745	16951.645833	1444.496094	52.790539
19459.125745	16951.645833	1443.425781	-124.764023
19459.125745	16951.645833	1442.354492	121.091354
19459.125745	16951.645833	1441.283203	6.229387
19459.125745	16951.645833	1440.211914	72.409775
19459.125745	16951.645833	1439.140625	130.514267
19459.125745	16951.645833	1438.069336	67.439270
19459.125745	16951.645833	1436.997070	28.613203
19459.125745	16951.645833	1435.924805	71.101746
19459.125745	16951.645833	1434.852539	33.692867
19459.125745	16951.645833	1433.780273	-175.083267
19459.125745	16951.645833	1432.707031	-55.169052
19459.125745	16951.645833	1431.633789	111.084831
19459.125745	16951.645833	1430.560547	119.985878
19459.125745	16951.645833	1429.487305	-18.141838
19459.125745	16951.645833	1428.413086	70.957779
19459.125745	16951.645833	1427.339844	-62.369438
19459.125745	16951.645833	1426.265625	144.891830
19459.125745	16951.645833	1425.191406	-74.988441
19459.125745	16951.645833	1424.116211	147.679672
19459.125745	16951.645833	1423.041992	113.347862
19459.125745	16951.645833	1421.966797	42.221447
19459.125745	16951.645833	1420.891602	-6.610593
19459.125745	16951.645833	1419.816406	-106.072289
19459.125745	16951.645833	1418.740234	24.313745
19459.125745	16951.645833	1417.665039	-75.471298
19459.125745	16951.645833	1416.588867	101.859650
19459.125745	16951.645833	1415.512695	-42.076504
19459.125745	16951.645833	1414.435547	23.234980
19459.125745	16951.645833	1413.359375	-153.682312
19459.125745	16951.645833	1412.282227	-31.255636
19459.125745	16951.645833	1411.205078	-64.107643
19459.125745	16951.645833	1410.127930	134.668640
19459.125745	16951.645833	1409.049805	208.798218
19459.125745	16951.645833	1407.972656	299.066650
19459.125745	16951.645833	1406.894531	159.094223
19459.125745	16951.645833	1405.816406	-72.968666
19459.125745	16951.645833	1404.737305	265.354248
19459.125745	16951.645833	1403.659180	226.412354
19459.125745	16951.645833	1402.580078	199.545258
19459.125745	16951.645833	1401.500977	63.229198
19459.125745	16951.645833	1400.421875	86.134773
19459.125745	16951.645833	1399.341797	68.451424
19459.125745	16951.645833	1398.262695	312.782745
19459.125745	16951.645833	1397.182617	291.918182
19459.125745	16951.645833	1396.102539	212.652969
19459.125745	16951.645833	1395.021484	202.160172
19459.125745	16951.645833	1393.941406	246.842651
19459.125745	16951.645833	1392.860352	78.921005
19459.125745	16951.645833	1391.779297	22.295660
19459.125745	16951.645833	1390.698242	151.760178
19459.125745	16951.645833	1389.616211	31.395184
19459.125745	16951.645833	1388.535156	347.513000
19459.125745	16951.645833	1387.453125	175.500839
19459.125745	16951.645833	1386.371094	43.543934
19459.125745	16951.645833	1385.288086	191.991684
19459.125745	16951.645833	1384.206055	229.640259
19459.125745	16951.645833	1383.123047	295.301208
19459.125745	16951.645833	1382.040039	345.600861
19459.125745	16951.645833	1380.957031	406.286865
19459.125745	16951.645833	1379.873047	198.103439
19459.125745	16951.645833	1378.789063	1.102491
19459.125745	16951.645833	1377.705078	199.541412
19459.125745	16951.645833	1376.621094	40.168789
19459.125745	16951.645833	1375.537109	64.461716
19459.125745	16951.645833	1374.452148	147.212509
19459.125745	16951.645833	1373.367188	127.306770
19459.125745	16951.645833	1372.282227	141.486221
19459.125745	16951.645833	1371.197266	301.882263
19459.125745	16951.645833	1370.112305	331.331299
19459.125745	16951.645833	1369.026367	293.746063
19459.125745	16951.645833	1367.940430	347.199310
19459.125745	16951.645833	1366.854492	254.067535
19459.125745	16951.645833	1365.767578	353.668854
19459.125745	16951.645833	1364.681641	211.114639
19459.125745	16951.645833	1363.594727	30.587559
19459.125745	16951.645833	1362.507813	87.229439
19459.125745	16951.645833	1361.419922	261.890839
19459.125745	16951.645833	1360.333008	189.872086
19459.125745	16951.645833	1359.245117	218.394394
19459.125745	16951.645833	1358.157227	358.494843
19459.125745	16951.645833	1357.069336	176.816483
19459.125745	16951.645833	1355.981445	107.395874
19459.125745	16951.645833	1354.892578	162.043823
19459.125745	16951.645833	1353.803711	122.644867
19459.125745	16951.645833	1352.714844	292.982635
19459.125745	16951.645833	1351.625000	472.685455
19459.125745	16951.645833	1350.536133	137.543900
19459.125745	16951.645833	1349.446289	211.112106
19459.125745	16951.645833	1348.356445	194.396393
19459.125745	16951.645833	1347.266602	389.370789
19459.125745	16951.645833	1346.175781	252.796677
19459.125745	16951.645833	1345.085938	438.417267
19459.125745	16951.645833	1343.995117	489.160156
19459.125745	16951.645833	1342.903320	477.674347
19459.125745	16951.645833	1341.812500	419.314117
19459.125745	16951.645833	1340.720703	546.089294
19459.125745	16951.645833	1339.629883	483.721252
19459.125745	16951.645833	1338.538086	433.871399
19459.125745	16951.645833	1337.445313	342.320496
19459.125745	16951.645833	1336.353516	362.120575
19459.125745	16951.645833	1335.260742	235.007629
19459.125745	16951.645833	1334.167969	496.026337
19459.125745	16951.645833	1333.075195	377.296234
19459.125745	16951.645833	1331.981445	437.059692
19459.125745	16951.645833	1330.888672	347.674927
19459.125745	16951.645833	1329.794922	344.515015
19459.125745	16951.645833	1328.701172	422.076599
19459.125745	16951.645833	1327.606445	-47.703495
19459.125745	16951.645833	1326.512695	181.831512
19459.125745	16951.645833	1325.417969	268.276642
19459.125745	16951.645833	1324.323242	331.712341
19459.125745	16951.645833	1323.227539	180.639114
19459.125745	16951.645833	1322.132813	128.917465
19459.125745	16951.645833	1321.037109	149.841934
19459.125745	16951.645833	1319.941406	104.919617
19459.125745	16951.645833	1318.845703	42.322720
19459.125745	16951.645833	1317.750000	193.167801
19459.125745	16951.645833	1316.653320	230.349075
19459.125745	16951.645833	1315.556641	382.502380
19459.125745	16951.645833	1314.459961	225.618271
19459.125745	16951.645833	1313.363281	364.314270
19459.125745	16951.645833	1312.265625	37.591198
19459.125745	16951.645833	1311.167969	248.776108
19459.125745	16951.645833	1310.070313	5.065659
19459.125745	16951.645833	1308.972656	37.357624
19459.125745	16951.645833	1307.874023	184.873581
19459.125745	16951.645833	1306.776367	9.745627
19459.125745	16951.645833	1305.677734	259.280853
19459.125745	16951.645833	1304.579102	59.934135
19459.125745	16951.645833	1303.479492	141.962296
19459.125745	16951.645833	1302.380859	-91.502792
19459.125745	16951.645833	1301.281250	75.360825
19459.125745	16951.645833	1300.181641	59.391697
19459.125745	16951.645833	1299.081055	-25.608330
19459.125745	16951.645833	1297.981445	33.259007
19459.125745	16951.645833	1296.880859	110.951599
19459.125745	16951.645833	1295.780273	-2.758510
19459.125745	16951.645833	1294.679688	-7.778235
19459.125745	16951.645833	1293.578125	11.518606
19459.125745	16951.645833	1292.476563	83.182297
19459.125745	16951.645833	1291.375000	88.460220
19459.125745	16951.645833	1290.273438	56.637859
19459.125745	16951.645833	1289.171875	23.958693
19459.125745	16951.645833	1288.069336	-100.965652
19459.125745	16951.645833	1286.966797	168.853485
19459.125745	16951.645833	1285.864258	-81.778900
19459.125745	16951.645833	1284.761719	-5.937671
19459.125745	16951.645833	1283.658203	78.901947
19459.125745	16951.645833	1282.554688	-32.400372
19459.125745	16951.645833	1281.451172	-47.609928
19459.125745	16951.645833	1280.347656	108.604652
19459.125745	16951.645833	1279.244141	189.543503
19459.125745	16951.645833	1278.139648	-47.060532
19459.125745	16951.645833	1277.035156	-153.224792
19459.125745	16951.645833	1275.930664	-66.078827
19459.125745	16951.645833	1274.825195	-28.535267
19459.125745	16951.645833	1273.720703	7.000661
19459.125745	16951.645833	1272.615234	-120.895218
19459.125745	16951.645833	1271.508789	-51.549690
19459.125745	16951.645833	1270.403320	-187.954971
19459.125745	16951.645833	1269.297852	-87.670128
19459.125745	16951.645833	1268.191406	-122.972954
19459.125745	16951.645833	1267.084961	-128.478531
19459.125745	16951.645833	1265.977539	-88.105278
19459.125745	16951.645833	1264.871094	-73.739006
19459.125745	16951.645833	1263.763672	-87.693405
19459.125745	16951.645833	1262.656250	22.250393
19459.125745	16951.645833	1261.548828	47.822220
19459.125745	16951.645833	1260.440430	-0.042779
19459.125745	16951.645833	1259.333008	94.797844
19459.125745	16951.645833	1258.224609	21.631046
19459.125745	16951.645833	1257.115234	38.475731
19459.125745	16951.645833	1256.006836	-15.503205
19459.125745	16951.645833	1254.897461	-118.202385
19459.125745	16951.645833	1253.788086	68.286499
19459.125745	16951.645833	1252.678711	-83.332092
19459.125745	16951.645833	1251.569336	77.737106
19459.125745	16951.645833	1250.458984	-63.274834
19459.125745	16951.645833	1249.349609	57.686646
19459.125745	16951.645833	1248.239258	0.601890
19459.125745	16951.645833	1247.127930	-9.163514
19459.125745	16951.645833	1246.017578	111.028015
19459.125745	16951.645833	1244.906250	-28.801201
19459.125745	16951.645833	1243.794922	-48.087547
19459.125745	16951.645833	1242.683594	113.265045
19459.125745	16951.645833	1241.571289	-30.252588
19459.125745	16951.645833	1240.459961	62.181751
19459.125745	16951.645833	1239.347656	28.270044
19459.125745	16951.645833	1238.234375	32.433556
19459.125745	16951.645833	1237.122070	-6.731049
19459.125745	16951.645833	1236.008789	67.930321
19459.125745	16951.645833	1234.896484	-75.437767
19459.125745	16951.645833	1233.782227	53.788628
19459.125745	16951.645833	1232.668945	-60.791962
19459.125745	16951.645833	1231.555664	11.155989
19459.125745	16951.645833	1230.441406	-158.579865
19459.125745	16951.645833	1229.327148	11.947985
19459.125745	16951.645833	1228.211914	7.861165
19459.125745	16951.645833	1227.097656	61.378609
19459.125745	16951.645833	1225.982422	62.060513
19459.125745	16951.645833	1224.867188	12.207965
19459.125745	16951.645833	1223.751953	106.886826
19459.125745	16951.645833	1222.635742	-83.377045
19459.125745	16951.645833	1221.520508	-60.436821
19459.125745	16951.645833	1220.404297	51.473618
19459.125745	16951.645833	1219.287109	-85.416809
19459.125745	16951.645833	1218.170898	-105.148689
19459.125745	16951.645833	1217.053711	-47.576080
19459.125745	16951.645833	1215.936523	-39.941696
19459.125745	16951.645833	1214.819336	11.184604
19459.125745	16951.645833	1213.702148	63.538635
19459.125745	16951.645833	1212.583984	88.720360
19459.125745	16951.645833	1211.465820	-29.357565
19459.125745	16951.645833	1210.347656	107.631500
19459.125745	16951.645833	1209.229492	12.343300
19459.125745	16951.645833	1208.110352	29.552549
19459.125745	16951.645833	1206.992188	80.716141
19459.125745	16951.645833	1205.873047	-12.713680
19459.125745	16951.645833	1204.752930	37.423668
19459.125745	16951.645833	1203.633789	88.797134
19459.125745	16951.645833	1202.513672	-75.864777
19459.125745	16951.645833	1201.393555	-3.983202
19459.125745	16951.645833	1200.273438	-79.237305
19459.125745	16951.645833	1199.152344	-21.626934
19459.125745	16951.645833	1198.032227	-64.515121
19459.125745	16951.645833	1196.911133	-74.068115
19459.125745	16951.645833	1195.790039	-58.932468
19459.125745	16951.645833	1194.667969	62.371368
19459.125745	16951.645833	1193.545898	101.142212
19459.125745	16951.645833	1192.424805	31.792240
19459.125745	16951.645833	1191.301758	-58.207851
19459.125745	16951.645833	1190.179688	91.605949
19459.125745	16951.645833	1189.056641	-52.756172
19459.125745	16951.645833	1187.933594	-85.493294
19459.125745	16951.645833	1186.810547	-99.145882
19459.125745	16951.645833	1185.687500	-34.419395
19459.125745	16951.645833	1184.563477	-139.096191
19459.125745	16951.645833	1183.440430	20.581537
19459.125745	16951.645833	1182.316406	-57.446609
19459.125745	16951.645833	1181.191406	62.045460
19459.125745	16951.645833	1180.067383	0.356771
19459.125745	16951.645833	1178.942383	91.931625
19459.125745	16951.645833	1177.817383	-28.966846
19459.125745	16951.645833	1176.692383	-5.865383
19459.125745	16951.645833	1175.566406	-3.030904
19459.125745	16951.645833	1174.440430	139.560562
19459.125745	16951.645833	1173.314453	83.616669
19459.125745	16951.645833	1172.188477	60.291382
19459.125745	16951.645833	1171.062500	-44.864853
19459.125745	16951.645833	1169.935547	64.291069
19459.125745	16951.645833	1168.808594	71.359459
19459.125745	16951.645833	1167.681641	8.774578
19459.125745	16951.645833	1166.553711	11.837647
19459.125745	16951.645833	1165.426758	-76.075249
19459.125745	16951.645833	1164.298828	-117.618210
19459.125745	16951.645833	1163.170898	-198.343079
19459.125745	16951.645833	1162.041992	-93.429199
19459.125745	16951.645833	1160.914063	-68.750198
19459.125745	16951.645833	1159.785156	-139.546371
19459.125745	16951.645833	1158.656250	-45.148685
19459.125745	16951.645833	1157.526367	-67.091110
19459.125745	16951.645833	1156.397461	-141.891495
19459.125745	16951.645833	1155.267578	-29.845079
19459.125745	16951.645833	1154.137695	-78.662552
19459.125745	16951.645833	1153.006836	-17.032301
19459.125745	16951.645833	1151.876953	-167.539246
19459.125745	16951.645833	1150.746094	36.188095
19459.125745	16951.645833	1149.615234	44.707764
19459.125745	16951.645833	1148.484375	-162.681641
19459.125745	16951.645833	1147.352539	-209.526077
19459.125745	16951.645833	1146.220703	35.510925
19459.125745	16951.645833	1145.088867	-9.919459
19459.125745	16951.645833	1143.957031	-108.419975
19459.125745	16951.645833	1142.825195	-73.378502
19459.125745	16951.645833	1141.692383	-169.310898
19459.125745	16951.645833	1140.559570	62.754295
19459.125745	16951.645833	1139.426758	1.666520
19459.125745	16951.645833	1138.292969	-60.562836
19459.125745	16951.645833	1137.159180	27.426502
19459.125745	16951.645833	1136.025391	-69.228912
19459.125745	16951.645833	1134.891602	-44.080982
19459.125745	16951.645833	1133.757813	125.726593
19459.125745	16951.645833	1132.623047	103.272415
19459.125745	16951.645833	1131.488281	61.957993
19459.125745	16951.645833	1130.353516	85.730469
19459.125745	16951.645833	1129.217773	10.358772
19459.125745	16951.645833	1128.083008	132.051712
19459.125745	16951.645833	1126.947266	229.596268
19459.125745	16951.645833	1125.811523	19.236944
19459.125745	16951.645833	1124.674805	15.430052
19459.125745	16951.645833	1123.539063	65.965782
19459.125745	16951.645833	1122.402344	46.158173
19459.125745	16951.645833	1121.265625	-96.188522
19459.125745	16951.645833	1120.127930	69.925812
19459.125745	16951.645833	1118.990234	66.521355
19459.125745	16951.645833	1117.853516	77.209259
19459.125745	16951.645833	1116.714844	45.599144
19459.125745	16951.645833	1115.577148	71.759018
19459.125745	16951.645833	1114.439453	268.743622
19459.125745	16951.645833	1113.300781	173.987427
19459.125745	16951.645833	1112.162109	94.972794
19459.125745	16951.645833	1111.022461	90.874352
19459.125745	16951.645833	1109.883789	105.872017
19459.125745	16951.645833	1108.744141	99.503532
19459.125745	16951.645833	1107.604492	-30.342310
19459.125745	16951.645833	1106.463867	185.272659
19459.125745	16951.645833	1105.324219	182.851944
19459.125745	16951.645833	1104.183594	187.839218
19459.125745	16951.645833	1103.042969	-20.316950
19459.125745	16951.645833	1101.902344	203.945953
19459.125745	16951.645833	1100.760742	334.605957
19459.125745	16951.645833	1099.619141	87.449638
19459.125745	16951.645833	1098.477539	180.352036
19459.125745	16951.645833	1097.335938	115.763390
19459.125745	16951.645833	1096.193359	220.739700
19459.125745	16951.645833	1095.051758	203.582123
19459.125745	16951.645833	1093.909180	111.864532
19459.125745	16951.645833	1092.765625	184.980408
19459.125745	16951.645833	1091.623047	215.189178
19459.125745	16951.645833	1090.479492	314.951202
19459.125745	16951.645833	1089.335938	215.556412
19459.125745	16951.645833	1088.192383	203.823242
19459.125745	16951.645833	1087.047852	111.449028
19459.125745	16951.645833	1085.903320	211.033401
19459.125745	16951.645833	1084.758789	226.131149
19459.125745	16951.645833	1083.614258	115.540222
19459.125745	16951.645833	1082.469727	169.458008
19459.125745	16951.645833	1081.324219	-104.238678
19459.125745	16951.645833	1080.178711	26.539305
19459.125745	16951.645833	1079.033203	117.438560
19459.125745	16951.645833	1077.886719	268.102417
19459.125745	16951.645833	1076.740234	145.598679
19459.125745	16951.645833	1075.593750	203.640350
19459.125745	16951.645833	1074.447266	63.293007
19459.125745	16951.645833	1073.300781	216.443512
19459.125745	16951.645833	1072.153320	65.474274
19459.125745	16951.645833	1071.005859	195.849808
19459.125745	16951.645833	1069.858398	209.758713
19459.125745	16951.645833	1068.709961	218.806976
19459.125745	16951.645833	1067.561523	-110.248817
19459.125745	16951.645833	1066.413086	56.575893
19459.125745	16951.645833	1065.264648	115.491234
19459.125745	16951.645833	1064.116211	4.347008
19459.125745	16951.645833	1062.966797	193.629852
19459.125745	16951.645833	1061.817383	157.171783
19459.125745	16951.645833	1060.667969	178.948593
19459.125745	16951.645833	1059.517578	179.876495
19459.125745	16951.645833	1058.368164	215.331619
19459.125745	16951.645833	1057.217773	114.007507
19459.125745	16951.645833	1056.067383	159.425858
19459.125745	16951.645833	1054.916016	142.571106
19459.125745	16951.645833	1053.764648	246.933792
19459.125745	16951.645833	1052.613281	140.663544
19459.125745	16951.645833	1051.461914	153.179535
19459.125745	16951.645833	1050.310547	26.582579
19459.125745	16951.645833	1049.158203	243.029831
19459.125745	16951.645833	1048.005859	260.049103
19459.125745	16951.645833	1046.853516	129.778351
19459.125745	16951.645833	1045.700195	199.071884
19459.125745	16951.645833	1044.547852	189.126053
19459.125745	16951.645833	1043.394531	205.423676
19459.125745	16951.645833	1042.240234	230.364288
19459.125745	16951.645833	1041.086914	118.790970
19459.125745	16951.645833	1039.932617	229.276138
19459.125745	16951.645833	1038.778320	301.038361
19459.125745	16951.645833	1037.624023	423.414856
19459.125745	16951.645833	1036.469727	468.336487
19459.125745	16951.645833	1035.314453	577.059692
19459.125745	16951.645833	1034.159180	531.991699
19459.125745	16951.645833	1033.003906	611.086792
19459.125745	16951.645833	1031.847656	711.121887
19459.125745	16951.645833	1030.692383	763.306763
19459.125745	16951.645833	1029.536133	663.734924
19459.125745	16951.645833	1028.378906	602.203308
19459.125745	16951.645833	1027.222656	534.416199
19459.125745	16951.645833	1026.065430	269.139618
19459.125745	16951.645833	1024.908203	407.056458
19459.125745	16951.645833	1023.750977	34.368145
19459.125745	16951.645833	1022.593750	332.694153
19459.125745	16951.645833	1021.435547	232.395004
19459.125745	16951.645833	1020.277344	183.296280
19459.125745	16951.645833	1019.119141	376.378754
19459.125745	16951.645833	1017.959961	164.302704
19459.125745	16951.645833	1016.800781	154.417206
19459.125745	16951.645833	1015.641602	238.645462
19459.125745	16951.645833	1014.482422	158.620590
19459.125745	16951.645833	1013.323242	109.472794
19459.125745	16951.645833	1012.163086	54.374893
19459.125745	16951.645833	1011.002930	68.774796
19459.125745	16951.645833	1009.842773	220.600555
19459.125745	16951.645833	1008.681641	91.437988
19459.125745	16951.645833	1007.520508	144.831772
19459.125745	16951.645833	1006.359375	66.938499
19459.125745	16951.645833	1005.198242	62.738960
19459.125745	16951.645833	1004.037109	133.061615
19459.125745	16951.645833	1002.875000	188.070297
19459.125745	16951.645833	1001.712891	189.409424
19459.125745	16951.645833	1000.550781	225.358612
19459.125745	16951.645833	999.387695	-1.538476
19459.125745	16951.645833	998.224609	189.672211
19459.125745	16951.645833	997.061523	44.800591
19459.125745	16951.645833	995.898438	122.161461
19459.125745	16951.645833	994.734375	65.115738
19459.125745	16951.645833	993.571289	33.953342
19459.125745	16951.645833	992.407227	150.567612
19459.125745	16951.645833	991.242188	106.052574
19459.125745	16951.645833	990.078125	197.951218
19459.125745	16951.645833	988.913086	82.668472
19459.125745	16951.645833	987.748047	248.864685
19459.125745	16951.645833	986.583008	36.445477
19459.125745	16951.645833	985.416992	42.025490
19459.125745	16951.645833	984.250977	58.610851
19459.125745	16951.645833	983.084961	-170.887939
19459.125745	16951.645833	981.918945	27.234558
19459.125745	16951.645833	980.751953	156.181747
19459.125745	16951.645833	979.584961	-46.544041
19459.125745	16951.645833	978.417969	48.898338
19459.125745	16951.645833	977.250977	-28.920446
19459.125745	16951.645833	976.083008	-196.767761
19459.125745	16951.645833	974.915039	74.926178
19459.125745	16951.645833	973.747070	-16.697668
19459.125745	16951.645833	972.579102	-50.745403
19459.125745	16951.645833	971.410156	163.840729
19459.125745	16951.645833	970.242188	134.678650
19459.125745	16951.645833	969.072266	-46.221218
19459.125745	16951.645833	967.903320	33.124546
19459.125745	16951.645833	966.733398	-139.203156
19459.125745	16951.645833	965.563477	-36.651016
19459.125745	16951.645833	964.393555	66.903381
19459.125745	16951.645833	963.223633	-30.992767
19459.125745	16951.645833	962.052734	-35.401955
19459.125745	16951.645833	960.881836	202.550476
19459.125745	16951.645833	959.710938	-17.287483
19459.125745	16951.645833	958.540039	-38.196754
19459.125745	16951.645833	957.368164	-5.030931
19459.125745	16951.645833	956.196289	47.626705
19459.125745	16951.645833	955.024414	-80.319229
19459.125745	16951.645833	953.851563	41.193653
19459.125745	16951.645833	952.679688	-5.081510
19459.125745	16951.645833	951.506836	169.678925
19459.125745	16951.645833	950.333984	152.695435
19459.125745	16951.645833	949.160156	-93.436462
19459.125745	16951.645833	947.986328	-56.567532
19459.125745	16951.645833	946.812500	119.735146
19459.125745	16951.645833	945.638672	-3.895314
19459.125745	16951.645833	944.464844	38.843159
19459.125745	16951.645833	943.290039	-114.132706
19459.125745	16951.645833	942.115234	-87.784966
19459.125745	16951.645833	940.940430	205.619110
19459.125745	16951.645833	939.764648	-25.055571
19459.125745	16951.645833	938.588867	5.652819
19459.125745	16951.645833	937.413086	-184.980057
19459.125745	16951.645833	936.237305	-2.497844
19459.125745	16951.645833	935.060547	239.431122
19459.125745	16951.645833	933.883789	-121.176643
19459.125745	16951.645833	932.707031	221.197708
19459.125745	16951.645833	931.530273	137.152084
19459.125745	16951.645833	930.352539	96.404846
19459.125745	16951.645833	929.175781	39.979080
19459.125745	16951.645833	927.998047	125.659821
19459.125745	16951.645833	926.819336	33.676785
19459.125745	16951.645833	925.641602	50.252338
19459.125745	16951.645833	924.462891	218.749573
19459.125745	16951.645833	923.284180	-60.630367
19459.125745	16951.645833	922.104492	-0.676062
19459.125745	16951.645833	920.924805	185.443527
19459.125745	16951.645833	919.746094	190.431549
19459.125745	16951.645833	919.551758	-14.102406
19459.125745	16951.645833	918.386719	49.666065
19459.125745	16951.645833	917.220703	204.056061
19459.125745	16951.645833	916.054688	62.837097
19459.125745	16951.645833	914.887695	169.873840
19459.125745	16951.645833	913.721680	-16.591694
19459.125745	16951.645833	912.554688	-47.429054
19459.125745	16951.645833	911.387695	2.454544
19459.125745	16951.645833	910.220703	-14.608672
19459.125745	16951.645833	909.052734	88.371887
19459.125745	16951.645833	907.885742	45.709545
19459.125745	16951.645833	906.717773	38.469265
19459.125745	16951.645833	905.548828	60.730309
19459.125745	16951.645833	904.380859	-40.901001
19459.125745	16951.645833	903.211914	12.810162
19459.125745	16951.645833	902.042969	19.323780
19459.125745	16951.645833	900.874023	-15.436157
19459.125745	16951.645833	899.704102	-32.501602
19459.125745	16951.645833	898.535156	-63.316986
19459.125745	16951.645833	897.365234	84.588776
19459.125745	16951.645833	896.194336	93.030273
19459.125745	16951.645833	895.024414	44.530846
19459.125745	16951.645833	893.853516	-141.333954
19459.125745	16951.645833	892.682617	-68.110023
19459.125745	16951.645833	891.511719	18.812155
19459.125745	16951.645833	890.340820	-8.067313
19459.125745	16951.645833	889.168945	-166.326355
19459.125745	16951.645833	887.997070	134.267456
19459.125745	16951.645833	886.825195	144.618546
19459.125745	16951.645833	885.653320	-25.343330
19459.125745	16951.645833	884.480469	-87.466629
19459.125745	16951.645833	883.307617	97.273064
19459.125745	16951.645833	882.134766	-51.035294
19459.125745	16951.645833	880.961914	133.615204
19459.125745	16951.645833	879.788086	-14.642499
19459.125745	16951.645833	878.614258	85.753120
19459.125745	16951.645833	877.440430	211.547241
19459.125745	16951.645833	876.266602	176.841461
19459.125745	16951.645833	875.091797	-80.860184
19459.125745	16951.645833	873.916992	-21.612415
19459.125745	16951.645833	872.742188	162.756683
19459.125745	16951.645833	871.567383	87.027435
19459.125745	16951.645833	870.391602	157.928391
19459.125745	16951.645833	869.215820	-103.423264
19459.125745	16951.645833	868.040039	-46.193527
19459.125745	16951.645833	866.864258	-30.013252
19459.125745	16951.645833	865.687500	-9.931244
19459.125745	16951.645833	864.510742	-17.196550
19459.125745	16951.645833	863.333984	-47.889256
19459.125745	16951.645833	862.157227	24.876375
19459.125745	16951.645833	860.979492	-97.530533
19459.125745	16951.645833	859.802734	-16.985996
19459.125745	16951.645833	858.625000	26.465048
19459.125745	16951.645833	857.446289	-23.711626
19459.125745	16951.645833	856.268555	-138.220154
19459.125745	16951.645833	855.089844	29.989208
19459.125745	16951.645833	853.911133	-8.471277
19459.125745	16951.645833	852.731445	38.825073
19459.125745	16951.645833	851.552734	-30.799513
19459.125745	16951.645833	850.373047	0.893148
19459.125745	16951.645833	849.193359	-97.908531
19459.125745	16951.645833	848.013672	-35.068882
19459.125745	16951.645833	846.833008	-32.599747
19459.125745	16951.645833	845.652344	-96.306854
19459.125745	16951.645833	844.471680	-87.995964
19459.125745	16951.645833	843.291016	62.325989
19459.125745	16951.645833	842.110352	-53.887985
19459.125745	16951.645833	840.928711	-12.538443
19459.125745	16951.645833	839.747070	192.105988
19459.125745	16951.645833	838.564453	-1.820109
19459.125745	16951.645833	837.382813	-94.616554
19459.125745	16951.645833	836.200195	-125.197678
19459.125745	16951.645833	835.017578	-95.547935
19459.125745	16951.645833	833.834961	-71.742661
19459.125745	16951.645833	832.651367	33.609501
19459.125745	16951.645833	831.467773	103.967453
19459.125745	16951.645833	830.284180	-39.222675
19459.125745	16951.645833	829.100586	-91.149536
19459.125745	16951.645833	827.916992	-125.597488
19459.125745	16951.645833	826.732422	-101.838295
19459.125745	16951.645833	825.547852	90.636734
19459.125745	16951.645833	824.363281	58.097923
19459.125745	16951.645833	823.177734	43.017601
19459.125745	16951.645833	821.992188	-61.221508
19459.125745	16951.645833	820.806641	28.358910
19459.125745	16951.645833	819.621094	139.208832
19459.125745	16951.645833	818.434570	211.268311
19459.125745	16951.645833	817.249023	74.129234
19459.125745	16951.645833	816.062500	146.157257
19459.125745	16951.645833	814.875000	72.963470
19459.125745	16951.645833	813.688477	224.299911
19459.125745	16951.645833	812.500977	-3.699240
19459.125745	16951.645833	811.313477	-150.358292
19459.125745	16951.645833	810.125977	-2.959707
19459.125745	16951.645833	808.937500	-66.416084
19459.125745	16951.645833	807.749023	46.086979
19459.125745	16951.645833	806.560547	-25.104116
19459.125745	16951.645833	805.372070	-18.971087
19459.125745	16951.645833	804.182617	106.953316
19459.125745	16951.645833	802.994141	58.944691
19459.125745	16951.645833	801.803711	-83.688454
19459.125745	16951.645833	800.614258	55.655922
19459.125745	16951.645833	799.424805	125.428444
19459.125745	16951.645833	798.234375	56.185146
19459.125745	16951.645833	797.043945	183.803940
19459.125745	16951.645833	795.852539	-95.752922
19459.125745	16951.645833	794.662109	-68.490974
19459.125745	16951.645833	793.470703	37.825138
19459.125745	16951.645833	792.279297	36.101665
19459.125745	16951.645833	791.087891	227.150787
19459.125745	16951.645833	789.895508	86.587990
19459.125745	16951.645833	788.703125	163.826401
19459.125745	16951.645833	787.510742	4.040468
19459.125745	16951.645833	786.318359	-11.226189
19459.125745	16951.645833	785.125000	-18.794662
19459.125745	16951.645833	783.931641	39.089985
19459.125745	16951.645833	782.738281	114.260414
19459.125745	16951.645833	781.544922	-5.007367
19459.125745	16951.645833	780.350586	-93.450531
19459.125745	16951.645833	779.156250	39.369495
19459.125745	16951.645833	777.961914	-108.708778
19459.125745	16951.645833	776.767578	-95.206245
19459.125745	16951.645833	775.572266	131.690643
19459.125745	16951.645833	774.376953	129.726181
19459.125745	16951.645833	773.181641	37.416569
19459.125745	16951.645833	771.986328	29.668671
19459.125745	16951.645833	770.790039	41.119179
19459.125745	16951.645833	769.593750	75.592514
19459.125745	16951.645833	768.397461	104.268944
19459.125745	16951.645833	767.201172	111.794579
19459.125745	16951.645833	766.003906	150.011108
19459.125745	16951.645833	764.806641	25.068193
19459.125745	16951.645833	763.609375	111.208618
19459.125745	16951.645833	762.412109	160.843109
19459.125745	16951.645833	761.213867	53.172657
19459.125745	16951.645833	760.015625	20.304026
19459.125745	16951.645833	758.817383	104.365723
19459.125745	16951.645833	757.618164	105.955154
19459.125745	16951.645833	756.419922	55.776669
19459.125745	16951.645833	755.220703	-15.478456
19459.125745	16951.645833	754.021484	-38.842026
19459.125745	16951.645833	752.821289	223.127014
19459.125745	16951.645833	751.621094	-1.367735
19459.125745	16951.645833	750.420898	59.432087
19459.125745	16951.645833	749.220703	55.106155
19459.125745	16951.645833	748.020508	230.621826
19459.125745	16951.645833	746.819336	117.164200
19459.125745	16951.645833	745.618164	137.612732
19459.125745	16951.645833	744.416992	144.636932
19459.125745	16951.645833	743.214844	371.498962
19459.125745	16951.645833	742.012695	55.374271
19459.125745	16951.645833	740.810547	157.878647
19459.125745	16951.645833	739.608398	159.042938
19459.125745	16951.645833	738.406250	148.713409
19459.125745	16951.645833	737.203125	165.097397
19459.125745	16951.645833	736.000000	213.904648
19459.125745	16951.645833	734.795898	243.570007
19459.125745	16951.645833	733.592773	191.113174
19459.125745	16951.645833	732.388672	209.253799
19459.125745	16951.645833	731.184570	240.709549
19459.125745	16951.645833	729.979492	184.374146
19459.125745	16951.645833	728.775391	269.150330
19459.125745	16951.645833	727.570313	361.485077
19459.125745	16951.645833	726.365234	61.048298
19459.125745	16951.645833	725.160156	138.069122
19459.125745	16951.645833	723.954102	138.803406
19459.125745	16951.645833	722.748047	169.982712
19459.125745	16951.645833	721.541992	254.442566
19459.125745	16951.645833	720.334961	-70.594429
19459.125745	16951.645833	719.128906	-144.219177
19459.125745	16951.645833	717.921875	-118.868004
19459.125745	16951.645833	716.714844	45.360748
19459.125745	16951.645833	715.506836	-5.523349
19459.125745	16951.645833	714.298828	-138.225037
19459.125745	16951.645833	713.090820	105.667435
19459.125745	16951.645833	711.882813	-150.681274
19459.125745	16951.645833	710.674805	98.732361
19459.125745	16951.645833	709.465820	-45.445511
19459.125745	16951.645833	708.256836	72.638176
19459.125745	16951.645833	707.047852	-58.259121
19459.125745	16951.645833	705.837891	48.297703
19459.125745	16951.645833	704.627930	-38.943642
19459.125745	16951.645833	703.417969	-93.913185
19459.125745	16951.645833	702.208008	196.590866
19459.125745	16951.645833	700.998047	25.733229
19459.125745	16951.645833	699.787109	33.272095
19459.125745	16951.645833	698.576172	-63.578815
19459.125745	16951.645833	697.364258	36.826332
19459.125745	16951.645833	696.153320	29.051317
19459.125745	16951.645833	694.941406	98.968178
19459.125745	16951.645833	693.729492	182.078888
19459.125745	16951.645833	692.516602	-85.492340
19459.125745	16951.645833	691.304688	52.475822
19459.125745	16951.645833	690.091797	16.060213
19459.125745	16951.645833	688.878906	180.369415
19459.125745	16951.645833	687.665039	-191.309387
19459.125745	16951.645833	686.451172	-4.401700
19459.125745	16951.645833	685.237305	-29.609947
19459.125745	16951.645833	684.023438	28.406431
19459.125745	16951.645833	682.809570	-17.707314
19459.125745	16951.645833	681.594727	148.003799
19459.125745	16951.645833	680.379883	194.452362
19459.125745	16951.645833	679.165039	55.536602
19459.125745	16951.645833	677.949219	99.995560
19459.125745	16951.645833	676.733398	121.705856
19459.125745	16951.645833	675.517578	-62.607143
19459.125745	16951.645833	674.301758	95.045616
19459.125745	16951.645833	673.084961	169.475311
19459.125745	16951.645833	671.869141	325.020844
19459.125745	16951.645833	670.651367	340.741089
19459.125745	16951.645833	669.434570	256.359985
19459.125745	16951.645833	668.216797	54.957966
19459.125745	16951.645833	667.000000	23.398697
19459.125745	16951.645833	665.781250	118.187820
19459.125745	16951.645833	664.563477	99.724663
19459.125745	16951.645833	663.344727	84.987747
19459.125745	16951.645833	662.125977	139.954880
19459.125745	16951.645833	660.907227	228.772400
19459.125745	16951.645833	659.688477	170.516373
19459.125745	16951.645833	658.468750	146.143066
19459.125745	16951.645833	657.249023	223.440033
19459.125745	16951.645833	656.029297	261.103516
19459.125745	16951.645833	654.808594	230.915787
19459.125745	16951.645833	653.587891	240.217361
19459.125745	16951.645833	652.367188	53.732738
19459.125745	16951.645833	651.146484	70.484337
19459.125745	16951.645833	649.924805	258.364716
19459.125745	16951.645833	648.704102	171.513336
19459.125745	16951.645833	647.482422	24.470268
19459.125745	16951.645833	646.259766	193.276352
19459.125745	16951.645833	645.037109	341.280212
19459.125745	16951.645833	643.815430	53.188061
19459.125745	16951.645833	642.591797	163.473007
19459.125745	16951.645833	641.369141	224.816254
19459.125745	16951.645833	640.145508	239.128448
19459.125745	16951.645833	638.921875	91.902054
19459.125745	16951.645833	637.698242	62.949577
19459.125745	16951.645833	636.474609	110.903885
19459.125745	16951.645833	635.250000	115.623917
19459.125745	16951.645833	634.025391	92.147232
19459.125745	16951.645833	632.800781	-43.913784
19459.125745	16951.645833	631.575195	18.802622
19459.125745	16951.645833	630.349609	113.309769
19459.125745	16951.645833	629.124023	-79.068039
19459.125745	16951.645833	627.898438	60.287468
19459.125745	16951.645833	626.671875	45.888306
19459.125745	16951.645833	625.445313	95.130806
19459.125745	16951.645833	624.218750	114.332481
19459.125745	16951.645833	622.992188	69.807907
19459.125745	16951.645833	621.764648	14.013315
19459.125745	16951.645833	620.537109	102.307144
19459.125745	16951.645833	619.309570	63.262794
19459.125745	16951.645833	618.081055	-86.202682
19459.125745	16951.645833	616.852539	-134.652557
19459.125745	16951.645833	615.624023	37.534439
19459.125745	16951.645833	614.395508	-3.550679
19459.125745	16951.645833	613.166992	129.172363
19459.125745	16951.645833	611.937500	-117.600266
19459.125745	16951.645833	610.708008	-26.123962
19459.125745	16951.645833	609.477539	-3.860831
19459.125745	16951.645833	608.248047	141.609055
19459.125745	16951.645833	607.017578	-101.436592
19459.125745	16951.645833	605.787109	-43.858452
19459.125745	16951.645833	604.555664	-124.481071
19459.125745	16951.645833	603.325195	3.885366
19459.125745	16951.645833	602.093750	-63.757118
19459.125745	16951.645833	600.861328	-125.828300
19459.125745	16951.645833	599.629883	-187.923279
19459.125745	16951.645833	598.397461	27.770302
19459.125745	16951.645833	597.165039	4.712383
19459.125745	16951.645833	595.932617	-133.938553
19459.125745	16951.645833	594.699219	53.501484
19459.125745	16951.645833	593.465820	39.613655
19459.125745	16951.645833	592.232422	-63.720890
19459.125745	16951.645833	590.999023	194.196396
19459.125745	16951.645833	589.764648	-30.241667
19459.125745	16951.645833	588.530273	-79.666626
19459.125745	16951.645833	587.295898	-50.958069
19459.125745	16951.645833	586.061523	-143.248489
19459.125745	16951.645833	584.826172	-99.757507
19459.125745	16951.645833	583.590820	-11.698559
19459.125745	16951.645833	582.355469	-74.334023
19459.125745	16951.645833	581.119141	-209.492981
19459.125745	16951.645833	579.882813	-182.945419
19459.125745	16951.645833	578.646484	-199.194916
19459.125745	16951.645833	577.410156	91.050819
19459.125745	16951.645833	576.172852	-38.646805
19459.125745	16951.645833	574.935547	-17.917974
19459.125745	16951.645833	573.698242	-58.512383
19459.125745	16951.645833	572.460938	80.915977
19459.125745	16951.645833	571.222656	79.195923
19459.125745	16951.645833	569.984375	84.853661
19459.125745	16951.645833	568.746094	-96.892746
19459.125745	16951.645833	567.506836	-152.495834
19459.125745	16951.645833	566.267578	5.116570
19459.125745	16951.645833	565.028320	19.872488
19459.125745	16951.645833	563.789063	34.578831
19459.125745	16951.645833	562.548828	-76.774727
19459.125745	16951.645833	561.309570	11.964062
19459.125745	16951.645833	560.068359	-80.904366
19459.125745	16951.645833	558.828125	144.743866
19459.125745	16951.645833	557.586914	148.076126
19459.125745	16951.645833	556.345703	-109.634018
19459.125745	16951.645833	555.104492	-126.691048
19459.125745	16951.645833	553.863281	102.300735
19459.125745	16951.645833	552.621094	59.219334
19459.125745	16951.645833	551.378906	73.447769
19459.125745	16951.645833	550.136719	2.571155
19459.125745	16951.645833	548.893555	99.908768
19459.125745	16951.645833	547.650391	197.162994
19459.125745	16951.645833	546.407227	189.003876
19459.125745	16951.645833	545.164063	-16.874178
19459.125745	16951.645833	543.919922	48.812763
19459.125745	16951.645833	542.675781	162.444885
19459.125745	16951.645833	541.431641	170.746811
19459.125745	16951.645833	540.186523	158.695679
19459.125745	16951.645833	538.941406	207.509583
19459.125745	16951.645833	537.696289	82.819351
19459.125745	16951.645833	536.451172	142.612198
19459.125745	16951.645833	535.205078	-44.804867
19459.125745	16951.645833	533.959961	114.478226
19459.125745	16951.645833	532.712891	-71.097961
19459.125745	16951.645833	531.466797	-76.005569
19459.125745	16951.645833	530.219727	147.542068
19459.125745	16951.645833	528.972656	138.815781
19459.125745	16951.645833	527.725586	-30.201273
19459.125745	16951.645833	526.478516	64.152679
19459.125745	16951.645833	525.230469	42.426327
19459.125745	16951.645833	523.982422	112.702026
19459.125745	16951.645833	522.734375	127.691269
19459.125745	16951.645833	521.485352	133.424942
19459.125745	16951.645833	520.236328	-17.254850
19459.125745	16951.645833	518.987305	106.123032
19459.125745	16951.645833	517.737305	-61.133427
19459.125745	16951.645833	516.488281	-22.461393
19459.125745	16951.645833	515.238281	21.654997
19459.125745	16951.645833	513.988281	159.421082
19459.125745	16951.645833	512.737305	85.793915
19459.125745	16951.645833	511.486328	26.842102
19459.125745	16951.645833	510.235352	87.230766
19459.125745	16951.645833	508.984375	92.458961
19459.125745	16951.645833	507.732422	242.642563
19459.125745	16951.645833	506.480469	190.828629
19459.125745	16951.645833	505.228516	210.540405
19459.125745	16951.645833	503.976563	452.154694
19459.125745	16951.645833	502.723633	446.002747
19459.125745	16951.645833	501.470703	309.604187
19459.125745	16951.645833	500.217773	356.528900
19459.125745	16951.645833	498.963867	328.217194
19459.125745	16951.645833	497.709961	422.630066
19459.125745	16951.645833	496.456055	423.499237
19459.125745	16951.645833	495.202148	409.645355
19459.125745	16951.645833	493.947266	425.023865
19459.125745	16951.645833	492.692383	326.808441
19459.125745	16951.645833	491.437500	598.323364
19459.125745	16951.645833	490.181641	542.051025
19459.125745	16951.645833	488.926758	494.876953
19459.125745	16951.645833	487.670898	603.132019
19459.125745	16951.645833	486.414063	619.805847
19459.125745	16951.645833	485.158203	627.249084
19459.125745	16951.645833	483.901367	674.816101
19459.125745	16951.645833	482.644531	799.037903
19459.125745	16951.645833	481.386719	775.091980
19459.125745	16951.645833	480.128906	829.620422
19459.125745	16951.645833	478.871094	878.547180
19459.125745	16951.645833	477.613281	969.351624
19459.125745	16951.645833	476.355469	829.964417
19459.125745	16951.645833	475.096680	1057.427368
19459.125745	16951.645833	473.837891	1018.230957
19459.125745	16951.645833	472.578125	765.450867
19459.125745	16951.645833	471.319336	733.398071
19459.125745	16951.645833	470.059570	914.615479
19459.125745	16951.645833	468.799805	895.052612
19459.125745	16951.645833	467.539063	879.007690
19459.125745	16951.645833	466.278320	1076.083496
19459.125745	16951.645833	465.017578	1214.622314
19459.125745	16951.645833	463.756836	890.209778
19459.125745	16951.645833	462.495117	982.896240
19459.125745	16951.645833	461.233398	1004.367065
19459.125745	16951.645833	459.971680	1065.726929
19459.125745	16951.645833	458.709961	1054.085938
19459.125745	16951.645833	457.447266	934.901855
19459.125745	16951.645833	456.184570	939.321655
19459.125745	16951.645833	454.921875	963.570435
19459.125745	16951.645833	453.658203	922.143799
19459.125745	16951.645833	452.394531	1024.189819
19459.125745	16951.645833	451.130859	1115.088257
19459.125745	16951.645833	449.867188	1222.102661
19459.125745	16951.645833	448.602539	1237.995850
19459.125745	16951.645833	447.337891	1262.750488
19459.125745	16951.645833	446.073242	1100.188232
19459.125745	16951.645833	444.807617	1129.947876
19459.125745	16951.645833	443.542969	1026.931030
19459.125745	16951.645833	442.276367	1210.492432
19459.125745	16951.645833	441.010742	1110.625977
19459.125745	16951.645833	439.744141	1271.804688
19459.125745	16951.645833	438.478516	1448.979858
19459.125745	16951.645833	437.210938	1241.301758
19459.125745	16951.645833	435.944336	1187.558716
19459.125745	16951.645833	434.676758	1238.678101
19459.125745	16951.645833	433.409180	1481.588989
19459.125745	16951.645833	432.141602	1220.338745
19459.125745	16951.645833	430.873047	1504.170898
19459.125745	16951.645833	429.604492	1367.340332
19459.125745	16951.645833	428.335938	1130.630127
19459.125745	16951.645833	427.067383	1329.990356
19459.125745	16951.645833	425.797852	1277.291260
19459.125745	16951.645833	424.528320	1412.447632
19459.125745	16951.645833	423.258789	1093.031006
19459.125745	16951.645833	421.988281	1191.196655
19459.125745	16951.645833	420.717773	1413.697754
19459.125745	16951.645833	419.447266	1471.144653
19459.125745	16951.645833	418.175781	1152.117798
19459.125745	16951.645833	416.905273	1371.378662
19459.125745	16951.645833	415.633789	1210.617798
19459.125745	16951.645833	414.362305	1240.948608
19459.125745	16951.645833	413.089844	1149.754639
19459.125745	16951.645833	411.817383	1460.784180
19459.125745	16951.645833	410.544922	1215.114014
19459.125745	16951.645833	409.272461	1044.832642
19459.125745	16951.645833	407.999023	1157.384033
19459.125745	16951.645833	406.725586	1460.571411
19459.125745	16951.645833	405.452148	1185.841309
19459.125745	16951.645833	404.177734	1283.926392
19459.125745	16951.645833	402.903320	1202.863525
19459.125745	16951.645833	401.628906	1146.450684
19459.125745	16951.645833	400.354492	1096.630249
19459.125745	16951.645833	399.079102	1172.282715
19459.125745	16951.645833	397.803711	1014.839661
19459.125745	16951.645833	396.528320	1132.332031
19459.125745	16951.645833	395.251953	1205.822266
19459.125745	16951.645833	393.976563	1121.947144
19459.125745	16951.645833	392.700195	1022.935364
19459.125745	16951.645833	391.422852	1171.500000
19459.125745	16951.645833	390.145508	1024.155029
19459.125745	16951.645833	388.869141	1079.337646
19459.125745	16951.645833	387.590820	1056.282715
19459.125745	16951.645833	386.313477	1027.012817
19459.125745	16951.645833	385.035156	1052.572021
19459.125745	16951.645833	383.756836	1131.131470
19459.125745	16951.645833	382.478516	980.542358
19459.125745	16951.645833	381.199219	1049.992920
19459.125745	16951.645833	379.919922	872.389160
19459.125745	16951.645833	378.640625	719.000854
19459.125745	16951.645833	377.360352	1018.804321
19459.125745	16951.645833	376.080078	906.416199
19459.125745	16951.645833	374.799805	931.167175
19459.125745	16951.645833	373.519531	911.745667
19459.125745	16951.645833	372.238281	778.166565
19459.125745	16951.645833	370.957031	847.910828
19459.125745	16951.645833	369.675781	819.620300
19459.125745	16951.645833	368.394531	894.084839
19459.125745	16951.645833	367.112305	752.179565
19459.125745	16951.645833	365.830078	695.055420
19459.125745	16951.645833	364.546875	683.176270
19459.125745	16951.645833	363.264648	748.795227
19459.125745	16951.645833	361.981445	639.287964
19459.125745	16951.645833	360.698242	650.144653
19459.125745	16951.645833	359.414063	595.077271
19459.125745	16951.645833	358.129883	610.124573
19459.125745	16951.645833	356.845703	509.157684
19459.125745	16951.645833	355.561523	682.120239
19459.125745	16951.645833	354.276367	703.164185
19459.125745	16951.645833	352.991211	574.185425
19459.125745	16951.645833	351.706055	473.984985
19459.125745	16951.645833	350.420898	547.248779
19459.125745	16951.645833	349.134766	113.075951
19459.125745	16951.645833	347.848633	363.213043
19459.125745	16951.645833	346.561523	209.548843
19459.125745	16951.645833	345.275391	218.398911
19459.125745	16951.645833	343.988281	337.734863
19459.125745	16951.645833	342.700195	48.100052
19459.125745	16951.645833	341.413086	225.915802
19459.125745	16951.645833	340.125000	105.420944
19459.125745	16951.645833	338.836914	50.659191
19459.125745	16951.645833	337.548828	79.371231
19459.125745	16951.645833	336.259766	-33.234924
19459.125745	16951.645833	334.970703	48.026184
19459.125745	16951.645833	333.681641	46.777390
19459.125745	16951.645833	332.391602	43.119324
19459.125745	16951.645833	331.101563	88.726028
19459.125745	16951.645833	329.811523	-46.206207
19459.125745	16951.645833	328.521484	-23.341347
19459.125745	16951.645833	327.230469	87.662109
19459.125745	16951.645833	325.939453	-72.708839
19459.125745	16951.645833	324.648438	-16.830996
19459.125745	16951.645833	323.356445	-27.820993
19459.125745	16951.645833	322.064453	-94.941978
19459.125745	16951.645833	320.772461	-106.197777
19459.125745	16951.645833	319.480469	-49.243618
19459.125745	16951.645833	318.187500	-203.310349
19459.125745	16951.645833	316.894531	-109.797577
19459.125745	16951.645833	315.601563	-246.807083
19459.125745	16951.645833	314.307617	-1.599406
19459.125745	16951.645833	313.013672	-11.874500
19459.125745	16951.645833	311.719727	-14.784318
19459.125745	16951.645833	310.425781	-60.100063
19459.125745	16951.645833	309.130859	95.137657
19459.125745	16951.645833	307.835938	-31.738750
19459.125745	16951.645833	306.541016	18.790920
19459.125745	16951.645833	305.245117	-113.578445
19459.125745	16951.645833	303.949219	261.007233
19459.125745	16951.645833	302.653320	170.751953
19459.125745	16951.645833	301.356445	310.463440
19459.125745	16951.645833	300.060547	511.845490
19459.125745	16951.645833	298.763672	452.109802
