#X		#Y		#Wave		#Intensity
19410.682606	16914.431167	2000.043945	-235.693924
19410.682606	16914.431167	1999.080078	-173.017517
19410.682606	16914.431167	1998.116211	-35.984879
19410.682606	16914.431167	1997.151367	75.571472
19410.682606	16914.431167	1996.186523	399.521362
19410.682606	16914.431167	1995.222656	-117.079475
19410.682606	16914.431167	1994.256836	-12.393594
19410.682606	16914.431167	1993.291992	316.989014
19410.682606	16914.431167	1992.327148	9.379318
19410.682606	16914.431167	1991.361328	191.470276
19410.682606	16914.431167	1990.395508	162.580780
19410.682606	16914.431167	1989.429688	323.711975
19410.682606	16914.431167	1988.463867	-30.322895
19410.682606	16914.431167	1987.497070	211.421692
19410.682606	16914.431167	1986.531250	254.737000
19410.682606	16914.431167	1985.564453	-132.653595
19410.682606	16914.431167	1984.597656	211.417709
19410.682606	16914.431167	1983.630859	60.581005
19410.682606	16914.431167	1982.664063	319.612549
19410.682606	16914.431167	1981.696289	237.181808
19410.682606	16914.431167	1980.728516	151.918198
19410.682606	16914.431167	1979.761719	19.368372
19410.682606	16914.431167	1978.792969	79.140038
19410.682606	16914.431167	1977.825195	-261.449615
19410.682606	16914.431167	1976.857422	66.717918
19410.682606	16914.431167	1975.888672	243.890244
19410.682606	16914.431167	1974.919922	161.584091
19410.682606	16914.431167	1973.951172	246.770432
19410.682606	16914.431167	1972.982422	371.097717
19410.682606	16914.431167	1972.013672	453.173126
19410.682606	16914.431167	1971.043945	46.731762
19410.682606	16914.431167	1970.075195	281.154816
19410.682606	16914.431167	1969.105469	165.240448
19410.682606	16914.431167	1968.135742	110.739990
19410.682606	16914.431167	1967.165039	233.441315
19410.682606	16914.431167	1966.195313	365.724701
19410.682606	16914.431167	1965.224609	-21.942736
19410.682606	16914.431167	1964.253906	18.821274
19410.682606	16914.431167	1963.283203	367.141235
19410.682606	16914.431167	1962.312500	190.817245
19410.682606	16914.431167	1961.341797	142.369797
19410.682606	16914.431167	1960.370117	167.601395
19410.682606	16914.431167	1959.399414	411.625824
19410.682606	16914.431167	1958.427734	131.474426
19410.682606	16914.431167	1957.455078	-77.388245
19410.682606	16914.431167	1956.483398	195.636276
19410.682606	16914.431167	1955.511719	355.343231
19410.682606	16914.431167	1954.539063	273.994019
19410.682606	16914.431167	1953.566406	413.741852
19410.682606	16914.431167	1952.593750	548.417969
19410.682606	16914.431167	1951.621094	206.363129
19410.682606	16914.431167	1950.647461	23.997614
19410.682606	16914.431167	1949.674805	33.156448
19410.682606	16914.431167	1948.701172	-129.629440
19410.682606	16914.431167	1947.727539	144.523209
19410.682606	16914.431167	1946.753906	-79.723503
19410.682606	16914.431167	1945.780273	108.304054
19410.682606	16914.431167	1944.805664	232.419266
19410.682606	16914.431167	1943.831055	10.569447
19410.682606	16914.431167	1942.856445	173.800781
19410.682606	16914.431167	1941.881836	219.231552
19410.682606	16914.431167	1940.907227	-159.516235
19410.682606	16914.431167	1939.932617	113.849205
19410.682606	16914.431167	1938.957031	205.737732
19410.682606	16914.431167	1937.981445	209.361572
19410.682606	16914.431167	1937.005859	193.367554
19410.682606	16914.431167	1936.030273	98.988243
19410.682606	16914.431167	1935.054688	200.540054
19410.682606	16914.431167	1934.078125	86.594147
19410.682606	16914.431167	1933.101563	-142.368317
19410.682606	16914.431167	1932.125000	79.093666
19410.682606	16914.431167	1931.148438	90.032280
19410.682606	16914.431167	1930.171875	-14.014091
19410.682606	16914.431167	1929.194336	-162.039398
19410.682606	16914.431167	1928.217773	-87.445015
19410.682606	16914.431167	1927.240234	341.697754
19410.682606	16914.431167	1926.262695	25.048801
19410.682606	16914.431167	1925.284180	1.857921
19410.682606	16914.431167	1924.306641	122.883255
19410.682606	16914.431167	1923.328125	131.496536
19410.682606	16914.431167	1922.350586	531.002441
19410.682606	16914.431167	1921.372070	444.339020
19410.682606	16914.431167	1920.392578	79.354050
19410.682606	16914.431167	1919.414063	158.902512
19410.682606	16914.431167	1918.434570	304.369537
19410.682606	16914.431167	1917.456055	20.262108
19410.682606	16914.431167	1916.476563	-22.116745
19410.682606	16914.431167	1915.497070	84.387482
19410.682606	16914.431167	1914.516602	-87.181343
19410.682606	16914.431167	1913.537109	-73.295494
19410.682606	16914.431167	1912.556641	-152.023071
19410.682606	16914.431167	1911.576172	10.678560
19410.682606	16914.431167	1910.595703	-9.441545
19410.682606	16914.431167	1909.615234	-131.860962
19410.682606	16914.431167	1908.633789	-210.323196
19410.682606	16914.431167	1907.653320	-252.168808
19410.682606	16914.431167	1906.671875	-293.944366
19410.682606	16914.431167	1905.690430	-226.068985
19410.682606	16914.431167	1904.708984	172.957855
19410.682606	16914.431167	1903.727539	165.363159
19410.682606	16914.431167	1902.745117	-229.151443
19410.682606	16914.431167	1901.762695	-119.755562
19410.682606	16914.431167	1900.780273	18.845934
19410.682606	16914.431167	1899.797852	-229.309692
19410.682606	16914.431167	1898.815430	145.273712
19410.682606	16914.431167	1897.832031	-71.090950
19410.682606	16914.431167	1896.849609	245.083862
19410.682606	16914.431167	1895.866211	233.062485
19410.682606	16914.431167	1894.882813	352.328735
19410.682606	16914.431167	1893.898438	114.439621
19410.682606	16914.431167	1892.915039	-133.032059
19410.682606	16914.431167	1891.930664	146.703598
19410.682606	16914.431167	1890.947266	190.830429
19410.682606	16914.431167	1889.962891	-27.218998
19410.682606	16914.431167	1888.977539	354.453400
19410.682606	16914.431167	1887.993164	29.771212
19410.682606	16914.431167	1887.007813	-39.948067
19410.682606	16914.431167	1886.023438	293.136810
19410.682606	16914.431167	1885.038086	24.591524
19410.682606	16914.431167	1884.051758	-214.695908
19410.682606	16914.431167	1883.066406	98.986450
19410.682606	16914.431167	1882.081055	242.898544
19410.682606	16914.431167	1881.094727	23.234037
19410.682606	16914.431167	1880.108398	-232.653656
19410.682606	16914.431167	1879.122070	56.755978
19410.682606	16914.431167	1878.135742	-392.752930
19410.682606	16914.431167	1877.148438	240.595352
19410.682606	16914.431167	1876.162109	43.146610
19410.682606	16914.431167	1875.174805	56.451359
19410.682606	16914.431167	1874.187500	-126.280045
19410.682606	16914.431167	1873.199219	-95.924217
19410.682606	16914.431167	1872.211914	101.414993
19410.682606	16914.431167	1871.223633	-73.850410
19410.682606	16914.431167	1870.236328	65.425529
19410.682606	16914.431167	1869.248047	-92.770897
19410.682606	16914.431167	1868.258789	-103.378418
19410.682606	16914.431167	1867.270508	-63.190811
19410.682606	16914.431167	1866.282227	-155.926529
19410.682606	16914.431167	1865.292969	94.559311
19410.682606	16914.431167	1864.303711	-68.177818
19410.682606	16914.431167	1863.314453	148.428986
19410.682606	16914.431167	1862.324219	229.731674
19410.682606	16914.431167	1861.334961	120.252426
19410.682606	16914.431167	1860.344727	-32.615910
19410.682606	16914.431167	1859.354492	220.119385
19410.682606	16914.431167	1858.364258	26.296635
19410.682606	16914.431167	1857.374023	242.763885
19410.682606	16914.431167	1856.383789	-52.285088
19410.682606	16914.431167	1855.392578	-130.119461
19410.682606	16914.431167	1854.401367	52.534595
19410.682606	16914.431167	1853.410156	83.230179
19410.682606	16914.431167	1852.418945	-93.397598
19410.682606	16914.431167	1851.426758	-7.233151
19410.682606	16914.431167	1850.435547	4.196471
19410.682606	16914.431167	1849.443359	90.317406
19410.682606	16914.431167	1848.451172	200.497147
19410.682606	16914.431167	1847.458984	257.650024
19410.682606	16914.431167	1846.466797	415.913116
19410.682606	16914.431167	1845.473633	58.911690
19410.682606	16914.431167	1844.480469	63.097195
19410.682606	16914.431167	1843.487305	-118.033981
19410.682606	16914.431167	1842.494141	179.717651
19410.682606	16914.431167	1841.500977	80.407089
19410.682606	16914.431167	1840.506836	228.868546
19410.682606	16914.431167	1839.513672	105.512535
19410.682606	16914.431167	1838.519531	-164.473251
19410.682606	16914.431167	1837.525391	219.483765
19410.682606	16914.431167	1836.530273	91.352516
19410.682606	16914.431167	1835.536133	256.406952
19410.682606	16914.431167	1834.541016	82.625595
19410.682606	16914.431167	1833.545898	158.700302
19410.682606	16914.431167	1832.550781	-24.653816
19410.682606	16914.431167	1831.555664	-13.469637
19410.682606	16914.431167	1830.560547	400.999237
19410.682606	16914.431167	1829.564453	-80.008881
19410.682606	16914.431167	1828.568359	70.279999
19410.682606	16914.431167	1827.572266	234.875977
19410.682606	16914.431167	1826.576172	80.320404
19410.682606	16914.431167	1825.580078	451.045258
19410.682606	16914.431167	1824.583008	-104.029617
19410.682606	16914.431167	1823.585938	252.131668
19410.682606	16914.431167	1822.588867	25.623234
19410.682606	16914.431167	1821.591797	376.748230
19410.682606	16914.431167	1820.594727	80.721863
19410.682606	16914.431167	1819.596680	141.731369
19410.682606	16914.431167	1818.599609	298.477753
19410.682606	16914.431167	1817.601563	62.364262
19410.682606	16914.431167	1816.603516	101.644020
19410.682606	16914.431167	1815.604492	-48.259598
19410.682606	16914.431167	1814.606445	239.841187
19410.682606	16914.431167	1813.607422	243.011398
19410.682606	16914.431167	1812.608398	171.951675
19410.682606	16914.431167	1811.609375	119.998459
19410.682606	16914.431167	1810.610352	290.429626
19410.682606	16914.431167	1809.610352	-134.675461
19410.682606	16914.431167	1808.611328	90.602234
19410.682606	16914.431167	1807.611328	203.389618
19410.682606	16914.431167	1806.611328	581.342834
19410.682606	16914.431167	1805.610352	337.843842
19410.682606	16914.431167	1804.610352	-211.426102
19410.682606	16914.431167	1803.609375	254.563782
19410.682606	16914.431167	1802.608398	163.887939
19410.682606	16914.431167	1801.607422	92.273613
19410.682606	16914.431167	1800.606445	180.553543
19410.682606	16914.431167	1799.605469	235.308502
19410.682606	16914.431167	1798.603516	108.615379
19410.682606	16914.431167	1797.601563	163.213089
19410.682606	16914.431167	1796.599609	415.694244
19410.682606	16914.431167	1795.597656	398.506866
19410.682606	16914.431167	1794.595703	107.032639
19410.682606	16914.431167	1793.592773	216.100098
19410.682606	16914.431167	1792.589844	-30.106041
19410.682606	16914.431167	1791.587891	124.052467
19410.682606	16914.431167	1790.583984	130.348068
19410.682606	16914.431167	1789.581055	208.017944
19410.682606	16914.431167	1788.577148	307.008789
19410.682606	16914.431167	1787.574219	-22.764652
19410.682606	16914.431167	1786.570313	-45.371593
19410.682606	16914.431167	1785.566406	-49.017181
19410.682606	16914.431167	1784.561523	297.097198
19410.682606	16914.431167	1783.557617	326.514038
19410.682606	16914.431167	1782.552734	324.899841
19410.682606	16914.431167	1781.547852	156.690491
19410.682606	16914.431167	1780.542969	330.898865
19410.682606	16914.431167	1779.538086	162.557312
19410.682606	16914.431167	1778.532227	279.452332
19410.682606	16914.431167	1777.527344	-224.137939
19410.682606	16914.431167	1776.521484	35.166786
19410.682606	16914.431167	1775.515625	101.824646
19410.682606	16914.431167	1774.508789	51.963608
19410.682606	16914.431167	1773.502930	37.641956
19410.682606	16914.431167	1772.496094	379.403381
19410.682606	16914.431167	1771.489258	134.534622
19410.682606	16914.431167	1770.482422	-62.873142
19410.682606	16914.431167	1769.475586	245.175598
19410.682606	16914.431167	1768.467773	170.993896
19410.682606	16914.431167	1767.460938	269.908966
19410.682606	16914.431167	1766.453125	245.348190
19410.682606	16914.431167	1765.445313	85.518967
19410.682606	16914.431167	1764.437500	-83.840889
19410.682606	16914.431167	1763.428711	277.741425
19410.682606	16914.431167	1762.420898	454.215393
19410.682606	16914.431167	1761.412109	218.208633
19410.682606	16914.431167	1760.403320	-13.080601
19410.682606	16914.431167	1759.393555	241.185425
19410.682606	16914.431167	1758.384766	234.738342
19410.682606	16914.431167	1757.375000	31.660122
19410.682606	16914.431167	1756.366211	15.565699
19410.682606	16914.431167	1755.356445	53.802299
19410.682606	16914.431167	1754.345703	25.654531
19410.682606	16914.431167	1753.335938	371.224335
19410.682606	16914.431167	1752.325195	167.752945
19410.682606	16914.431167	1751.315430	-0.278338
19410.682606	16914.431167	1750.304688	214.707245
19410.682606	16914.431167	1749.292969	107.972923
19410.682606	16914.431167	1748.282227	-53.200405
19410.682606	16914.431167	1747.270508	-23.002203
19410.682606	16914.431167	1746.259766	59.052013
19410.682606	16914.431167	1745.248047	-50.389698
19410.682606	16914.431167	1744.235352	416.400848
19410.682606	16914.431167	1743.223633	207.522156
19410.682606	16914.431167	1742.211914	-140.687225
19410.682606	16914.431167	1741.199219	-92.307098
19410.682606	16914.431167	1740.186523	116.425903
19410.682606	16914.431167	1739.173828	-21.902176
19410.682606	16914.431167	1738.160156	63.829781
19410.682606	16914.431167	1737.147461	267.354492
19410.682606	16914.431167	1736.133789	36.759705
19410.682606	16914.431167	1735.120117	126.805489
19410.682606	16914.431167	1734.106445	-198.197372
19410.682606	16914.431167	1733.091797	-32.948502
19410.682606	16914.431167	1732.078125	-124.731567
19410.682606	16914.431167	1731.063477	132.100739
19410.682606	16914.431167	1730.048828	-339.157623
19410.682606	16914.431167	1729.034180	105.804199
19410.682606	16914.431167	1728.019531	-370.202850
19410.682606	16914.431167	1727.003906	147.349579
19410.682606	16914.431167	1725.988281	203.248154
19410.682606	16914.431167	1724.972656	183.706192
19410.682606	16914.431167	1723.957031	-184.166504
19410.682606	16914.431167	1722.941406	66.683281
19410.682606	16914.431167	1721.924805	190.316711
19410.682606	16914.431167	1720.909180	-267.037567
19410.682606	16914.431167	1719.892578	-84.830025
19410.682606	16914.431167	1718.875977	-220.136429
19410.682606	16914.431167	1717.858398	250.844315
19410.682606	16914.431167	1716.841797	0.169845
19410.682606	16914.431167	1715.824219	64.287415
19410.682606	16914.431167	1714.806641	-134.800140
19410.682606	16914.431167	1713.789063	126.370728
19410.682606	16914.431167	1712.770508	100.879990
19410.682606	16914.431167	1711.752930	180.936798
19410.682606	16914.431167	1710.734375	0.331228
19410.682606	16914.431167	1709.715820	213.920242
19410.682606	16914.431167	1708.697266	-70.059082
19410.682606	16914.431167	1707.678711	-37.361862
19410.682606	16914.431167	1706.659180	-206.476929
19410.682606	16914.431167	1705.640625	-122.383354
19410.682606	16914.431167	1704.621094	226.483337
19410.682606	16914.431167	1703.600586	61.797501
19410.682606	16914.431167	1702.581055	-44.333351
19410.682606	16914.431167	1701.561523	151.726837
19410.682606	16914.431167	1700.541016	-24.856934
19410.682606	16914.431167	1699.520508	126.425758
19410.682606	16914.431167	1698.500000	197.937149
19410.682606	16914.431167	1697.478516	-11.622801
19410.682606	16914.431167	1696.458008	92.471748
19410.682606	16914.431167	1695.436523	-149.938858
19410.682606	16914.431167	1694.415039	300.248108
19410.682606	16914.431167	1693.393555	-42.886311
19410.682606	16914.431167	1692.372070	268.928467
19410.682606	16914.431167	1691.349609	363.046265
19410.682606	16914.431167	1690.327148	365.857300
19410.682606	16914.431167	1689.304688	200.270844
19410.682606	16914.431167	1688.282227	230.983292
19410.682606	16914.431167	1687.259766	359.739838
19410.682606	16914.431167	1686.236328	570.126404
19410.682606	16914.431167	1685.213867	362.245880
19410.682606	16914.431167	1684.190430	313.159576
19410.682606	16914.431167	1683.166016	490.491455
19410.682606	16914.431167	1682.142578	364.200287
19410.682606	16914.431167	1681.119141	688.344604
19410.682606	16914.431167	1680.094727	482.560760
19410.682606	16914.431167	1679.070313	486.759521
19410.682606	16914.431167	1678.045898	1013.397156
19410.682606	16914.431167	1677.020508	826.094238
19410.682606	16914.431167	1675.996094	1119.140625
19410.682606	16914.431167	1674.970703	983.031860
19410.682606	16914.431167	1673.945313	916.831665
19410.682606	16914.431167	1672.919922	743.388855
19410.682606	16914.431167	1671.893555	665.464417
19410.682606	16914.431167	1670.868164	680.690552
19410.682606	16914.431167	1669.841797	854.214844
19410.682606	16914.431167	1668.815430	713.243713
19410.682606	16914.431167	1667.789063	725.921021
19410.682606	16914.431167	1666.761719	1027.161865
19410.682606	16914.431167	1665.735352	888.380249
19410.682606	16914.431167	1664.708008	693.740845
19410.682606	16914.431167	1663.680664	980.675049
19410.682606	16914.431167	1662.653320	881.340454
19410.682606	16914.431167	1661.625000	747.097168
19410.682606	16914.431167	1660.597656	1149.939941
19410.682606	16914.431167	1659.569336	808.702820
19410.682606	16914.431167	1658.541016	876.590942
19410.682606	16914.431167	1657.512695	956.021729
19410.682606	16914.431167	1656.483398	979.607117
19410.682606	16914.431167	1655.455078	1172.705566
19410.682606	16914.431167	1654.425781	1177.566650
19410.682606	16914.431167	1653.396484	741.224060
19410.682606	16914.431167	1652.366211	1351.963379
19410.682606	16914.431167	1651.336914	1326.483154
19410.682606	16914.431167	1650.306641	1057.308228
19410.682606	16914.431167	1649.276367	1152.450928
19410.682606	16914.431167	1648.246094	1108.342285
19410.682606	16914.431167	1647.215820	1328.599121
19410.682606	16914.431167	1646.185547	1212.521484
19410.682606	16914.431167	1645.154297	1293.498413
19410.682606	16914.431167	1644.123047	1221.434937
19410.682606	16914.431167	1643.091797	1100.705444
19410.682606	16914.431167	1642.060547	1274.243164
19410.682606	16914.431167	1641.028320	1218.343262
19410.682606	16914.431167	1639.997070	1671.978271
19410.682606	16914.431167	1638.964844	1803.536011
19410.682606	16914.431167	1637.931641	1759.058838
19410.682606	16914.431167	1636.899414	1466.914185
19410.682606	16914.431167	1635.867188	1679.367798
19410.682606	16914.431167	1634.833984	1491.425659
19410.682606	16914.431167	1633.800781	1472.411133
19410.682606	16914.431167	1632.767578	1518.151611
19410.682606	16914.431167	1631.734375	1670.230835
19410.682606	16914.431167	1630.700195	1556.348022
19410.682606	16914.431167	1629.666016	1551.142822
19410.682606	16914.431167	1628.631836	1631.438965
19410.682606	16914.431167	1627.597656	1834.159790
19410.682606	16914.431167	1626.563477	1921.285522
19410.682606	16914.431167	1625.528320	1992.192993
19410.682606	16914.431167	1624.493164	1705.127441
19410.682606	16914.431167	1623.458008	1766.809082
19410.682606	16914.431167	1622.422852	2017.755005
19410.682606	16914.431167	1621.387695	1717.002075
19410.682606	16914.431167	1620.351563	1801.712280
19410.682606	16914.431167	1619.315430	1685.677612
19410.682606	16914.431167	1618.279297	1687.333374
19410.682606	16914.431167	1617.243164	1564.460205
19410.682606	16914.431167	1616.207031	1801.335083
19410.682606	16914.431167	1615.169922	1542.485352
19410.682606	16914.431167	1614.132813	1558.021484
19410.682606	16914.431167	1613.095703	1481.388306
19410.682606	16914.431167	1612.058594	1623.673218
19410.682606	16914.431167	1611.020508	1687.589355
19410.682606	16914.431167	1609.983398	1336.964966
19410.682606	16914.431167	1608.945313	1679.560669
19410.682606	16914.431167	1607.907227	1695.141113
19410.682606	16914.431167	1606.868164	2111.218262
19410.682606	16914.431167	1605.830078	1595.170776
19410.682606	16914.431167	1604.791016	1682.142700
19410.682606	16914.431167	1603.751953	2010.642212
19410.682606	16914.431167	1602.712891	1803.168945
19410.682606	16914.431167	1601.673828	1655.589722
19410.682606	16914.431167	1600.633789	1383.945923
19410.682606	16914.431167	1599.594727	1710.067139
19410.682606	16914.431167	1598.554688	2176.271240
19410.682606	16914.431167	1597.513672	1734.751343
19410.682606	16914.431167	1596.473633	1789.641357
19410.682606	16914.431167	1595.433594	1688.369629
19410.682606	16914.431167	1594.392578	1871.909424
19410.682606	16914.431167	1593.351563	1800.579468
19410.682606	16914.431167	1592.310547	1793.590210
19410.682606	16914.431167	1591.268555	1685.661133
19410.682606	16914.431167	1590.227539	1922.003906
19410.682606	16914.431167	1589.185547	1958.710571
19410.682606	16914.431167	1588.143555	2039.027222
19410.682606	16914.431167	1587.100586	1470.392334
19410.682606	16914.431167	1586.058594	1803.073975
19410.682606	16914.431167	1585.015625	1817.043213
19410.682606	16914.431167	1583.972656	1693.553833
19410.682606	16914.431167	1582.929688	1925.327881
19410.682606	16914.431167	1581.886719	1724.085571
19410.682606	16914.431167	1580.843750	1733.703247
19410.682606	16914.431167	1579.799805	1532.687988
19410.682606	16914.431167	1578.755859	1494.369385
19410.682606	16914.431167	1577.711914	1744.557495
19410.682606	16914.431167	1576.666992	1678.866943
19410.682606	16914.431167	1575.623047	1787.179565
19410.682606	16914.431167	1574.578125	1218.329224
19410.682606	16914.431167	1573.533203	1669.912720
19410.682606	16914.431167	1572.488281	1744.056274
19410.682606	16914.431167	1571.443359	1548.440918
19410.682606	16914.431167	1570.397461	1727.867310
19410.682606	16914.431167	1569.351563	1265.062744
19410.682606	16914.431167	1568.305664	1451.477783
19410.682606	16914.431167	1567.259766	1331.752197
19410.682606	16914.431167	1566.213867	1203.014282
19410.682606	16914.431167	1565.166992	1544.848145
19410.682606	16914.431167	1564.120117	1375.170288
19410.682606	16914.431167	1563.073242	1251.296387
19410.682606	16914.431167	1562.026367	1476.758789
19410.682606	16914.431167	1560.978516	1421.528687
19410.682606	16914.431167	1559.930664	1350.436157
19410.682606	16914.431167	1558.883789	1197.344360
19410.682606	16914.431167	1557.834961	1199.467651
19410.682606	16914.431167	1556.787109	1172.041138
19410.682606	16914.431167	1555.739258	1160.674683
19410.682606	16914.431167	1554.690430	1108.367432
19410.682606	16914.431167	1553.641602	1069.847290
19410.682606	16914.431167	1552.592773	951.691650
19410.682606	16914.431167	1551.542969	829.114441
19410.682606	16914.431167	1550.494141	897.991638
19410.682606	16914.431167	1549.444336	914.562866
19410.682606	16914.431167	1548.394531	1017.733398
19410.682606	16914.431167	1547.344727	515.514038
19410.682606	16914.431167	1546.293945	470.994232
19410.682606	16914.431167	1545.244141	829.314514
19410.682606	16914.431167	1544.193359	577.947937
19410.682606	16914.431167	1543.142578	690.677979
19410.682606	16914.431167	1542.090820	569.250854
19410.682606	16914.431167	1541.040039	598.026855
19410.682606	16914.431167	1539.988281	788.276733
19410.682606	16914.431167	1538.936523	585.408508
19410.682606	16914.431167	1537.884766	803.061768
19410.682606	16914.431167	1536.833008	764.046021
19410.682606	16914.431167	1535.780273	870.504517
19410.682606	16914.431167	1534.727539	595.547913
19410.682606	16914.431167	1533.674805	702.222046
19410.682606	16914.431167	1532.622070	441.250458
19410.682606	16914.431167	1531.569336	845.428894
19410.682606	16914.431167	1530.515625	686.857971
19410.682606	16914.431167	1529.461914	911.841248
19410.682606	16914.431167	1528.408203	565.305359
19410.682606	16914.431167	1527.354492	577.301819
19410.682606	16914.431167	1526.299805	675.560608
19410.682606	16914.431167	1525.246094	699.102783
19410.682606	16914.431167	1524.191406	804.336731
19410.682606	16914.431167	1523.136719	662.674622
19410.682606	16914.431167	1522.081055	276.528534
19410.682606	16914.431167	1521.026367	327.789551
19410.682606	16914.431167	1519.970703	390.472473
19410.682606	16914.431167	1518.915039	217.795624
19410.682606	16914.431167	1517.859375	405.218628
19410.682606	16914.431167	1516.802734	823.530945
19410.682606	16914.431167	1515.747070	375.198700
19410.682606	16914.431167	1514.690430	576.429199
19410.682606	16914.431167	1513.633789	458.795471
19410.682606	16914.431167	1512.577148	676.014954
19410.682606	16914.431167	1511.519531	438.836700
19410.682606	16914.431167	1510.461914	742.126343
19410.682606	16914.431167	1509.405273	586.649414
19410.682606	16914.431167	1508.346680	379.392731
19410.682606	16914.431167	1507.289063	312.413544
19410.682606	16914.431167	1506.231445	475.976624
19410.682606	16914.431167	1505.172852	420.558258
19410.682606	16914.431167	1504.114258	342.720490
19410.682606	16914.431167	1503.055664	366.623993
19410.682606	16914.431167	1501.996094	388.395691
19410.682606	16914.431167	1500.937500	256.857422
19410.682606	16914.431167	1499.877930	475.180664
19410.682606	16914.431167	1498.818359	346.204163
19410.682606	16914.431167	1497.757813	-294.481781
19410.682606	16914.431167	1496.698242	86.560791
19410.682606	16914.431167	1495.637695	309.799225
19410.682606	16914.431167	1494.577148	113.895943
19410.682606	16914.431167	1493.516602	116.495827
19410.682606	16914.431167	1492.456055	227.368729
19410.682606	16914.431167	1491.394531	158.146637
19410.682606	16914.431167	1490.333008	134.130081
19410.682606	16914.431167	1489.271484	53.977539
19410.682606	16914.431167	1488.209961	376.931488
19410.682606	16914.431167	1487.148438	148.503860
19410.682606	16914.431167	1486.085938	-25.686426
19410.682606	16914.431167	1485.023438	268.267853
19410.682606	16914.431167	1483.960938	299.087616
19410.682606	16914.431167	1482.898438	190.610962
19410.682606	16914.431167	1481.834961	-236.943176
19410.682606	16914.431167	1480.772461	-162.900696
19410.682606	16914.431167	1479.708984	34.851997
19410.682606	16914.431167	1478.644531	-250.409149
19410.682606	16914.431167	1477.581055	66.619965
19410.682606	16914.431167	1476.517578	325.250275
19410.682606	16914.431167	1475.453125	-161.466507
19410.682606	16914.431167	1474.388672	21.060934
19410.682606	16914.431167	1473.323242	185.652115
19410.682606	16914.431167	1472.258789	-102.835556
19410.682606	16914.431167	1471.193359	169.797516
19410.682606	16914.431167	1470.127930	94.810036
19410.682606	16914.431167	1469.062500	66.721550
19410.682606	16914.431167	1467.997070	9.996915
19410.682606	16914.431167	1466.930664	86.212204
19410.682606	16914.431167	1465.865234	222.098145
19410.682606	16914.431167	1464.798828	181.726929
19410.682606	16914.431167	1463.731445	114.096970
19410.682606	16914.431167	1462.665039	548.404907
19410.682606	16914.431167	1461.597656	273.325348
19410.682606	16914.431167	1460.530273	363.094116
19410.682606	16914.431167	1459.462891	506.508026
19410.682606	16914.431167	1458.395508	579.361816
19410.682606	16914.431167	1457.327148	402.672180
19410.682606	16914.431167	1456.259766	710.249268
19410.682606	16914.431167	1455.191406	569.734070
19410.682606	16914.431167	1454.123047	546.742371
19410.682606	16914.431167	1453.053711	548.045166
19410.682606	16914.431167	1451.985352	365.687988
19410.682606	16914.431167	1450.916016	416.373199
19410.682606	16914.431167	1449.846680	335.782562
19410.682606	16914.431167	1448.776367	592.791016
19410.682606	16914.431167	1447.707031	294.116760
19410.682606	16914.431167	1446.636719	431.574554
19410.682606	16914.431167	1445.566406	219.683426
19410.682606	16914.431167	1444.496094	499.402039
19410.682606	16914.431167	1443.425781	531.487915
19410.682606	16914.431167	1442.354492	198.080460
19410.682606	16914.431167	1441.283203	397.727325
19410.682606	16914.431167	1440.211914	140.113785
19410.682606	16914.431167	1439.140625	524.633972
19410.682606	16914.431167	1438.069336	264.326599
19410.682606	16914.431167	1436.997070	240.077698
19410.682606	16914.431167	1435.924805	89.881569
19410.682606	16914.431167	1434.852539	374.911621
19410.682606	16914.431167	1433.780273	164.630356
19410.682606	16914.431167	1432.707031	-9.315996
19410.682606	16914.431167	1431.633789	53.599522
19410.682606	16914.431167	1430.560547	98.770988
19410.682606	16914.431167	1429.487305	-298.915344
19410.682606	16914.431167	1428.413086	-35.838165
19410.682606	16914.431167	1427.339844	105.838646
19410.682606	16914.431167	1426.265625	-135.670975
19410.682606	16914.431167	1425.191406	-217.518661
19410.682606	16914.431167	1424.116211	-188.272064
19410.682606	16914.431167	1423.041992	12.800348
19410.682606	16914.431167	1421.966797	-141.420517
19410.682606	16914.431167	1420.891602	113.456139
19410.682606	16914.431167	1419.816406	-85.392509
19410.682606	16914.431167	1418.740234	-254.822647
19410.682606	16914.431167	1417.665039	-22.947758
19410.682606	16914.431167	1416.588867	9.954073
19410.682606	16914.431167	1415.512695	-97.021935
19410.682606	16914.431167	1414.435547	17.129801
19410.682606	16914.431167	1413.359375	-9.834113
19410.682606	16914.431167	1412.282227	-117.659599
19410.682606	16914.431167	1411.205078	-119.707031
19410.682606	16914.431167	1410.127930	-4.480987
19410.682606	16914.431167	1409.049805	89.721924
19410.682606	16914.431167	1407.972656	136.496933
19410.682606	16914.431167	1406.894531	110.173439
19410.682606	16914.431167	1405.816406	111.066231
19410.682606	16914.431167	1404.737305	-17.642389
19410.682606	16914.431167	1403.659180	220.915298
19410.682606	16914.431167	1402.580078	24.212141
19410.682606	16914.431167	1401.500977	171.701111
19410.682606	16914.431167	1400.421875	326.529877
19410.682606	16914.431167	1399.341797	421.219177
19410.682606	16914.431167	1398.262695	463.658966
19410.682606	16914.431167	1397.182617	416.793915
19410.682606	16914.431167	1396.102539	557.853699
19410.682606	16914.431167	1395.021484	247.160172
19410.682606	16914.431167	1393.941406	243.342728
19410.682606	16914.431167	1392.860352	342.295990
19410.682606	16914.431167	1391.779297	211.051941
19410.682606	16914.431167	1390.698242	338.369537
19410.682606	16914.431167	1389.616211	377.049622
19410.682606	16914.431167	1388.535156	287.419678
19410.682606	16914.431167	1387.453125	297.205475
19410.682606	16914.431167	1386.371094	607.707947
19410.682606	16914.431167	1385.288086	266.472473
19410.682606	16914.431167	1384.206055	468.136169
19410.682606	16914.431167	1383.123047	478.398315
19410.682606	16914.431167	1382.040039	2.576935
19410.682606	16914.431167	1380.957031	367.036377
19410.682606	16914.431167	1379.873047	593.170166
19410.682606	16914.431167	1378.789063	286.661285
19410.682606	16914.431167	1377.705078	194.682648
19410.682606	16914.431167	1376.621094	391.817322
19410.682606	16914.431167	1375.537109	354.154205
19410.682606	16914.431167	1374.452148	420.140045
19410.682606	16914.431167	1373.367188	331.324463
19410.682606	16914.431167	1372.282227	530.741699
19410.682606	16914.431167	1371.197266	13.789188
19410.682606	16914.431167	1370.112305	290.514832
19410.682606	16914.431167	1369.026367	365.578674
19410.682606	16914.431167	1367.940430	185.971268
19410.682606	16914.431167	1366.854492	274.633026
19410.682606	16914.431167	1365.767578	365.864868
19410.682606	16914.431167	1364.681641	183.357071
19410.682606	16914.431167	1363.594727	349.896057
19410.682606	16914.431167	1362.507813	499.477783
19410.682606	16914.431167	1361.419922	261.423004
19410.682606	16914.431167	1360.333008	335.858795
19410.682606	16914.431167	1359.245117	394.632782
19410.682606	16914.431167	1358.157227	414.650757
19410.682606	16914.431167	1357.069336	233.997604
19410.682606	16914.431167	1355.981445	231.859818
19410.682606	16914.431167	1354.892578	389.501953
19410.682606	16914.431167	1353.803711	683.755188
19410.682606	16914.431167	1352.714844	408.624390
19410.682606	16914.431167	1351.625000	55.747368
19410.682606	16914.431167	1350.536133	398.570038
19410.682606	16914.431167	1349.446289	716.835938
19410.682606	16914.431167	1348.356445	397.690338
19410.682606	16914.431167	1347.266602	449.227875
19410.682606	16914.431167	1346.175781	688.147278
19410.682606	16914.431167	1345.085938	305.338989
19410.682606	16914.431167	1343.995117	389.785614
19410.682606	16914.431167	1342.903320	503.304596
19410.682606	16914.431167	1341.812500	567.026306
19410.682606	16914.431167	1340.720703	636.003906
19410.682606	16914.431167	1339.629883	773.679993
19410.682606	16914.431167	1338.538086	805.043579
19410.682606	16914.431167	1337.445313	446.812561
19410.682606	16914.431167	1336.353516	378.497437
19410.682606	16914.431167	1335.260742	544.458679
19410.682606	16914.431167	1334.167969	587.000793
19410.682606	16914.431167	1333.075195	572.452820
19410.682606	16914.431167	1331.981445	583.535767
19410.682606	16914.431167	1330.888672	732.792603
19410.682606	16914.431167	1329.794922	718.256470
19410.682606	16914.431167	1328.701172	893.051697
19410.682606	16914.431167	1327.606445	648.325378
19410.682606	16914.431167	1326.512695	543.553772
19410.682606	16914.431167	1325.417969	492.467499
19410.682606	16914.431167	1324.323242	668.757263
19410.682606	16914.431167	1323.227539	568.951111
19410.682606	16914.431167	1322.132813	653.183044
19410.682606	16914.431167	1321.037109	382.299408
19410.682606	16914.431167	1319.941406	391.172302
19410.682606	16914.431167	1318.845703	616.404175
19410.682606	16914.431167	1317.750000	480.792694
19410.682606	16914.431167	1316.653320	427.795959
19410.682606	16914.431167	1315.556641	394.174530
19410.682606	16914.431167	1314.459961	332.394135
19410.682606	16914.431167	1313.363281	487.957581
19410.682606	16914.431167	1312.265625	359.760559
19410.682606	16914.431167	1311.167969	458.965790
19410.682606	16914.431167	1310.070313	162.179688
19410.682606	16914.431167	1308.972656	115.451904
19410.682606	16914.431167	1307.874023	163.373596
19410.682606	16914.431167	1306.776367	212.315903
19410.682606	16914.431167	1305.677734	261.255219
19410.682606	16914.431167	1304.579102	345.303284
19410.682606	16914.431167	1303.479492	162.162735
19410.682606	16914.431167	1302.380859	150.356796
19410.682606	16914.431167	1301.281250	38.580849
19410.682606	16914.431167	1300.181641	271.540314
19410.682606	16914.431167	1299.081055	203.051178
19410.682606	16914.431167	1297.981445	126.144257
19410.682606	16914.431167	1296.880859	-117.818779
19410.682606	16914.431167	1295.780273	-86.187355
19410.682606	16914.431167	1294.679688	-95.126572
19410.682606	16914.431167	1293.578125	-95.109337
19410.682606	16914.431167	1292.476563	-50.039814
19410.682606	16914.431167	1291.375000	-47.848743
19410.682606	16914.431167	1290.273438	124.757744
19410.682606	16914.431167	1289.171875	12.264931
19410.682606	16914.431167	1288.069336	-92.249161
19410.682606	16914.431167	1286.966797	-194.214203
19410.682606	16914.431167	1285.864258	30.648073
19410.682606	16914.431167	1284.761719	142.233109
19410.682606	16914.431167	1283.658203	-187.800903
19410.682606	16914.431167	1282.554688	165.555756
19410.682606	16914.431167	1281.451172	-92.445999
19410.682606	16914.431167	1280.347656	87.397919
19410.682606	16914.431167	1279.244141	247.281799
19410.682606	16914.431167	1278.139648	-43.716183
19410.682606	16914.431167	1277.035156	226.497635
19410.682606	16914.431167	1275.930664	64.107811
19410.682606	16914.431167	1274.825195	146.637878
19410.682606	16914.431167	1273.720703	122.721359
19410.682606	16914.431167	1272.615234	259.015747
19410.682606	16914.431167	1271.508789	71.746620
19410.682606	16914.431167	1270.403320	116.027977
19410.682606	16914.431167	1269.297852	-70.599045
19410.682606	16914.431167	1268.191406	-8.479969
19410.682606	16914.431167	1267.084961	167.998352
19410.682606	16914.431167	1265.977539	115.211082
19410.682606	16914.431167	1264.871094	115.903061
19410.682606	16914.431167	1263.763672	202.581467
19410.682606	16914.431167	1262.656250	149.615311
19410.682606	16914.431167	1261.548828	-19.304922
19410.682606	16914.431167	1260.440430	33.795567
19410.682606	16914.431167	1259.333008	96.358894
19410.682606	16914.431167	1258.224609	128.234070
19410.682606	16914.431167	1257.115234	77.004158
19410.682606	16914.431167	1256.006836	2.017546
19410.682606	16914.431167	1254.897461	186.420105
19410.682606	16914.431167	1253.788086	104.244987
19410.682606	16914.431167	1252.678711	162.094803
19410.682606	16914.431167	1251.569336	254.060471
19410.682606	16914.431167	1250.458984	114.610947
19410.682606	16914.431167	1249.349609	251.678726
19410.682606	16914.431167	1248.239258	316.845184
19410.682606	16914.431167	1247.127930	266.572296
19410.682606	16914.431167	1246.017578	145.798553
19410.682606	16914.431167	1244.906250	195.566177
19410.682606	16914.431167	1243.794922	243.228745
19410.682606	16914.431167	1242.683594	351.873322
19410.682606	16914.431167	1241.571289	248.800873
19410.682606	16914.431167	1240.459961	-0.264882
19410.682606	16914.431167	1239.347656	161.759247
19410.682606	16914.431167	1238.234375	195.276703
19410.682606	16914.431167	1237.122070	87.763313
19410.682606	16914.431167	1236.008789	-28.397049
19410.682606	16914.431167	1234.896484	108.466850
19410.682606	16914.431167	1233.782227	265.767029
19410.682606	16914.431167	1232.668945	195.121140
19410.682606	16914.431167	1231.555664	287.316467
19410.682606	16914.431167	1230.441406	106.366684
19410.682606	16914.431167	1229.327148	170.250687
19410.682606	16914.431167	1228.211914	-7.090122
19410.682606	16914.431167	1227.097656	187.461166
19410.682606	16914.431167	1225.982422	39.100590
19410.682606	16914.431167	1224.867188	-154.208466
19410.682606	16914.431167	1223.751953	-7.247951
19410.682606	16914.431167	1222.635742	-88.420303
19410.682606	16914.431167	1221.520508	33.772522
19410.682606	16914.431167	1220.404297	-112.272469
19410.682606	16914.431167	1219.287109	65.844353
19410.682606	16914.431167	1218.170898	-46.609249
19410.682606	16914.431167	1217.053711	-293.441498
19410.682606	16914.431167	1215.936523	-270.885986
19410.682606	16914.431167	1214.819336	-107.773483
19410.682606	16914.431167	1213.702148	136.594635
19410.682606	16914.431167	1212.583984	-7.572945
19410.682606	16914.431167	1211.465820	-204.820236
19410.682606	16914.431167	1210.347656	-28.347055
19410.682606	16914.431167	1209.229492	-82.759499
19410.682606	16914.431167	1208.110352	-81.475899
19410.682606	16914.431167	1206.992188	34.258530
19410.682606	16914.431167	1205.873047	-144.146225
19410.682606	16914.431167	1204.752930	6.016172
19410.682606	16914.431167	1203.633789	51.936310
19410.682606	16914.431167	1202.513672	-24.802197
19410.682606	16914.431167	1201.393555	-117.123840
19410.682606	16914.431167	1200.273438	-127.970566
19410.682606	16914.431167	1199.152344	-54.614471
19410.682606	16914.431167	1198.032227	-110.891907
19410.682606	16914.431167	1196.911133	-324.450043
19410.682606	16914.431167	1195.790039	-335.236633
19410.682606	16914.431167	1194.667969	-229.976944
19410.682606	16914.431167	1193.545898	-109.032684
19410.682606	16914.431167	1192.424805	-154.064194
19410.682606	16914.431167	1191.301758	-171.650970
19410.682606	16914.431167	1190.179688	-203.066025
19410.682606	16914.431167	1189.056641	-317.345673
19410.682606	16914.431167	1187.933594	-300.497864
19410.682606	16914.431167	1186.810547	-172.232025
19410.682606	16914.431167	1185.687500	-286.706757
19410.682606	16914.431167	1184.563477	-74.417259
19410.682606	16914.431167	1183.440430	-131.602997
19410.682606	16914.431167	1182.316406	-109.542992
19410.682606	16914.431167	1181.191406	-86.536591
19410.682606	16914.431167	1180.067383	-258.797607
19410.682606	16914.431167	1178.942383	-121.304504
19410.682606	16914.431167	1177.817383	-45.336205
19410.682606	16914.431167	1176.692383	-95.916527
19410.682606	16914.431167	1175.566406	-155.578018
19410.682606	16914.431167	1174.440430	-27.728394
19410.682606	16914.431167	1173.314453	1.378126
19410.682606	16914.431167	1172.188477	144.700180
19410.682606	16914.431167	1171.062500	103.022614
19410.682606	16914.431167	1169.935547	213.785309
19410.682606	16914.431167	1168.808594	248.858215
19410.682606	16914.431167	1167.681641	192.852341
19410.682606	16914.431167	1166.553711	44.070759
19410.682606	16914.431167	1165.426758	62.037300
19410.682606	16914.431167	1164.298828	65.473572
19410.682606	16914.431167	1163.170898	-9.808809
19410.682606	16914.431167	1162.041992	-106.491318
19410.682606	16914.431167	1160.914063	24.622171
19410.682606	16914.431167	1159.785156	-8.737323
19410.682606	16914.431167	1158.656250	-1.500140
19410.682606	16914.431167	1157.526367	-124.877228
19410.682606	16914.431167	1156.397461	-48.140766
19410.682606	16914.431167	1155.267578	42.291447
19410.682606	16914.431167	1154.137695	-12.065380
19410.682606	16914.431167	1153.006836	-53.896973
19410.682606	16914.431167	1151.876953	19.905777
19410.682606	16914.431167	1150.746094	3.418845
19410.682606	16914.431167	1149.615234	-42.635296
19410.682606	16914.431167	1148.484375	-47.530247
19410.682606	16914.431167	1147.352539	59.964066
19410.682606	16914.431167	1146.220703	-13.986347
19410.682606	16914.431167	1145.088867	77.796112
19410.682606	16914.431167	1143.957031	-14.018773
19410.682606	16914.431167	1142.825195	-61.001431
19410.682606	16914.431167	1141.692383	87.286980
19410.682606	16914.431167	1140.559570	126.969780
19410.682606	16914.431167	1139.426758	49.585949
19410.682606	16914.431167	1138.292969	61.810509
19410.682606	16914.431167	1137.159180	252.366592
19410.682606	16914.431167	1136.025391	449.631042
19410.682606	16914.431167	1134.891602	316.568695
19410.682606	16914.431167	1133.757813	216.993881
19410.682606	16914.431167	1132.623047	309.415405
19410.682606	16914.431167	1131.488281	404.222717
19410.682606	16914.431167	1130.353516	351.687256
19410.682606	16914.431167	1129.217773	513.565735
19410.682606	16914.431167	1128.083008	438.395355
19410.682606	16914.431167	1126.947266	475.289154
19410.682606	16914.431167	1125.811523	189.900497
19410.682606	16914.431167	1124.674805	97.446869
19410.682606	16914.431167	1123.539063	102.163216
19410.682606	16914.431167	1122.402344	146.501984
19410.682606	16914.431167	1121.265625	82.761360
19410.682606	16914.431167	1120.127930	53.988678
19410.682606	16914.431167	1118.990234	184.115051
19410.682606	16914.431167	1117.853516	188.257370
19410.682606	16914.431167	1116.714844	219.166672
19410.682606	16914.431167	1115.577148	377.351776
19410.682606	16914.431167	1114.439453	90.690010
19410.682606	16914.431167	1113.300781	347.648376
19410.682606	16914.431167	1112.162109	169.947372
19410.682606	16914.431167	1111.022461	147.598831
19410.682606	16914.431167	1109.883789	234.241409
19410.682606	16914.431167	1108.744141	36.045094
19410.682606	16914.431167	1107.604492	85.466980
19410.682606	16914.431167	1106.463867	-13.174655
19410.682606	16914.431167	1105.324219	153.937012
19410.682606	16914.431167	1104.183594	98.471565
19410.682606	16914.431167	1103.042969	207.093384
19410.682606	16914.431167	1101.902344	251.927582
19410.682606	16914.431167	1100.760742	33.401566
19410.682606	16914.431167	1099.619141	254.461105
19410.682606	16914.431167	1098.477539	-69.044037
19410.682606	16914.431167	1097.335938	125.130409
19410.682606	16914.431167	1096.193359	127.815956
19410.682606	16914.431167	1095.051758	299.287445
19410.682606	16914.431167	1093.909180	256.219482
19410.682606	16914.431167	1092.765625	327.401062
19410.682606	16914.431167	1091.623047	87.128914
19410.682606	16914.431167	1090.479492	206.944458
19410.682606	16914.431167	1089.335938	233.372116
19410.682606	16914.431167	1088.192383	101.328102
19410.682606	16914.431167	1087.047852	180.586899
19410.682606	16914.431167	1085.903320	136.282471
19410.682606	16914.431167	1084.758789	72.479477
19410.682606	16914.431167	1083.614258	289.281616
19410.682606	16914.431167	1082.469727	210.245712
19410.682606	16914.431167	1081.324219	73.849190
19410.682606	16914.431167	1080.178711	-60.000290
19410.682606	16914.431167	1079.033203	176.537323
19410.682606	16914.431167	1077.886719	141.743988
19410.682606	16914.431167	1076.740234	165.351746
19410.682606	16914.431167	1075.593750	-124.426292
19410.682606	16914.431167	1074.447266	65.982376
19410.682606	16914.431167	1073.300781	74.173668
19410.682606	16914.431167	1072.153320	148.064087
19410.682606	16914.431167	1071.005859	128.059753
19410.682606	16914.431167	1069.858398	332.338654
19410.682606	16914.431167	1068.709961	212.760529
19410.682606	16914.431167	1067.561523	76.721863
19410.682606	16914.431167	1066.413086	191.947525
19410.682606	16914.431167	1065.264648	240.640915
19410.682606	16914.431167	1064.116211	170.552261
19410.682606	16914.431167	1062.966797	82.759796
19410.682606	16914.431167	1061.817383	246.377121
19410.682606	16914.431167	1060.667969	281.730652
19410.682606	16914.431167	1059.517578	-40.638580
19410.682606	16914.431167	1058.368164	25.826797
19410.682606	16914.431167	1057.217773	34.681152
19410.682606	16914.431167	1056.067383	78.343002
19410.682606	16914.431167	1054.916016	108.132469
19410.682606	16914.431167	1053.764648	91.140030
19410.682606	16914.431167	1052.613281	156.358154
19410.682606	16914.431167	1051.461914	-24.585941
19410.682606	16914.431167	1050.310547	205.235764
19410.682606	16914.431167	1049.158203	-124.880257
19410.682606	16914.431167	1048.005859	-28.271030
19410.682606	16914.431167	1046.853516	163.317642
19410.682606	16914.431167	1045.700195	102.785599
19410.682606	16914.431167	1044.547852	133.488235
19410.682606	16914.431167	1043.394531	18.105816
19410.682606	16914.431167	1042.240234	79.753716
19410.682606	16914.431167	1041.086914	36.023914
19410.682606	16914.431167	1039.932617	26.006563
19410.682606	16914.431167	1038.778320	317.681396
19410.682606	16914.431167	1037.624023	107.675697
19410.682606	16914.431167	1036.469727	185.786591
19410.682606	16914.431167	1035.314453	357.263184
19410.682606	16914.431167	1034.159180	429.700592
19410.682606	16914.431167	1033.003906	797.487854
19410.682606	16914.431167	1031.847656	552.559387
19410.682606	16914.431167	1030.692383	643.218994
19410.682606	16914.431167	1029.536133	653.848938
19410.682606	16914.431167	1028.378906	523.998230
19410.682606	16914.431167	1027.222656	574.794983
19410.682606	16914.431167	1026.065430	530.914368
19410.682606	16914.431167	1024.908203	479.889374
19410.682606	16914.431167	1023.750977	385.374512
19410.682606	16914.431167	1022.593750	12.707980
19410.682606	16914.431167	1021.435547	122.663795
19410.682606	16914.431167	1020.277344	173.991882
19410.682606	16914.431167	1019.119141	46.389801
19410.682606	16914.431167	1017.959961	-80.749443
19410.682606	16914.431167	1016.800781	131.826172
19410.682606	16914.431167	1015.641602	-37.691696
19410.682606	16914.431167	1014.482422	255.857407
19410.682606	16914.431167	1013.323242	9.762831
19410.682606	16914.431167	1012.163086	115.919350
19410.682606	16914.431167	1011.002930	17.776407
19410.682606	16914.431167	1009.842773	253.078430
19410.682606	16914.431167	1008.681641	17.061865
19410.682606	16914.431167	1007.520508	83.420425
19410.682606	16914.431167	1006.359375	-20.271410
19410.682606	16914.431167	1005.198242	78.535454
19410.682606	16914.431167	1004.037109	67.929184
19410.682606	16914.431167	1002.875000	95.601128
19410.682606	16914.431167	1001.712891	261.981476
19410.682606	16914.431167	1000.550781	235.605652
19410.682606	16914.431167	999.387695	256.953949
19410.682606	16914.431167	998.224609	276.263336
19410.682606	16914.431167	997.061523	22.610199
19410.682606	16914.431167	995.898438	-83.153641
19410.682606	16914.431167	994.734375	9.442227
19410.682606	16914.431167	993.571289	-147.800110
19410.682606	16914.431167	992.407227	35.552040
19410.682606	16914.431167	991.242188	-91.895699
19410.682606	16914.431167	990.078125	46.506607
19410.682606	16914.431167	988.913086	-149.736282
19410.682606	16914.431167	987.748047	-37.400826
19410.682606	16914.431167	986.583008	-128.266098
19410.682606	16914.431167	985.416992	-149.246750
19410.682606	16914.431167	984.250977	-147.672852
19410.682606	16914.431167	983.084961	-181.595963
19410.682606	16914.431167	981.918945	-140.993393
19410.682606	16914.431167	980.751953	-242.053375
19410.682606	16914.431167	979.584961	-223.135193
19410.682606	16914.431167	978.417969	-59.822598
19410.682606	16914.431167	977.250977	-156.450363
19410.682606	16914.431167	976.083008	-111.919754
19410.682606	16914.431167	974.915039	-106.544006
19410.682606	16914.431167	973.747070	-107.795609
19410.682606	16914.431167	972.579102	-6.163621
19410.682606	16914.431167	971.410156	-7.785766
19410.682606	16914.431167	970.242188	-13.607771
19410.682606	16914.431167	969.072266	-119.114548
19410.682606	16914.431167	967.903320	-75.917519
19410.682606	16914.431167	966.733398	-46.130356
19410.682606	16914.431167	965.563477	-220.996780
19410.682606	16914.431167	964.393555	108.174774
19410.682606	16914.431167	963.223633	56.773136
19410.682606	16914.431167	962.052734	-83.133629
19410.682606	16914.431167	960.881836	-127.948303
19410.682606	16914.431167	959.710938	44.632950
19410.682606	16914.431167	958.540039	59.555592
19410.682606	16914.431167	957.368164	98.953957
19410.682606	16914.431167	956.196289	-83.836365
19410.682606	16914.431167	955.024414	36.820499
19410.682606	16914.431167	953.851563	-27.079885
19410.682606	16914.431167	952.679688	-105.152359
19410.682606	16914.431167	951.506836	-48.947929
19410.682606	16914.431167	950.333984	-58.917992
19410.682606	16914.431167	949.160156	-163.562241
19410.682606	16914.431167	947.986328	-139.456024
19410.682606	16914.431167	946.812500	153.605804
19410.682606	16914.431167	945.638672	-92.987976
19410.682606	16914.431167	944.464844	-44.696289
19410.682606	16914.431167	943.290039	-103.010178
19410.682606	16914.431167	942.115234	-297.583008
19410.682606	16914.431167	940.940430	-22.252645
19410.682606	16914.431167	939.764648	88.133354
19410.682606	16914.431167	938.588867	133.241974
19410.682606	16914.431167	937.413086	204.371124
19410.682606	16914.431167	936.237305	31.774759
19410.682606	16914.431167	935.060547	67.645187
19410.682606	16914.431167	933.883789	108.855560
19410.682606	16914.431167	932.707031	62.712551
19410.682606	16914.431167	931.530273	55.587280
19410.682606	16914.431167	930.352539	137.767639
19410.682606	16914.431167	929.175781	195.493332
19410.682606	16914.431167	927.998047	173.501190
19410.682606	16914.431167	926.819336	259.118286
19410.682606	16914.431167	925.641602	327.985870
19410.682606	16914.431167	924.462891	170.273178
19410.682606	16914.431167	923.284180	148.101624
19410.682606	16914.431167	922.104492	213.176865
19410.682606	16914.431167	920.924805	287.476746
19410.682606	16914.431167	919.746094	296.355255
19410.682606	16914.431167	919.551758	16.165672
19410.682606	16914.431167	918.386719	337.057526
19410.682606	16914.431167	917.220703	195.924255
19410.682606	16914.431167	916.054688	218.017273
19410.682606	16914.431167	914.887695	49.100620
19410.682606	16914.431167	913.721680	-225.450592
19410.682606	16914.431167	912.554688	158.043076
19410.682606	16914.431167	911.387695	-99.794807
19410.682606	16914.431167	910.220703	12.970269
19410.682606	16914.431167	909.052734	184.939102
19410.682606	16914.431167	907.885742	-98.765877
19410.682606	16914.431167	906.717773	167.520798
19410.682606	16914.431167	905.548828	-25.407085
19410.682606	16914.431167	904.380859	90.783035
19410.682606	16914.431167	903.211914	143.988846
19410.682606	16914.431167	902.042969	228.591934
19410.682606	16914.431167	900.874023	298.331482
19410.682606	16914.431167	899.704102	-92.445908
19410.682606	16914.431167	898.535156	14.245905
19410.682606	16914.431167	897.365234	-1.132200
19410.682606	16914.431167	896.194336	-73.820648
19410.682606	16914.431167	895.024414	16.082874
19410.682606	16914.431167	893.853516	-41.864265
19410.682606	16914.431167	892.682617	127.359360
19410.682606	16914.431167	891.511719	-19.289345
19410.682606	16914.431167	890.340820	0.251025
19410.682606	16914.431167	889.168945	88.053360
19410.682606	16914.431167	887.997070	-1.378398
19410.682606	16914.431167	886.825195	23.589405
19410.682606	16914.431167	885.653320	288.328705
19410.682606	16914.431167	884.480469	-70.458832
19410.682606	16914.431167	883.307617	-82.465454
19410.682606	16914.431167	882.134766	-41.036037
19410.682606	16914.431167	880.961914	118.308769
19410.682606	16914.431167	879.788086	100.647453
19410.682606	16914.431167	878.614258	276.417755
19410.682606	16914.431167	877.440430	41.295280
19410.682606	16914.431167	876.266602	124.852158
19410.682606	16914.431167	875.091797	31.576889
19410.682606	16914.431167	873.916992	225.495209
19410.682606	16914.431167	872.742188	119.283722
19410.682606	16914.431167	871.567383	-143.338028
19410.682606	16914.431167	870.391602	-133.586746
19410.682606	16914.431167	869.215820	21.442335
19410.682606	16914.431167	868.040039	9.015636
19410.682606	16914.431167	866.864258	-146.861160
19410.682606	16914.431167	865.687500	-69.236938
19410.682606	16914.431167	864.510742	-83.578880
19410.682606	16914.431167	863.333984	-72.226036
19410.682606	16914.431167	862.157227	52.992298
19410.682606	16914.431167	860.979492	113.837662
19410.682606	16914.431167	859.802734	31.373280
19410.682606	16914.431167	858.625000	-63.942062
19410.682606	16914.431167	857.446289	-23.409443
19410.682606	16914.431167	856.268555	-168.304321
19410.682606	16914.431167	855.089844	-48.941532
19410.682606	16914.431167	853.911133	-70.927658
19410.682606	16914.431167	852.731445	90.481041
19410.682606	16914.431167	851.552734	44.558182
19410.682606	16914.431167	850.373047	84.791389
19410.682606	16914.431167	849.193359	-182.985336
19410.682606	16914.431167	848.013672	-142.801514
19410.682606	16914.431167	846.833008	-22.047367
19410.682606	16914.431167	845.652344	23.507681
19410.682606	16914.431167	844.471680	-128.803558
19410.682606	16914.431167	843.291016	-138.261581
19410.682606	16914.431167	842.110352	-41.570686
19410.682606	16914.431167	840.928711	-87.727730
19410.682606	16914.431167	839.747070	109.487305
19410.682606	16914.431167	838.564453	6.519860
19410.682606	16914.431167	837.382813	-111.087036
19410.682606	16914.431167	836.200195	56.628967
19410.682606	16914.431167	835.017578	-274.957672
19410.682606	16914.431167	833.834961	170.517120
19410.682606	16914.431167	832.651367	-67.820732
19410.682606	16914.431167	831.467773	24.658216
19410.682606	16914.431167	830.284180	56.762371
19410.682606	16914.431167	829.100586	-29.922533
19410.682606	16914.431167	827.916992	-10.690631
19410.682606	16914.431167	826.732422	-115.668114
19410.682606	16914.431167	825.547852	124.378174
19410.682606	16914.431167	824.363281	63.131630
19410.682606	16914.431167	823.177734	-136.813324
19410.682606	16914.431167	821.992188	93.837112
19410.682606	16914.431167	820.806641	10.615982
19410.682606	16914.431167	819.621094	144.397125
19410.682606	16914.431167	818.434570	168.685913
19410.682606	16914.431167	817.249023	5.156576
19410.682606	16914.431167	816.062500	-1.610639
19410.682606	16914.431167	814.875000	197.484573
19410.682606	16914.431167	813.688477	-177.407761
19410.682606	16914.431167	812.500977	27.013111
19410.682606	16914.431167	811.313477	218.555054
19410.682606	16914.431167	810.125977	-39.725456
19410.682606	16914.431167	808.937500	206.269470
19410.682606	16914.431167	807.749023	-50.172665
19410.682606	16914.431167	806.560547	-29.991467
19410.682606	16914.431167	805.372070	-159.034729
19410.682606	16914.431167	804.182617	46.582409
19410.682606	16914.431167	802.994141	-53.425808
19410.682606	16914.431167	801.803711	42.912693
19410.682606	16914.431167	800.614258	60.999630
19410.682606	16914.431167	799.424805	-95.424706
19410.682606	16914.431167	798.234375	46.137646
19410.682606	16914.431167	797.043945	62.254845
19410.682606	16914.431167	795.852539	-90.579124
19410.682606	16914.431167	794.662109	108.850586
19410.682606	16914.431167	793.470703	168.369888
19410.682606	16914.431167	792.279297	33.611595
19410.682606	16914.431167	791.087891	24.066843
19410.682606	16914.431167	789.895508	157.805603
19410.682606	16914.431167	788.703125	262.417877
19410.682606	16914.431167	787.510742	62.270771
19410.682606	16914.431167	786.318359	193.956070
19410.682606	16914.431167	785.125000	147.892227
19410.682606	16914.431167	783.931641	90.923317
19410.682606	16914.431167	782.738281	-103.782684
19410.682606	16914.431167	781.544922	63.864029
19410.682606	16914.431167	780.350586	81.061104
19410.682606	16914.431167	779.156250	-68.396996
19410.682606	16914.431167	777.961914	-248.621582
19410.682606	16914.431167	776.767578	50.855137
19410.682606	16914.431167	775.572266	104.038277
19410.682606	16914.431167	774.376953	95.631691
19410.682606	16914.431167	773.181641	193.906906
19410.682606	16914.431167	771.986328	84.102272
19410.682606	16914.431167	770.790039	59.282330
19410.682606	16914.431167	769.593750	-68.624252
19410.682606	16914.431167	768.397461	31.213661
19410.682606	16914.431167	767.201172	-116.613014
19410.682606	16914.431167	766.003906	116.793152
19410.682606	16914.431167	764.806641	160.386429
19410.682606	16914.431167	763.609375	39.568298
19410.682606	16914.431167	762.412109	-5.414038
19410.682606	16914.431167	761.213867	27.199039
19410.682606	16914.431167	760.015625	-39.516914
19410.682606	16914.431167	758.817383	-75.579308
19410.682606	16914.431167	757.618164	21.829971
19410.682606	16914.431167	756.419922	70.447250
19410.682606	16914.431167	755.220703	-18.057245
19410.682606	16914.431167	754.021484	-95.755157
19410.682606	16914.431167	752.821289	44.646122
19410.682606	16914.431167	751.621094	204.764511
19410.682606	16914.431167	750.420898	81.879547
19410.682606	16914.431167	749.220703	213.003204
19410.682606	16914.431167	748.020508	156.711899
19410.682606	16914.431167	746.819336	76.990517
19410.682606	16914.431167	745.618164	184.488464
19410.682606	16914.431167	744.416992	99.298820
19410.682606	16914.431167	743.214844	273.241333
19410.682606	16914.431167	742.012695	56.635464
19410.682606	16914.431167	740.810547	171.058731
19410.682606	16914.431167	739.608398	506.599365
19410.682606	16914.431167	738.406250	406.818268
19410.682606	16914.431167	737.203125	485.008728
19410.682606	16914.431167	736.000000	658.379150
19410.682606	16914.431167	734.795898	607.015625
19410.682606	16914.431167	733.592773	623.897522
19410.682606	16914.431167	732.388672	592.232788
19410.682606	16914.431167	731.184570	785.017212
19410.682606	16914.431167	729.979492	643.724609
19410.682606	16914.431167	728.775391	357.045410
19410.682606	16914.431167	727.570313	345.036102
19410.682606	16914.431167	726.365234	135.613525
19410.682606	16914.431167	725.160156	84.105339
19410.682606	16914.431167	723.954102	158.129745
19410.682606	16914.431167	722.748047	244.635956
19410.682606	16914.431167	721.541992	248.596161
19410.682606	16914.431167	720.334961	-12.765956
19410.682606	16914.431167	719.128906	-55.425316
19410.682606	16914.431167	717.921875	111.525734
19410.682606	16914.431167	716.714844	-169.461441
19410.682606	16914.431167	715.506836	17.071123
19410.682606	16914.431167	714.298828	13.688143
19410.682606	16914.431167	713.090820	148.116837
19410.682606	16914.431167	711.882813	24.720186
19410.682606	16914.431167	710.674805	-121.923012
19410.682606	16914.431167	709.465820	-132.566788
19410.682606	16914.431167	708.256836	-236.250687
19410.682606	16914.431167	707.047852	-161.092133
19410.682606	16914.431167	705.837891	-10.900862
19410.682606	16914.431167	704.627930	-246.919418
19410.682606	16914.431167	703.417969	-118.280830
19410.682606	16914.431167	702.208008	-29.036060
19410.682606	16914.431167	700.998047	-64.906982
19410.682606	16914.431167	699.787109	-324.050018
19410.682606	16914.431167	698.576172	-190.257370
19410.682606	16914.431167	697.364258	-436.819244
19410.682606	16914.431167	696.153320	-8.594068
19410.682606	16914.431167	694.941406	164.234314
19410.682606	16914.431167	693.729492	-18.089012
19410.682606	16914.431167	692.516602	27.971861
19410.682606	16914.431167	691.304688	129.277481
19410.682606	16914.431167	690.091797	102.140015
19410.682606	16914.431167	688.878906	-113.972687
19410.682606	16914.431167	687.665039	87.050491
19410.682606	16914.431167	686.451172	-39.906502
19410.682606	16914.431167	685.237305	-166.828033
19410.682606	16914.431167	684.023438	-224.245346
19410.682606	16914.431167	682.809570	-112.474815
19410.682606	16914.431167	681.594727	-0.764706
19410.682606	16914.431167	680.379883	-67.122536
19410.682606	16914.431167	679.165039	105.015251
19410.682606	16914.431167	677.949219	6.613275
19410.682606	16914.431167	676.733398	-81.083946
19410.682606	16914.431167	675.517578	37.562366
19410.682606	16914.431167	674.301758	86.800377
19410.682606	16914.431167	673.084961	18.675804
19410.682606	16914.431167	671.869141	-47.649460
19410.682606	16914.431167	670.651367	88.637276
19410.682606	16914.431167	669.434570	80.949234
19410.682606	16914.431167	668.216797	57.276188
19410.682606	16914.431167	667.000000	131.289856
19410.682606	16914.431167	665.781250	-37.981201
19410.682606	16914.431167	664.563477	107.030571
19410.682606	16914.431167	663.344727	95.800362
19410.682606	16914.431167	662.125977	-75.123444
19410.682606	16914.431167	660.907227	44.980118
19410.682606	16914.431167	659.688477	-148.907272
19410.682606	16914.431167	658.468750	244.269058
19410.682606	16914.431167	657.249023	107.173729
19410.682606	16914.431167	656.029297	145.631241
19410.682606	16914.431167	654.808594	-95.923798
19410.682606	16914.431167	653.587891	293.408600
19410.682606	16914.431167	652.367188	36.007614
19410.682606	16914.431167	651.146484	30.224174
19410.682606	16914.431167	649.924805	-21.577368
19410.682606	16914.431167	648.704102	142.640854
19410.682606	16914.431167	647.482422	174.062363
19410.682606	16914.431167	646.259766	-15.707005
19410.682606	16914.431167	645.037109	152.007126
19410.682606	16914.431167	643.815430	171.090988
19410.682606	16914.431167	642.591797	167.201752
19410.682606	16914.431167	641.369141	-2.861012
19410.682606	16914.431167	640.145508	102.939980
19410.682606	16914.431167	638.921875	219.328827
19410.682606	16914.431167	637.698242	123.662323
19410.682606	16914.431167	636.474609	164.095139
19410.682606	16914.431167	635.250000	326.413818
19410.682606	16914.431167	634.025391	52.532806
19410.682606	16914.431167	632.800781	-62.303398
19410.682606	16914.431167	631.575195	32.993591
19410.682606	16914.431167	630.349609	225.348892
19410.682606	16914.431167	629.124023	4.802883
19410.682606	16914.431167	627.898438	41.932121
19410.682606	16914.431167	626.671875	-107.852615
19410.682606	16914.431167	625.445313	36.929298
19410.682606	16914.431167	624.218750	44.192284
19410.682606	16914.431167	622.992188	49.735516
19410.682606	16914.431167	621.764648	27.132019
19410.682606	16914.431167	620.537109	-28.885780
19410.682606	16914.431167	619.309570	-17.896654
19410.682606	16914.431167	618.081055	-117.802086
19410.682606	16914.431167	616.852539	-101.411774
19410.682606	16914.431167	615.624023	-97.294762
19410.682606	16914.431167	614.395508	-100.163620
19410.682606	16914.431167	613.166992	-55.468273
19410.682606	16914.431167	611.937500	-17.767250
19410.682606	16914.431167	610.708008	18.217369
19410.682606	16914.431167	609.477539	12.050165
19410.682606	16914.431167	608.248047	-99.534935
19410.682606	16914.431167	607.017578	-196.946106
19410.682606	16914.431167	605.787109	-109.739647
19410.682606	16914.431167	604.555664	-73.451424
19410.682606	16914.431167	603.325195	17.337561
19410.682606	16914.431167	602.093750	-46.380119
19410.682606	16914.431167	600.861328	-73.128578
19410.682606	16914.431167	599.629883	58.186573
19410.682606	16914.431167	598.397461	-154.461349
19410.682606	16914.431167	597.165039	138.389389
19410.682606	16914.431167	595.932617	1.395084
19410.682606	16914.431167	594.699219	-102.139008
19410.682606	16914.431167	593.465820	213.536682
19410.682606	16914.431167	592.232422	166.255127
19410.682606	16914.431167	590.999023	82.263359
19410.682606	16914.431167	589.764648	68.485893
19410.682606	16914.431167	588.530273	203.714920
19410.682606	16914.431167	587.295898	-83.179581
19410.682606	16914.431167	586.061523	-24.868702
19410.682606	16914.431167	584.826172	194.585892
19410.682606	16914.431167	583.590820	-4.346265
19410.682606	16914.431167	582.355469	-96.350029
19410.682606	16914.431167	581.119141	144.232758
19410.682606	16914.431167	579.882813	-210.001740
19410.682606	16914.431167	578.646484	-56.777557
19410.682606	16914.431167	577.410156	278.328705
19410.682606	16914.431167	576.172852	319.670593
19410.682606	16914.431167	574.935547	167.063568
19410.682606	16914.431167	573.698242	381.594971
19410.682606	16914.431167	572.460938	258.918427
19410.682606	16914.431167	571.222656	-26.065493
19410.682606	16914.431167	569.984375	277.708191
19410.682606	16914.431167	568.746094	127.468193
19410.682606	16914.431167	567.506836	216.544785
19410.682606	16914.431167	566.267578	284.729156
19410.682606	16914.431167	565.028320	546.662903
19410.682606	16914.431167	563.789063	440.472046
19410.682606	16914.431167	562.548828	514.071777
19410.682606	16914.431167	561.309570	770.827637
19410.682606	16914.431167	560.068359	605.659546
19410.682606	16914.431167	558.828125	487.709503
19410.682606	16914.431167	557.586914	364.675507
19410.682606	16914.431167	556.345703	382.912109
19410.682606	16914.431167	555.104492	357.681488
19410.682606	16914.431167	553.863281	417.886444
19410.682606	16914.431167	552.621094	615.714661
19410.682606	16914.431167	551.378906	458.413788
19410.682606	16914.431167	550.136719	532.749573
19410.682606	16914.431167	548.893555	450.534698
19410.682606	16914.431167	547.650391	599.822998
19410.682606	16914.431167	546.407227	712.604492
19410.682606	16914.431167	545.164063	521.099915
19410.682606	16914.431167	543.919922	668.791626
19410.682606	16914.431167	542.675781	819.977051
19410.682606	16914.431167	541.431641	745.254272
19410.682606	16914.431167	540.186523	879.144897
19410.682606	16914.431167	538.941406	957.467102
19410.682606	16914.431167	537.696289	806.579651
19410.682606	16914.431167	536.451172	676.666199
19410.682606	16914.431167	535.205078	692.708008
19410.682606	16914.431167	533.959961	771.288574
19410.682606	16914.431167	532.712891	782.239258
19410.682606	16914.431167	531.466797	715.174500
19410.682606	16914.431167	530.219727	878.895447
19410.682606	16914.431167	528.972656	1011.391968
19410.682606	16914.431167	527.725586	947.973022
19410.682606	16914.431167	526.478516	853.435608
19410.682606	16914.431167	525.230469	630.751709
19410.682606	16914.431167	523.982422	1044.096069
19410.682606	16914.431167	522.734375	916.837524
19410.682606	16914.431167	521.485352	860.689941
19410.682606	16914.431167	520.236328	910.229980
19410.682606	16914.431167	518.987305	978.827026
19410.682606	16914.431167	517.737305	928.009033
19410.682606	16914.431167	516.488281	1268.308716
19410.682606	16914.431167	515.238281	1143.111572
19410.682606	16914.431167	513.988281	1099.282104
19410.682606	16914.431167	512.737305	1157.523682
19410.682606	16914.431167	511.486328	1016.924255
19410.682606	16914.431167	510.235352	1407.061279
19410.682606	16914.431167	508.984375	1088.474976
19410.682606	16914.431167	507.732422	1233.085693
19410.682606	16914.431167	506.480469	1469.180786
19410.682606	16914.431167	505.228516	1494.458374
19410.682606	16914.431167	503.976563	1619.856201
19410.682606	16914.431167	502.723633	1729.645630
19410.682606	16914.431167	501.470703	1585.642578
19410.682606	16914.431167	500.217773	1647.010132
19410.682606	16914.431167	498.963867	1780.776611
19410.682606	16914.431167	497.709961	1645.360107
19410.682606	16914.431167	496.456055	1927.270752
19410.682606	16914.431167	495.202148	2015.900146
19410.682606	16914.431167	493.947266	1878.618530
19410.682606	16914.431167	492.692383	2182.501465
19410.682606	16914.431167	491.437500	2098.498047
19410.682606	16914.431167	490.181641	1993.774780
19410.682606	16914.431167	488.926758	1926.882080
19410.682606	16914.431167	487.670898	2118.199219
19410.682606	16914.431167	486.414063	2269.728516
19410.682606	16914.431167	485.158203	2462.373291
19410.682606	16914.431167	483.901367	2276.239258
19410.682606	16914.431167	482.644531	2361.864746
19410.682606	16914.431167	481.386719	2406.030518
19410.682606	16914.431167	480.128906	2499.884521
19410.682606	16914.431167	478.871094	2598.688232
19410.682606	16914.431167	477.613281	2497.873291
19410.682606	16914.431167	476.355469	2754.370850
19410.682606	16914.431167	475.096680	2838.742920
19410.682606	16914.431167	473.837891	2696.117188
19410.682606	16914.431167	472.578125	2743.968994
19410.682606	16914.431167	471.319336	2947.815918
19410.682606	16914.431167	470.059570	2845.759766
19410.682606	16914.431167	468.799805	2992.357178
19410.682606	16914.431167	467.539063	2917.266846
19410.682606	16914.431167	466.278320	2877.953369
19410.682606	16914.431167	465.017578	2930.982422
19410.682606	16914.431167	463.756836	3036.838867
19410.682606	16914.431167	462.495117	3186.906250
19410.682606	16914.431167	461.233398	3146.306641
19410.682606	16914.431167	459.971680	2911.721924
19410.682606	16914.431167	458.709961	2988.705811
19410.682606	16914.431167	457.447266	3270.834717
19410.682606	16914.431167	456.184570	3314.393066
19410.682606	16914.431167	454.921875	3117.806641
19410.682606	16914.431167	453.658203	3364.255615
19410.682606	16914.431167	452.394531	3654.652832
19410.682606	16914.431167	451.130859	3514.970459
19410.682606	16914.431167	449.867188	3479.226807
19410.682606	16914.431167	448.602539	3732.061523
19410.682606	16914.431167	447.337891	3575.577637
19410.682606	16914.431167	446.073242	3553.694092
19410.682606	16914.431167	444.807617	3367.175781
19410.682606	16914.431167	443.542969	3498.032471
19410.682606	16914.431167	442.276367	3633.364746
19410.682606	16914.431167	441.010742	3332.449951
19410.682606	16914.431167	439.744141	3623.643066
19410.682606	16914.431167	438.478516	3710.880371
19410.682606	16914.431167	437.210938	3718.875732
19410.682606	16914.431167	435.944336	3618.660889
19410.682606	16914.431167	434.676758	3473.405762
19410.682606	16914.431167	433.409180	3492.957275
19410.682606	16914.431167	432.141602	3615.781494
19410.682606	16914.431167	430.873047	3574.064209
19410.682606	16914.431167	429.604492	3693.519775
19410.682606	16914.431167	428.335938	3708.118896
19410.682606	16914.431167	427.067383	3801.952637
19410.682606	16914.431167	425.797852	3710.851074
19410.682606	16914.431167	424.528320	3484.317871
19410.682606	16914.431167	423.258789	3682.702637
19410.682606	16914.431167	421.988281	3798.302490
19410.682606	16914.431167	420.717773	3638.801514
19410.682606	16914.431167	419.447266	3772.786133
19410.682606	16914.431167	418.175781	3820.578613
19410.682606	16914.431167	416.905273	3828.167480
19410.682606	16914.431167	415.633789	3970.699463
19410.682606	16914.431167	414.362305	3897.787842
19410.682606	16914.431167	413.089844	3743.825439
19410.682606	16914.431167	411.817383	3882.783936
19410.682606	16914.431167	410.544922	3719.677246
19410.682606	16914.431167	409.272461	3798.337402
19410.682606	16914.431167	407.999023	3938.499268
19410.682606	16914.431167	406.725586	3807.260254
19410.682606	16914.431167	405.452148	3790.177246
19410.682606	16914.431167	404.177734	3703.784668
19410.682606	16914.431167	402.903320	3466.658203
19410.682606	16914.431167	401.628906	3691.379883
19410.682606	16914.431167	400.354492	3788.975098
19410.682606	16914.431167	399.079102	3932.447754
19410.682606	16914.431167	397.803711	3643.594238
19410.682606	16914.431167	396.528320	3668.572021
19410.682606	16914.431167	395.251953	3673.209961
19410.682606	16914.431167	393.976563	3613.489502
19410.682606	16914.431167	392.700195	3208.112549
19410.682606	16914.431167	391.422852	3681.872803
19410.682606	16914.431167	390.145508	3601.550537
19410.682606	16914.431167	388.869141	3434.793701
19410.682606	16914.431167	387.590820	3543.722900
19410.682606	16914.431167	386.313477	3357.929932
19410.682606	16914.431167	385.035156	3391.827881
19410.682606	16914.431167	383.756836	3506.558105
19410.682606	16914.431167	382.478516	3316.429199
19410.682606	16914.431167	381.199219	3592.564209
19410.682606	16914.431167	379.919922	3374.471436
19410.682606	16914.431167	378.640625	3188.045410
19410.682606	16914.431167	377.360352	3249.450684
19410.682606	16914.431167	376.080078	3267.952148
19410.682606	16914.431167	374.799805	2947.953369
19410.682606	16914.431167	373.519531	2966.766113
19410.682606	16914.431167	372.238281	2981.334961
19410.682606	16914.431167	370.957031	2914.026855
19410.682606	16914.431167	369.675781	2866.091309
19410.682606	16914.431167	368.394531	2874.579102
19410.682606	16914.431167	367.112305	2826.308350
19410.682606	16914.431167	365.830078	2652.187500
19410.682606	16914.431167	364.546875	2704.550049
19410.682606	16914.431167	363.264648	2856.909180
19410.682606	16914.431167	361.981445	2675.859619
19410.682606	16914.431167	360.698242	2630.054443
19410.682606	16914.431167	359.414063	2582.805908
19410.682606	16914.431167	358.129883	2269.708252
19410.682606	16914.431167	356.845703	2628.784668
19410.682606	16914.431167	355.561523	2422.158447
19410.682606	16914.431167	354.276367	2356.959717
19410.682606	16914.431167	352.991211	2251.375488
19410.682606	16914.431167	351.706055	2266.877441
19410.682606	16914.431167	350.420898	2299.032471
19410.682606	16914.431167	349.134766	2147.537109
19410.682606	16914.431167	347.848633	2168.976074
19410.682606	16914.431167	346.561523	2139.489502
19410.682606	16914.431167	345.275391	1909.686768
19410.682606	16914.431167	343.988281	1754.954224
19410.682606	16914.431167	342.700195	1861.621216
19410.682606	16914.431167	341.413086	1724.155151
19410.682606	16914.431167	340.125000	1617.772949
19410.682606	16914.431167	338.836914	1567.674316
19410.682606	16914.431167	337.548828	1417.653809
19410.682606	16914.431167	336.259766	1486.386719
19410.682606	16914.431167	334.970703	1374.494263
19410.682606	16914.431167	333.681641	1316.834595
19410.682606	16914.431167	332.391602	1110.234985
19410.682606	16914.431167	331.101563	1033.153442
19410.682606	16914.431167	329.811523	1155.815430
19410.682606	16914.431167	328.521484	893.148621
19410.682606	16914.431167	327.230469	833.236755
19410.682606	16914.431167	325.939453	567.289307
19410.682606	16914.431167	324.648438	438.667633
19410.682606	16914.431167	323.356445	597.709961
19410.682606	16914.431167	322.064453	522.014099
19410.682606	16914.431167	320.772461	606.611572
19410.682606	16914.431167	319.480469	590.274902
19410.682606	16914.431167	318.187500	648.440063
19410.682606	16914.431167	316.894531	155.614197
19410.682606	16914.431167	315.601563	21.708458
19410.682606	16914.431167	314.307617	144.208359
19410.682606	16914.431167	313.013672	113.533882
19410.682606	16914.431167	311.719727	-132.145966
19410.682606	16914.431167	310.425781	-198.513092
19410.682606	16914.431167	309.130859	70.997696
19410.682606	16914.431167	307.835938	-116.962341
19410.682606	16914.431167	306.541016	-57.635883
19410.682606	16914.431167	305.245117	-143.796936
19410.682606	16914.431167	303.949219	-58.159252
19410.682606	16914.431167	302.653320	340.873962
19410.682606	16914.431167	301.356445	-26.549622
19410.682606	16914.431167	300.060547	326.429291
19410.682606	16914.431167	298.763672	236.535538
