#X		#Y		#Wave		#Intensity
19338.379415	16900.230833	2000.043945	-33.156887
19338.379415	16900.230833	1999.080078	-97.128754
19338.379415	16900.230833	1998.116211	194.630096
19338.379415	16900.230833	1997.151367	-56.825665
19338.379415	16900.230833	1996.186523	-283.803436
19338.379415	16900.230833	1995.222656	-194.005630
19338.379415	16900.230833	1994.256836	271.882904
19338.379415	16900.230833	1993.291992	14.135742
19338.379415	16900.230833	1992.327148	-142.356216
19338.379415	16900.230833	1991.361328	-88.711586
19338.379415	16900.230833	1990.395508	-203.718903
19338.379415	16900.230833	1989.429688	-34.442997
19338.379415	16900.230833	1988.463867	-132.739868
19338.379415	16900.230833	1987.497070	149.633209
19338.379415	16900.230833	1986.531250	134.819046
19338.379415	16900.230833	1985.564453	-154.731995
19338.379415	16900.230833	1984.597656	-184.879791
19338.379415	16900.230833	1983.630859	-405.612030
19338.379415	16900.230833	1982.664063	-3.766205
19338.379415	16900.230833	1981.696289	207.428986
19338.379415	16900.230833	1980.728516	119.381775
19338.379415	16900.230833	1979.761719	238.589096
19338.379415	16900.230833	1978.792969	88.364403
19338.379415	16900.230833	1977.825195	226.831161
19338.379415	16900.230833	1976.857422	-2.785512
19338.379415	16900.230833	1975.888672	386.963043
19338.379415	16900.230833	1974.919922	250.759079
19338.379415	16900.230833	1973.951172	87.267601
19338.379415	16900.230833	1972.982422	264.046112
19338.379415	16900.230833	1972.013672	341.923431
19338.379415	16900.230833	1971.043945	333.295746
19338.379415	16900.230833	1970.075195	-134.059662
19338.379415	16900.230833	1969.105469	93.687698
19338.379415	16900.230833	1968.135742	94.460663
19338.379415	16900.230833	1967.165039	97.548752
19338.379415	16900.230833	1966.195313	130.038666
19338.379415	16900.230833	1965.224609	191.932877
19338.379415	16900.230833	1964.253906	238.888718
19338.379415	16900.230833	1963.283203	307.851013
19338.379415	16900.230833	1962.312500	413.580811
19338.379415	16900.230833	1961.341797	152.428940
19338.379415	16900.230833	1960.370117	154.558060
19338.379415	16900.230833	1959.399414	127.042206
19338.379415	16900.230833	1958.427734	-11.261444
19338.379415	16900.230833	1957.455078	248.799820
19338.379415	16900.230833	1956.483398	311.946838
19338.379415	16900.230833	1955.511719	107.001656
19338.379415	16900.230833	1954.539063	401.016235
19338.379415	16900.230833	1953.566406	80.448776
19338.379415	16900.230833	1952.593750	-50.890049
19338.379415	16900.230833	1951.621094	299.234161
19338.379415	16900.230833	1950.647461	197.222198
19338.379415	16900.230833	1949.674805	141.826675
19338.379415	16900.230833	1948.701172	-166.504471
19338.379415	16900.230833	1947.727539	156.093079
19338.379415	16900.230833	1946.753906	223.255508
19338.379415	16900.230833	1945.780273	69.484192
19338.379415	16900.230833	1944.805664	62.921112
19338.379415	16900.230833	1943.831055	61.211712
19338.379415	16900.230833	1942.856445	574.478149
19338.379415	16900.230833	1941.881836	79.711571
19338.379415	16900.230833	1940.907227	99.918747
19338.379415	16900.230833	1939.932617	321.067230
19338.379415	16900.230833	1938.957031	-114.684265
19338.379415	16900.230833	1937.981445	307.266510
19338.379415	16900.230833	1937.005859	163.127060
19338.379415	16900.230833	1936.030273	-76.514305
19338.379415	16900.230833	1935.054688	320.604462
19338.379415	16900.230833	1934.078125	235.215744
19338.379415	16900.230833	1933.101563	235.511322
19338.379415	16900.230833	1932.125000	152.565506
19338.379415	16900.230833	1931.148438	-206.887329
19338.379415	16900.230833	1930.171875	131.049225
19338.379415	16900.230833	1929.194336	-113.334404
19338.379415	16900.230833	1928.217773	-51.939983
19338.379415	16900.230833	1927.240234	-151.963974
19338.379415	16900.230833	1926.262695	-85.720818
19338.379415	16900.230833	1925.284180	-320.162598
19338.379415	16900.230833	1924.306641	19.771618
19338.379415	16900.230833	1923.328125	552.599792
19338.379415	16900.230833	1922.350586	78.730484
19338.379415	16900.230833	1921.372070	254.732224
19338.379415	16900.230833	1920.392578	-55.296188
19338.379415	16900.230833	1919.414063	232.963745
19338.379415	16900.230833	1918.434570	-416.269226
19338.379415	16900.230833	1917.456055	-196.395477
19338.379415	16900.230833	1916.476563	-252.346786
19338.379415	16900.230833	1915.497070	-86.260490
19338.379415	16900.230833	1914.516602	43.176170
19338.379415	16900.230833	1913.537109	-127.413963
19338.379415	16900.230833	1912.556641	-100.429726
19338.379415	16900.230833	1911.576172	-297.743042
19338.379415	16900.230833	1910.595703	-356.044800
19338.379415	16900.230833	1909.615234	-43.896988
19338.379415	16900.230833	1908.633789	-111.963768
19338.379415	16900.230833	1907.653320	-97.179283
19338.379415	16900.230833	1906.671875	-184.688766
19338.379415	16900.230833	1905.690430	93.114052
19338.379415	16900.230833	1904.708984	-21.172956
19338.379415	16900.230833	1903.727539	-232.785950
19338.379415	16900.230833	1902.745117	22.979805
19338.379415	16900.230833	1901.762695	49.919796
19338.379415	16900.230833	1900.780273	-127.512817
19338.379415	16900.230833	1899.797852	-0.816082
19338.379415	16900.230833	1898.815430	-209.779114
19338.379415	16900.230833	1897.832031	-83.103661
19338.379415	16900.230833	1896.849609	87.283363
19338.379415	16900.230833	1895.866211	-131.287125
19338.379415	16900.230833	1894.882813	-252.566833
19338.379415	16900.230833	1893.898438	82.996269
19338.379415	16900.230833	1892.915039	-103.862831
19338.379415	16900.230833	1891.930664	76.106583
19338.379415	16900.230833	1890.947266	-251.520737
19338.379415	16900.230833	1889.962891	61.949230
19338.379415	16900.230833	1888.977539	-22.798405
19338.379415	16900.230833	1887.993164	55.094193
19338.379415	16900.230833	1887.007813	-146.093109
19338.379415	16900.230833	1886.023438	140.434952
19338.379415	16900.230833	1885.038086	60.589046
19338.379415	16900.230833	1884.051758	-91.981041
19338.379415	16900.230833	1883.066406	-288.146149
19338.379415	16900.230833	1882.081055	-215.143677
19338.379415	16900.230833	1881.094727	61.431465
19338.379415	16900.230833	1880.108398	148.875900
19338.379415	16900.230833	1879.122070	270.204529
19338.379415	16900.230833	1878.135742	6.309141
19338.379415	16900.230833	1877.148438	-129.123993
19338.379415	16900.230833	1876.162109	207.688446
19338.379415	16900.230833	1875.174805	154.570862
19338.379415	16900.230833	1874.187500	24.003340
19338.379415	16900.230833	1873.199219	9.648552
19338.379415	16900.230833	1872.211914	-178.936752
19338.379415	16900.230833	1871.223633	-137.627548
19338.379415	16900.230833	1870.236328	92.320404
19338.379415	16900.230833	1869.248047	-144.575378
19338.379415	16900.230833	1868.258789	-173.452621
19338.379415	16900.230833	1867.270508	-219.260406
19338.379415	16900.230833	1866.282227	-236.064758
19338.379415	16900.230833	1865.292969	10.531138
19338.379415	16900.230833	1864.303711	-25.670439
19338.379415	16900.230833	1863.314453	78.229851
19338.379415	16900.230833	1862.324219	104.788872
19338.379415	16900.230833	1861.334961	-105.334923
19338.379415	16900.230833	1860.344727	264.033722
19338.379415	16900.230833	1859.354492	237.367081
19338.379415	16900.230833	1858.364258	193.792923
19338.379415	16900.230833	1857.374023	297.398010
19338.379415	16900.230833	1856.383789	-100.861740
19338.379415	16900.230833	1855.392578	123.306595
19338.379415	16900.230833	1854.401367	77.265953
19338.379415	16900.230833	1853.410156	154.177277
19338.379415	16900.230833	1852.418945	141.834335
19338.379415	16900.230833	1851.426758	81.260353
19338.379415	16900.230833	1850.435547	78.504921
19338.379415	16900.230833	1849.443359	307.014069
19338.379415	16900.230833	1848.451172	219.838394
19338.379415	16900.230833	1847.458984	185.640747
19338.379415	16900.230833	1846.466797	-125.498032
19338.379415	16900.230833	1845.473633	162.911850
19338.379415	16900.230833	1844.480469	8.274593
19338.379415	16900.230833	1843.487305	48.585094
19338.379415	16900.230833	1842.494141	45.525742
19338.379415	16900.230833	1841.500977	-227.016006
19338.379415	16900.230833	1840.506836	332.713104
19338.379415	16900.230833	1839.513672	108.220459
19338.379415	16900.230833	1838.519531	49.666084
19338.379415	16900.230833	1837.525391	106.468132
19338.379415	16900.230833	1836.530273	-122.809799
19338.379415	16900.230833	1835.536133	263.105713
19338.379415	16900.230833	1834.541016	-33.492893
19338.379415	16900.230833	1833.545898	61.504131
19338.379415	16900.230833	1832.550781	497.435425
19338.379415	16900.230833	1831.555664	474.522491
19338.379415	16900.230833	1830.560547	405.945709
19338.379415	16900.230833	1829.564453	32.502750
19338.379415	16900.230833	1828.568359	-7.288160
19338.379415	16900.230833	1827.572266	68.042519
19338.379415	16900.230833	1826.576172	8.940867
19338.379415	16900.230833	1825.580078	-16.625519
19338.379415	16900.230833	1824.583008	470.925812
19338.379415	16900.230833	1823.585938	-48.745880
19338.379415	16900.230833	1822.588867	-117.635918
19338.379415	16900.230833	1821.591797	89.043640
19338.379415	16900.230833	1820.594727	192.535797
19338.379415	16900.230833	1819.596680	-144.897614
19338.379415	16900.230833	1818.599609	265.052246
19338.379415	16900.230833	1817.601563	54.509724
19338.379415	16900.230833	1816.603516	234.255692
19338.379415	16900.230833	1815.604492	435.403290
19338.379415	16900.230833	1814.606445	368.324432
19338.379415	16900.230833	1813.607422	495.029694
19338.379415	16900.230833	1812.608398	298.606873
19338.379415	16900.230833	1811.609375	360.525635
19338.379415	16900.230833	1810.610352	175.995865
19338.379415	16900.230833	1809.610352	149.272903
19338.379415	16900.230833	1808.611328	34.016788
19338.379415	16900.230833	1807.611328	129.065308
19338.379415	16900.230833	1806.611328	47.141579
19338.379415	16900.230833	1805.610352	134.809250
19338.379415	16900.230833	1804.610352	4.957570
19338.379415	16900.230833	1803.609375	137.800674
19338.379415	16900.230833	1802.608398	208.413620
19338.379415	16900.230833	1801.607422	90.287689
19338.379415	16900.230833	1800.606445	129.664154
19338.379415	16900.230833	1799.605469	149.837036
19338.379415	16900.230833	1798.603516	-83.034851
19338.379415	16900.230833	1797.601563	-280.127869
19338.379415	16900.230833	1796.599609	21.295420
19338.379415	16900.230833	1795.597656	155.562286
19338.379415	16900.230833	1794.595703	253.912155
19338.379415	16900.230833	1793.592773	-255.793442
19338.379415	16900.230833	1792.589844	130.806793
19338.379415	16900.230833	1791.587891	40.541328
19338.379415	16900.230833	1790.583984	0.240007
19338.379415	16900.230833	1789.581055	455.346863
19338.379415	16900.230833	1788.577148	81.333275
19338.379415	16900.230833	1787.574219	-206.917908
19338.379415	16900.230833	1786.570313	85.757675
19338.379415	16900.230833	1785.566406	-154.988846
19338.379415	16900.230833	1784.561523	154.011917
19338.379415	16900.230833	1783.557617	122.522644
19338.379415	16900.230833	1782.552734	276.499878
19338.379415	16900.230833	1781.547852	75.899963
19338.379415	16900.230833	1780.542969	229.608994
19338.379415	16900.230833	1779.538086	24.118597
19338.379415	16900.230833	1778.532227	217.966797
19338.379415	16900.230833	1777.527344	-142.154663
19338.379415	16900.230833	1776.521484	-233.731766
19338.379415	16900.230833	1775.515625	251.952301
19338.379415	16900.230833	1774.508789	27.083633
19338.379415	16900.230833	1773.502930	308.058044
19338.379415	16900.230833	1772.496094	372.726624
19338.379415	16900.230833	1771.489258	496.609436
19338.379415	16900.230833	1770.482422	-115.495071
19338.379415	16900.230833	1769.475586	-44.009197
19338.379415	16900.230833	1768.467773	352.391296
19338.379415	16900.230833	1767.460938	181.556793
19338.379415	16900.230833	1766.453125	-88.949905
19338.379415	16900.230833	1765.445313	17.575596
19338.379415	16900.230833	1764.437500	112.088089
19338.379415	16900.230833	1763.428711	38.137917
19338.379415	16900.230833	1762.420898	37.572735
19338.379415	16900.230833	1761.412109	-150.311279
19338.379415	16900.230833	1760.403320	2.909676
19338.379415	16900.230833	1759.393555	376.234802
19338.379415	16900.230833	1758.384766	256.711914
19338.379415	16900.230833	1757.375000	144.214523
19338.379415	16900.230833	1756.366211	-81.986366
19338.379415	16900.230833	1755.356445	-123.611435
19338.379415	16900.230833	1754.345703	-113.286110
19338.379415	16900.230833	1753.335938	116.954697
19338.379415	16900.230833	1752.325195	292.575256
19338.379415	16900.230833	1751.315430	134.539185
19338.379415	16900.230833	1750.304688	-203.273651
19338.379415	16900.230833	1749.292969	262.728241
19338.379415	16900.230833	1748.282227	206.058029
19338.379415	16900.230833	1747.270508	-207.569092
19338.379415	16900.230833	1746.259766	56.971901
19338.379415	16900.230833	1745.248047	-262.217499
19338.379415	16900.230833	1744.235352	-31.088711
19338.379415	16900.230833	1743.223633	228.173508
19338.379415	16900.230833	1742.211914	-237.612595
19338.379415	16900.230833	1741.199219	-132.094040
19338.379415	16900.230833	1740.186523	-258.027954
19338.379415	16900.230833	1739.173828	33.624947
19338.379415	16900.230833	1738.160156	-170.393951
19338.379415	16900.230833	1737.147461	120.890213
19338.379415	16900.230833	1736.133789	-290.838898
19338.379415	16900.230833	1735.120117	346.711060
19338.379415	16900.230833	1734.106445	-133.508453
19338.379415	16900.230833	1733.091797	131.124405
19338.379415	16900.230833	1732.078125	218.806381
19338.379415	16900.230833	1731.063477	388.788513
19338.379415	16900.230833	1730.048828	5.023902
19338.379415	16900.230833	1729.034180	203.007156
19338.379415	16900.230833	1728.019531	-13.630452
19338.379415	16900.230833	1727.003906	426.525299
19338.379415	16900.230833	1725.988281	-72.771103
19338.379415	16900.230833	1724.972656	122.242531
19338.379415	16900.230833	1723.957031	288.832367
19338.379415	16900.230833	1722.941406	144.719604
19338.379415	16900.230833	1721.924805	52.278992
19338.379415	16900.230833	1720.909180	237.252899
19338.379415	16900.230833	1719.892578	5.886226
19338.379415	16900.230833	1718.875977	322.194092
19338.379415	16900.230833	1717.858398	-165.507690
19338.379415	16900.230833	1716.841797	-79.788368
19338.379415	16900.230833	1715.824219	120.891144
19338.379415	16900.230833	1714.806641	16.032787
19338.379415	16900.230833	1713.789063	-107.684998
19338.379415	16900.230833	1712.770508	-536.708557
19338.379415	16900.230833	1711.752930	177.563934
19338.379415	16900.230833	1710.734375	-265.651642
19338.379415	16900.230833	1709.715820	-93.997269
19338.379415	16900.230833	1708.697266	-131.321762
19338.379415	16900.230833	1707.678711	-81.950493
19338.379415	16900.230833	1706.659180	159.595520
19338.379415	16900.230833	1705.640625	11.718200
19338.379415	16900.230833	1704.621094	-162.006302
19338.379415	16900.230833	1703.600586	191.600372
19338.379415	16900.230833	1702.581055	-134.623703
19338.379415	16900.230833	1701.561523	-346.018005
19338.379415	16900.230833	1700.541016	-236.512253
19338.379415	16900.230833	1699.520508	130.481216
19338.379415	16900.230833	1698.500000	370.783691
19338.379415	16900.230833	1697.478516	184.787521
19338.379415	16900.230833	1696.458008	-10.587930
19338.379415	16900.230833	1695.436523	63.138275
19338.379415	16900.230833	1694.415039	368.384399
19338.379415	16900.230833	1693.393555	303.794067
19338.379415	16900.230833	1692.372070	14.594941
19338.379415	16900.230833	1691.349609	499.446503
19338.379415	16900.230833	1690.327148	448.605377
19338.379415	16900.230833	1689.304688	594.051147
19338.379415	16900.230833	1688.282227	124.679466
19338.379415	16900.230833	1687.259766	52.641918
19338.379415	16900.230833	1686.236328	316.951202
19338.379415	16900.230833	1685.213867	447.942749
19338.379415	16900.230833	1684.190430	522.738403
19338.379415	16900.230833	1683.166016	268.188843
19338.379415	16900.230833	1682.142578	464.213867
19338.379415	16900.230833	1681.119141	375.333984
19338.379415	16900.230833	1680.094727	505.749054
19338.379415	16900.230833	1679.070313	412.056519
19338.379415	16900.230833	1678.045898	616.902161
19338.379415	16900.230833	1677.020508	607.016968
19338.379415	16900.230833	1675.996094	837.241638
19338.379415	16900.230833	1674.970703	824.835632
19338.379415	16900.230833	1673.945313	388.142853
19338.379415	16900.230833	1672.919922	627.365845
19338.379415	16900.230833	1671.893555	833.793945
19338.379415	16900.230833	1670.868164	553.217773
19338.379415	16900.230833	1669.841797	680.255493
19338.379415	16900.230833	1668.815430	904.980042
19338.379415	16900.230833	1667.789063	775.670166
19338.379415	16900.230833	1666.761719	197.083633
19338.379415	16900.230833	1665.735352	658.959045
19338.379415	16900.230833	1664.708008	934.437561
19338.379415	16900.230833	1663.680664	737.496643
19338.379415	16900.230833	1662.653320	531.268616
19338.379415	16900.230833	1661.625000	573.876404
19338.379415	16900.230833	1660.597656	651.301270
19338.379415	16900.230833	1659.569336	923.892883
19338.379415	16900.230833	1658.541016	1080.119385
19338.379415	16900.230833	1657.512695	776.148193
19338.379415	16900.230833	1656.483398	853.238831
19338.379415	16900.230833	1655.455078	879.165955
19338.379415	16900.230833	1654.425781	963.079773
19338.379415	16900.230833	1653.396484	1218.733643
19338.379415	16900.230833	1652.366211	872.984680
19338.379415	16900.230833	1651.336914	1007.781677
19338.379415	16900.230833	1650.306641	968.432739
19338.379415	16900.230833	1649.276367	1272.431763
19338.379415	16900.230833	1648.246094	1177.299805
19338.379415	16900.230833	1647.215820	1237.554321
19338.379415	16900.230833	1646.185547	1198.046143
19338.379415	16900.230833	1645.154297	1394.972412
19338.379415	16900.230833	1644.123047	1260.340454
19338.379415	16900.230833	1643.091797	1160.492065
19338.379415	16900.230833	1642.060547	1551.846558
19338.379415	16900.230833	1641.028320	1495.923218
19338.379415	16900.230833	1639.997070	1611.403564
19338.379415	16900.230833	1638.964844	1729.113281
19338.379415	16900.230833	1637.931641	1950.924805
19338.379415	16900.230833	1636.899414	1459.723511
19338.379415	16900.230833	1635.867188	2169.782227
19338.379415	16900.230833	1634.833984	1685.619629
19338.379415	16900.230833	1633.800781	1523.185181
19338.379415	16900.230833	1632.767578	1534.269775
19338.379415	16900.230833	1631.734375	1721.085938
19338.379415	16900.230833	1630.700195	1692.789307
19338.379415	16900.230833	1629.666016	1810.122314
19338.379415	16900.230833	1628.631836	1631.582642
19338.379415	16900.230833	1627.597656	1570.953369
19338.379415	16900.230833	1626.563477	2025.521362
19338.379415	16900.230833	1625.528320	2001.778198
19338.379415	16900.230833	1624.493164	2047.325684
19338.379415	16900.230833	1623.458008	1875.821777
19338.379415	16900.230833	1622.422852	2179.924561
19338.379415	16900.230833	1621.387695	2290.045654
19338.379415	16900.230833	1620.351563	2107.067871
19338.379415	16900.230833	1619.315430	1845.729248
19338.379415	16900.230833	1618.279297	2191.141113
19338.379415	16900.230833	1617.243164	2213.570557
19338.379415	16900.230833	1616.207031	2284.426025
19338.379415	16900.230833	1615.169922	2143.171631
19338.379415	16900.230833	1614.132813	2068.834961
19338.379415	16900.230833	1613.095703	2079.804443
19338.379415	16900.230833	1612.058594	2180.648438
19338.379415	16900.230833	1611.020508	2085.667236
19338.379415	16900.230833	1609.983398	1910.159790
19338.379415	16900.230833	1608.945313	2190.639404
19338.379415	16900.230833	1607.907227	2351.332520
19338.379415	16900.230833	1606.868164	2194.348633
19338.379415	16900.230833	1605.830078	2000.653931
19338.379415	16900.230833	1604.791016	1972.711670
19338.379415	16900.230833	1603.751953	1868.904053
19338.379415	16900.230833	1602.712891	1776.678467
19338.379415	16900.230833	1601.673828	2022.544312
19338.379415	16900.230833	1600.633789	1895.908081
19338.379415	16900.230833	1599.594727	2206.099121
19338.379415	16900.230833	1598.554688	2045.096313
19338.379415	16900.230833	1597.513672	1914.057983
19338.379415	16900.230833	1596.473633	2061.098145
19338.379415	16900.230833	1595.433594	1808.494507
19338.379415	16900.230833	1594.392578	2022.177124
19338.379415	16900.230833	1593.351563	1657.281982
19338.379415	16900.230833	1592.310547	1712.639038
19338.379415	16900.230833	1591.268555	1910.311401
19338.379415	16900.230833	1590.227539	1543.529663
19338.379415	16900.230833	1589.185547	1617.399048
19338.379415	16900.230833	1588.143555	1805.984619
19338.379415	16900.230833	1587.100586	1925.756226
19338.379415	16900.230833	1586.058594	1726.873657
19338.379415	16900.230833	1585.015625	1667.953979
19338.379415	16900.230833	1583.972656	1842.890747
19338.379415	16900.230833	1582.929688	1738.290894
19338.379415	16900.230833	1581.886719	2080.531250
19338.379415	16900.230833	1580.843750	2049.367188
19338.379415	16900.230833	1579.799805	1972.484131
19338.379415	16900.230833	1578.755859	1934.634155
19338.379415	16900.230833	1577.711914	1670.256226
19338.379415	16900.230833	1576.666992	2072.055176
19338.379415	16900.230833	1575.623047	2148.869141
19338.379415	16900.230833	1574.578125	2207.426025
19338.379415	16900.230833	1573.533203	2270.622070
19338.379415	16900.230833	1572.488281	2123.494385
19338.379415	16900.230833	1571.443359	1686.138184
19338.379415	16900.230833	1570.397461	2245.723633
19338.379415	16900.230833	1569.351563	2057.814697
19338.379415	16900.230833	1568.305664	1936.346313
19338.379415	16900.230833	1567.259766	1808.171997
19338.379415	16900.230833	1566.213867	1677.863525
19338.379415	16900.230833	1565.166992	1981.611206
19338.379415	16900.230833	1564.120117	1748.767212
19338.379415	16900.230833	1563.073242	1760.387939
19338.379415	16900.230833	1562.026367	1477.682007
19338.379415	16900.230833	1560.978516	1507.808716
19338.379415	16900.230833	1559.930664	1994.338745
19338.379415	16900.230833	1558.883789	1757.705566
19338.379415	16900.230833	1557.834961	1512.142334
19338.379415	16900.230833	1556.787109	1538.133911
19338.379415	16900.230833	1555.739258	1452.531250
19338.379415	16900.230833	1554.690430	1171.056519
19338.379415	16900.230833	1553.641602	1352.408813
19338.379415	16900.230833	1552.592773	1449.511353
19338.379415	16900.230833	1551.542969	1382.684692
19338.379415	16900.230833	1550.494141	1334.237915
19338.379415	16900.230833	1549.444336	1247.220581
19338.379415	16900.230833	1548.394531	1035.155151
19338.379415	16900.230833	1547.344727	1028.156372
19338.379415	16900.230833	1546.293945	770.955383
19338.379415	16900.230833	1545.244141	809.781860
19338.379415	16900.230833	1544.193359	1235.428833
19338.379415	16900.230833	1543.142578	999.214905
19338.379415	16900.230833	1542.090820	1063.379517
19338.379415	16900.230833	1541.040039	1657.373901
19338.379415	16900.230833	1539.988281	737.460876
19338.379415	16900.230833	1538.936523	913.419373
19338.379415	16900.230833	1537.884766	887.231201
19338.379415	16900.230833	1536.833008	1594.940796
19338.379415	16900.230833	1535.780273	1530.307861
19338.379415	16900.230833	1534.727539	1141.134033
19338.379415	16900.230833	1533.674805	1428.811646
19338.379415	16900.230833	1532.622070	1292.064331
19338.379415	16900.230833	1531.569336	1384.733276
19338.379415	16900.230833	1530.515625	987.422791
19338.379415	16900.230833	1529.461914	976.066589
19338.379415	16900.230833	1528.408203	914.978516
19338.379415	16900.230833	1527.354492	1042.280884
19338.379415	16900.230833	1526.299805	784.273743
19338.379415	16900.230833	1525.246094	703.337402
19338.379415	16900.230833	1524.191406	846.949707
19338.379415	16900.230833	1523.136719	687.051392
19338.379415	16900.230833	1522.081055	484.337555
19338.379415	16900.230833	1521.026367	979.464600
19338.379415	16900.230833	1519.970703	475.931061
19338.379415	16900.230833	1518.915039	187.848892
19338.379415	16900.230833	1517.859375	289.383240
19338.379415	16900.230833	1516.802734	606.042419
19338.379415	16900.230833	1515.747070	234.899231
19338.379415	16900.230833	1514.690430	386.649048
19338.379415	16900.230833	1513.633789	-83.476067
19338.379415	16900.230833	1512.577148	251.794510
19338.379415	16900.230833	1511.519531	207.282410
19338.379415	16900.230833	1510.461914	-4.308196
19338.379415	16900.230833	1509.405273	148.226227
19338.379415	16900.230833	1508.346680	52.326015
19338.379415	16900.230833	1507.289063	47.013729
19338.379415	16900.230833	1506.231445	19.298752
19338.379415	16900.230833	1505.172852	21.132563
19338.379415	16900.230833	1504.114258	-141.660660
19338.379415	16900.230833	1503.055664	41.162182
19338.379415	16900.230833	1501.996094	336.939758
19338.379415	16900.230833	1500.937500	-73.463348
19338.379415	16900.230833	1499.877930	78.219276
19338.379415	16900.230833	1498.818359	-180.470367
19338.379415	16900.230833	1497.757813	239.904678
19338.379415	16900.230833	1496.698242	301.824677
19338.379415	16900.230833	1495.637695	201.616058
19338.379415	16900.230833	1494.577148	475.753601
19338.379415	16900.230833	1493.516602	351.152100
19338.379415	16900.230833	1492.456055	213.277176
19338.379415	16900.230833	1491.394531	476.578552
19338.379415	16900.230833	1490.333008	395.428589
19338.379415	16900.230833	1489.271484	168.164001
19338.379415	16900.230833	1488.209961	-101.577850
19338.379415	16900.230833	1487.148438	295.156830
19338.379415	16900.230833	1486.085938	5.646699
19338.379415	16900.230833	1485.023438	-105.818832
19338.379415	16900.230833	1483.960938	-318.254791
19338.379415	16900.230833	1482.898438	-55.906651
19338.379415	16900.230833	1481.834961	107.614296
19338.379415	16900.230833	1480.772461	-104.112022
19338.379415	16900.230833	1479.708984	-81.812485
19338.379415	16900.230833	1478.644531	237.228867
19338.379415	16900.230833	1477.581055	-306.172913
19338.379415	16900.230833	1476.517578	-15.915949
19338.379415	16900.230833	1475.453125	27.407156
19338.379415	16900.230833	1474.388672	-23.453403
19338.379415	16900.230833	1473.323242	-421.617249
19338.379415	16900.230833	1472.258789	-126.384666
19338.379415	16900.230833	1471.193359	-303.946350
19338.379415	16900.230833	1470.127930	-425.500183
19338.379415	16900.230833	1469.062500	-183.489197
19338.379415	16900.230833	1467.997070	-103.329048
19338.379415	16900.230833	1466.930664	100.869530
19338.379415	16900.230833	1465.865234	-8.823147
19338.379415	16900.230833	1464.798828	-129.144363
19338.379415	16900.230833	1463.731445	12.691884
19338.379415	16900.230833	1462.665039	212.184402
19338.379415	16900.230833	1461.597656	34.929039
19338.379415	16900.230833	1460.530273	165.682999
19338.379415	16900.230833	1459.462891	57.610558
19338.379415	16900.230833	1458.395508	-184.124039
19338.379415	16900.230833	1457.327148	394.997009
19338.379415	16900.230833	1456.259766	-28.729191
19338.379415	16900.230833	1455.191406	-320.845154
19338.379415	16900.230833	1454.123047	-231.042221
19338.379415	16900.230833	1453.053711	7.539936
19338.379415	16900.230833	1451.985352	144.022903
19338.379415	16900.230833	1450.916016	126.000465
19338.379415	16900.230833	1449.846680	358.028442
19338.379415	16900.230833	1448.776367	148.356583
19338.379415	16900.230833	1447.707031	129.091125
19338.379415	16900.230833	1446.636719	-2.674567
19338.379415	16900.230833	1445.566406	2.137882
19338.379415	16900.230833	1444.496094	152.290146
19338.379415	16900.230833	1443.425781	254.442307
19338.379415	16900.230833	1442.354492	186.669418
19338.379415	16900.230833	1441.283203	176.642731
19338.379415	16900.230833	1440.211914	-100.352715
19338.379415	16900.230833	1439.140625	-30.863935
19338.379415	16900.230833	1438.069336	148.233902
19338.379415	16900.230833	1436.997070	193.774567
19338.379415	16900.230833	1435.924805	374.900879
19338.379415	16900.230833	1434.852539	346.968109
19338.379415	16900.230833	1433.780273	162.612747
19338.379415	16900.230833	1432.707031	-155.274109
19338.379415	16900.230833	1431.633789	-44.829781
19338.379415	16900.230833	1430.560547	-182.968613
19338.379415	16900.230833	1429.487305	-133.144043
19338.379415	16900.230833	1428.413086	-155.559937
19338.379415	16900.230833	1427.339844	158.096924
19338.379415	16900.230833	1426.265625	-106.631516
19338.379415	16900.230833	1425.191406	-5.274499
19338.379415	16900.230833	1424.116211	-173.839859
19338.379415	16900.230833	1423.041992	24.837467
19338.379415	16900.230833	1421.966797	-73.808426
19338.379415	16900.230833	1420.891602	-32.551785
19338.379415	16900.230833	1419.816406	208.181137
19338.379415	16900.230833	1418.740234	198.000595
19338.379415	16900.230833	1417.665039	-26.625721
19338.379415	16900.230833	1416.588867	84.482300
19338.379415	16900.230833	1415.512695	64.076691
19338.379415	16900.230833	1414.435547	-117.174973
19338.379415	16900.230833	1413.359375	20.513714
19338.379415	16900.230833	1412.282227	-64.208870
19338.379415	16900.230833	1411.205078	-13.052486
19338.379415	16900.230833	1410.127930	22.388504
19338.379415	16900.230833	1409.049805	-24.547527
19338.379415	16900.230833	1407.972656	-193.929688
19338.379415	16900.230833	1406.894531	1.153929
19338.379415	16900.230833	1405.816406	-31.495741
19338.379415	16900.230833	1404.737305	-80.139252
19338.379415	16900.230833	1403.659180	-170.343384
19338.379415	16900.230833	1402.580078	-304.048279
19338.379415	16900.230833	1401.500977	-290.856232
19338.379415	16900.230833	1400.421875	86.286736
19338.379415	16900.230833	1399.341797	-26.634968
19338.379415	16900.230833	1398.262695	68.796265
19338.379415	16900.230833	1397.182617	-27.471235
19338.379415	16900.230833	1396.102539	376.998352
19338.379415	16900.230833	1395.021484	428.916656
19338.379415	16900.230833	1393.941406	213.953720
19338.379415	16900.230833	1392.860352	501.399078
19338.379415	16900.230833	1391.779297	267.675995
19338.379415	16900.230833	1390.698242	530.963318
19338.379415	16900.230833	1389.616211	413.852356
19338.379415	16900.230833	1388.535156	542.915588
19338.379415	16900.230833	1387.453125	419.426666
19338.379415	16900.230833	1386.371094	406.118469
19338.379415	16900.230833	1385.288086	425.084991
19338.379415	16900.230833	1384.206055	670.508484
19338.379415	16900.230833	1383.123047	734.728455
19338.379415	16900.230833	1382.040039	621.795349
19338.379415	16900.230833	1380.957031	990.704224
19338.379415	16900.230833	1379.873047	933.514648
19338.379415	16900.230833	1378.789063	570.868408
19338.379415	16900.230833	1377.705078	805.653015
19338.379415	16900.230833	1376.621094	848.886963
19338.379415	16900.230833	1375.537109	968.123718
19338.379415	16900.230833	1374.452148	1082.882690
19338.379415	16900.230833	1373.367188	807.353455
19338.379415	16900.230833	1372.282227	794.476257
19338.379415	16900.230833	1371.197266	912.677734
19338.379415	16900.230833	1370.112305	903.089417
19338.379415	16900.230833	1369.026367	930.541931
19338.379415	16900.230833	1367.940430	602.790527
19338.379415	16900.230833	1366.854492	478.105316
19338.379415	16900.230833	1365.767578	372.612396
19338.379415	16900.230833	1364.681641	767.815918
19338.379415	16900.230833	1363.594727	567.771912
19338.379415	16900.230833	1362.507813	603.349976
19338.379415	16900.230833	1361.419922	838.057495
19338.379415	16900.230833	1360.333008	342.885651
19338.379415	16900.230833	1359.245117	596.284241
19338.379415	16900.230833	1358.157227	651.046021
19338.379415	16900.230833	1357.069336	683.946960
19338.379415	16900.230833	1355.981445	385.696625
19338.379415	16900.230833	1354.892578	501.525879
19338.379415	16900.230833	1353.803711	534.480713
19338.379415	16900.230833	1352.714844	493.991302
19338.379415	16900.230833	1351.625000	576.001831
19338.379415	16900.230833	1350.536133	596.791809
19338.379415	16900.230833	1349.446289	456.788147
19338.379415	16900.230833	1348.356445	372.922760
19338.379415	16900.230833	1347.266602	939.707825
19338.379415	16900.230833	1346.175781	687.992432
19338.379415	16900.230833	1345.085938	406.630798
19338.379415	16900.230833	1343.995117	640.139099
19338.379415	16900.230833	1342.903320	943.291626
19338.379415	16900.230833	1341.812500	710.008057
19338.379415	16900.230833	1340.720703	665.647278
19338.379415	16900.230833	1339.629883	727.524841
19338.379415	16900.230833	1338.538086	788.791016
19338.379415	16900.230833	1337.445313	833.212280
19338.379415	16900.230833	1336.353516	808.915955
19338.379415	16900.230833	1335.260742	827.644897
19338.379415	16900.230833	1334.167969	646.114197
19338.379415	16900.230833	1333.075195	689.326233
19338.379415	16900.230833	1331.981445	874.971497
19338.379415	16900.230833	1330.888672	983.047119
19338.379415	16900.230833	1329.794922	608.476807
19338.379415	16900.230833	1328.701172	748.355957
19338.379415	16900.230833	1327.606445	729.849915
19338.379415	16900.230833	1326.512695	648.287231
19338.379415	16900.230833	1325.417969	398.683960
19338.379415	16900.230833	1324.323242	714.037476
19338.379415	16900.230833	1323.227539	672.406250
19338.379415	16900.230833	1322.132813	841.764160
19338.379415	16900.230833	1321.037109	617.827454
19338.379415	16900.230833	1319.941406	336.341125
19338.379415	16900.230833	1318.845703	902.197937
19338.379415	16900.230833	1317.750000	613.437195
19338.379415	16900.230833	1316.653320	395.637451
19338.379415	16900.230833	1315.556641	678.355652
19338.379415	16900.230833	1314.459961	647.933838
19338.379415	16900.230833	1313.363281	763.987427
19338.379415	16900.230833	1312.265625	680.851196
19338.379415	16900.230833	1311.167969	462.376617
19338.379415	16900.230833	1310.070313	622.987671
19338.379415	16900.230833	1308.972656	516.762695
19338.379415	16900.230833	1307.874023	382.657959
19338.379415	16900.230833	1306.776367	508.982391
19338.379415	16900.230833	1305.677734	226.761581
19338.379415	16900.230833	1304.579102	223.953751
19338.379415	16900.230833	1303.479492	235.704865
19338.379415	16900.230833	1302.380859	113.893631
19338.379415	16900.230833	1301.281250	234.399658
19338.379415	16900.230833	1300.181641	458.630127
19338.379415	16900.230833	1299.081055	226.174576
19338.379415	16900.230833	1297.981445	459.182617
19338.379415	16900.230833	1296.880859	271.323486
19338.379415	16900.230833	1295.780273	193.252090
19338.379415	16900.230833	1294.679688	179.980316
19338.379415	16900.230833	1293.578125	237.930084
19338.379415	16900.230833	1292.476563	121.672073
19338.379415	16900.230833	1291.375000	-15.484946
19338.379415	16900.230833	1290.273438	137.193527
19338.379415	16900.230833	1289.171875	276.789673
19338.379415	16900.230833	1288.069336	50.749157
19338.379415	16900.230833	1286.966797	104.800529
19338.379415	16900.230833	1285.864258	28.004490
19338.379415	16900.230833	1284.761719	-62.683746
19338.379415	16900.230833	1283.658203	221.843765
19338.379415	16900.230833	1282.554688	300.303680
19338.379415	16900.230833	1281.451172	291.676575
19338.379415	16900.230833	1280.347656	-48.215118
19338.379415	16900.230833	1279.244141	57.161911
19338.379415	16900.230833	1278.139648	115.521309
19338.379415	16900.230833	1277.035156	127.567749
19338.379415	16900.230833	1275.930664	144.555283
19338.379415	16900.230833	1274.825195	140.611710
19338.379415	16900.230833	1273.720703	194.015045
19338.379415	16900.230833	1272.615234	105.405594
19338.379415	16900.230833	1271.508789	14.908574
19338.379415	16900.230833	1270.403320	119.241249
19338.379415	16900.230833	1269.297852	260.984619
19338.379415	16900.230833	1268.191406	102.862419
19338.379415	16900.230833	1267.084961	-14.600702
19338.379415	16900.230833	1265.977539	330.356140
19338.379415	16900.230833	1264.871094	188.795593
19338.379415	16900.230833	1263.763672	143.856522
19338.379415	16900.230833	1262.656250	9.461903
19338.379415	16900.230833	1261.548828	113.184151
19338.379415	16900.230833	1260.440430	-110.905205
19338.379415	16900.230833	1259.333008	25.434063
19338.379415	16900.230833	1258.224609	30.180813
19338.379415	16900.230833	1257.115234	21.688759
19338.379415	16900.230833	1256.006836	-134.475784
19338.379415	16900.230833	1254.897461	-97.245979
19338.379415	16900.230833	1253.788086	-5.862993
19338.379415	16900.230833	1252.678711	-67.559090
19338.379415	16900.230833	1251.569336	-76.638779
19338.379415	16900.230833	1250.458984	-63.251122
19338.379415	16900.230833	1249.349609	-19.704868
19338.379415	16900.230833	1248.239258	64.623550
19338.379415	16900.230833	1247.127930	83.576118
19338.379415	16900.230833	1246.017578	156.941772
19338.379415	16900.230833	1244.906250	173.099930
19338.379415	16900.230833	1243.794922	54.946144
19338.379415	16900.230833	1242.683594	3.394687
19338.379415	16900.230833	1241.571289	-101.549210
19338.379415	16900.230833	1240.459961	137.585098
19338.379415	16900.230833	1239.347656	-207.670639
19338.379415	16900.230833	1238.234375	44.990379
19338.379415	16900.230833	1237.122070	14.849468
19338.379415	16900.230833	1236.008789	-39.893753
19338.379415	16900.230833	1234.896484	-9.346581
19338.379415	16900.230833	1233.782227	123.523575
19338.379415	16900.230833	1232.668945	70.266678
19338.379415	16900.230833	1231.555664	-209.512466
19338.379415	16900.230833	1230.441406	-59.763847
19338.379415	16900.230833	1229.327148	-79.402191
19338.379415	16900.230833	1228.211914	-68.668541
19338.379415	16900.230833	1227.097656	110.140732
19338.379415	16900.230833	1225.982422	-129.245804
19338.379415	16900.230833	1224.867188	-48.639252
19338.379415	16900.230833	1223.751953	-139.494354
19338.379415	16900.230833	1222.635742	-181.460480
19338.379415	16900.230833	1221.520508	-202.985992
19338.379415	16900.230833	1220.404297	-253.326981
19338.379415	16900.230833	1219.287109	-39.248833
19338.379415	16900.230833	1218.170898	-245.652786
19338.379415	16900.230833	1217.053711	-132.465073
19338.379415	16900.230833	1215.936523	-79.986664
19338.379415	16900.230833	1214.819336	-348.865631
19338.379415	16900.230833	1213.702148	-289.439423
19338.379415	16900.230833	1212.583984	179.439133
19338.379415	16900.230833	1211.465820	180.244675
19338.379415	16900.230833	1210.347656	298.014740
19338.379415	16900.230833	1209.229492	43.753670
19338.379415	16900.230833	1208.110352	343.946411
19338.379415	16900.230833	1206.992188	-1.457625
19338.379415	16900.230833	1205.873047	78.356644
19338.379415	16900.230833	1204.752930	76.684464
19338.379415	16900.230833	1203.633789	-24.405279
19338.379415	16900.230833	1202.513672	394.880737
19338.379415	16900.230833	1201.393555	158.068466
19338.379415	16900.230833	1200.273438	221.508041
19338.379415	16900.230833	1199.152344	10.947681
19338.379415	16900.230833	1198.032227	97.191330
19338.379415	16900.230833	1196.911133	-74.282722
19338.379415	16900.230833	1195.790039	137.282318
19338.379415	16900.230833	1194.667969	500.308289
19338.379415	16900.230833	1193.545898	195.253281
19338.379415	16900.230833	1192.424805	-53.533661
19338.379415	16900.230833	1191.301758	169.695786
19338.379415	16900.230833	1190.179688	-44.852337
19338.379415	16900.230833	1189.056641	51.551338
19338.379415	16900.230833	1187.933594	79.252052
19338.379415	16900.230833	1186.810547	238.201645
19338.379415	16900.230833	1185.687500	289.553131
19338.379415	16900.230833	1184.563477	109.571564
19338.379415	16900.230833	1183.440430	70.767937
19338.379415	16900.230833	1182.316406	107.327827
19338.379415	16900.230833	1181.191406	109.716560
19338.379415	16900.230833	1180.067383	142.506226
19338.379415	16900.230833	1178.942383	-49.946194
19338.379415	16900.230833	1177.817383	135.836227
19338.379415	16900.230833	1176.692383	251.373779
19338.379415	16900.230833	1175.566406	292.550110
19338.379415	16900.230833	1174.440430	350.768158
19338.379415	16900.230833	1173.314453	247.104980
19338.379415	16900.230833	1172.188477	311.162933
19338.379415	16900.230833	1171.062500	193.765137
19338.379415	16900.230833	1169.935547	357.308502
19338.379415	16900.230833	1168.808594	355.042267
19338.379415	16900.230833	1167.681641	-28.802254
19338.379415	16900.230833	1166.553711	43.388424
19338.379415	16900.230833	1165.426758	111.577530
19338.379415	16900.230833	1164.298828	-127.237511
19338.379415	16900.230833	1163.170898	-219.365555
19338.379415	16900.230833	1162.041992	-229.101654
19338.379415	16900.230833	1160.914063	-117.856781
19338.379415	16900.230833	1159.785156	-103.007248
19338.379415	16900.230833	1158.656250	-100.408348
19338.379415	16900.230833	1157.526367	-110.876968
19338.379415	16900.230833	1156.397461	-99.780235
19338.379415	16900.230833	1155.267578	-41.370213
19338.379415	16900.230833	1154.137695	122.742401
19338.379415	16900.230833	1153.006836	-30.415880
19338.379415	16900.230833	1151.876953	-291.125366
19338.379415	16900.230833	1150.746094	-213.527542
19338.379415	16900.230833	1149.615234	-181.699432
19338.379415	16900.230833	1148.484375	-237.137939
19338.379415	16900.230833	1147.352539	-181.830673
19338.379415	16900.230833	1146.220703	37.479702
19338.379415	16900.230833	1145.088867	-153.641159
19338.379415	16900.230833	1143.957031	-32.496727
19338.379415	16900.230833	1142.825195	37.646652
19338.379415	16900.230833	1141.692383	-274.201050
19338.379415	16900.230833	1140.559570	-224.108078
19338.379415	16900.230833	1139.426758	-239.039917
19338.379415	16900.230833	1138.292969	-171.359970
19338.379415	16900.230833	1137.159180	-285.061829
19338.379415	16900.230833	1136.025391	-484.761322
19338.379415	16900.230833	1134.891602	-383.916138
19338.379415	16900.230833	1133.757813	-240.022964
19338.379415	16900.230833	1132.623047	-321.832367
19338.379415	16900.230833	1131.488281	-144.735718
19338.379415	16900.230833	1130.353516	-176.380096
19338.379415	16900.230833	1129.217773	-192.981201
19338.379415	16900.230833	1128.083008	82.828247
19338.379415	16900.230833	1126.947266	-36.927704
19338.379415	16900.230833	1125.811523	-207.672974
19338.379415	16900.230833	1124.674805	-162.098343
19338.379415	16900.230833	1123.539063	-81.120636
19338.379415	16900.230833	1122.402344	-187.328018
19338.379415	16900.230833	1121.265625	-56.268906
19338.379415	16900.230833	1120.127930	-16.069994
19338.379415	16900.230833	1118.990234	-369.392700
19338.379415	16900.230833	1117.853516	-245.395950
19338.379415	16900.230833	1116.714844	-396.746918
19338.379415	16900.230833	1115.577148	-195.890442
19338.379415	16900.230833	1114.439453	-40.074493
19338.379415	16900.230833	1113.300781	-322.725250
19338.379415	16900.230833	1112.162109	-68.436859
19338.379415	16900.230833	1111.022461	-20.194326
19338.379415	16900.230833	1109.883789	51.678471
19338.379415	16900.230833	1108.744141	39.006653
19338.379415	16900.230833	1107.604492	38.542320
19338.379415	16900.230833	1106.463867	-44.711662
19338.379415	16900.230833	1105.324219	-101.414063
19338.379415	16900.230833	1104.183594	-7.039508
19338.379415	16900.230833	1103.042969	265.850189
19338.379415	16900.230833	1101.902344	259.717834
19338.379415	16900.230833	1100.760742	105.774712
19338.379415	16900.230833	1099.619141	2.545377
19338.379415	16900.230833	1098.477539	312.920380
19338.379415	16900.230833	1097.335938	188.229767
19338.379415	16900.230833	1096.193359	168.641418
19338.379415	16900.230833	1095.051758	367.321228
19338.379415	16900.230833	1093.909180	296.323761
19338.379415	16900.230833	1092.765625	270.033356
19338.379415	16900.230833	1091.623047	322.366730
19338.379415	16900.230833	1090.479492	253.989044
19338.379415	16900.230833	1089.335938	359.976898
19338.379415	16900.230833	1088.192383	574.529541
19338.379415	16900.230833	1087.047852	468.431305
19338.379415	16900.230833	1085.903320	388.098999
19338.379415	16900.230833	1084.758789	309.017120
19338.379415	16900.230833	1083.614258	375.467041
19338.379415	16900.230833	1082.469727	333.306396
19338.379415	16900.230833	1081.324219	330.932068
19338.379415	16900.230833	1080.178711	72.970695
19338.379415	16900.230833	1079.033203	352.344330
19338.379415	16900.230833	1077.886719	255.799210
19338.379415	16900.230833	1076.740234	194.974045
19338.379415	16900.230833	1075.593750	327.050720
19338.379415	16900.230833	1074.447266	222.961166
19338.379415	16900.230833	1073.300781	428.387268
19338.379415	16900.230833	1072.153320	322.336456
19338.379415	16900.230833	1071.005859	626.282104
19338.379415	16900.230833	1069.858398	466.121094
19338.379415	16900.230833	1068.709961	435.639740
19338.379415	16900.230833	1067.561523	197.432999
19338.379415	16900.230833	1066.413086	207.317596
19338.379415	16900.230833	1065.264648	421.967773
19338.379415	16900.230833	1064.116211	425.413208
19338.379415	16900.230833	1062.966797	209.293304
19338.379415	16900.230833	1061.817383	427.387207
19338.379415	16900.230833	1060.667969	-7.622971
19338.379415	16900.230833	1059.517578	39.651829
19338.379415	16900.230833	1058.368164	200.094864
19338.379415	16900.230833	1057.217773	212.595062
19338.379415	16900.230833	1056.067383	322.438141
19338.379415	16900.230833	1054.916016	208.178772
19338.379415	16900.230833	1053.764648	74.595108
19338.379415	16900.230833	1052.613281	591.449402
19338.379415	16900.230833	1051.461914	207.044937
19338.379415	16900.230833	1050.310547	307.993622
19338.379415	16900.230833	1049.158203	183.919891
19338.379415	16900.230833	1048.005859	-48.618114
19338.379415	16900.230833	1046.853516	-161.399109
19338.379415	16900.230833	1045.700195	2.742120
19338.379415	16900.230833	1044.547852	477.609741
19338.379415	16900.230833	1043.394531	52.927944
19338.379415	16900.230833	1042.240234	227.134567
19338.379415	16900.230833	1041.086914	86.048180
19338.379415	16900.230833	1039.932617	180.577896
19338.379415	16900.230833	1038.778320	324.919525
19338.379415	16900.230833	1037.624023	217.569916
19338.379415	16900.230833	1036.469727	376.557068
19338.379415	16900.230833	1035.314453	522.262146
19338.379415	16900.230833	1034.159180	737.373596
19338.379415	16900.230833	1033.003906	1061.329712
19338.379415	16900.230833	1031.847656	1184.548340
19338.379415	16900.230833	1030.692383	1030.807373
19338.379415	16900.230833	1029.536133	1190.691528
19338.379415	16900.230833	1028.378906	1110.383057
19338.379415	16900.230833	1027.222656	792.681824
19338.379415	16900.230833	1026.065430	774.408508
19338.379415	16900.230833	1024.908203	652.438110
19338.379415	16900.230833	1023.750977	680.384766
19338.379415	16900.230833	1022.593750	433.524719
19338.379415	16900.230833	1021.435547	481.589478
19338.379415	16900.230833	1020.277344	170.835373
19338.379415	16900.230833	1019.119141	414.675415
19338.379415	16900.230833	1017.959961	-9.649401
19338.379415	16900.230833	1016.800781	501.014099
19338.379415	16900.230833	1015.641602	426.973419
19338.379415	16900.230833	1014.482422	226.838898
19338.379415	16900.230833	1013.323242	-30.931540
19338.379415	16900.230833	1012.163086	-136.716431
19338.379415	16900.230833	1011.002930	-132.754700
19338.379415	16900.230833	1009.842773	125.314011
19338.379415	16900.230833	1008.681641	9.085477
19338.379415	16900.230833	1007.520508	185.321121
19338.379415	16900.230833	1006.359375	271.916443
19338.379415	16900.230833	1005.198242	203.743515
19338.379415	16900.230833	1004.037109	368.461548
19338.379415	16900.230833	1002.875000	539.511597
19338.379415	16900.230833	1001.712891	397.714203
19338.379415	16900.230833	1000.550781	292.876984
19338.379415	16900.230833	999.387695	337.214264
19338.379415	16900.230833	998.224609	259.261627
19338.379415	16900.230833	997.061523	209.172501
19338.379415	16900.230833	995.898438	73.391235
19338.379415	16900.230833	994.734375	62.583008
19338.379415	16900.230833	993.571289	300.049469
19338.379415	16900.230833	992.407227	-70.956367
19338.379415	16900.230833	991.242188	269.306549
19338.379415	16900.230833	990.078125	40.482189
19338.379415	16900.230833	988.913086	324.596527
19338.379415	16900.230833	987.748047	215.049286
19338.379415	16900.230833	986.583008	50.411850
19338.379415	16900.230833	985.416992	182.089020
19338.379415	16900.230833	984.250977	-16.777065
19338.379415	16900.230833	983.084961	155.840088
19338.379415	16900.230833	981.918945	84.910339
19338.379415	16900.230833	980.751953	231.808884
19338.379415	16900.230833	979.584961	96.773903
19338.379415	16900.230833	978.417969	33.191269
19338.379415	16900.230833	977.250977	58.528893
19338.379415	16900.230833	976.083008	190.206635
19338.379415	16900.230833	974.915039	-91.722557
19338.379415	16900.230833	973.747070	176.166245
19338.379415	16900.230833	972.579102	98.044090
19338.379415	16900.230833	971.410156	-51.638161
19338.379415	16900.230833	970.242188	202.982788
19338.379415	16900.230833	969.072266	332.884064
19338.379415	16900.230833	967.903320	395.967743
19338.379415	16900.230833	966.733398	92.839188
19338.379415	16900.230833	965.563477	26.280416
19338.379415	16900.230833	964.393555	480.739807
19338.379415	16900.230833	963.223633	389.831787
19338.379415	16900.230833	962.052734	362.485260
19338.379415	16900.230833	960.881836	254.949219
19338.379415	16900.230833	959.710938	382.525604
19338.379415	16900.230833	958.540039	343.016357
19338.379415	16900.230833	957.368164	408.254395
19338.379415	16900.230833	956.196289	506.256592
19338.379415	16900.230833	955.024414	191.459595
19338.379415	16900.230833	953.851563	-69.143593
19338.379415	16900.230833	952.679688	131.833542
19338.379415	16900.230833	951.506836	67.684372
19338.379415	16900.230833	950.333984	129.304871
19338.379415	16900.230833	949.160156	277.291351
19338.379415	16900.230833	947.986328	37.098488
19338.379415	16900.230833	946.812500	64.953964
19338.379415	16900.230833	945.638672	-93.728989
19338.379415	16900.230833	944.464844	-254.214905
19338.379415	16900.230833	943.290039	34.143082
19338.379415	16900.230833	942.115234	6.147506
19338.379415	16900.230833	940.940430	183.621750
19338.379415	16900.230833	939.764648	210.312119
19338.379415	16900.230833	938.588867	209.400192
19338.379415	16900.230833	937.413086	170.152695
19338.379415	16900.230833	936.237305	354.180084
19338.379415	16900.230833	935.060547	486.306641
19338.379415	16900.230833	933.883789	345.716034
19338.379415	16900.230833	932.707031	443.032379
19338.379415	16900.230833	931.530273	92.370018
19338.379415	16900.230833	930.352539	283.420258
19338.379415	16900.230833	929.175781	337.137665
19338.379415	16900.230833	927.998047	441.028687
19338.379415	16900.230833	926.819336	170.387268
19338.379415	16900.230833	925.641602	148.675903
19338.379415	16900.230833	924.462891	17.357946
19338.379415	16900.230833	923.284180	-93.429565
19338.379415	16900.230833	922.104492	83.326683
19338.379415	16900.230833	920.924805	175.562622
19338.379415	16900.230833	919.746094	183.288513
19338.379415	16900.230833	919.551758	132.129059
19338.379415	16900.230833	918.386719	-54.077473
19338.379415	16900.230833	917.220703	-203.749191
19338.379415	16900.230833	916.054688	-114.022392
19338.379415	16900.230833	914.887695	-104.122276
19338.379415	16900.230833	913.721680	-78.304649
19338.379415	16900.230833	912.554688	-13.784549
19338.379415	16900.230833	911.387695	-74.590782
19338.379415	16900.230833	910.220703	12.631076
19338.379415	16900.230833	909.052734	131.679123
19338.379415	16900.230833	907.885742	89.030136
19338.379415	16900.230833	906.717773	-144.792877
19338.379415	16900.230833	905.548828	-78.171898
19338.379415	16900.230833	904.380859	-164.024628
19338.379415	16900.230833	903.211914	-26.949257
19338.379415	16900.230833	902.042969	25.916096
19338.379415	16900.230833	900.874023	-30.390627
19338.379415	16900.230833	899.704102	183.824982
19338.379415	16900.230833	898.535156	125.211716
19338.379415	16900.230833	897.365234	316.559875
19338.379415	16900.230833	896.194336	205.680771
19338.379415	16900.230833	895.024414	258.361908
19338.379415	16900.230833	893.853516	256.520447
19338.379415	16900.230833	892.682617	2.656930
19338.379415	16900.230833	891.511719	171.094421
19338.379415	16900.230833	890.340820	219.173477
19338.379415	16900.230833	889.168945	348.914490
19338.379415	16900.230833	887.997070	592.023132
19338.379415	16900.230833	886.825195	649.046936
19338.379415	16900.230833	885.653320	871.576538
19338.379415	16900.230833	884.480469	749.413391
19338.379415	16900.230833	883.307617	1110.097168
19338.379415	16900.230833	882.134766	1010.589478
19338.379415	16900.230833	880.961914	947.373352
19338.379415	16900.230833	879.788086	909.105774
19338.379415	16900.230833	878.614258	1344.199341
19338.379415	16900.230833	877.440430	1337.564941
19338.379415	16900.230833	876.266602	1158.878906
19338.379415	16900.230833	875.091797	984.800049
19338.379415	16900.230833	873.916992	860.576904
19338.379415	16900.230833	872.742188	727.358459
19338.379415	16900.230833	871.567383	410.971497
19338.379415	16900.230833	870.391602	350.279877
19338.379415	16900.230833	869.215820	192.389481
19338.379415	16900.230833	868.040039	224.462952
19338.379415	16900.230833	866.864258	25.989029
19338.379415	16900.230833	865.687500	87.474182
19338.379415	16900.230833	864.510742	-156.057816
19338.379415	16900.230833	863.333984	-121.655319
19338.379415	16900.230833	862.157227	75.342232
19338.379415	16900.230833	860.979492	37.452976
19338.379415	16900.230833	859.802734	-372.893250
19338.379415	16900.230833	858.625000	-67.603996
19338.379415	16900.230833	857.446289	0.641446
19338.379415	16900.230833	856.268555	-10.098265
19338.379415	16900.230833	855.089844	-262.162323
19338.379415	16900.230833	853.911133	-108.198975
19338.379415	16900.230833	852.731445	-80.541718
19338.379415	16900.230833	851.552734	-167.854660
19338.379415	16900.230833	850.373047	-153.697708
19338.379415	16900.230833	849.193359	-488.791473
19338.379415	16900.230833	848.013672	-14.987230
19338.379415	16900.230833	846.833008	136.557251
19338.379415	16900.230833	845.652344	6.570501
19338.379415	16900.230833	844.471680	61.259785
19338.379415	16900.230833	843.291016	-64.134483
19338.379415	16900.230833	842.110352	-45.434376
19338.379415	16900.230833	840.928711	-130.225418
19338.379415	16900.230833	839.747070	-106.992065
19338.379415	16900.230833	838.564453	17.457487
19338.379415	16900.230833	837.382813	-175.189682
19338.379415	16900.230833	836.200195	-176.647751
19338.379415	16900.230833	835.017578	-52.223541
19338.379415	16900.230833	833.834961	-159.299805
19338.379415	16900.230833	832.651367	-194.417175
19338.379415	16900.230833	831.467773	89.465096
19338.379415	16900.230833	830.284180	-201.688110
19338.379415	16900.230833	829.100586	-447.802582
19338.379415	16900.230833	827.916992	-572.577515
19338.379415	16900.230833	826.732422	-133.924713
19338.379415	16900.230833	825.547852	-198.094543
19338.379415	16900.230833	824.363281	-401.321411
19338.379415	16900.230833	823.177734	-189.481979
19338.379415	16900.230833	821.992188	-38.264198
19338.379415	16900.230833	820.806641	-133.734558
19338.379415	16900.230833	819.621094	-200.008438
19338.379415	16900.230833	818.434570	-429.847229
19338.379415	16900.230833	817.249023	-285.378876
19338.379415	16900.230833	816.062500	40.510567
19338.379415	16900.230833	814.875000	-79.440735
19338.379415	16900.230833	813.688477	-192.618652
19338.379415	16900.230833	812.500977	-346.032227
19338.379415	16900.230833	811.313477	-185.990768
19338.379415	16900.230833	810.125977	-513.883179
19338.379415	16900.230833	808.937500	-163.656418
19338.379415	16900.230833	807.749023	-220.705841
19338.379415	16900.230833	806.560547	-136.818817
19338.379415	16900.230833	805.372070	108.045380
19338.379415	16900.230833	804.182617	-20.531019
19338.379415	16900.230833	802.994141	-287.633362
19338.379415	16900.230833	801.803711	-331.129547
19338.379415	16900.230833	800.614258	119.167915
19338.379415	16900.230833	799.424805	-47.242752
19338.379415	16900.230833	798.234375	195.130814
19338.379415	16900.230833	797.043945	-40.425251
19338.379415	16900.230833	795.852539	-48.164680
19338.379415	16900.230833	794.662109	-26.883959
19338.379415	16900.230833	793.470703	150.607056
19338.379415	16900.230833	792.279297	241.018265
19338.379415	16900.230833	791.087891	434.003510
19338.379415	16900.230833	789.895508	218.808990
19338.379415	16900.230833	788.703125	81.746109
19338.379415	16900.230833	787.510742	401.728424
19338.379415	16900.230833	786.318359	208.972183
19338.379415	16900.230833	785.125000	461.959900
19338.379415	16900.230833	783.931641	443.051727
19338.379415	16900.230833	782.738281	410.790070
19338.379415	16900.230833	781.544922	354.045471
19338.379415	16900.230833	780.350586	310.690979
19338.379415	16900.230833	779.156250	287.387451
19338.379415	16900.230833	777.961914	212.907776
19338.379415	16900.230833	776.767578	136.231750
19338.379415	16900.230833	775.572266	175.269485
19338.379415	16900.230833	774.376953	223.183807
19338.379415	16900.230833	773.181641	522.347107
19338.379415	16900.230833	771.986328	690.213745
19338.379415	16900.230833	770.790039	297.889160
19338.379415	16900.230833	769.593750	432.395416
19338.379415	16900.230833	768.397461	406.870544
19338.379415	16900.230833	767.201172	34.821621
19338.379415	16900.230833	766.003906	149.297272
19338.379415	16900.230833	764.806641	77.202461
19338.379415	16900.230833	763.609375	47.305973
19338.379415	16900.230833	762.412109	-18.098024
19338.379415	16900.230833	761.213867	40.787064
19338.379415	16900.230833	760.015625	115.165031
19338.379415	16900.230833	758.817383	-262.992249
19338.379415	16900.230833	757.618164	332.543365
19338.379415	16900.230833	756.419922	14.334653
19338.379415	16900.230833	755.220703	580.719543
19338.379415	16900.230833	754.021484	306.894073
19338.379415	16900.230833	752.821289	662.455444
19338.379415	16900.230833	751.621094	260.208984
19338.379415	16900.230833	750.420898	84.030891
19338.379415	16900.230833	749.220703	461.506195
19338.379415	16900.230833	748.020508	94.921158
19338.379415	16900.230833	746.819336	299.550629
19338.379415	16900.230833	745.618164	200.891418
19338.379415	16900.230833	744.416992	201.815704
19338.379415	16900.230833	743.214844	151.842407
19338.379415	16900.230833	742.012695	214.661713
19338.379415	16900.230833	740.810547	370.296204
19338.379415	16900.230833	739.608398	627.533997
19338.379415	16900.230833	738.406250	314.393799
19338.379415	16900.230833	737.203125	783.624756
19338.379415	16900.230833	736.000000	751.116455
19338.379415	16900.230833	734.795898	1125.028198
19338.379415	16900.230833	733.592773	1569.415405
19338.379415	16900.230833	732.388672	1772.926025
19338.379415	16900.230833	731.184570	1506.123169
19338.379415	16900.230833	729.979492	1272.511963
19338.379415	16900.230833	728.775391	1354.493774
19338.379415	16900.230833	727.570313	984.161316
19338.379415	16900.230833	726.365234	991.113281
19338.379415	16900.230833	725.160156	848.071472
19338.379415	16900.230833	723.954102	383.167480
19338.379415	16900.230833	722.748047	489.322449
19338.379415	16900.230833	721.541992	59.869389
19338.379415	16900.230833	720.334961	370.879333
19338.379415	16900.230833	719.128906	117.777687
19338.379415	16900.230833	717.921875	197.307037
19338.379415	16900.230833	716.714844	138.037033
19338.379415	16900.230833	715.506836	116.177277
19338.379415	16900.230833	714.298828	127.295532
19338.379415	16900.230833	713.090820	186.773682
19338.379415	16900.230833	711.882813	140.575638
19338.379415	16900.230833	710.674805	-163.012421
19338.379415	16900.230833	709.465820	-149.833801
19338.379415	16900.230833	708.256836	-130.117432
19338.379415	16900.230833	707.047852	-101.666954
19338.379415	16900.230833	705.837891	-183.165665
19338.379415	16900.230833	704.627930	-154.818878
19338.379415	16900.230833	703.417969	143.677185
19338.379415	16900.230833	702.208008	-124.682281
19338.379415	16900.230833	700.998047	-103.118866
19338.379415	16900.230833	699.787109	322.351898
19338.379415	16900.230833	698.576172	277.849152
19338.379415	16900.230833	697.364258	242.089691
19338.379415	16900.230833	696.153320	201.891190
19338.379415	16900.230833	694.941406	146.297440
19338.379415	16900.230833	693.729492	228.836014
19338.379415	16900.230833	692.516602	105.164955
19338.379415	16900.230833	691.304688	119.590622
19338.379415	16900.230833	690.091797	-63.314259
19338.379415	16900.230833	688.878906	178.913681
19338.379415	16900.230833	687.665039	144.926422
19338.379415	16900.230833	686.451172	170.029266
19338.379415	16900.230833	685.237305	81.172577
19338.379415	16900.230833	684.023438	163.066528
19338.379415	16900.230833	682.809570	41.274799
19338.379415	16900.230833	681.594727	350.619080
19338.379415	16900.230833	680.379883	182.750687
19338.379415	16900.230833	679.165039	113.325150
19338.379415	16900.230833	677.949219	256.017517
19338.379415	16900.230833	676.733398	383.270325
19338.379415	16900.230833	675.517578	33.785995
19338.379415	16900.230833	674.301758	211.153717
19338.379415	16900.230833	673.084961	434.267090
19338.379415	16900.230833	671.869141	585.106384
19338.379415	16900.230833	670.651367	423.435638
19338.379415	16900.230833	669.434570	829.585266
19338.379415	16900.230833	668.216797	517.112427
19338.379415	16900.230833	667.000000	326.941254
19338.379415	16900.230833	665.781250	551.466003
19338.379415	16900.230833	664.563477	566.328430
19338.379415	16900.230833	663.344727	109.866501
19338.379415	16900.230833	662.125977	2.508049
19338.379415	16900.230833	660.907227	335.623657
19338.379415	16900.230833	659.688477	149.607361
19338.379415	16900.230833	658.468750	401.733063
19338.379415	16900.230833	657.249023	695.077332
19338.379415	16900.230833	656.029297	389.012787
19338.379415	16900.230833	654.808594	472.938171
19338.379415	16900.230833	653.587891	360.721344
19338.379415	16900.230833	652.367188	390.006470
19338.379415	16900.230833	651.146484	401.775574
19338.379415	16900.230833	649.924805	359.040497
19338.379415	16900.230833	648.704102	744.934692
19338.379415	16900.230833	647.482422	419.130524
19338.379415	16900.230833	646.259766	521.897095
19338.379415	16900.230833	645.037109	302.667267
19338.379415	16900.230833	643.815430	359.575500
19338.379415	16900.230833	642.591797	120.731209
19338.379415	16900.230833	641.369141	110.100700
19338.379415	16900.230833	640.145508	238.457199
19338.379415	16900.230833	638.921875	195.042694
19338.379415	16900.230833	637.698242	166.761337
19338.379415	16900.230833	636.474609	375.099304
19338.379415	16900.230833	635.250000	177.267059
19338.379415	16900.230833	634.025391	109.665131
19338.379415	16900.230833	632.800781	324.123566
19338.379415	16900.230833	631.575195	97.950256
19338.379415	16900.230833	630.349609	305.632019
19338.379415	16900.230833	629.124023	88.051636
19338.379415	16900.230833	627.898438	187.047043
19338.379415	16900.230833	626.671875	314.093933
19338.379415	16900.230833	625.445313	139.726318
19338.379415	16900.230833	624.218750	251.377914
19338.379415	16900.230833	622.992188	590.372986
19338.379415	16900.230833	621.764648	413.616821
19338.379415	16900.230833	620.537109	444.741394
19338.379415	16900.230833	619.309570	326.367981
19338.379415	16900.230833	618.081055	435.243439
19338.379415	16900.230833	616.852539	266.964966
19338.379415	16900.230833	615.624023	408.081573
19338.379415	16900.230833	614.395508	575.007629
19338.379415	16900.230833	613.166992	317.860626
19338.379415	16900.230833	611.937500	294.265991
19338.379415	16900.230833	610.708008	218.708099
19338.379415	16900.230833	609.477539	91.216682
19338.379415	16900.230833	608.248047	179.789948
19338.379415	16900.230833	607.017578	190.455673
19338.379415	16900.230833	605.787109	26.065750
19338.379415	16900.230833	604.555664	140.245392
19338.379415	16900.230833	603.325195	-140.834656
19338.379415	16900.230833	602.093750	-303.154907
19338.379415	16900.230833	600.861328	-74.855728
19338.379415	16900.230833	599.629883	-368.918243
19338.379415	16900.230833	598.397461	-143.032318
19338.379415	16900.230833	597.165039	41.693642
19338.379415	16900.230833	595.932617	-233.056213
19338.379415	16900.230833	594.699219	-55.030125
19338.379415	16900.230833	593.465820	-297.478821
19338.379415	16900.230833	592.232422	-156.315796
19338.379415	16900.230833	590.999023	-256.606812
19338.379415	16900.230833	589.764648	-154.453796
19338.379415	16900.230833	588.530273	-132.111099
19338.379415	16900.230833	587.295898	-161.535080
19338.379415	16900.230833	586.061523	-128.598129
19338.379415	16900.230833	584.826172	-263.632843
19338.379415	16900.230833	583.590820	-0.606136
19338.379415	16900.230833	582.355469	146.056915
19338.379415	16900.230833	581.119141	-146.202988
19338.379415	16900.230833	579.882813	-317.991241
19338.379415	16900.230833	578.646484	-300.586365
19338.379415	16900.230833	577.410156	-309.057983
19338.379415	16900.230833	576.172852	-379.926514
19338.379415	16900.230833	574.935547	58.376774
19338.379415	16900.230833	573.698242	-137.280182
19338.379415	16900.230833	572.460938	283.454956
19338.379415	16900.230833	571.222656	-262.309570
19338.379415	16900.230833	569.984375	80.842850
19338.379415	16900.230833	568.746094	200.563416
19338.379415	16900.230833	567.506836	71.241440
19338.379415	16900.230833	566.267578	64.192154
19338.379415	16900.230833	565.028320	-198.167648
19338.379415	16900.230833	563.789063	-155.970001
19338.379415	16900.230833	562.548828	-90.276985
19338.379415	16900.230833	561.309570	110.365883
19338.379415	16900.230833	560.068359	15.106688
19338.379415	16900.230833	558.828125	52.669918
19338.379415	16900.230833	557.586914	-169.055893
19338.379415	16900.230833	556.345703	-67.350883
19338.379415	16900.230833	555.104492	-128.487762
19338.379415	16900.230833	553.863281	75.795868
19338.379415	16900.230833	552.621094	76.595680
19338.379415	16900.230833	551.378906	47.375832
19338.379415	16900.230833	550.136719	-1.148197
19338.379415	16900.230833	548.893555	-45.437569
19338.379415	16900.230833	547.650391	-27.750717
19338.379415	16900.230833	546.407227	-46.477695
19338.379415	16900.230833	545.164063	30.936714
19338.379415	16900.230833	543.919922	121.079903
19338.379415	16900.230833	542.675781	87.197418
19338.379415	16900.230833	541.431641	57.543594
19338.379415	16900.230833	540.186523	585.279846
19338.379415	16900.230833	538.941406	179.600876
19338.379415	16900.230833	537.696289	333.370392
19338.379415	16900.230833	536.451172	758.084717
19338.379415	16900.230833	535.205078	988.369751
19338.379415	16900.230833	533.959961	572.058350
19338.379415	16900.230833	532.712891	755.244324
19338.379415	16900.230833	531.466797	675.990295
19338.379415	16900.230833	530.219727	728.902954
19338.379415	16900.230833	528.972656	587.757080
19338.379415	16900.230833	527.725586	433.827942
19338.379415	16900.230833	526.478516	377.922119
19338.379415	16900.230833	525.230469	607.438110
19338.379415	16900.230833	523.982422	323.510040
19338.379415	16900.230833	522.734375	122.692230
19338.379415	16900.230833	521.485352	266.783295
19338.379415	16900.230833	520.236328	200.036346
19338.379415	16900.230833	518.987305	356.698883
19338.379415	16900.230833	517.737305	55.809349
19338.379415	16900.230833	516.488281	416.515289
19338.379415	16900.230833	515.238281	334.663574
19338.379415	16900.230833	513.988281	206.009064
19338.379415	16900.230833	512.737305	523.740112
19338.379415	16900.230833	511.486328	499.105530
19338.379415	16900.230833	510.235352	652.897095
19338.379415	16900.230833	508.984375	487.906464
19338.379415	16900.230833	507.732422	443.973602
19338.379415	16900.230833	506.480469	487.048340
19338.379415	16900.230833	505.228516	438.746185
19338.379415	16900.230833	503.976563	698.155090
19338.379415	16900.230833	502.723633	407.759003
19338.379415	16900.230833	501.470703	736.917542
19338.379415	16900.230833	500.217773	764.649902
19338.379415	16900.230833	498.963867	692.611328
19338.379415	16900.230833	497.709961	550.551758
19338.379415	16900.230833	496.456055	664.956787
19338.379415	16900.230833	495.202148	618.151855
19338.379415	16900.230833	493.947266	711.113342
19338.379415	16900.230833	492.692383	1102.633911
19338.379415	16900.230833	491.437500	1284.206421
19338.379415	16900.230833	490.181641	1258.077881
19338.379415	16900.230833	488.926758	1062.493286
19338.379415	16900.230833	487.670898	1319.825073
19338.379415	16900.230833	486.414063	1540.949829
19338.379415	16900.230833	485.158203	1704.741089
19338.379415	16900.230833	483.901367	1409.328247
19338.379415	16900.230833	482.644531	1481.881714
19338.379415	16900.230833	481.386719	1765.693604
19338.379415	16900.230833	480.128906	1753.303589
19338.379415	16900.230833	478.871094	2089.481689
19338.379415	16900.230833	477.613281	2023.905640
19338.379415	16900.230833	476.355469	2298.312256
19338.379415	16900.230833	475.096680	1826.884277
19338.379415	16900.230833	473.837891	2064.976807
19338.379415	16900.230833	472.578125	2076.893311
19338.379415	16900.230833	471.319336	1930.329590
19338.379415	16900.230833	470.059570	1998.872314
19338.379415	16900.230833	468.799805	1923.723877
19338.379415	16900.230833	467.539063	2306.109863
19338.379415	16900.230833	466.278320	2006.962402
19338.379415	16900.230833	465.017578	2051.386963
19338.379415	16900.230833	463.756836	2135.612793
19338.379415	16900.230833	462.495117	2010.912598
19338.379415	16900.230833	461.233398	2109.358643
19338.379415	16900.230833	459.971680	2207.503906
19338.379415	16900.230833	458.709961	2006.270264
19338.379415	16900.230833	457.447266	1796.410034
19338.379415	16900.230833	456.184570	1737.922974
19338.379415	16900.230833	454.921875	1866.481689
19338.379415	16900.230833	453.658203	2066.206055
19338.379415	16900.230833	452.394531	1924.698853
19338.379415	16900.230833	451.130859	1963.803223
19338.379415	16900.230833	449.867188	2042.493164
19338.379415	16900.230833	448.602539	2175.440430
19338.379415	16900.230833	447.337891	2116.668945
19338.379415	16900.230833	446.073242	2133.184570
19338.379415	16900.230833	444.807617	2300.555176
19338.379415	16900.230833	443.542969	2337.203125
19338.379415	16900.230833	442.276367	2291.466309
19338.379415	16900.230833	441.010742	2524.571533
19338.379415	16900.230833	439.744141	2393.917480
19338.379415	16900.230833	438.478516	2367.788574
19338.379415	16900.230833	437.210938	2408.288086
19338.379415	16900.230833	435.944336	2179.724854
19338.379415	16900.230833	434.676758	2221.280273
19338.379415	16900.230833	433.409180	2102.884766
19338.379415	16900.230833	432.141602	2311.022461
19338.379415	16900.230833	430.873047	2178.886963
19338.379415	16900.230833	429.604492	2106.960938
19338.379415	16900.230833	428.335938	2344.512451
19338.379415	16900.230833	427.067383	2378.105713
19338.379415	16900.230833	425.797852	2186.892578
19338.379415	16900.230833	424.528320	2173.027344
19338.379415	16900.230833	423.258789	2066.323975
19338.379415	16900.230833	421.988281	2226.784424
19338.379415	16900.230833	420.717773	2306.876953
19338.379415	16900.230833	419.447266	2158.093506
19338.379415	16900.230833	418.175781	2282.509766
19338.379415	16900.230833	416.905273	2324.477051
19338.379415	16900.230833	415.633789	2058.184570
19338.379415	16900.230833	414.362305	2321.998535
19338.379415	16900.230833	413.089844	2223.195801
19338.379415	16900.230833	411.817383	2290.597412
19338.379415	16900.230833	410.544922	2091.671143
19338.379415	16900.230833	409.272461	2008.739380
19338.379415	16900.230833	407.999023	2110.563232
19338.379415	16900.230833	406.725586	2071.369385
19338.379415	16900.230833	405.452148	2206.357178
19338.379415	16900.230833	404.177734	2584.206055
19338.379415	16900.230833	402.903320	2537.186279
19338.379415	16900.230833	401.628906	2392.989746
19338.379415	16900.230833	400.354492	2606.219971
19338.379415	16900.230833	399.079102	2757.534180
19338.379415	16900.230833	397.803711	2763.590576
19338.379415	16900.230833	396.528320	2682.792725
19338.379415	16900.230833	395.251953	2471.363281
19338.379415	16900.230833	393.976563	2173.161865
19338.379415	16900.230833	392.700195	2160.896484
19338.379415	16900.230833	391.422852	1793.056396
19338.379415	16900.230833	390.145508	1609.002197
19338.379415	16900.230833	388.869141	1525.363892
19338.379415	16900.230833	387.590820	1731.240112
19338.379415	16900.230833	386.313477	1485.958374
19338.379415	16900.230833	385.035156	1446.884888
19338.379415	16900.230833	383.756836	1576.449097
19338.379415	16900.230833	382.478516	1758.070190
19338.379415	16900.230833	381.199219	1679.844849
19338.379415	16900.230833	379.919922	1697.271729
19338.379415	16900.230833	378.640625	1438.350220
19338.379415	16900.230833	377.360352	1655.053345
19338.379415	16900.230833	376.080078	1709.536743
19338.379415	16900.230833	374.799805	1535.409302
19338.379415	16900.230833	373.519531	1423.358765
19338.379415	16900.230833	372.238281	1528.865601
19338.379415	16900.230833	370.957031	1401.547729
19338.379415	16900.230833	369.675781	1348.492920
19338.379415	16900.230833	368.394531	1195.381714
19338.379415	16900.230833	367.112305	1593.204590
19338.379415	16900.230833	365.830078	1075.977539
19338.379415	16900.230833	364.546875	1283.549316
19338.379415	16900.230833	363.264648	1448.838867
19338.379415	16900.230833	361.981445	946.006409
19338.379415	16900.230833	360.698242	1312.322510
19338.379415	16900.230833	359.414063	1461.979614
19338.379415	16900.230833	358.129883	1498.634155
19338.379415	16900.230833	356.845703	1801.063965
19338.379415	16900.230833	355.561523	1210.142944
19338.379415	16900.230833	354.276367	1410.406494
19338.379415	16900.230833	352.991211	1286.414307
19338.379415	16900.230833	351.706055	1146.429565
19338.379415	16900.230833	350.420898	1118.565430
19338.379415	16900.230833	349.134766	933.821655
19338.379415	16900.230833	347.848633	637.771179
19338.379415	16900.230833	346.561523	629.065796
19338.379415	16900.230833	345.275391	829.141724
19338.379415	16900.230833	343.988281	562.164673
19338.379415	16900.230833	342.700195	652.225098
19338.379415	16900.230833	341.413086	349.826691
19338.379415	16900.230833	340.125000	356.637329
19338.379415	16900.230833	338.836914	453.727936
19338.379415	16900.230833	337.548828	234.502792
19338.379415	16900.230833	336.259766	435.277954
19338.379415	16900.230833	334.970703	55.634060
19338.379415	16900.230833	333.681641	11.246331
19338.379415	16900.230833	332.391602	122.295532
19338.379415	16900.230833	331.101563	-132.695877
19338.379415	16900.230833	329.811523	424.934753
19338.379415	16900.230833	328.521484	99.195435
19338.379415	16900.230833	327.230469	-141.670929
19338.379415	16900.230833	325.939453	74.997528
19338.379415	16900.230833	324.648438	225.881378
19338.379415	16900.230833	323.356445	-33.004356
19338.379415	16900.230833	322.064453	-108.738380
19338.379415	16900.230833	320.772461	-1.585163
19338.379415	16900.230833	319.480469	201.807480
19338.379415	16900.230833	318.187500	17.784277
19338.379415	16900.230833	316.894531	-86.668480
19338.379415	16900.230833	315.601563	229.449631
19338.379415	16900.230833	314.307617	-244.905762
19338.379415	16900.230833	313.013672	-79.198555
19338.379415	16900.230833	311.719727	-151.114410
19338.379415	16900.230833	310.425781	-49.931587
19338.379415	16900.230833	309.130859	-492.734314
19338.379415	16900.230833	307.835938	-150.976196
19338.379415	16900.230833	306.541016	-115.122078
19338.379415	16900.230833	305.245117	-202.791382
19338.379415	16900.230833	303.949219	-67.142128
19338.379415	16900.230833	302.653320	363.273407
19338.379415	16900.230833	301.356445	519.806885
19338.379415	16900.230833	300.060547	702.305786
19338.379415	16900.230833	298.763672	811.620850
