#X		#Y		#Wave		#Intensity
19457.197660	16932.059167	2000.043945	-145.176346
19457.197660	16932.059167	1999.080078	44.032085
19457.197660	16932.059167	1998.116211	435.603485
19457.197660	16932.059167	1997.151367	-77.746338
19457.197660	16932.059167	1996.186523	-155.086227
19457.197660	16932.059167	1995.222656	166.185745
19457.197660	16932.059167	1994.256836	435.104584
19457.197660	16932.059167	1993.291992	-123.403732
19457.197660	16932.059167	1992.327148	-100.101227
19457.197660	16932.059167	1991.361328	202.708008
19457.197660	16932.059167	1990.395508	79.504486
19457.197660	16932.059167	1989.429688	161.529724
19457.197660	16932.059167	1988.463867	23.142303
19457.197660	16932.059167	1987.497070	357.075775
19457.197660	16932.059167	1986.531250	463.172272
19457.197660	16932.059167	1985.564453	418.231506
19457.197660	16932.059167	1984.597656	-17.466892
19457.197660	16932.059167	1983.630859	243.862701
19457.197660	16932.059167	1982.664063	324.535004
19457.197660	16932.059167	1981.696289	135.717331
19457.197660	16932.059167	1980.728516	-221.160126
19457.197660	16932.059167	1979.761719	-168.047546
19457.197660	16932.059167	1978.792969	168.910889
19457.197660	16932.059167	1977.825195	-67.194008
19457.197660	16932.059167	1976.857422	506.341217
19457.197660	16932.059167	1975.888672	8.414745
19457.197660	16932.059167	1974.919922	107.720505
19457.197660	16932.059167	1973.951172	-123.716988
19457.197660	16932.059167	1972.982422	239.300491
19457.197660	16932.059167	1972.013672	429.449554
19457.197660	16932.059167	1971.043945	237.244385
19457.197660	16932.059167	1970.075195	247.172165
19457.197660	16932.059167	1969.105469	316.174347
19457.197660	16932.059167	1968.135742	94.271011
19457.197660	16932.059167	1967.165039	103.989235
19457.197660	16932.059167	1966.195313	128.406265
19457.197660	16932.059167	1965.224609	105.952705
19457.197660	16932.059167	1964.253906	164.709061
19457.197660	16932.059167	1963.283203	188.911499
19457.197660	16932.059167	1962.312500	249.971817
19457.197660	16932.059167	1961.341797	170.666992
19457.197660	16932.059167	1960.370117	-75.982895
19457.197660	16932.059167	1959.399414	447.472565
19457.197660	16932.059167	1958.427734	173.714386
19457.197660	16932.059167	1957.455078	286.138153
19457.197660	16932.059167	1956.483398	66.526291
19457.197660	16932.059167	1955.511719	92.806511
19457.197660	16932.059167	1954.539063	214.910187
19457.197660	16932.059167	1953.566406	300.075531
19457.197660	16932.059167	1952.593750	-0.579564
19457.197660	16932.059167	1951.621094	416.185760
19457.197660	16932.059167	1950.647461	-112.844055
19457.197660	16932.059167	1949.674805	-22.863356
19457.197660	16932.059167	1948.701172	265.946014
19457.197660	16932.059167	1947.727539	139.773087
19457.197660	16932.059167	1946.753906	-180.258896
19457.197660	16932.059167	1945.780273	44.576756
19457.197660	16932.059167	1944.805664	313.487732
19457.197660	16932.059167	1943.831055	307.559265
19457.197660	16932.059167	1942.856445	-46.628662
19457.197660	16932.059167	1941.881836	-194.716858
19457.197660	16932.059167	1940.907227	-53.463421
19457.197660	16932.059167	1939.932617	-194.142120
19457.197660	16932.059167	1938.957031	116.161316
19457.197660	16932.059167	1937.981445	-88.194839
19457.197660	16932.059167	1937.005859	295.472443
19457.197660	16932.059167	1936.030273	269.967285
19457.197660	16932.059167	1935.054688	112.242065
19457.197660	16932.059167	1934.078125	299.810364
19457.197660	16932.059167	1933.101563	311.067261
19457.197660	16932.059167	1932.125000	202.402451
19457.197660	16932.059167	1931.148438	-99.524834
19457.197660	16932.059167	1930.171875	-203.156982
19457.197660	16932.059167	1929.194336	204.507568
19457.197660	16932.059167	1928.217773	-175.475082
19457.197660	16932.059167	1927.240234	153.813263
19457.197660	16932.059167	1926.262695	-206.424255
19457.197660	16932.059167	1925.284180	54.343098
19457.197660	16932.059167	1924.306641	126.848785
19457.197660	16932.059167	1923.328125	47.860519
19457.197660	16932.059167	1922.350586	83.732712
19457.197660	16932.059167	1921.372070	156.252563
19457.197660	16932.059167	1920.392578	16.311150
19457.197660	16932.059167	1919.414063	47.346607
19457.197660	16932.059167	1918.434570	271.239838
19457.197660	16932.059167	1917.456055	-54.078972
19457.197660	16932.059167	1916.476563	55.101116
19457.197660	16932.059167	1915.497070	100.826263
19457.197660	16932.059167	1914.516602	119.728416
19457.197660	16932.059167	1913.537109	-78.416916
19457.197660	16932.059167	1912.556641	-3.365567
19457.197660	16932.059167	1911.576172	298.404938
19457.197660	16932.059167	1910.595703	68.714821
19457.197660	16932.059167	1909.615234	-104.816826
19457.197660	16932.059167	1908.633789	-200.290634
19457.197660	16932.059167	1907.653320	-39.921799
19457.197660	16932.059167	1906.671875	322.569000
19457.197660	16932.059167	1905.690430	117.543724
19457.197660	16932.059167	1904.708984	114.699364
19457.197660	16932.059167	1903.727539	347.998505
19457.197660	16932.059167	1902.745117	1.984929
19457.197660	16932.059167	1901.762695	213.358307
19457.197660	16932.059167	1900.780273	-88.672775
19457.197660	16932.059167	1899.797852	453.490814
19457.197660	16932.059167	1898.815430	-8.952137
19457.197660	16932.059167	1897.832031	-113.760643
19457.197660	16932.059167	1896.849609	131.558334
19457.197660	16932.059167	1895.866211	230.965775
19457.197660	16932.059167	1894.882813	-58.477654
19457.197660	16932.059167	1893.898438	220.763901
19457.197660	16932.059167	1892.915039	-117.127274
19457.197660	16932.059167	1891.930664	-88.121841
19457.197660	16932.059167	1890.947266	-97.975128
19457.197660	16932.059167	1889.962891	-127.230042
19457.197660	16932.059167	1888.977539	40.165459
19457.197660	16932.059167	1887.993164	6.063318
19457.197660	16932.059167	1887.007813	22.944065
19457.197660	16932.059167	1886.023438	85.917389
19457.197660	16932.059167	1885.038086	294.418884
19457.197660	16932.059167	1884.051758	59.045395
19457.197660	16932.059167	1883.066406	-108.345436
19457.197660	16932.059167	1882.081055	78.274269
19457.197660	16932.059167	1881.094727	308.463684
19457.197660	16932.059167	1880.108398	63.589588
19457.197660	16932.059167	1879.122070	32.024128
19457.197660	16932.059167	1878.135742	-81.889877
19457.197660	16932.059167	1877.148438	0.428137
19457.197660	16932.059167	1876.162109	70.599335
19457.197660	16932.059167	1875.174805	-186.098984
19457.197660	16932.059167	1874.187500	-193.376282
19457.197660	16932.059167	1873.199219	273.709259
19457.197660	16932.059167	1872.211914	75.179207
19457.197660	16932.059167	1871.223633	341.228729
19457.197660	16932.059167	1870.236328	-198.306244
19457.197660	16932.059167	1869.248047	-215.271515
19457.197660	16932.059167	1868.258789	-12.201401
19457.197660	16932.059167	1867.270508	-41.298958
19457.197660	16932.059167	1866.282227	-22.056042
19457.197660	16932.059167	1865.292969	168.748337
19457.197660	16932.059167	1864.303711	-22.276941
19457.197660	16932.059167	1863.314453	-447.564636
19457.197660	16932.059167	1862.324219	-225.426971
19457.197660	16932.059167	1861.334961	-131.375549
19457.197660	16932.059167	1860.344727	114.729820
19457.197660	16932.059167	1859.354492	95.199226
19457.197660	16932.059167	1858.364258	160.127258
19457.197660	16932.059167	1857.374023	133.317490
19457.197660	16932.059167	1856.383789	-79.264404
19457.197660	16932.059167	1855.392578	142.379684
19457.197660	16932.059167	1854.401367	-255.858032
19457.197660	16932.059167	1853.410156	25.966595
19457.197660	16932.059167	1852.418945	377.567322
19457.197660	16932.059167	1851.426758	251.789764
19457.197660	16932.059167	1850.435547	157.353317
19457.197660	16932.059167	1849.443359	101.475754
19457.197660	16932.059167	1848.451172	247.934174
19457.197660	16932.059167	1847.458984	71.577072
19457.197660	16932.059167	1846.466797	42.139652
19457.197660	16932.059167	1845.473633	224.541595
19457.197660	16932.059167	1844.480469	-276.760162
19457.197660	16932.059167	1843.487305	102.903168
19457.197660	16932.059167	1842.494141	82.966034
19457.197660	16932.059167	1841.500977	-139.080490
19457.197660	16932.059167	1840.506836	182.505386
19457.197660	16932.059167	1839.513672	68.656677
19457.197660	16932.059167	1838.519531	274.590424
19457.197660	16932.059167	1837.525391	427.517761
19457.197660	16932.059167	1836.530273	361.635345
19457.197660	16932.059167	1835.536133	175.577789
19457.197660	16932.059167	1834.541016	186.555908
19457.197660	16932.059167	1833.545898	123.017357
19457.197660	16932.059167	1832.550781	-29.406115
19457.197660	16932.059167	1831.555664	-32.949936
19457.197660	16932.059167	1830.560547	136.306732
19457.197660	16932.059167	1829.564453	315.054413
19457.197660	16932.059167	1828.568359	181.705902
19457.197660	16932.059167	1827.572266	38.754276
19457.197660	16932.059167	1826.576172	-58.619816
19457.197660	16932.059167	1825.580078	374.045502
19457.197660	16932.059167	1824.583008	108.676903
19457.197660	16932.059167	1823.585938	325.255768
19457.197660	16932.059167	1822.588867	-16.832121
19457.197660	16932.059167	1821.591797	108.496223
19457.197660	16932.059167	1820.594727	281.640228
19457.197660	16932.059167	1819.596680	171.961884
19457.197660	16932.059167	1818.599609	153.277344
19457.197660	16932.059167	1817.601563	7.614138
19457.197660	16932.059167	1816.603516	115.743240
19457.197660	16932.059167	1815.604492	37.043964
19457.197660	16932.059167	1814.606445	109.090866
19457.197660	16932.059167	1813.607422	389.241058
19457.197660	16932.059167	1812.608398	197.877182
19457.197660	16932.059167	1811.609375	118.943642
19457.197660	16932.059167	1810.610352	149.988449
19457.197660	16932.059167	1809.610352	51.826130
19457.197660	16932.059167	1808.611328	216.608292
19457.197660	16932.059167	1807.611328	89.640541
19457.197660	16932.059167	1806.611328	-116.221390
19457.197660	16932.059167	1805.610352	229.877792
19457.197660	16932.059167	1804.610352	377.482941
19457.197660	16932.059167	1803.609375	293.272125
19457.197660	16932.059167	1802.608398	-144.418060
19457.197660	16932.059167	1801.607422	189.177261
19457.197660	16932.059167	1800.606445	-102.868393
19457.197660	16932.059167	1799.605469	154.057556
19457.197660	16932.059167	1798.603516	-37.807201
19457.197660	16932.059167	1797.601563	54.229790
19457.197660	16932.059167	1796.599609	310.738190
19457.197660	16932.059167	1795.597656	242.721268
19457.197660	16932.059167	1794.595703	365.401062
19457.197660	16932.059167	1793.592773	94.593025
19457.197660	16932.059167	1792.589844	238.538956
19457.197660	16932.059167	1791.587891	-56.146027
19457.197660	16932.059167	1790.583984	363.989166
19457.197660	16932.059167	1789.581055	224.062683
19457.197660	16932.059167	1788.577148	229.389145
19457.197660	16932.059167	1787.574219	275.106171
19457.197660	16932.059167	1786.570313	363.572968
19457.197660	16932.059167	1785.566406	368.604340
19457.197660	16932.059167	1784.561523	78.433029
19457.197660	16932.059167	1783.557617	199.929855
19457.197660	16932.059167	1782.552734	340.324524
19457.197660	16932.059167	1781.547852	-173.534607
19457.197660	16932.059167	1780.542969	-71.356956
19457.197660	16932.059167	1779.538086	235.171555
19457.197660	16932.059167	1778.532227	515.341919
19457.197660	16932.059167	1777.527344	462.563141
19457.197660	16932.059167	1776.521484	126.929283
19457.197660	16932.059167	1775.515625	371.041199
19457.197660	16932.059167	1774.508789	106.627113
19457.197660	16932.059167	1773.502930	-24.784044
19457.197660	16932.059167	1772.496094	532.371826
19457.197660	16932.059167	1771.489258	315.274109
19457.197660	16932.059167	1770.482422	212.096451
19457.197660	16932.059167	1769.475586	412.627655
19457.197660	16932.059167	1768.467773	373.341644
19457.197660	16932.059167	1767.460938	310.252838
19457.197660	16932.059167	1766.453125	370.424377
19457.197660	16932.059167	1765.445313	546.673035
19457.197660	16932.059167	1764.437500	269.912750
19457.197660	16932.059167	1763.428711	246.800598
19457.197660	16932.059167	1762.420898	5.557178
19457.197660	16932.059167	1761.412109	-10.583412
19457.197660	16932.059167	1760.403320	214.834869
19457.197660	16932.059167	1759.393555	127.404312
19457.197660	16932.059167	1758.384766	-19.296240
19457.197660	16932.059167	1757.375000	274.365082
19457.197660	16932.059167	1756.366211	146.434311
19457.197660	16932.059167	1755.356445	25.554693
19457.197660	16932.059167	1754.345703	-123.775955
19457.197660	16932.059167	1753.335938	24.965548
19457.197660	16932.059167	1752.325195	78.927826
19457.197660	16932.059167	1751.315430	229.741882
19457.197660	16932.059167	1750.304688	-113.803360
19457.197660	16932.059167	1749.292969	195.186462
19457.197660	16932.059167	1748.282227	187.227737
19457.197660	16932.059167	1747.270508	-57.154816
19457.197660	16932.059167	1746.259766	-181.036194
19457.197660	16932.059167	1745.248047	143.877518
19457.197660	16932.059167	1744.235352	149.707352
19457.197660	16932.059167	1743.223633	-71.255875
19457.197660	16932.059167	1742.211914	92.608429
19457.197660	16932.059167	1741.199219	79.270142
19457.197660	16932.059167	1740.186523	-212.652390
19457.197660	16932.059167	1739.173828	106.589172
19457.197660	16932.059167	1738.160156	246.308212
19457.197660	16932.059167	1737.147461	-31.615377
19457.197660	16932.059167	1736.133789	-175.111801
19457.197660	16932.059167	1735.120117	-21.558260
19457.197660	16932.059167	1734.106445	-66.180962
19457.197660	16932.059167	1733.091797	-143.883667
19457.197660	16932.059167	1732.078125	-40.195679
19457.197660	16932.059167	1731.063477	89.270348
19457.197660	16932.059167	1730.048828	1.876013
19457.197660	16932.059167	1729.034180	-90.288399
19457.197660	16932.059167	1728.019531	-352.048615
19457.197660	16932.059167	1727.003906	66.570107
19457.197660	16932.059167	1725.988281	-75.265564
19457.197660	16932.059167	1724.972656	-108.887154
19457.197660	16932.059167	1723.957031	163.289841
19457.197660	16932.059167	1722.941406	-199.888351
19457.197660	16932.059167	1721.924805	-179.650482
19457.197660	16932.059167	1720.909180	101.519180
19457.197660	16932.059167	1719.892578	234.365616
19457.197660	16932.059167	1718.875977	132.007416
19457.197660	16932.059167	1717.858398	-3.307893
19457.197660	16932.059167	1716.841797	-77.561913
19457.197660	16932.059167	1715.824219	-133.086411
19457.197660	16932.059167	1714.806641	83.790298
19457.197660	16932.059167	1713.789063	53.916542
19457.197660	16932.059167	1712.770508	-13.605019
19457.197660	16932.059167	1711.752930	240.426544
19457.197660	16932.059167	1710.734375	186.807617
19457.197660	16932.059167	1709.715820	-45.217350
19457.197660	16932.059167	1708.697266	-110.659363
19457.197660	16932.059167	1707.678711	-157.392670
19457.197660	16932.059167	1706.659180	-44.719276
19457.197660	16932.059167	1705.640625	-40.025162
19457.197660	16932.059167	1704.621094	67.731346
19457.197660	16932.059167	1703.600586	6.599650
19457.197660	16932.059167	1702.581055	8.692305
19457.197660	16932.059167	1701.561523	-1.009577
19457.197660	16932.059167	1700.541016	291.398682
19457.197660	16932.059167	1699.520508	-46.407940
19457.197660	16932.059167	1698.500000	173.151489
19457.197660	16932.059167	1697.478516	-218.508728
19457.197660	16932.059167	1696.458008	225.562714
19457.197660	16932.059167	1695.436523	67.925888
19457.197660	16932.059167	1694.415039	109.164391
19457.197660	16932.059167	1693.393555	505.904144
19457.197660	16932.059167	1692.372070	74.433167
19457.197660	16932.059167	1691.349609	220.659561
19457.197660	16932.059167	1690.327148	210.110596
19457.197660	16932.059167	1689.304688	-31.925680
19457.197660	16932.059167	1688.282227	235.565384
19457.197660	16932.059167	1687.259766	231.828918
19457.197660	16932.059167	1686.236328	141.579407
19457.197660	16932.059167	1685.213867	350.289215
19457.197660	16932.059167	1684.190430	70.761337
19457.197660	16932.059167	1683.166016	181.197769
19457.197660	16932.059167	1682.142578	396.588837
19457.197660	16932.059167	1681.119141	390.105988
19457.197660	16932.059167	1680.094727	362.557251
19457.197660	16932.059167	1679.070313	250.968613
19457.197660	16932.059167	1678.045898	405.288452
19457.197660	16932.059167	1677.020508	769.383240
19457.197660	16932.059167	1675.996094	704.245911
19457.197660	16932.059167	1674.970703	384.957794
19457.197660	16932.059167	1673.945313	238.223083
19457.197660	16932.059167	1672.919922	417.751831
19457.197660	16932.059167	1671.893555	229.017746
19457.197660	16932.059167	1670.868164	371.104095
19457.197660	16932.059167	1669.841797	368.677826
19457.197660	16932.059167	1668.815430	268.402283
19457.197660	16932.059167	1667.789063	170.448532
19457.197660	16932.059167	1666.761719	202.829193
19457.197660	16932.059167	1665.735352	323.596710
19457.197660	16932.059167	1664.708008	688.583740
19457.197660	16932.059167	1663.680664	350.822906
19457.197660	16932.059167	1662.653320	310.870178
19457.197660	16932.059167	1661.625000	701.095398
19457.197660	16932.059167	1660.597656	186.705734
19457.197660	16932.059167	1659.569336	860.326416
19457.197660	16932.059167	1658.541016	504.064667
19457.197660	16932.059167	1657.512695	835.712646
19457.197660	16932.059167	1656.483398	797.796387
19457.197660	16932.059167	1655.455078	780.775330
19457.197660	16932.059167	1654.425781	800.877991
19457.197660	16932.059167	1653.396484	391.397278
19457.197660	16932.059167	1652.366211	399.892334
19457.197660	16932.059167	1651.336914	368.908691
19457.197660	16932.059167	1650.306641	379.670837
19457.197660	16932.059167	1649.276367	638.653442
19457.197660	16932.059167	1648.246094	983.336182
19457.197660	16932.059167	1647.215820	977.667664
19457.197660	16932.059167	1646.185547	967.340637
19457.197660	16932.059167	1645.154297	929.169861
19457.197660	16932.059167	1644.123047	1210.856689
19457.197660	16932.059167	1643.091797	987.226746
19457.197660	16932.059167	1642.060547	805.371033
19457.197660	16932.059167	1641.028320	1293.026367
19457.197660	16932.059167	1639.997070	1006.930115
19457.197660	16932.059167	1638.964844	964.062378
19457.197660	16932.059167	1637.931641	1203.635254
19457.197660	16932.059167	1636.899414	1137.577759
19457.197660	16932.059167	1635.867188	932.681091
19457.197660	16932.059167	1634.833984	1054.092407
19457.197660	16932.059167	1633.800781	1173.136108
19457.197660	16932.059167	1632.767578	1051.588867
19457.197660	16932.059167	1631.734375	1274.639526
19457.197660	16932.059167	1630.700195	1340.376343
19457.197660	16932.059167	1629.666016	1382.973511
19457.197660	16932.059167	1628.631836	1000.309265
19457.197660	16932.059167	1627.597656	975.947449
19457.197660	16932.059167	1626.563477	884.602234
19457.197660	16932.059167	1625.528320	1176.707642
19457.197660	16932.059167	1624.493164	1383.260254
19457.197660	16932.059167	1623.458008	1587.431030
19457.197660	16932.059167	1622.422852	1479.897339
19457.197660	16932.059167	1621.387695	1390.877075
19457.197660	16932.059167	1620.351563	1315.739990
19457.197660	16932.059167	1619.315430	1307.548950
19457.197660	16932.059167	1618.279297	1460.838257
19457.197660	16932.059167	1617.243164	1697.103516
19457.197660	16932.059167	1616.207031	1262.330322
19457.197660	16932.059167	1615.169922	1535.453125
19457.197660	16932.059167	1614.132813	1506.557739
19457.197660	16932.059167	1613.095703	1493.825317
19457.197660	16932.059167	1612.058594	1460.382080
19457.197660	16932.059167	1611.020508	1514.500488
19457.197660	16932.059167	1609.983398	1953.235474
19457.197660	16932.059167	1608.945313	1549.073608
19457.197660	16932.059167	1607.907227	1495.020996
19457.197660	16932.059167	1606.868164	1572.203125
19457.197660	16932.059167	1605.830078	1748.347168
19457.197660	16932.059167	1604.791016	1763.392822
19457.197660	16932.059167	1603.751953	1490.921997
19457.197660	16932.059167	1602.712891	1724.564819
19457.197660	16932.059167	1601.673828	1420.084473
19457.197660	16932.059167	1600.633789	1423.815918
19457.197660	16932.059167	1599.594727	1802.253296
19457.197660	16932.059167	1598.554688	1697.975342
19457.197660	16932.059167	1597.513672	1439.829346
19457.197660	16932.059167	1596.473633	1570.059082
19457.197660	16932.059167	1595.433594	1757.700684
19457.197660	16932.059167	1594.392578	1945.304565
19457.197660	16932.059167	1593.351563	1473.973267
19457.197660	16932.059167	1592.310547	1393.089233
19457.197660	16932.059167	1591.268555	1537.185059
19457.197660	16932.059167	1590.227539	1422.001831
19457.197660	16932.059167	1589.185547	1921.713257
19457.197660	16932.059167	1588.143555	1533.658325
19457.197660	16932.059167	1587.100586	1654.881592
19457.197660	16932.059167	1586.058594	1895.338501
19457.197660	16932.059167	1585.015625	1736.898560
19457.197660	16932.059167	1583.972656	1766.507935
19457.197660	16932.059167	1582.929688	1434.128540
19457.197660	16932.059167	1581.886719	1757.138794
19457.197660	16932.059167	1580.843750	1528.082886
19457.197660	16932.059167	1579.799805	1720.535034
19457.197660	16932.059167	1578.755859	1317.689087
19457.197660	16932.059167	1577.711914	1354.577637
19457.197660	16932.059167	1576.666992	1483.056274
19457.197660	16932.059167	1575.623047	1854.110718
19457.197660	16932.059167	1574.578125	1682.880737
19457.197660	16932.059167	1573.533203	1953.241821
19457.197660	16932.059167	1572.488281	1585.528809
19457.197660	16932.059167	1571.443359	1263.760620
19457.197660	16932.059167	1570.397461	1694.273926
19457.197660	16932.059167	1569.351563	1669.873047
19457.197660	16932.059167	1568.305664	1380.489014
19457.197660	16932.059167	1567.259766	1746.984253
19457.197660	16932.059167	1566.213867	1875.859741
19457.197660	16932.059167	1565.166992	1376.731934
19457.197660	16932.059167	1564.120117	1654.197876
19457.197660	16932.059167	1563.073242	1648.565308
19457.197660	16932.059167	1562.026367	1316.636108
19457.197660	16932.059167	1560.978516	1404.794312
19457.197660	16932.059167	1559.930664	1415.431763
19457.197660	16932.059167	1558.883789	1268.765869
19457.197660	16932.059167	1557.834961	1393.626953
19457.197660	16932.059167	1556.787109	1276.835205
19457.197660	16932.059167	1555.739258	1303.802368
19457.197660	16932.059167	1554.690430	1219.160889
19457.197660	16932.059167	1553.641602	1535.716187
19457.197660	16932.059167	1552.592773	1578.836304
19457.197660	16932.059167	1551.542969	1494.468506
19457.197660	16932.059167	1550.494141	1453.504639
19457.197660	16932.059167	1549.444336	911.705627
19457.197660	16932.059167	1548.394531	1431.098755
19457.197660	16932.059167	1547.344727	1329.005249
19457.197660	16932.059167	1546.293945	1056.372925
19457.197660	16932.059167	1545.244141	1270.850342
19457.197660	16932.059167	1544.193359	1326.107544
19457.197660	16932.059167	1543.142578	1374.622314
19457.197660	16932.059167	1542.090820	1086.684814
19457.197660	16932.059167	1541.040039	1014.946472
19457.197660	16932.059167	1539.988281	959.248108
19457.197660	16932.059167	1538.936523	762.783997
19457.197660	16932.059167	1537.884766	973.207397
19457.197660	16932.059167	1536.833008	777.034790
19457.197660	16932.059167	1535.780273	651.453247
19457.197660	16932.059167	1534.727539	628.215149
19457.197660	16932.059167	1533.674805	900.235474
19457.197660	16932.059167	1532.622070	607.071655
19457.197660	16932.059167	1531.569336	768.017578
19457.197660	16932.059167	1530.515625	647.661072
19457.197660	16932.059167	1529.461914	904.039185
19457.197660	16932.059167	1528.408203	700.017944
19457.197660	16932.059167	1527.354492	688.939941
19457.197660	16932.059167	1526.299805	727.862244
19457.197660	16932.059167	1525.246094	125.411469
19457.197660	16932.059167	1524.191406	486.476410
19457.197660	16932.059167	1523.136719	466.864838
19457.197660	16932.059167	1522.081055	644.466248
19457.197660	16932.059167	1521.026367	493.711060
19457.197660	16932.059167	1519.970703	279.731049
19457.197660	16932.059167	1518.915039	195.009308
19457.197660	16932.059167	1517.859375	463.562134
19457.197660	16932.059167	1516.802734	370.035461
19457.197660	16932.059167	1515.747070	170.327103
19457.197660	16932.059167	1514.690430	224.193161
19457.197660	16932.059167	1513.633789	-119.905502
19457.197660	16932.059167	1512.577148	-61.224087
19457.197660	16932.059167	1511.519531	67.651421
19457.197660	16932.059167	1510.461914	637.392456
19457.197660	16932.059167	1509.405273	153.884872
19457.197660	16932.059167	1508.346680	-19.745136
19457.197660	16932.059167	1507.289063	77.918381
19457.197660	16932.059167	1506.231445	101.143135
19457.197660	16932.059167	1505.172852	300.628967
19457.197660	16932.059167	1504.114258	35.075840
19457.197660	16932.059167	1503.055664	11.292852
19457.197660	16932.059167	1501.996094	64.390358
19457.197660	16932.059167	1500.937500	-299.835052
19457.197660	16932.059167	1499.877930	-129.114258
19457.197660	16932.059167	1498.818359	-64.331993
19457.197660	16932.059167	1497.757813	-6.203637
19457.197660	16932.059167	1496.698242	-232.041077
19457.197660	16932.059167	1495.637695	-11.324227
19457.197660	16932.059167	1494.577148	193.670990
19457.197660	16932.059167	1493.516602	8.907873
19457.197660	16932.059167	1492.456055	-72.011597
19457.197660	16932.059167	1491.394531	376.553375
19457.197660	16932.059167	1490.333008	151.754074
19457.197660	16932.059167	1489.271484	82.540039
19457.197660	16932.059167	1488.209961	67.521019
19457.197660	16932.059167	1487.148438	313.716888
19457.197660	16932.059167	1486.085938	141.437027
19457.197660	16932.059167	1485.023438	-98.119209
19457.197660	16932.059167	1483.960938	60.677383
19457.197660	16932.059167	1482.898438	-12.067438
19457.197660	16932.059167	1481.834961	36.778473
19457.197660	16932.059167	1480.772461	166.670532
19457.197660	16932.059167	1479.708984	58.447102
19457.197660	16932.059167	1478.644531	-312.484955
19457.197660	16932.059167	1477.581055	8.819201
19457.197660	16932.059167	1476.517578	323.300507
19457.197660	16932.059167	1475.453125	227.068375
19457.197660	16932.059167	1474.388672	7.426181
19457.197660	16932.059167	1473.323242	79.774612
19457.197660	16932.059167	1472.258789	253.269943
19457.197660	16932.059167	1471.193359	142.057266
19457.197660	16932.059167	1470.127930	-108.271606
19457.197660	16932.059167	1469.062500	251.709229
19457.197660	16932.059167	1467.997070	-392.296997
19457.197660	16932.059167	1466.930664	162.638519
19457.197660	16932.059167	1465.865234	314.260193
19457.197660	16932.059167	1464.798828	237.894333
19457.197660	16932.059167	1463.731445	433.922302
19457.197660	16932.059167	1462.665039	163.173584
19457.197660	16932.059167	1461.597656	693.156921
19457.197660	16932.059167	1460.530273	501.173767
19457.197660	16932.059167	1459.462891	276.005310
19457.197660	16932.059167	1458.395508	548.593018
19457.197660	16932.059167	1457.327148	309.771057
19457.197660	16932.059167	1456.259766	304.398438
19457.197660	16932.059167	1455.191406	558.883972
19457.197660	16932.059167	1454.123047	293.073059
19457.197660	16932.059167	1453.053711	232.671494
19457.197660	16932.059167	1451.985352	212.849640
19457.197660	16932.059167	1450.916016	408.288818
19457.197660	16932.059167	1449.846680	238.659988
19457.197660	16932.059167	1448.776367	107.601128
19457.197660	16932.059167	1447.707031	17.851736
19457.197660	16932.059167	1446.636719	212.807083
19457.197660	16932.059167	1445.566406	369.432465
19457.197660	16932.059167	1444.496094	354.184723
19457.197660	16932.059167	1443.425781	576.964111
19457.197660	16932.059167	1442.354492	363.223785
19457.197660	16932.059167	1441.283203	472.410828
19457.197660	16932.059167	1440.211914	226.068024
19457.197660	16932.059167	1439.140625	164.195145
19457.197660	16932.059167	1438.069336	106.461861
19457.197660	16932.059167	1436.997070	-83.125305
19457.197660	16932.059167	1435.924805	-101.700058
19457.197660	16932.059167	1434.852539	28.565456
19457.197660	16932.059167	1433.780273	29.485399
19457.197660	16932.059167	1432.707031	160.881226
19457.197660	16932.059167	1431.633789	-246.908691
19457.197660	16932.059167	1430.560547	-272.140533
19457.197660	16932.059167	1429.487305	140.001755
19457.197660	16932.059167	1428.413086	288.621368
19457.197660	16932.059167	1427.339844	341.528625
19457.197660	16932.059167	1426.265625	86.674454
19457.197660	16932.059167	1425.191406	126.115128
19457.197660	16932.059167	1424.116211	122.598839
19457.197660	16932.059167	1423.041992	-40.283985
19457.197660	16932.059167	1421.966797	-132.837204
19457.197660	16932.059167	1420.891602	170.819046
19457.197660	16932.059167	1419.816406	-73.971924
19457.197660	16932.059167	1418.740234	-157.465179
19457.197660	16932.059167	1417.665039	-0.343201
19457.197660	16932.059167	1416.588867	-124.363640
19457.197660	16932.059167	1415.512695	-98.653214
19457.197660	16932.059167	1414.435547	57.117462
19457.197660	16932.059167	1413.359375	-77.319138
19457.197660	16932.059167	1412.282227	58.670925
19457.197660	16932.059167	1411.205078	-57.346249
19457.197660	16932.059167	1410.127930	30.201075
19457.197660	16932.059167	1409.049805	25.170183
19457.197660	16932.059167	1407.972656	141.719971
19457.197660	16932.059167	1406.894531	-261.274200
19457.197660	16932.059167	1405.816406	-78.184357
19457.197660	16932.059167	1404.737305	-142.582489
19457.197660	16932.059167	1403.659180	-190.066605
19457.197660	16932.059167	1402.580078	-108.584557
19457.197660	16932.059167	1401.500977	-175.784378
19457.197660	16932.059167	1400.421875	5.825494
19457.197660	16932.059167	1399.341797	-167.431793
19457.197660	16932.059167	1398.262695	-87.169197
19457.197660	16932.059167	1397.182617	62.315018
19457.197660	16932.059167	1396.102539	174.858490
19457.197660	16932.059167	1395.021484	218.339523
19457.197660	16932.059167	1393.941406	-28.258217
19457.197660	16932.059167	1392.860352	-71.155884
19457.197660	16932.059167	1391.779297	-103.895271
19457.197660	16932.059167	1390.698242	342.317841
19457.197660	16932.059167	1389.616211	-66.215866
19457.197660	16932.059167	1388.535156	-157.920181
19457.197660	16932.059167	1387.453125	223.311050
19457.197660	16932.059167	1386.371094	403.302582
19457.197660	16932.059167	1385.288086	157.638748
19457.197660	16932.059167	1384.206055	423.441650
19457.197660	16932.059167	1383.123047	110.093735
19457.197660	16932.059167	1382.040039	419.130188
19457.197660	16932.059167	1380.957031	245.757233
19457.197660	16932.059167	1379.873047	527.307800
19457.197660	16932.059167	1378.789063	515.734680
19457.197660	16932.059167	1377.705078	264.781158
19457.197660	16932.059167	1376.621094	491.387848
19457.197660	16932.059167	1375.537109	132.948410
19457.197660	16932.059167	1374.452148	625.266968
19457.197660	16932.059167	1373.367188	249.018417
19457.197660	16932.059167	1372.282227	273.760437
19457.197660	16932.059167	1371.197266	287.576172
19457.197660	16932.059167	1370.112305	449.124878
19457.197660	16932.059167	1369.026367	598.965088
19457.197660	16932.059167	1367.940430	591.341370
19457.197660	16932.059167	1366.854492	489.110291
19457.197660	16932.059167	1365.767578	366.467316
19457.197660	16932.059167	1364.681641	433.309814
19457.197660	16932.059167	1363.594727	199.147003
19457.197660	16932.059167	1362.507813	372.576447
19457.197660	16932.059167	1361.419922	614.333069
19457.197660	16932.059167	1360.333008	167.875977
19457.197660	16932.059167	1359.245117	399.435760
19457.197660	16932.059167	1358.157227	563.486511
19457.197660	16932.059167	1357.069336	810.117188
19457.197660	16932.059167	1355.981445	759.643188
19457.197660	16932.059167	1354.892578	638.305786
19457.197660	16932.059167	1353.803711	503.891235
19457.197660	16932.059167	1352.714844	380.072388
19457.197660	16932.059167	1351.625000	748.192383
19457.197660	16932.059167	1350.536133	697.681091
19457.197660	16932.059167	1349.446289	519.214294
19457.197660	16932.059167	1348.356445	484.683044
19457.197660	16932.059167	1347.266602	445.439880
19457.197660	16932.059167	1346.175781	651.664307
19457.197660	16932.059167	1345.085938	924.189697
19457.197660	16932.059167	1343.995117	423.130005
19457.197660	16932.059167	1342.903320	460.337921
19457.197660	16932.059167	1341.812500	562.154114
19457.197660	16932.059167	1340.720703	570.402100
19457.197660	16932.059167	1339.629883	455.826355
19457.197660	16932.059167	1338.538086	398.875732
19457.197660	16932.059167	1337.445313	710.400940
19457.197660	16932.059167	1336.353516	754.411743
19457.197660	16932.059167	1335.260742	619.097534
19457.197660	16932.059167	1334.167969	875.860168
19457.197660	16932.059167	1333.075195	500.184753
19457.197660	16932.059167	1331.981445	486.925690
19457.197660	16932.059167	1330.888672	730.449341
19457.197660	16932.059167	1329.794922	420.336426
19457.197660	16932.059167	1328.701172	559.910278
19457.197660	16932.059167	1327.606445	618.960999
19457.197660	16932.059167	1326.512695	547.059387
19457.197660	16932.059167	1325.417969	670.148193
19457.197660	16932.059167	1324.323242	420.950714
19457.197660	16932.059167	1323.227539	695.485779
19457.197660	16932.059167	1322.132813	450.482025
19457.197660	16932.059167	1321.037109	424.874756
19457.197660	16932.059167	1319.941406	538.586243
19457.197660	16932.059167	1318.845703	406.435730
19457.197660	16932.059167	1317.750000	505.900574
19457.197660	16932.059167	1316.653320	216.287094
19457.197660	16932.059167	1315.556641	280.757568
19457.197660	16932.059167	1314.459961	444.853821
19457.197660	16932.059167	1313.363281	291.723145
19457.197660	16932.059167	1312.265625	121.504158
19457.197660	16932.059167	1311.167969	57.620560
19457.197660	16932.059167	1310.070313	203.510666
19457.197660	16932.059167	1308.972656	155.157730
19457.197660	16932.059167	1307.874023	124.786461
19457.197660	16932.059167	1306.776367	77.770233
19457.197660	16932.059167	1305.677734	161.756943
19457.197660	16932.059167	1304.579102	133.261780
19457.197660	16932.059167	1303.479492	207.009644
19457.197660	16932.059167	1302.380859	143.016098
19457.197660	16932.059167	1301.281250	381.800507
19457.197660	16932.059167	1300.181641	22.688419
19457.197660	16932.059167	1299.081055	97.164680
19457.197660	16932.059167	1297.981445	35.769867
19457.197660	16932.059167	1296.880859	113.072533
19457.197660	16932.059167	1295.780273	233.493744
19457.197660	16932.059167	1294.679688	186.157333
19457.197660	16932.059167	1293.578125	203.384338
19457.197660	16932.059167	1292.476563	250.800735
19457.197660	16932.059167	1291.375000	263.569458
19457.197660	16932.059167	1290.273438	124.841713
19457.197660	16932.059167	1289.171875	265.635895
19457.197660	16932.059167	1288.069336	337.351288
19457.197660	16932.059167	1286.966797	253.891083
19457.197660	16932.059167	1285.864258	328.345917
19457.197660	16932.059167	1284.761719	39.786945
19457.197660	16932.059167	1283.658203	206.258118
19457.197660	16932.059167	1282.554688	134.723022
19457.197660	16932.059167	1281.451172	134.453964
19457.197660	16932.059167	1280.347656	154.869751
19457.197660	16932.059167	1279.244141	207.160629
19457.197660	16932.059167	1278.139648	455.110962
19457.197660	16932.059167	1277.035156	229.594360
19457.197660	16932.059167	1275.930664	310.496399
19457.197660	16932.059167	1274.825195	146.123016
19457.197660	16932.059167	1273.720703	307.216461
19457.197660	16932.059167	1272.615234	230.186554
19457.197660	16932.059167	1271.508789	212.995148
19457.197660	16932.059167	1270.403320	231.675415
19457.197660	16932.059167	1269.297852	519.750122
19457.197660	16932.059167	1268.191406	363.841644
19457.197660	16932.059167	1267.084961	116.192642
19457.197660	16932.059167	1265.977539	242.134506
19457.197660	16932.059167	1264.871094	508.126068
19457.197660	16932.059167	1263.763672	180.145828
19457.197660	16932.059167	1262.656250	253.879623
19457.197660	16932.059167	1261.548828	314.556885
19457.197660	16932.059167	1260.440430	343.235657
19457.197660	16932.059167	1259.333008	580.491882
19457.197660	16932.059167	1258.224609	217.708389
19457.197660	16932.059167	1257.115234	214.962311
19457.197660	16932.059167	1256.006836	648.477966
19457.197660	16932.059167	1254.897461	213.788620
19457.197660	16932.059167	1253.788086	-154.925690
19457.197660	16932.059167	1252.678711	36.082020
19457.197660	16932.059167	1251.569336	100.566551
19457.197660	16932.059167	1250.458984	163.140747
19457.197660	16932.059167	1249.349609	88.108994
19457.197660	16932.059167	1248.239258	452.703888
19457.197660	16932.059167	1247.127930	-10.684997
19457.197660	16932.059167	1246.017578	205.758484
19457.197660	16932.059167	1244.906250	151.540344
19457.197660	16932.059167	1243.794922	48.686333
19457.197660	16932.059167	1242.683594	282.142670
19457.197660	16932.059167	1241.571289	259.307404
19457.197660	16932.059167	1240.459961	-37.661507
19457.197660	16932.059167	1239.347656	283.700928
19457.197660	16932.059167	1238.234375	-45.389484
19457.197660	16932.059167	1237.122070	181.078812
19457.197660	16932.059167	1236.008789	87.510208
19457.197660	16932.059167	1234.896484	135.660492
19457.197660	16932.059167	1233.782227	201.016586
19457.197660	16932.059167	1232.668945	175.843521
19457.197660	16932.059167	1231.555664	-76.751709
19457.197660	16932.059167	1230.441406	-42.377003
19457.197660	16932.059167	1229.327148	-19.934198
19457.197660	16932.059167	1228.211914	-134.951141
19457.197660	16932.059167	1227.097656	43.441437
19457.197660	16932.059167	1225.982422	89.352844
19457.197660	16932.059167	1224.867188	-123.409691
19457.197660	16932.059167	1223.751953	-168.712296
19457.197660	16932.059167	1222.635742	-137.584869
19457.197660	16932.059167	1221.520508	15.551109
19457.197660	16932.059167	1220.404297	-272.263611
19457.197660	16932.059167	1219.287109	-76.867867
19457.197660	16932.059167	1218.170898	22.969322
19457.197660	16932.059167	1217.053711	-282.164520
19457.197660	16932.059167	1215.936523	-178.952148
19457.197660	16932.059167	1214.819336	-52.990135
19457.197660	16932.059167	1213.702148	-14.566445
19457.197660	16932.059167	1212.583984	58.525227
19457.197660	16932.059167	1211.465820	-47.759094
19457.197660	16932.059167	1210.347656	-270.697571
19457.197660	16932.059167	1209.229492	-160.187531
19457.197660	16932.059167	1208.110352	-122.143829
19457.197660	16932.059167	1206.992188	-11.491132
19457.197660	16932.059167	1205.873047	-128.116989
19457.197660	16932.059167	1204.752930	-228.319183
19457.197660	16932.059167	1203.633789	83.723961
19457.197660	16932.059167	1202.513672	-61.879200
19457.197660	16932.059167	1201.393555	-19.113707
19457.197660	16932.059167	1200.273438	24.254059
19457.197660	16932.059167	1199.152344	-168.788651
19457.197660	16932.059167	1198.032227	-153.865097
19457.197660	16932.059167	1196.911133	-196.380920
19457.197660	16932.059167	1195.790039	45.108749
19457.197660	16932.059167	1194.667969	107.479729
19457.197660	16932.059167	1193.545898	-194.717560
19457.197660	16932.059167	1192.424805	59.747147
19457.197660	16932.059167	1191.301758	-23.325623
19457.197660	16932.059167	1190.179688	-67.235809
19457.197660	16932.059167	1189.056641	-134.319214
19457.197660	16932.059167	1187.933594	-161.361115
19457.197660	16932.059167	1186.810547	-63.645378
19457.197660	16932.059167	1185.687500	-198.635529
19457.197660	16932.059167	1184.563477	-199.262711
19457.197660	16932.059167	1183.440430	-134.402924
19457.197660	16932.059167	1182.316406	6.765744
19457.197660	16932.059167	1181.191406	-45.415638
19457.197660	16932.059167	1180.067383	85.761177
19457.197660	16932.059167	1178.942383	27.723370
19457.197660	16932.059167	1177.817383	60.986904
19457.197660	16932.059167	1176.692383	-77.499573
19457.197660	16932.059167	1175.566406	-23.745626
19457.197660	16932.059167	1174.440430	90.663330
19457.197660	16932.059167	1173.314453	-50.906063
19457.197660	16932.059167	1172.188477	43.901112
19457.197660	16932.059167	1171.062500	40.543312
19457.197660	16932.059167	1169.935547	182.686554
19457.197660	16932.059167	1168.808594	124.704697
19457.197660	16932.059167	1167.681641	-87.408623
19457.197660	16932.059167	1166.553711	439.047638
19457.197660	16932.059167	1165.426758	168.294861
19457.197660	16932.059167	1164.298828	162.415283
19457.197660	16932.059167	1163.170898	202.152206
19457.197660	16932.059167	1162.041992	76.501419
19457.197660	16932.059167	1160.914063	-36.770313
19457.197660	16932.059167	1159.785156	306.084869
19457.197660	16932.059167	1158.656250	173.160156
19457.197660	16932.059167	1157.526367	132.796829
19457.197660	16932.059167	1156.397461	210.951569
19457.197660	16932.059167	1155.267578	293.598419
19457.197660	16932.059167	1154.137695	36.039806
19457.197660	16932.059167	1153.006836	52.444950
19457.197660	16932.059167	1151.876953	-57.242653
19457.197660	16932.059167	1150.746094	-52.818905
19457.197660	16932.059167	1149.615234	-118.621765
19457.197660	16932.059167	1148.484375	-96.186752
19457.197660	16932.059167	1147.352539	94.155167
19457.197660	16932.059167	1146.220703	-69.148636
19457.197660	16932.059167	1145.088867	-81.338692
19457.197660	16932.059167	1143.957031	-25.249315
19457.197660	16932.059167	1142.825195	-174.613220
19457.197660	16932.059167	1141.692383	-172.978424
19457.197660	16932.059167	1140.559570	-260.354248
19457.197660	16932.059167	1139.426758	-44.428440
19457.197660	16932.059167	1138.292969	48.354313
19457.197660	16932.059167	1137.159180	-99.921326
19457.197660	16932.059167	1136.025391	-81.183334
19457.197660	16932.059167	1134.891602	-23.588202
19457.197660	16932.059167	1133.757813	25.699791
19457.197660	16932.059167	1132.623047	-90.897095
19457.197660	16932.059167	1131.488281	-58.409084
19457.197660	16932.059167	1130.353516	188.065964
19457.197660	16932.059167	1129.217773	-17.971720
19457.197660	16932.059167	1128.083008	201.588120
19457.197660	16932.059167	1126.947266	-12.246108
19457.197660	16932.059167	1125.811523	-121.144897
19457.197660	16932.059167	1124.674805	322.204285
19457.197660	16932.059167	1123.539063	137.851639
19457.197660	16932.059167	1122.402344	57.186008
19457.197660	16932.059167	1121.265625	-16.390558
19457.197660	16932.059167	1120.127930	-138.923187
19457.197660	16932.059167	1118.990234	36.314545
19457.197660	16932.059167	1117.853516	225.969223
19457.197660	16932.059167	1116.714844	138.797943
19457.197660	16932.059167	1115.577148	88.158684
19457.197660	16932.059167	1114.439453	126.051163
19457.197660	16932.059167	1113.300781	67.619392
19457.197660	16932.059167	1112.162109	189.728882
19457.197660	16932.059167	1111.022461	269.459076
19457.197660	16932.059167	1109.883789	344.492706
19457.197660	16932.059167	1108.744141	124.107780
19457.197660	16932.059167	1107.604492	-172.958786
19457.197660	16932.059167	1106.463867	149.698395
19457.197660	16932.059167	1105.324219	214.034088
19457.197660	16932.059167	1104.183594	418.548492
19457.197660	16932.059167	1103.042969	333.402588
19457.197660	16932.059167	1101.902344	99.994911
19457.197660	16932.059167	1100.760742	33.363335
19457.197660	16932.059167	1099.619141	117.911301
19457.197660	16932.059167	1098.477539	25.054867
19457.197660	16932.059167	1097.335938	213.368317
19457.197660	16932.059167	1096.193359	114.660835
19457.197660	16932.059167	1095.051758	199.904022
19457.197660	16932.059167	1093.909180	147.417313
19457.197660	16932.059167	1092.765625	78.466263
19457.197660	16932.059167	1091.623047	283.919312
19457.197660	16932.059167	1090.479492	215.994034
19457.197660	16932.059167	1089.335938	75.242905
19457.197660	16932.059167	1088.192383	277.455109
19457.197660	16932.059167	1087.047852	199.236267
19457.197660	16932.059167	1085.903320	318.965271
19457.197660	16932.059167	1084.758789	277.950867
19457.197660	16932.059167	1083.614258	298.329926
19457.197660	16932.059167	1082.469727	297.815460
19457.197660	16932.059167	1081.324219	367.204254
19457.197660	16932.059167	1080.178711	342.447784
19457.197660	16932.059167	1079.033203	-3.129504
19457.197660	16932.059167	1077.886719	0.755271
19457.197660	16932.059167	1076.740234	250.258896
19457.197660	16932.059167	1075.593750	425.176514
19457.197660	16932.059167	1074.447266	319.754395
19457.197660	16932.059167	1073.300781	367.926361
19457.197660	16932.059167	1072.153320	227.107895
19457.197660	16932.059167	1071.005859	183.051788
19457.197660	16932.059167	1069.858398	306.332520
19457.197660	16932.059167	1068.709961	123.091919
19457.197660	16932.059167	1067.561523	137.461945
19457.197660	16932.059167	1066.413086	22.542469
19457.197660	16932.059167	1065.264648	94.583725
19457.197660	16932.059167	1064.116211	170.248108
19457.197660	16932.059167	1062.966797	218.220154
19457.197660	16932.059167	1061.817383	306.583313
19457.197660	16932.059167	1060.667969	120.054672
19457.197660	16932.059167	1059.517578	184.982681
19457.197660	16932.059167	1058.368164	358.222015
19457.197660	16932.059167	1057.217773	141.635269
19457.197660	16932.059167	1056.067383	215.898010
19457.197660	16932.059167	1054.916016	291.504974
19457.197660	16932.059167	1053.764648	445.309570
19457.197660	16932.059167	1052.613281	442.659790
19457.197660	16932.059167	1051.461914	444.145813
19457.197660	16932.059167	1050.310547	261.057007
19457.197660	16932.059167	1049.158203	194.827286
19457.197660	16932.059167	1048.005859	86.892456
19457.197660	16932.059167	1046.853516	145.965729
19457.197660	16932.059167	1045.700195	193.504318
19457.197660	16932.059167	1044.547852	527.161194
19457.197660	16932.059167	1043.394531	44.172634
19457.197660	16932.059167	1042.240234	331.533020
19457.197660	16932.059167	1041.086914	89.284271
19457.197660	16932.059167	1039.932617	115.816719
19457.197660	16932.059167	1038.778320	265.006042
19457.197660	16932.059167	1037.624023	318.544006
19457.197660	16932.059167	1036.469727	147.431030
19457.197660	16932.059167	1035.314453	550.225403
19457.197660	16932.059167	1034.159180	352.396790
19457.197660	16932.059167	1033.003906	567.414368
19457.197660	16932.059167	1031.847656	486.400757
19457.197660	16932.059167	1030.692383	592.457520
19457.197660	16932.059167	1029.536133	359.772858
19457.197660	16932.059167	1028.378906	461.200470
19457.197660	16932.059167	1027.222656	657.631348
19457.197660	16932.059167	1026.065430	463.829590
19457.197660	16932.059167	1024.908203	212.644150
19457.197660	16932.059167	1023.750977	384.971954
19457.197660	16932.059167	1022.593750	312.309509
19457.197660	16932.059167	1021.435547	35.571968
19457.197660	16932.059167	1020.277344	140.046082
19457.197660	16932.059167	1019.119141	267.939301
19457.197660	16932.059167	1017.959961	439.791656
19457.197660	16932.059167	1016.800781	7.866586
19457.197660	16932.059167	1015.641602	-19.683132
19457.197660	16932.059167	1014.482422	106.006203
19457.197660	16932.059167	1013.323242	109.558075
19457.197660	16932.059167	1012.163086	20.068914
19457.197660	16932.059167	1011.002930	20.999691
19457.197660	16932.059167	1009.842773	114.407471
19457.197660	16932.059167	1008.681641	-75.045029
19457.197660	16932.059167	1007.520508	11.515409
19457.197660	16932.059167	1006.359375	-75.830711
19457.197660	16932.059167	1005.198242	83.696342
19457.197660	16932.059167	1004.037109	99.975906
19457.197660	16932.059167	1002.875000	347.043518
19457.197660	16932.059167	1001.712891	66.602722
19457.197660	16932.059167	1000.550781	373.515259
19457.197660	16932.059167	999.387695	336.779449
19457.197660	16932.059167	998.224609	103.350861
19457.197660	16932.059167	997.061523	-33.193871
19457.197660	16932.059167	995.898438	318.641785
19457.197660	16932.059167	994.734375	254.225082
19457.197660	16932.059167	993.571289	197.189926
19457.197660	16932.059167	992.407227	-96.143677
19457.197660	16932.059167	991.242188	157.154297
19457.197660	16932.059167	990.078125	-14.321128
19457.197660	16932.059167	988.913086	324.331879
19457.197660	16932.059167	987.748047	-166.215851
19457.197660	16932.059167	986.583008	195.830978
19457.197660	16932.059167	985.416992	112.909691
19457.197660	16932.059167	984.250977	112.605232
19457.197660	16932.059167	983.084961	340.638733
19457.197660	16932.059167	981.918945	228.633682
19457.197660	16932.059167	980.751953	-11.234550
19457.197660	16932.059167	979.584961	-54.097622
19457.197660	16932.059167	978.417969	121.955040
19457.197660	16932.059167	977.250977	221.527344
19457.197660	16932.059167	976.083008	48.778934
19457.197660	16932.059167	974.915039	30.222792
19457.197660	16932.059167	973.747070	-32.552784
19457.197660	16932.059167	972.579102	-140.023956
19457.197660	16932.059167	971.410156	105.189453
19457.197660	16932.059167	970.242188	129.539185
19457.197660	16932.059167	969.072266	120.836731
19457.197660	16932.059167	967.903320	114.312393
19457.197660	16932.059167	966.733398	214.823608
19457.197660	16932.059167	965.563477	241.248856
19457.197660	16932.059167	964.393555	144.609985
19457.197660	16932.059167	963.223633	227.366379
19457.197660	16932.059167	962.052734	-32.643101
19457.197660	16932.059167	960.881836	-70.266426
19457.197660	16932.059167	959.710938	-12.841111
19457.197660	16932.059167	958.540039	-208.419540
19457.197660	16932.059167	957.368164	-80.520393
19457.197660	16932.059167	956.196289	-250.356766
19457.197660	16932.059167	955.024414	-88.139252
19457.197660	16932.059167	953.851563	-50.306553
19457.197660	16932.059167	952.679688	71.746300
19457.197660	16932.059167	951.506836	-96.833092
19457.197660	16932.059167	950.333984	-71.333885
19457.197660	16932.059167	949.160156	12.891035
19457.197660	16932.059167	947.986328	-85.041176
19457.197660	16932.059167	946.812500	-93.202477
19457.197660	16932.059167	945.638672	37.966045
19457.197660	16932.059167	944.464844	-58.343903
19457.197660	16932.059167	943.290039	63.413040
19457.197660	16932.059167	942.115234	-147.022797
19457.197660	16932.059167	940.940430	-73.223389
19457.197660	16932.059167	939.764648	46.034267
19457.197660	16932.059167	938.588867	-54.294598
19457.197660	16932.059167	937.413086	-270.916748
19457.197660	16932.059167	936.237305	-209.609238
19457.197660	16932.059167	935.060547	-7.328917
19457.197660	16932.059167	933.883789	-190.720047
19457.197660	16932.059167	932.707031	-125.489433
19457.197660	16932.059167	931.530273	20.544821
19457.197660	16932.059167	930.352539	-79.974617
19457.197660	16932.059167	929.175781	-72.816795
19457.197660	16932.059167	927.998047	-11.710319
19457.197660	16932.059167	926.819336	18.247307
19457.197660	16932.059167	925.641602	-32.564407
19457.197660	16932.059167	924.462891	26.289843
19457.197660	16932.059167	923.284180	-65.945396
19457.197660	16932.059167	922.104492	-52.627674
19457.197660	16932.059167	920.924805	-165.528015
19457.197660	16932.059167	919.746094	-154.159576
19457.197660	16932.059167	919.551758	89.544708
19457.197660	16932.059167	918.386719	137.766495
19457.197660	16932.059167	917.220703	-122.094223
19457.197660	16932.059167	916.054688	-183.439255
19457.197660	16932.059167	914.887695	90.012314
19457.197660	16932.059167	913.721680	16.202917
19457.197660	16932.059167	912.554688	-305.481537
19457.197660	16932.059167	911.387695	68.957596
19457.197660	16932.059167	910.220703	205.756744
19457.197660	16932.059167	909.052734	-93.123634
19457.197660	16932.059167	907.885742	80.759102
19457.197660	16932.059167	906.717773	-242.787521
19457.197660	16932.059167	905.548828	42.441586
19457.197660	16932.059167	904.380859	139.803207
19457.197660	16932.059167	903.211914	-6.250721
19457.197660	16932.059167	902.042969	33.307816
19457.197660	16932.059167	900.874023	83.135132
19457.197660	16932.059167	899.704102	155.601624
19457.197660	16932.059167	898.535156	-103.769714
19457.197660	16932.059167	897.365234	32.525497
19457.197660	16932.059167	896.194336	-167.006912
19457.197660	16932.059167	895.024414	8.329988
19457.197660	16932.059167	893.853516	2.386122
19457.197660	16932.059167	892.682617	208.459183
19457.197660	16932.059167	891.511719	155.092133
19457.197660	16932.059167	890.340820	81.144341
19457.197660	16932.059167	889.168945	-38.049210
19457.197660	16932.059167	887.997070	-5.003279
19457.197660	16932.059167	886.825195	54.739132
19457.197660	16932.059167	885.653320	-161.081772
19457.197660	16932.059167	884.480469	108.308304
19457.197660	16932.059167	883.307617	-64.314301
19457.197660	16932.059167	882.134766	147.364792
19457.197660	16932.059167	880.961914	-111.529488
19457.197660	16932.059167	879.788086	-66.340118
19457.197660	16932.059167	878.614258	-152.624725
19457.197660	16932.059167	877.440430	-111.600174
19457.197660	16932.059167	876.266602	171.606461
19457.197660	16932.059167	875.091797	3.169649
19457.197660	16932.059167	873.916992	146.666626
19457.197660	16932.059167	872.742188	-83.287521
19457.197660	16932.059167	871.567383	150.365677
19457.197660	16932.059167	870.391602	123.474426
19457.197660	16932.059167	869.215820	242.135498
19457.197660	16932.059167	868.040039	32.755009
19457.197660	16932.059167	866.864258	276.346466
19457.197660	16932.059167	865.687500	107.980583
19457.197660	16932.059167	864.510742	-129.991867
19457.197660	16932.059167	863.333984	105.221916
19457.197660	16932.059167	862.157227	108.924461
19457.197660	16932.059167	860.979492	147.409027
19457.197660	16932.059167	859.802734	112.156853
19457.197660	16932.059167	858.625000	183.313187
19457.197660	16932.059167	857.446289	-122.044121
19457.197660	16932.059167	856.268555	270.238159
19457.197660	16932.059167	855.089844	134.682068
19457.197660	16932.059167	853.911133	87.077980
19457.197660	16932.059167	852.731445	-46.388500
19457.197660	16932.059167	851.552734	59.301285
19457.197660	16932.059167	850.373047	-86.422661
19457.197660	16932.059167	849.193359	-87.056992
19457.197660	16932.059167	848.013672	79.776924
19457.197660	16932.059167	846.833008	-159.885864
19457.197660	16932.059167	845.652344	35.428757
19457.197660	16932.059167	844.471680	-18.418177
19457.197660	16932.059167	843.291016	86.922646
19457.197660	16932.059167	842.110352	-48.595943
19457.197660	16932.059167	840.928711	-202.444931
19457.197660	16932.059167	839.747070	-38.064159
19457.197660	16932.059167	838.564453	-287.756714
19457.197660	16932.059167	837.382813	-190.772888
19457.197660	16932.059167	836.200195	1.951350
19457.197660	16932.059167	835.017578	-133.560867
19457.197660	16932.059167	833.834961	-99.927055
19457.197660	16932.059167	832.651367	163.869827
19457.197660	16932.059167	831.467773	-108.150902
19457.197660	16932.059167	830.284180	-117.401733
19457.197660	16932.059167	829.100586	150.204880
19457.197660	16932.059167	827.916992	26.844336
19457.197660	16932.059167	826.732422	-141.267242
19457.197660	16932.059167	825.547852	-63.147564
19457.197660	16932.059167	824.363281	-19.677851
19457.197660	16932.059167	823.177734	23.742645
19457.197660	16932.059167	821.992188	4.072879
19457.197660	16932.059167	820.806641	-188.433640
19457.197660	16932.059167	819.621094	78.466850
19457.197660	16932.059167	818.434570	42.433533
19457.197660	16932.059167	817.249023	77.478806
19457.197660	16932.059167	816.062500	29.192921
19457.197660	16932.059167	814.875000	-39.414875
19457.197660	16932.059167	813.688477	210.746124
19457.197660	16932.059167	812.500977	-18.327787
19457.197660	16932.059167	811.313477	249.916351
19457.197660	16932.059167	810.125977	-78.588287
19457.197660	16932.059167	808.937500	114.414856
19457.197660	16932.059167	807.749023	-51.730145
19457.197660	16932.059167	806.560547	151.241913
19457.197660	16932.059167	805.372070	-89.950645
19457.197660	16932.059167	804.182617	106.784500
19457.197660	16932.059167	802.994141	230.423462
19457.197660	16932.059167	801.803711	60.165848
19457.197660	16932.059167	800.614258	195.834610
19457.197660	16932.059167	799.424805	19.479076
19457.197660	16932.059167	798.234375	-35.339890
19457.197660	16932.059167	797.043945	-254.178268
19457.197660	16932.059167	795.852539	215.264984
19457.197660	16932.059167	794.662109	186.607132
19457.197660	16932.059167	793.470703	297.530731
19457.197660	16932.059167	792.279297	291.028748
19457.197660	16932.059167	791.087891	169.196487
19457.197660	16932.059167	789.895508	128.254654
19457.197660	16932.059167	788.703125	8.432736
19457.197660	16932.059167	787.510742	234.249802
19457.197660	16932.059167	786.318359	90.103874
19457.197660	16932.059167	785.125000	-104.538406
19457.197660	16932.059167	783.931641	151.312363
19457.197660	16932.059167	782.738281	122.239738
19457.197660	16932.059167	781.544922	125.432732
19457.197660	16932.059167	780.350586	112.428154
19457.197660	16932.059167	779.156250	266.895264
19457.197660	16932.059167	777.961914	158.915680
19457.197660	16932.059167	776.767578	288.988953
19457.197660	16932.059167	775.572266	209.182983
19457.197660	16932.059167	774.376953	274.553955
19457.197660	16932.059167	773.181641	142.247910
19457.197660	16932.059167	771.986328	-74.723816
19457.197660	16932.059167	770.790039	103.362701
19457.197660	16932.059167	769.593750	128.179108
19457.197660	16932.059167	768.397461	15.933956
19457.197660	16932.059167	767.201172	42.654213
19457.197660	16932.059167	766.003906	37.090988
19457.197660	16932.059167	764.806641	180.455185
19457.197660	16932.059167	763.609375	190.847961
19457.197660	16932.059167	762.412109	229.349030
19457.197660	16932.059167	761.213867	88.707375
19457.197660	16932.059167	760.015625	-11.703777
19457.197660	16932.059167	758.817383	261.949188
19457.197660	16932.059167	757.618164	259.954193
19457.197660	16932.059167	756.419922	-13.511808
19457.197660	16932.059167	755.220703	22.615625
19457.197660	16932.059167	754.021484	-23.729460
19457.197660	16932.059167	752.821289	-37.966358
19457.197660	16932.059167	751.621094	16.034409
19457.197660	16932.059167	750.420898	148.270584
19457.197660	16932.059167	749.220703	-62.959316
19457.197660	16932.059167	748.020508	-25.241520
19457.197660	16932.059167	746.819336	134.828659
19457.197660	16932.059167	745.618164	336.904480
19457.197660	16932.059167	744.416992	282.038361
19457.197660	16932.059167	743.214844	112.802849
19457.197660	16932.059167	742.012695	438.894348
19457.197660	16932.059167	740.810547	127.211021
19457.197660	16932.059167	739.608398	194.446030
19457.197660	16932.059167	738.406250	281.626465
19457.197660	16932.059167	737.203125	274.533661
19457.197660	16932.059167	736.000000	399.590820
19457.197660	16932.059167	734.795898	348.280396
19457.197660	16932.059167	733.592773	363.000244
19457.197660	16932.059167	732.388672	493.764160
19457.197660	16932.059167	731.184570	736.493652
19457.197660	16932.059167	729.979492	480.764740
19457.197660	16932.059167	728.775391	283.091034
19457.197660	16932.059167	727.570313	407.487823
19457.197660	16932.059167	726.365234	265.773468
19457.197660	16932.059167	725.160156	58.065063
19457.197660	16932.059167	723.954102	-95.647629
19457.197660	16932.059167	722.748047	20.453964
19457.197660	16932.059167	721.541992	118.451828
19457.197660	16932.059167	720.334961	324.224274
19457.197660	16932.059167	719.128906	-21.446419
19457.197660	16932.059167	717.921875	-3.588757
19457.197660	16932.059167	716.714844	295.707977
19457.197660	16932.059167	715.506836	-301.463226
19457.197660	16932.059167	714.298828	-52.259884
19457.197660	16932.059167	713.090820	63.079807
19457.197660	16932.059167	711.882813	-17.198004
19457.197660	16932.059167	710.674805	117.889198
19457.197660	16932.059167	709.465820	85.352158
19457.197660	16932.059167	708.256836	272.059143
19457.197660	16932.059167	707.047852	213.451691
19457.197660	16932.059167	705.837891	262.411530
19457.197660	16932.059167	704.627930	582.244629
19457.197660	16932.059167	703.417969	292.332031
19457.197660	16932.059167	702.208008	110.013824
19457.197660	16932.059167	700.998047	-175.836761
19457.197660	16932.059167	699.787109	8.175492
19457.197660	16932.059167	698.576172	-36.844242
19457.197660	16932.059167	697.364258	-129.668793
19457.197660	16932.059167	696.153320	-17.611086
19457.197660	16932.059167	694.941406	94.333702
19457.197660	16932.059167	693.729492	-135.879333
19457.197660	16932.059167	692.516602	-272.618896
19457.197660	16932.059167	691.304688	-17.773560
19457.197660	16932.059167	690.091797	-251.995102
19457.197660	16932.059167	688.878906	-231.855499
19457.197660	16932.059167	687.665039	-136.301682
19457.197660	16932.059167	686.451172	-60.714073
19457.197660	16932.059167	685.237305	52.503498
19457.197660	16932.059167	684.023438	6.785117
19457.197660	16932.059167	682.809570	-23.099180
19457.197660	16932.059167	681.594727	50.155453
19457.197660	16932.059167	680.379883	-122.702126
19457.197660	16932.059167	679.165039	31.744678
19457.197660	16932.059167	677.949219	402.232269
19457.197660	16932.059167	676.733398	102.322182
19457.197660	16932.059167	675.517578	-11.180222
19457.197660	16932.059167	674.301758	198.360458
19457.197660	16932.059167	673.084961	66.930519
19457.197660	16932.059167	671.869141	80.116013
19457.197660	16932.059167	670.651367	138.794281
19457.197660	16932.059167	669.434570	112.235909
19457.197660	16932.059167	668.216797	-11.380312
19457.197660	16932.059167	667.000000	266.823151
19457.197660	16932.059167	665.781250	228.211456
19457.197660	16932.059167	664.563477	391.378113
19457.197660	16932.059167	663.344727	71.741821
19457.197660	16932.059167	662.125977	446.386505
19457.197660	16932.059167	660.907227	49.648983
19457.197660	16932.059167	659.688477	374.610229
19457.197660	16932.059167	658.468750	136.074631
19457.197660	16932.059167	657.249023	318.499359
19457.197660	16932.059167	656.029297	188.639297
19457.197660	16932.059167	654.808594	197.054626
19457.197660	16932.059167	653.587891	237.017181
19457.197660	16932.059167	652.367188	142.652985
19457.197660	16932.059167	651.146484	66.050980
19457.197660	16932.059167	649.924805	-73.718941
19457.197660	16932.059167	648.704102	62.771107
19457.197660	16932.059167	647.482422	175.487961
19457.197660	16932.059167	646.259766	71.157272
19457.197660	16932.059167	645.037109	-9.505385
19457.197660	16932.059167	643.815430	-50.741318
19457.197660	16932.059167	642.591797	-168.872650
19457.197660	16932.059167	641.369141	160.352875
19457.197660	16932.059167	640.145508	-76.059059
19457.197660	16932.059167	638.921875	10.646418
19457.197660	16932.059167	637.698242	191.816284
19457.197660	16932.059167	636.474609	81.463562
19457.197660	16932.059167	635.250000	-13.123222
19457.197660	16932.059167	634.025391	171.779755
19457.197660	16932.059167	632.800781	108.640633
19457.197660	16932.059167	631.575195	263.876862
19457.197660	16932.059167	630.349609	263.634247
19457.197660	16932.059167	629.124023	220.103622
19457.197660	16932.059167	627.898438	209.993454
19457.197660	16932.059167	626.671875	-12.427249
19457.197660	16932.059167	625.445313	126.835106
19457.197660	16932.059167	624.218750	124.551521
19457.197660	16932.059167	622.992188	-29.007008
19457.197660	16932.059167	621.764648	-231.618332
19457.197660	16932.059167	620.537109	52.814777
19457.197660	16932.059167	619.309570	-230.243256
19457.197660	16932.059167	618.081055	32.455090
19457.197660	16932.059167	616.852539	-427.110046
19457.197660	16932.059167	615.624023	-135.069916
19457.197660	16932.059167	614.395508	-60.885860
19457.197660	16932.059167	613.166992	142.691742
19457.197660	16932.059167	611.937500	-220.452789
19457.197660	16932.059167	610.708008	-65.936935
19457.197660	16932.059167	609.477539	-52.597061
19457.197660	16932.059167	608.248047	-227.363022
19457.197660	16932.059167	607.017578	-98.407188
19457.197660	16932.059167	605.787109	-102.682938
19457.197660	16932.059167	604.555664	-65.829346
19457.197660	16932.059167	603.325195	29.749132
19457.197660	16932.059167	602.093750	205.548141
19457.197660	16932.059167	600.861328	-19.885746
19457.197660	16932.059167	599.629883	136.308609
19457.197660	16932.059167	598.397461	87.062439
19457.197660	16932.059167	597.165039	63.277840
19457.197660	16932.059167	595.932617	172.477936
19457.197660	16932.059167	594.699219	21.658531
19457.197660	16932.059167	593.465820	87.866196
19457.197660	16932.059167	592.232422	-6.159155
19457.197660	16932.059167	590.999023	-94.259644
19457.197660	16932.059167	589.764648	89.195374
19457.197660	16932.059167	588.530273	171.059006
19457.197660	16932.059167	587.295898	3.014502
19457.197660	16932.059167	586.061523	-141.502945
19457.197660	16932.059167	584.826172	77.057289
19457.197660	16932.059167	583.590820	-108.319000
19457.197660	16932.059167	582.355469	-434.030640
19457.197660	16932.059167	581.119141	16.642965
19457.197660	16932.059167	579.882813	-80.744156
19457.197660	16932.059167	578.646484	-68.881897
19457.197660	16932.059167	577.410156	59.961704
19457.197660	16932.059167	576.172852	-130.779785
19457.197660	16932.059167	574.935547	132.537277
19457.197660	16932.059167	573.698242	43.240498
19457.197660	16932.059167	572.460938	20.239487
19457.197660	16932.059167	571.222656	-18.276276
19457.197660	16932.059167	569.984375	171.020203
19457.197660	16932.059167	568.746094	-26.988892
19457.197660	16932.059167	567.506836	121.475800
19457.197660	16932.059167	566.267578	149.325043
19457.197660	16932.059167	565.028320	-71.725113
19457.197660	16932.059167	563.789063	-63.177383
19457.197660	16932.059167	562.548828	44.571857
19457.197660	16932.059167	561.309570	268.953552
19457.197660	16932.059167	560.068359	75.512680
19457.197660	16932.059167	558.828125	70.665306
19457.197660	16932.059167	557.586914	230.986771
19457.197660	16932.059167	556.345703	263.135132
19457.197660	16932.059167	555.104492	-13.371124
19457.197660	16932.059167	553.863281	-0.464811
19457.197660	16932.059167	552.621094	49.377647
19457.197660	16932.059167	551.378906	409.714294
19457.197660	16932.059167	550.136719	457.643463
19457.197660	16932.059167	548.893555	59.544132
19457.197660	16932.059167	547.650391	375.257233
19457.197660	16932.059167	546.407227	246.957016
19457.197660	16932.059167	545.164063	498.673157
19457.197660	16932.059167	543.919922	560.450623
19457.197660	16932.059167	542.675781	608.709900
19457.197660	16932.059167	541.431641	279.308533
19457.197660	16932.059167	540.186523	593.059021
19457.197660	16932.059167	538.941406	655.049377
19457.197660	16932.059167	537.696289	660.947510
19457.197660	16932.059167	536.451172	484.995361
19457.197660	16932.059167	535.205078	374.975983
19457.197660	16932.059167	533.959961	636.496155
19457.197660	16932.059167	532.712891	389.315735
19457.197660	16932.059167	531.466797	422.691345
19457.197660	16932.059167	530.219727	392.325989
19457.197660	16932.059167	528.972656	481.876740
19457.197660	16932.059167	527.725586	434.254791
19457.197660	16932.059167	526.478516	367.400543
19457.197660	16932.059167	525.230469	472.551636
19457.197660	16932.059167	523.982422	846.157471
19457.197660	16932.059167	522.734375	758.212769
19457.197660	16932.059167	521.485352	595.085815
19457.197660	16932.059167	520.236328	324.012543
19457.197660	16932.059167	518.987305	794.047791
19457.197660	16932.059167	517.737305	791.311584
19457.197660	16932.059167	516.488281	632.401611
19457.197660	16932.059167	515.238281	735.860413
19457.197660	16932.059167	513.988281	827.755005
19457.197660	16932.059167	512.737305	713.423645
19457.197660	16932.059167	511.486328	662.778625
19457.197660	16932.059167	510.235352	637.240967
19457.197660	16932.059167	508.984375	887.200073
19457.197660	16932.059167	507.732422	996.507385
19457.197660	16932.059167	506.480469	1238.650513
19457.197660	16932.059167	505.228516	1091.873901
19457.197660	16932.059167	503.976563	870.126892
19457.197660	16932.059167	502.723633	1221.889038
19457.197660	16932.059167	501.470703	1283.035889
19457.197660	16932.059167	500.217773	1161.451538
19457.197660	16932.059167	498.963867	1514.884766
19457.197660	16932.059167	497.709961	1154.928833
19457.197660	16932.059167	496.456055	1602.391479
19457.197660	16932.059167	495.202148	1575.005493
19457.197660	16932.059167	493.947266	1743.586792
19457.197660	16932.059167	492.692383	1743.040649
19457.197660	16932.059167	491.437500	1729.029053
19457.197660	16932.059167	490.181641	1713.072144
19457.197660	16932.059167	488.926758	1848.729492
19457.197660	16932.059167	487.670898	2003.475098
19457.197660	16932.059167	486.414063	2035.305786
19457.197660	16932.059167	485.158203	1932.776489
19457.197660	16932.059167	483.901367	2056.539795
19457.197660	16932.059167	482.644531	2393.020508
19457.197660	16932.059167	481.386719	1970.101929
19457.197660	16932.059167	480.128906	2139.530273
19457.197660	16932.059167	478.871094	2065.416260
19457.197660	16932.059167	477.613281	2360.986572
19457.197660	16932.059167	476.355469	2426.455078
19457.197660	16932.059167	475.096680	2497.513184
19457.197660	16932.059167	473.837891	2568.400391
19457.197660	16932.059167	472.578125	2543.397217
19457.197660	16932.059167	471.319336	2860.813477
19457.197660	16932.059167	470.059570	2697.660889
19457.197660	16932.059167	468.799805	2427.268066
19457.197660	16932.059167	467.539063	2895.046631
19457.197660	16932.059167	466.278320	2867.167969
19457.197660	16932.059167	465.017578	2730.109619
19457.197660	16932.059167	463.756836	2778.276611
19457.197660	16932.059167	462.495117	2969.492432
19457.197660	16932.059167	461.233398	3160.363281
19457.197660	16932.059167	459.971680	2844.702637
19457.197660	16932.059167	458.709961	2826.794922
19457.197660	16932.059167	457.447266	2902.142578
19457.197660	16932.059167	456.184570	3095.483398
19457.197660	16932.059167	454.921875	3068.932617
19457.197660	16932.059167	453.658203	3167.964844
19457.197660	16932.059167	452.394531	3272.305664
19457.197660	16932.059167	451.130859	3322.808838
19457.197660	16932.059167	449.867188	3201.269043
19457.197660	16932.059167	448.602539	3283.335693
19457.197660	16932.059167	447.337891	3511.678955
19457.197660	16932.059167	446.073242	3575.579834
19457.197660	16932.059167	444.807617	3353.193359
19457.197660	16932.059167	443.542969	3452.294189
19457.197660	16932.059167	442.276367	3686.023682
19457.197660	16932.059167	441.010742	3702.059326
19457.197660	16932.059167	439.744141	3582.362061
19457.197660	16932.059167	438.478516	3424.063721
19457.197660	16932.059167	437.210938	3778.921143
19457.197660	16932.059167	435.944336	3674.542236
19457.197660	16932.059167	434.676758	3668.427002
19457.197660	16932.059167	433.409180	3855.562012
19457.197660	16932.059167	432.141602	3944.943359
19457.197660	16932.059167	430.873047	3769.344238
19457.197660	16932.059167	429.604492	3688.053467
19457.197660	16932.059167	428.335938	3748.473389
19457.197660	16932.059167	427.067383	3956.184814
19457.197660	16932.059167	425.797852	3984.428711
19457.197660	16932.059167	424.528320	3954.807861
19457.197660	16932.059167	423.258789	3918.579102
19457.197660	16932.059167	421.988281	4012.336182
19457.197660	16932.059167	420.717773	3850.821045
19457.197660	16932.059167	419.447266	3762.330566
19457.197660	16932.059167	418.175781	4040.719971
19457.197660	16932.059167	416.905273	3857.163330
19457.197660	16932.059167	415.633789	3909.497314
19457.197660	16932.059167	414.362305	3746.477051
19457.197660	16932.059167	413.089844	3826.735840
19457.197660	16932.059167	411.817383	3712.484375
19457.197660	16932.059167	410.544922	3716.318359
19457.197660	16932.059167	409.272461	3796.466309
19457.197660	16932.059167	407.999023	3805.142090
19457.197660	16932.059167	406.725586	3816.190918
19457.197660	16932.059167	405.452148	3990.420410
19457.197660	16932.059167	404.177734	3663.571045
19457.197660	16932.059167	402.903320	3840.367920
19457.197660	16932.059167	401.628906	3890.683838
19457.197660	16932.059167	400.354492	4020.646729
19457.197660	16932.059167	399.079102	3863.398926
19457.197660	16932.059167	397.803711	3626.999756
19457.197660	16932.059167	396.528320	3721.474365
19457.197660	16932.059167	395.251953	3651.574951
19457.197660	16932.059167	393.976563	3666.736816
19457.197660	16932.059167	392.700195	3475.979492
19457.197660	16932.059167	391.422852	3621.197998
19457.197660	16932.059167	390.145508	3492.506592
19457.197660	16932.059167	388.869141	3763.744385
19457.197660	16932.059167	387.590820	3676.037354
19457.197660	16932.059167	386.313477	3886.094482
19457.197660	16932.059167	385.035156	3580.786621
19457.197660	16932.059167	383.756836	3633.372070
19457.197660	16932.059167	382.478516	3163.263916
19457.197660	16932.059167	381.199219	3542.660156
19457.197660	16932.059167	379.919922	3551.933838
19457.197660	16932.059167	378.640625	3524.683838
19457.197660	16932.059167	377.360352	3191.489014
19457.197660	16932.059167	376.080078	3416.802002
19457.197660	16932.059167	374.799805	3313.516846
19457.197660	16932.059167	373.519531	3410.650879
19457.197660	16932.059167	372.238281	3380.516357
19457.197660	16932.059167	370.957031	3170.502930
19457.197660	16932.059167	369.675781	3151.192383
19457.197660	16932.059167	368.394531	2863.543213
19457.197660	16932.059167	367.112305	3053.960449
19457.197660	16932.059167	365.830078	2885.674316
19457.197660	16932.059167	364.546875	2943.200928
19457.197660	16932.059167	363.264648	2677.848389
19457.197660	16932.059167	361.981445	2842.826660
19457.197660	16932.059167	360.698242	2619.032227
19457.197660	16932.059167	359.414063	2537.896484
19457.197660	16932.059167	358.129883	2634.994385
19457.197660	16932.059167	356.845703	2572.290039
19457.197660	16932.059167	355.561523	2732.580322
19457.197660	16932.059167	354.276367	2481.432373
19457.197660	16932.059167	352.991211	2516.831787
19457.197660	16932.059167	351.706055	2169.056396
19457.197660	16932.059167	350.420898	2173.159668
19457.197660	16932.059167	349.134766	2026.364258
19457.197660	16932.059167	347.848633	2105.436768
19457.197660	16932.059167	346.561523	2009.059082
19457.197660	16932.059167	345.275391	1849.874634
19457.197660	16932.059167	343.988281	1683.737183
19457.197660	16932.059167	342.700195	1752.054199
19457.197660	16932.059167	341.413086	1641.139893
19457.197660	16932.059167	340.125000	1927.129395
19457.197660	16932.059167	338.836914	1750.959717
19457.197660	16932.059167	337.548828	1357.867798
19457.197660	16932.059167	336.259766	1363.028931
19457.197660	16932.059167	334.970703	1076.229492
19457.197660	16932.059167	333.681641	1258.399414
19457.197660	16932.059167	332.391602	1051.035767
19457.197660	16932.059167	331.101563	908.505432
19457.197660	16932.059167	329.811523	707.325500
19457.197660	16932.059167	328.521484	738.776489
19457.197660	16932.059167	327.230469	735.332886
19457.197660	16932.059167	325.939453	489.822144
19457.197660	16932.059167	324.648438	168.385101
19457.197660	16932.059167	323.356445	610.498535
19457.197660	16932.059167	322.064453	468.615112
19457.197660	16932.059167	320.772461	291.389679
19457.197660	16932.059167	319.480469	427.431580
19457.197660	16932.059167	318.187500	137.788834
19457.197660	16932.059167	316.894531	4.408060
19457.197660	16932.059167	315.601563	-82.931351
19457.197660	16932.059167	314.307617	76.560081
19457.197660	16932.059167	313.013672	-31.376387
19457.197660	16932.059167	311.719727	-112.459694
19457.197660	16932.059167	310.425781	-112.882126
19457.197660	16932.059167	309.130859	-118.783638
19457.197660	16932.059167	307.835938	-252.928604
19457.197660	16932.059167	306.541016	-35.304947
19457.197660	16932.059167	305.245117	-15.468893
19457.197660	16932.059167	303.949219	57.912418
19457.197660	16932.059167	302.653320	63.732792
19457.197660	16932.059167	301.356445	49.861874
19457.197660	16932.059167	300.060547	245.384552
19457.197660	16932.059167	298.763672	201.430252
