#X		#Y		#Wave		#Intensity
19518.960532	16953.687667	2000.043945	-122.440178
19518.960532	16953.687667	1999.080078	75.679260
19518.960532	16953.687667	1998.116211	198.156982
19518.960532	16953.687667	1997.151367	250.740875
19518.960532	16953.687667	1996.186523	131.877853
19518.960532	16953.687667	1995.222656	49.748852
19518.960532	16953.687667	1994.256836	-178.888885
19518.960532	16953.687667	1993.291992	55.183102
19518.960532	16953.687667	1992.327148	-62.818626
19518.960532	16953.687667	1991.361328	368.367462
19518.960532	16953.687667	1990.395508	128.291290
19518.960532	16953.687667	1989.429688	-188.791718
19518.960532	16953.687667	1988.463867	250.922501
19518.960532	16953.687667	1987.497070	299.300537
19518.960532	16953.687667	1986.531250	317.617798
19518.960532	16953.687667	1985.564453	-166.349442
19518.960532	16953.687667	1984.597656	343.352234
19518.960532	16953.687667	1983.630859	24.510221
19518.960532	16953.687667	1982.664063	283.753571
19518.960532	16953.687667	1981.696289	337.529724
19518.960532	16953.687667	1980.728516	432.987976
19518.960532	16953.687667	1979.761719	416.970032
19518.960532	16953.687667	1978.792969	262.413727
19518.960532	16953.687667	1977.825195	-20.749067
19518.960532	16953.687667	1976.857422	21.781090
19518.960532	16953.687667	1975.888672	399.708710
19518.960532	16953.687667	1974.919922	350.359497
19518.960532	16953.687667	1973.951172	406.882385
19518.960532	16953.687667	1972.982422	640.760071
19518.960532	16953.687667	1972.013672	460.006348
19518.960532	16953.687667	1971.043945	279.116730
19518.960532	16953.687667	1970.075195	465.414185
19518.960532	16953.687667	1969.105469	249.684097
19518.960532	16953.687667	1968.135742	137.350372
19518.960532	16953.687667	1967.165039	-46.569477
19518.960532	16953.687667	1966.195313	402.510193
19518.960532	16953.687667	1965.224609	348.806274
19518.960532	16953.687667	1964.253906	129.967392
19518.960532	16953.687667	1963.283203	381.318451
19518.960532	16953.687667	1962.312500	413.340485
19518.960532	16953.687667	1961.341797	250.774063
19518.960532	16953.687667	1960.370117	383.425629
19518.960532	16953.687667	1959.399414	476.526520
19518.960532	16953.687667	1958.427734	20.933086
19518.960532	16953.687667	1957.455078	22.838161
19518.960532	16953.687667	1956.483398	641.805481
19518.960532	16953.687667	1955.511719	414.730316
19518.960532	16953.687667	1954.539063	342.493805
19518.960532	16953.687667	1953.566406	-71.409622
19518.960532	16953.687667	1952.593750	288.724243
19518.960532	16953.687667	1951.621094	439.824158
19518.960532	16953.687667	1950.647461	394.295746
19518.960532	16953.687667	1949.674805	373.255951
19518.960532	16953.687667	1948.701172	548.575439
19518.960532	16953.687667	1947.727539	289.262054
19518.960532	16953.687667	1946.753906	285.228333
19518.960532	16953.687667	1945.780273	114.271446
19518.960532	16953.687667	1944.805664	443.821320
19518.960532	16953.687667	1943.831055	346.379822
19518.960532	16953.687667	1942.856445	-74.807014
19518.960532	16953.687667	1941.881836	151.457962
19518.960532	16953.687667	1940.907227	149.596359
19518.960532	16953.687667	1939.932617	-16.526922
19518.960532	16953.687667	1938.957031	202.134323
19518.960532	16953.687667	1937.981445	479.487885
19518.960532	16953.687667	1937.005859	19.328016
19518.960532	16953.687667	1936.030273	-36.549149
19518.960532	16953.687667	1935.054688	56.951237
19518.960532	16953.687667	1934.078125	182.230270
19518.960532	16953.687667	1933.101563	87.130920
19518.960532	16953.687667	1932.125000	295.538818
19518.960532	16953.687667	1931.148438	452.472229
19518.960532	16953.687667	1930.171875	565.297058
19518.960532	16953.687667	1929.194336	320.945190
19518.960532	16953.687667	1928.217773	20.425564
19518.960532	16953.687667	1927.240234	-52.576580
19518.960532	16953.687667	1926.262695	145.816376
19518.960532	16953.687667	1925.284180	158.375793
19518.960532	16953.687667	1924.306641	202.700195
19518.960532	16953.687667	1923.328125	273.896362
19518.960532	16953.687667	1922.350586	269.339996
19518.960532	16953.687667	1921.372070	-50.280254
19518.960532	16953.687667	1920.392578	-47.417599
19518.960532	16953.687667	1919.414063	280.180328
19518.960532	16953.687667	1918.434570	63.309456
19518.960532	16953.687667	1917.456055	-170.551468
19518.960532	16953.687667	1916.476563	-79.756950
19518.960532	16953.687667	1915.497070	-6.053309
19518.960532	16953.687667	1914.516602	177.416092
19518.960532	16953.687667	1913.537109	175.483078
19518.960532	16953.687667	1912.556641	5.334045
19518.960532	16953.687667	1911.576172	88.814148
19518.960532	16953.687667	1910.595703	496.475281
19518.960532	16953.687667	1909.615234	270.386902
19518.960532	16953.687667	1908.633789	7.868274
19518.960532	16953.687667	1907.653320	376.424408
19518.960532	16953.687667	1906.671875	-149.006409
19518.960532	16953.687667	1905.690430	270.645111
19518.960532	16953.687667	1904.708984	295.744934
19518.960532	16953.687667	1903.727539	152.903214
19518.960532	16953.687667	1902.745117	214.593369
19518.960532	16953.687667	1901.762695	76.759323
19518.960532	16953.687667	1900.780273	406.130157
19518.960532	16953.687667	1899.797852	98.108757
19518.960532	16953.687667	1898.815430	169.633072
19518.960532	16953.687667	1897.832031	211.990967
19518.960532	16953.687667	1896.849609	-0.899821
19518.960532	16953.687667	1895.866211	85.299622
19518.960532	16953.687667	1894.882813	139.911514
19518.960532	16953.687667	1893.898438	-31.418871
19518.960532	16953.687667	1892.915039	156.880005
19518.960532	16953.687667	1891.930664	-50.745369
19518.960532	16953.687667	1890.947266	188.559509
19518.960532	16953.687667	1889.962891	-77.188484
19518.960532	16953.687667	1888.977539	60.163136
19518.960532	16953.687667	1887.993164	-35.494331
19518.960532	16953.687667	1887.007813	-305.782593
19518.960532	16953.687667	1886.023438	287.751953
19518.960532	16953.687667	1885.038086	250.442703
19518.960532	16953.687667	1884.051758	7.047502
19518.960532	16953.687667	1883.066406	-144.081985
19518.960532	16953.687667	1882.081055	-241.784988
19518.960532	16953.687667	1881.094727	191.411896
19518.960532	16953.687667	1880.108398	25.909872
19518.960532	16953.687667	1879.122070	-229.140976
19518.960532	16953.687667	1878.135742	186.964142
19518.960532	16953.687667	1877.148438	326.845123
19518.960532	16953.687667	1876.162109	-12.762321
19518.960532	16953.687667	1875.174805	-163.356308
19518.960532	16953.687667	1874.187500	-91.159081
19518.960532	16953.687667	1873.199219	51.238373
19518.960532	16953.687667	1872.211914	-101.596573
19518.960532	16953.687667	1871.223633	-247.077896
19518.960532	16953.687667	1870.236328	-119.146210
19518.960532	16953.687667	1869.248047	-73.449768
19518.960532	16953.687667	1868.258789	-76.090591
19518.960532	16953.687667	1867.270508	170.295120
19518.960532	16953.687667	1866.282227	322.356598
19518.960532	16953.687667	1865.292969	-103.161125
19518.960532	16953.687667	1864.303711	-146.744507
19518.960532	16953.687667	1863.314453	-91.237938
19518.960532	16953.687667	1862.324219	104.363403
19518.960532	16953.687667	1861.334961	261.278320
19518.960532	16953.687667	1860.344727	51.192951
19518.960532	16953.687667	1859.354492	27.081520
19518.960532	16953.687667	1858.364258	215.382767
19518.960532	16953.687667	1857.374023	24.808830
19518.960532	16953.687667	1856.383789	-122.244553
19518.960532	16953.687667	1855.392578	145.657211
19518.960532	16953.687667	1854.401367	-88.128990
19518.960532	16953.687667	1853.410156	-37.289520
19518.960532	16953.687667	1852.418945	73.819366
19518.960532	16953.687667	1851.426758	127.067848
19518.960532	16953.687667	1850.435547	-24.521235
19518.960532	16953.687667	1849.443359	14.308917
19518.960532	16953.687667	1848.451172	139.862259
19518.960532	16953.687667	1847.458984	82.346909
19518.960532	16953.687667	1846.466797	410.144836
19518.960532	16953.687667	1845.473633	205.780609
19518.960532	16953.687667	1844.480469	170.003326
19518.960532	16953.687667	1843.487305	11.517243
19518.960532	16953.687667	1842.494141	45.594894
19518.960532	16953.687667	1841.500977	-160.895462
19518.960532	16953.687667	1840.506836	217.182083
19518.960532	16953.687667	1839.513672	87.711288
19518.960532	16953.687667	1838.519531	35.244114
19518.960532	16953.687667	1837.525391	302.523743
19518.960532	16953.687667	1836.530273	254.865814
19518.960532	16953.687667	1835.536133	43.823868
19518.960532	16953.687667	1834.541016	109.166771
19518.960532	16953.687667	1833.545898	481.954071
19518.960532	16953.687667	1832.550781	-41.197994
19518.960532	16953.687667	1831.555664	177.811264
19518.960532	16953.687667	1830.560547	123.057121
19518.960532	16953.687667	1829.564453	166.745804
19518.960532	16953.687667	1828.568359	224.815765
19518.960532	16953.687667	1827.572266	81.316849
19518.960532	16953.687667	1826.576172	424.851685
19518.960532	16953.687667	1825.580078	-155.152893
19518.960532	16953.687667	1824.583008	-360.844177
19518.960532	16953.687667	1823.585938	-7.834459
19518.960532	16953.687667	1822.588867	-9.730146
19518.960532	16953.687667	1821.591797	55.473743
19518.960532	16953.687667	1820.594727	444.131775
19518.960532	16953.687667	1819.596680	231.313507
19518.960532	16953.687667	1818.599609	88.023712
19518.960532	16953.687667	1817.601563	-160.589890
19518.960532	16953.687667	1816.603516	36.239338
19518.960532	16953.687667	1815.604492	352.684387
19518.960532	16953.687667	1814.606445	240.560745
19518.960532	16953.687667	1813.607422	51.894939
19518.960532	16953.687667	1812.608398	14.020073
19518.960532	16953.687667	1811.609375	131.632568
19518.960532	16953.687667	1810.610352	165.477707
19518.960532	16953.687667	1809.610352	79.738174
19518.960532	16953.687667	1808.611328	259.385895
19518.960532	16953.687667	1807.611328	39.769592
19518.960532	16953.687667	1806.611328	193.036896
19518.960532	16953.687667	1805.610352	92.956444
19518.960532	16953.687667	1804.610352	322.564758
19518.960532	16953.687667	1803.609375	392.040497
19518.960532	16953.687667	1802.608398	518.781433
19518.960532	16953.687667	1801.607422	-56.504181
19518.960532	16953.687667	1800.606445	208.682861
19518.960532	16953.687667	1799.605469	237.462921
19518.960532	16953.687667	1798.603516	113.493179
19518.960532	16953.687667	1797.601563	168.480179
19518.960532	16953.687667	1796.599609	130.389999
19518.960532	16953.687667	1795.597656	273.542236
19518.960532	16953.687667	1794.595703	345.076813
19518.960532	16953.687667	1793.592773	225.844193
19518.960532	16953.687667	1792.589844	92.324532
19518.960532	16953.687667	1791.587891	120.873093
19518.960532	16953.687667	1790.583984	-10.248501
19518.960532	16953.687667	1789.581055	-193.762161
19518.960532	16953.687667	1788.577148	127.693726
19518.960532	16953.687667	1787.574219	339.453613
19518.960532	16953.687667	1786.570313	198.740372
19518.960532	16953.687667	1785.566406	150.882034
19518.960532	16953.687667	1784.561523	-61.204659
19518.960532	16953.687667	1783.557617	-16.263113
19518.960532	16953.687667	1782.552734	45.282829
19518.960532	16953.687667	1781.547852	37.788765
19518.960532	16953.687667	1780.542969	-193.281006
19518.960532	16953.687667	1779.538086	155.854248
19518.960532	16953.687667	1778.532227	262.345459
19518.960532	16953.687667	1777.527344	152.467270
19518.960532	16953.687667	1776.521484	230.326782
19518.960532	16953.687667	1775.515625	277.231049
19518.960532	16953.687667	1774.508789	-39.358604
19518.960532	16953.687667	1773.502930	-6.751070
19518.960532	16953.687667	1772.496094	263.261993
19518.960532	16953.687667	1771.489258	554.495605
19518.960532	16953.687667	1770.482422	252.174072
19518.960532	16953.687667	1769.475586	82.822289
19518.960532	16953.687667	1768.467773	411.766724
19518.960532	16953.687667	1767.460938	35.976318
19518.960532	16953.687667	1766.453125	46.895367
19518.960532	16953.687667	1765.445313	114.681061
19518.960532	16953.687667	1764.437500	139.717819
19518.960532	16953.687667	1763.428711	-202.714951
19518.960532	16953.687667	1762.420898	350.799500
19518.960532	16953.687667	1761.412109	141.060501
19518.960532	16953.687667	1760.403320	120.887680
19518.960532	16953.687667	1759.393555	65.150162
19518.960532	16953.687667	1758.384766	492.497467
19518.960532	16953.687667	1757.375000	199.841995
19518.960532	16953.687667	1756.366211	184.224091
19518.960532	16953.687667	1755.356445	144.897766
19518.960532	16953.687667	1754.345703	-95.598259
19518.960532	16953.687667	1753.335938	28.302101
19518.960532	16953.687667	1752.325195	88.241280
19518.960532	16953.687667	1751.315430	39.316818
19518.960532	16953.687667	1750.304688	181.897568
19518.960532	16953.687667	1749.292969	99.785980
19518.960532	16953.687667	1748.282227	339.117035
19518.960532	16953.687667	1747.270508	131.657745
19518.960532	16953.687667	1746.259766	-193.915665
19518.960532	16953.687667	1745.248047	-9.140993
19518.960532	16953.687667	1744.235352	-72.481354
19518.960532	16953.687667	1743.223633	69.597183
19518.960532	16953.687667	1742.211914	287.123505
19518.960532	16953.687667	1741.199219	91.425148
19518.960532	16953.687667	1740.186523	84.559196
19518.960532	16953.687667	1739.173828	28.095957
19518.960532	16953.687667	1738.160156	-155.789474
19518.960532	16953.687667	1737.147461	176.910110
19518.960532	16953.687667	1736.133789	134.466751
19518.960532	16953.687667	1735.120117	25.971050
19518.960532	16953.687667	1734.106445	174.423050
19518.960532	16953.687667	1733.091797	-87.336304
19518.960532	16953.687667	1732.078125	77.478088
19518.960532	16953.687667	1731.063477	173.858566
19518.960532	16953.687667	1730.048828	-142.074707
19518.960532	16953.687667	1729.034180	-17.526659
19518.960532	16953.687667	1728.019531	328.270416
19518.960532	16953.687667	1727.003906	153.598633
19518.960532	16953.687667	1725.988281	-39.886395
19518.960532	16953.687667	1724.972656	16.110409
19518.960532	16953.687667	1723.957031	123.802124
19518.960532	16953.687667	1722.941406	-241.438004
19518.960532	16953.687667	1721.924805	-202.040878
19518.960532	16953.687667	1720.909180	-127.435097
19518.960532	16953.687667	1719.892578	212.771194
19518.960532	16953.687667	1718.875977	146.138260
19518.960532	16953.687667	1717.858398	-458.708282
19518.960532	16953.687667	1716.841797	-88.227898
19518.960532	16953.687667	1715.824219	9.547155
19518.960532	16953.687667	1714.806641	269.310181
19518.960532	16953.687667	1713.789063	70.989227
19518.960532	16953.687667	1712.770508	-77.993393
19518.960532	16953.687667	1711.752930	381.038147
19518.960532	16953.687667	1710.734375	140.428116
19518.960532	16953.687667	1709.715820	-67.280266
19518.960532	16953.687667	1708.697266	91.044220
19518.960532	16953.687667	1707.678711	87.409760
19518.960532	16953.687667	1706.659180	454.285370
19518.960532	16953.687667	1705.640625	82.363045
19518.960532	16953.687667	1704.621094	-118.319977
19518.960532	16953.687667	1703.600586	-365.843475
19518.960532	16953.687667	1702.581055	-60.265167
19518.960532	16953.687667	1701.561523	-59.432484
19518.960532	16953.687667	1700.541016	58.484745
19518.960532	16953.687667	1699.520508	54.528278
19518.960532	16953.687667	1698.500000	-57.184227
19518.960532	16953.687667	1697.478516	-145.480881
19518.960532	16953.687667	1696.458008	-51.204067
19518.960532	16953.687667	1695.436523	241.923111
19518.960532	16953.687667	1694.415039	-197.475342
19518.960532	16953.687667	1693.393555	62.737827
19518.960532	16953.687667	1692.372070	-72.468117
19518.960532	16953.687667	1691.349609	7.482858
19518.960532	16953.687667	1690.327148	-15.507701
19518.960532	16953.687667	1689.304688	234.974823
19518.960532	16953.687667	1688.282227	-148.043610
19518.960532	16953.687667	1687.259766	-9.865167
19518.960532	16953.687667	1686.236328	177.287231
19518.960532	16953.687667	1685.213867	63.015450
19518.960532	16953.687667	1684.190430	98.216797
19518.960532	16953.687667	1683.166016	82.005074
19518.960532	16953.687667	1682.142578	259.527252
19518.960532	16953.687667	1681.119141	-20.517700
19518.960532	16953.687667	1680.094727	68.219414
19518.960532	16953.687667	1679.070313	-78.753944
19518.960532	16953.687667	1678.045898	315.476929
19518.960532	16953.687667	1677.020508	238.421387
19518.960532	16953.687667	1675.996094	198.674026
19518.960532	16953.687667	1674.970703	310.450104
19518.960532	16953.687667	1673.945313	438.472076
19518.960532	16953.687667	1672.919922	477.861755
19518.960532	16953.687667	1671.893555	386.733856
19518.960532	16953.687667	1670.868164	104.595337
19518.960532	16953.687667	1669.841797	411.794098
19518.960532	16953.687667	1668.815430	-84.521469
19518.960532	16953.687667	1667.789063	338.957977
19518.960532	16953.687667	1666.761719	108.163429
19518.960532	16953.687667	1665.735352	-120.237656
19518.960532	16953.687667	1664.708008	70.256683
19518.960532	16953.687667	1663.680664	369.996185
19518.960532	16953.687667	1662.653320	116.030380
19518.960532	16953.687667	1661.625000	469.093018
19518.960532	16953.687667	1660.597656	124.494316
19518.960532	16953.687667	1659.569336	-36.345947
19518.960532	16953.687667	1658.541016	165.422073
19518.960532	16953.687667	1657.512695	571.578430
19518.960532	16953.687667	1656.483398	584.938843
19518.960532	16953.687667	1655.455078	563.438660
19518.960532	16953.687667	1654.425781	165.716385
19518.960532	16953.687667	1653.396484	434.512512
19518.960532	16953.687667	1652.366211	740.338074
19518.960532	16953.687667	1651.336914	509.886292
19518.960532	16953.687667	1650.306641	402.500702
19518.960532	16953.687667	1649.276367	719.724609
19518.960532	16953.687667	1648.246094	839.646729
19518.960532	16953.687667	1647.215820	423.783447
19518.960532	16953.687667	1646.185547	485.733337
19518.960532	16953.687667	1645.154297	424.782715
19518.960532	16953.687667	1644.123047	345.308960
19518.960532	16953.687667	1643.091797	882.285583
19518.960532	16953.687667	1642.060547	364.844238
19518.960532	16953.687667	1641.028320	285.417816
19518.960532	16953.687667	1639.997070	581.217285
19518.960532	16953.687667	1638.964844	786.591980
19518.960532	16953.687667	1637.931641	748.798584
19518.960532	16953.687667	1636.899414	761.942566
19518.960532	16953.687667	1635.867188	1115.277222
19518.960532	16953.687667	1634.833984	651.705994
19518.960532	16953.687667	1633.800781	840.682617
19518.960532	16953.687667	1632.767578	765.918884
19518.960532	16953.687667	1631.734375	1063.491699
19518.960532	16953.687667	1630.700195	695.099670
19518.960532	16953.687667	1629.666016	886.253052
19518.960532	16953.687667	1628.631836	580.452637
19518.960532	16953.687667	1627.597656	900.964966
19518.960532	16953.687667	1626.563477	1138.193237
19518.960532	16953.687667	1625.528320	573.857483
19518.960532	16953.687667	1624.493164	471.610504
19518.960532	16953.687667	1623.458008	875.056641
19518.960532	16953.687667	1622.422852	708.179260
19518.960532	16953.687667	1621.387695	788.332703
19518.960532	16953.687667	1620.351563	833.858215
19518.960532	16953.687667	1619.315430	1036.260010
19518.960532	16953.687667	1618.279297	987.177673
19518.960532	16953.687667	1617.243164	928.907043
19518.960532	16953.687667	1616.207031	730.028931
19518.960532	16953.687667	1615.169922	833.236389
19518.960532	16953.687667	1614.132813	655.234619
19518.960532	16953.687667	1613.095703	850.632019
19518.960532	16953.687667	1612.058594	972.247742
19518.960532	16953.687667	1611.020508	393.585388
19518.960532	16953.687667	1609.983398	1167.042725
19518.960532	16953.687667	1608.945313	957.024597
19518.960532	16953.687667	1607.907227	1345.665771
19518.960532	16953.687667	1606.868164	1103.522583
19518.960532	16953.687667	1605.830078	856.897095
19518.960532	16953.687667	1604.791016	1155.680542
19518.960532	16953.687667	1603.751953	1132.329834
19518.960532	16953.687667	1602.712891	872.129150
19518.960532	16953.687667	1601.673828	1283.493286
19518.960532	16953.687667	1600.633789	991.240662
19518.960532	16953.687667	1599.594727	1232.393433
19518.960532	16953.687667	1598.554688	846.106934
19518.960532	16953.687667	1597.513672	1016.034363
19518.960532	16953.687667	1596.473633	1123.904785
19518.960532	16953.687667	1595.433594	1449.956665
19518.960532	16953.687667	1594.392578	1036.514160
19518.960532	16953.687667	1593.351563	788.571045
19518.960532	16953.687667	1592.310547	1413.010986
19518.960532	16953.687667	1591.268555	1020.586243
19518.960532	16953.687667	1590.227539	949.583984
19518.960532	16953.687667	1589.185547	812.120972
19518.960532	16953.687667	1588.143555	858.241699
19518.960532	16953.687667	1587.100586	1326.329224
19518.960532	16953.687667	1586.058594	1021.633484
19518.960532	16953.687667	1585.015625	758.361328
19518.960532	16953.687667	1583.972656	724.418335
19518.960532	16953.687667	1582.929688	711.154968
19518.960532	16953.687667	1581.886719	968.271179
19518.960532	16953.687667	1580.843750	918.412292
19518.960532	16953.687667	1579.799805	619.008606
19518.960532	16953.687667	1578.755859	770.817017
19518.960532	16953.687667	1577.711914	915.748474
19518.960532	16953.687667	1576.666992	1028.631836
19518.960532	16953.687667	1575.623047	777.694458
19518.960532	16953.687667	1574.578125	769.411804
19518.960532	16953.687667	1573.533203	948.747498
19518.960532	16953.687667	1572.488281	1187.522583
19518.960532	16953.687667	1571.443359	1167.894043
19518.960532	16953.687667	1570.397461	860.296631
19518.960532	16953.687667	1569.351563	939.129150
19518.960532	16953.687667	1568.305664	922.013489
19518.960532	16953.687667	1567.259766	697.059814
19518.960532	16953.687667	1566.213867	668.694519
19518.960532	16953.687667	1565.166992	969.256836
19518.960532	16953.687667	1564.120117	561.944275
19518.960532	16953.687667	1563.073242	538.366821
19518.960532	16953.687667	1562.026367	717.992126
19518.960532	16953.687667	1560.978516	635.188721
19518.960532	16953.687667	1559.930664	1033.876587
19518.960532	16953.687667	1558.883789	609.008606
19518.960532	16953.687667	1557.834961	768.211243
19518.960532	16953.687667	1556.787109	795.164063
19518.960532	16953.687667	1555.739258	1100.296387
19518.960532	16953.687667	1554.690430	744.393127
19518.960532	16953.687667	1553.641602	616.577087
19518.960532	16953.687667	1552.592773	990.118347
19518.960532	16953.687667	1551.542969	807.772766
19518.960532	16953.687667	1550.494141	766.766968
19518.960532	16953.687667	1549.444336	1174.422607
19518.960532	16953.687667	1548.394531	648.594360
19518.960532	16953.687667	1547.344727	1024.388428
19518.960532	16953.687667	1546.293945	1006.418335
19518.960532	16953.687667	1545.244141	633.587646
19518.960532	16953.687667	1544.193359	522.582031
19518.960532	16953.687667	1543.142578	912.042969
19518.960532	16953.687667	1542.090820	896.677979
19518.960532	16953.687667	1541.040039	540.376465
19518.960532	16953.687667	1539.988281	582.064758
19518.960532	16953.687667	1538.936523	701.079407
19518.960532	16953.687667	1537.884766	581.553711
19518.960532	16953.687667	1536.833008	589.365173
19518.960532	16953.687667	1535.780273	726.712036
19518.960532	16953.687667	1534.727539	637.010559
19518.960532	16953.687667	1533.674805	570.124451
19518.960532	16953.687667	1532.622070	97.042595
19518.960532	16953.687667	1531.569336	364.050568
19518.960532	16953.687667	1530.515625	513.054016
19518.960532	16953.687667	1529.461914	221.988220
19518.960532	16953.687667	1528.408203	257.718964
19518.960532	16953.687667	1527.354492	84.899033
19518.960532	16953.687667	1526.299805	193.362015
19518.960532	16953.687667	1525.246094	363.061310
19518.960532	16953.687667	1524.191406	312.954712
19518.960532	16953.687667	1523.136719	206.307190
19518.960532	16953.687667	1522.081055	321.796326
19518.960532	16953.687667	1521.026367	466.763580
19518.960532	16953.687667	1519.970703	310.591125
19518.960532	16953.687667	1518.915039	188.526031
19518.960532	16953.687667	1517.859375	338.224915
19518.960532	16953.687667	1516.802734	286.539581
19518.960532	16953.687667	1515.747070	418.230560
19518.960532	16953.687667	1514.690430	47.751110
19518.960532	16953.687667	1513.633789	177.357590
19518.960532	16953.687667	1512.577148	135.142151
19518.960532	16953.687667	1511.519531	185.734299
19518.960532	16953.687667	1510.461914	437.573730
19518.960532	16953.687667	1509.405273	144.740402
19518.960532	16953.687667	1508.346680	281.439056
19518.960532	16953.687667	1507.289063	330.063202
19518.960532	16953.687667	1506.231445	21.892933
19518.960532	16953.687667	1505.172852	70.735886
19518.960532	16953.687667	1504.114258	90.302696
19518.960532	16953.687667	1503.055664	49.005745
19518.960532	16953.687667	1501.996094	377.949829
19518.960532	16953.687667	1500.937500	456.387177
19518.960532	16953.687667	1499.877930	90.468536
19518.960532	16953.687667	1498.818359	-45.148613
19518.960532	16953.687667	1497.757813	67.445488
19518.960532	16953.687667	1496.698242	-58.907799
19518.960532	16953.687667	1495.637695	-4.773846
19518.960532	16953.687667	1494.577148	-33.956528
19518.960532	16953.687667	1493.516602	-227.522064
19518.960532	16953.687667	1492.456055	-28.923389
19518.960532	16953.687667	1491.394531	-93.828384
19518.960532	16953.687667	1490.333008	-203.652649
19518.960532	16953.687667	1489.271484	-410.147949
19518.960532	16953.687667	1488.209961	-55.960655
19518.960532	16953.687667	1487.148438	-138.430450
19518.960532	16953.687667	1486.085938	-124.006073
19518.960532	16953.687667	1485.023438	2.992104
19518.960532	16953.687667	1483.960938	-40.906502
19518.960532	16953.687667	1482.898438	-37.461552
19518.960532	16953.687667	1481.834961	65.019165
19518.960532	16953.687667	1480.772461	-284.270294
19518.960532	16953.687667	1479.708984	-64.707214
19518.960532	16953.687667	1478.644531	85.169632
19518.960532	16953.687667	1477.581055	113.829185
19518.960532	16953.687667	1476.517578	48.280182
19518.960532	16953.687667	1475.453125	-23.983913
19518.960532	16953.687667	1474.388672	191.322998
19518.960532	16953.687667	1473.323242	11.555851
19518.960532	16953.687667	1472.258789	103.604530
19518.960532	16953.687667	1471.193359	110.444595
19518.960532	16953.687667	1470.127930	39.018002
19518.960532	16953.687667	1469.062500	70.180206
19518.960532	16953.687667	1467.997070	-249.580505
19518.960532	16953.687667	1466.930664	24.190874
19518.960532	16953.687667	1465.865234	103.392883
19518.960532	16953.687667	1464.798828	249.115387
19518.960532	16953.687667	1463.731445	-130.449997
19518.960532	16953.687667	1462.665039	264.471649
19518.960532	16953.687667	1461.597656	479.933563
19518.960532	16953.687667	1460.530273	199.570221
19518.960532	16953.687667	1459.462891	305.840515
19518.960532	16953.687667	1458.395508	283.994324
19518.960532	16953.687667	1457.327148	269.741302
19518.960532	16953.687667	1456.259766	457.519379
19518.960532	16953.687667	1455.191406	95.355438
19518.960532	16953.687667	1454.123047	111.272011
19518.960532	16953.687667	1453.053711	24.684160
19518.960532	16953.687667	1451.985352	10.775116
19518.960532	16953.687667	1450.916016	512.398621
19518.960532	16953.687667	1449.846680	207.885483
19518.960532	16953.687667	1448.776367	35.350216
19518.960532	16953.687667	1447.707031	-133.370346
19518.960532	16953.687667	1446.636719	21.777428
19518.960532	16953.687667	1445.566406	74.809456
19518.960532	16953.687667	1444.496094	315.557556
19518.960532	16953.687667	1443.425781	228.587952
19518.960532	16953.687667	1442.354492	-165.343689
19518.960532	16953.687667	1441.283203	3.397309
19518.960532	16953.687667	1440.211914	223.521652
19518.960532	16953.687667	1439.140625	-65.220901
19518.960532	16953.687667	1438.069336	145.001434
19518.960532	16953.687667	1436.997070	47.972088
19518.960532	16953.687667	1435.924805	337.657288
19518.960532	16953.687667	1434.852539	69.650505
19518.960532	16953.687667	1433.780273	333.322571
19518.960532	16953.687667	1432.707031	52.627129
19518.960532	16953.687667	1431.633789	-90.055893
19518.960532	16953.687667	1430.560547	115.736092
19518.960532	16953.687667	1429.487305	144.578949
19518.960532	16953.687667	1428.413086	70.936401
19518.960532	16953.687667	1427.339844	-146.526123
19518.960532	16953.687667	1426.265625	-223.308517
19518.960532	16953.687667	1425.191406	237.849457
19518.960532	16953.687667	1424.116211	31.640341
19518.960532	16953.687667	1423.041992	-127.929337
19518.960532	16953.687667	1421.966797	67.543495
19518.960532	16953.687667	1420.891602	-118.913696
19518.960532	16953.687667	1419.816406	239.028778
19518.960532	16953.687667	1418.740234	123.321671
19518.960532	16953.687667	1417.665039	-38.671936
19518.960532	16953.687667	1416.588867	502.811188
19518.960532	16953.687667	1415.512695	123.512932
19518.960532	16953.687667	1414.435547	-76.002441
19518.960532	16953.687667	1413.359375	-52.876377
19518.960532	16953.687667	1412.282227	-14.122388
19518.960532	16953.687667	1411.205078	193.329163
19518.960532	16953.687667	1410.127930	54.585266
19518.960532	16953.687667	1409.049805	149.025040
19518.960532	16953.687667	1407.972656	179.900726
19518.960532	16953.687667	1406.894531	288.506226
19518.960532	16953.687667	1405.816406	55.203686
19518.960532	16953.687667	1404.737305	76.479958
19518.960532	16953.687667	1403.659180	-22.368439
19518.960532	16953.687667	1402.580078	130.665863
19518.960532	16953.687667	1401.500977	69.167366
19518.960532	16953.687667	1400.421875	170.508636
19518.960532	16953.687667	1399.341797	4.186582
19518.960532	16953.687667	1398.262695	166.924728
19518.960532	16953.687667	1397.182617	248.930328
19518.960532	16953.687667	1396.102539	328.414490
19518.960532	16953.687667	1395.021484	-42.152985
19518.960532	16953.687667	1393.941406	168.835587
19518.960532	16953.687667	1392.860352	-61.189289
19518.960532	16953.687667	1391.779297	-50.204376
19518.960532	16953.687667	1390.698242	-187.805908
19518.960532	16953.687667	1389.616211	88.884499
19518.960532	16953.687667	1388.535156	-263.795776
19518.960532	16953.687667	1387.453125	67.717285
19518.960532	16953.687667	1386.371094	60.034420
19518.960532	16953.687667	1385.288086	297.883881
19518.960532	16953.687667	1384.206055	58.752872
19518.960532	16953.687667	1383.123047	109.555534
19518.960532	16953.687667	1382.040039	197.677719
19518.960532	16953.687667	1380.957031	130.720428
19518.960532	16953.687667	1379.873047	144.078186
19518.960532	16953.687667	1378.789063	198.435516
19518.960532	16953.687667	1377.705078	186.530075
19518.960532	16953.687667	1376.621094	365.331970
19518.960532	16953.687667	1375.537109	215.948044
19518.960532	16953.687667	1374.452148	441.218445
19518.960532	16953.687667	1373.367188	95.317551
19518.960532	16953.687667	1372.282227	72.033813
19518.960532	16953.687667	1371.197266	224.374420
19518.960532	16953.687667	1370.112305	84.778221
19518.960532	16953.687667	1369.026367	515.935242
19518.960532	16953.687667	1367.940430	237.351608
19518.960532	16953.687667	1366.854492	512.380188
19518.960532	16953.687667	1365.767578	334.359589
19518.960532	16953.687667	1364.681641	208.165405
19518.960532	16953.687667	1363.594727	472.700195
19518.960532	16953.687667	1362.507813	368.881866
19518.960532	16953.687667	1361.419922	210.279755
19518.960532	16953.687667	1360.333008	134.858749
19518.960532	16953.687667	1359.245117	337.320740
19518.960532	16953.687667	1358.157227	257.430969
19518.960532	16953.687667	1357.069336	718.716187
19518.960532	16953.687667	1355.981445	589.412048
19518.960532	16953.687667	1354.892578	286.021729
19518.960532	16953.687667	1353.803711	240.161926
19518.960532	16953.687667	1352.714844	339.425690
19518.960532	16953.687667	1351.625000	717.478516
19518.960532	16953.687667	1350.536133	642.510925
19518.960532	16953.687667	1349.446289	467.622131
19518.960532	16953.687667	1348.356445	413.674622
19518.960532	16953.687667	1347.266602	286.109100
19518.960532	16953.687667	1346.175781	548.104980
19518.960532	16953.687667	1345.085938	712.629639
19518.960532	16953.687667	1343.995117	836.690918
19518.960532	16953.687667	1342.903320	734.425049
19518.960532	16953.687667	1341.812500	669.455383
19518.960532	16953.687667	1340.720703	725.213867
19518.960532	16953.687667	1339.629883	757.364624
19518.960532	16953.687667	1338.538086	727.443481
19518.960532	16953.687667	1337.445313	574.750671
19518.960532	16953.687667	1336.353516	541.408936
19518.960532	16953.687667	1335.260742	780.809753
19518.960532	16953.687667	1334.167969	654.328674
19518.960532	16953.687667	1333.075195	497.166199
19518.960532	16953.687667	1331.981445	387.259979
19518.960532	16953.687667	1330.888672	514.531311
19518.960532	16953.687667	1329.794922	779.038147
19518.960532	16953.687667	1328.701172	821.196655
19518.960532	16953.687667	1327.606445	623.388245
19518.960532	16953.687667	1326.512695	705.307190
19518.960532	16953.687667	1325.417969	666.744080
19518.960532	16953.687667	1324.323242	921.185486
19518.960532	16953.687667	1323.227539	913.508850
19518.960532	16953.687667	1322.132813	855.785156
19518.960532	16953.687667	1321.037109	709.221375
19518.960532	16953.687667	1319.941406	878.059692
19518.960532	16953.687667	1318.845703	791.781738
19518.960532	16953.687667	1317.750000	837.435730
19518.960532	16953.687667	1316.653320	633.186401
19518.960532	16953.687667	1315.556641	770.797302
19518.960532	16953.687667	1314.459961	433.189606
19518.960532	16953.687667	1313.363281	396.475861
19518.960532	16953.687667	1312.265625	700.766296
19518.960532	16953.687667	1311.167969	573.654419
19518.960532	16953.687667	1310.070313	530.987183
19518.960532	16953.687667	1308.972656	425.107605
19518.960532	16953.687667	1307.874023	697.251038
19518.960532	16953.687667	1306.776367	466.485718
19518.960532	16953.687667	1305.677734	602.581848
19518.960532	16953.687667	1304.579102	759.548828
19518.960532	16953.687667	1303.479492	493.211914
19518.960532	16953.687667	1302.380859	371.307129
19518.960532	16953.687667	1301.281250	458.208405
19518.960532	16953.687667	1300.181641	341.374237
19518.960532	16953.687667	1299.081055	360.592865
19518.960532	16953.687667	1297.981445	345.670471
19518.960532	16953.687667	1296.880859	377.356171
19518.960532	16953.687667	1295.780273	194.729431
19518.960532	16953.687667	1294.679688	363.008301
19518.960532	16953.687667	1293.578125	591.596436
19518.960532	16953.687667	1292.476563	454.100525
19518.960532	16953.687667	1291.375000	42.205460
19518.960532	16953.687667	1290.273438	234.787521
19518.960532	16953.687667	1289.171875	505.508118
19518.960532	16953.687667	1288.069336	415.155701
19518.960532	16953.687667	1286.966797	412.227600
19518.960532	16953.687667	1285.864258	522.644958
19518.960532	16953.687667	1284.761719	349.147430
19518.960532	16953.687667	1283.658203	292.078125
19518.960532	16953.687667	1282.554688	331.330841
19518.960532	16953.687667	1281.451172	204.342392
19518.960532	16953.687667	1280.347656	283.200012
19518.960532	16953.687667	1279.244141	324.453796
19518.960532	16953.687667	1278.139648	202.722412
19518.960532	16953.687667	1277.035156	196.155411
19518.960532	16953.687667	1275.930664	322.115448
19518.960532	16953.687667	1274.825195	84.834435
19518.960532	16953.687667	1273.720703	12.545752
19518.960532	16953.687667	1272.615234	87.688583
19518.960532	16953.687667	1271.508789	57.799404
19518.960532	16953.687667	1270.403320	241.179886
19518.960532	16953.687667	1269.297852	208.046387
19518.960532	16953.687667	1268.191406	106.289116
19518.960532	16953.687667	1267.084961	44.221672
19518.960532	16953.687667	1265.977539	-5.070399
19518.960532	16953.687667	1264.871094	72.407890
19518.960532	16953.687667	1263.763672	-164.650253
19518.960532	16953.687667	1262.656250	88.611732
19518.960532	16953.687667	1261.548828	217.849472
19518.960532	16953.687667	1260.440430	-160.806549
19518.960532	16953.687667	1259.333008	-135.625015
19518.960532	16953.687667	1258.224609	-115.387283
19518.960532	16953.687667	1257.115234	-261.773682
19518.960532	16953.687667	1256.006836	72.216698
19518.960532	16953.687667	1254.897461	94.304398
19518.960532	16953.687667	1253.788086	-57.382496
19518.960532	16953.687667	1252.678711	-150.379730
19518.960532	16953.687667	1251.569336	-50.371506
19518.960532	16953.687667	1250.458984	14.370345
19518.960532	16953.687667	1249.349609	42.669010
19518.960532	16953.687667	1248.239258	-89.497139
19518.960532	16953.687667	1247.127930	127.793182
19518.960532	16953.687667	1246.017578	-16.798897
19518.960532	16953.687667	1244.906250	-74.593864
19518.960532	16953.687667	1243.794922	-122.082703
19518.960532	16953.687667	1242.683594	-79.603882
19518.960532	16953.687667	1241.571289	24.812929
19518.960532	16953.687667	1240.459961	33.397305
19518.960532	16953.687667	1239.347656	21.852144
19518.960532	16953.687667	1238.234375	43.571411
19518.960532	16953.687667	1237.122070	116.149986
19518.960532	16953.687667	1236.008789	162.200882
19518.960532	16953.687667	1234.896484	109.998726
19518.960532	16953.687667	1233.782227	84.896812
19518.960532	16953.687667	1232.668945	-15.367400
19518.960532	16953.687667	1231.555664	-10.753314
19518.960532	16953.687667	1230.441406	-95.743805
19518.960532	16953.687667	1229.327148	-58.286724
19518.960532	16953.687667	1228.211914	-103.515358
19518.960532	16953.687667	1227.097656	24.306061
19518.960532	16953.687667	1225.982422	199.245438
19518.960532	16953.687667	1224.867188	-124.701660
19518.960532	16953.687667	1223.751953	-171.910706
19518.960532	16953.687667	1222.635742	-191.878311
19518.960532	16953.687667	1221.520508	-125.536514
19518.960532	16953.687667	1220.404297	133.744949
19518.960532	16953.687667	1219.287109	-131.684814
19518.960532	16953.687667	1218.170898	56.097748
19518.960532	16953.687667	1217.053711	-31.009605
19518.960532	16953.687667	1215.936523	123.856064
19518.960532	16953.687667	1214.819336	-17.542023
19518.960532	16953.687667	1213.702148	-55.012894
19518.960532	16953.687667	1212.583984	184.993591
19518.960532	16953.687667	1211.465820	-12.417377
19518.960532	16953.687667	1210.347656	79.390518
19518.960532	16953.687667	1209.229492	104.957863
19518.960532	16953.687667	1208.110352	123.440201
19518.960532	16953.687667	1206.992188	318.566193
19518.960532	16953.687667	1205.873047	191.457901
19518.960532	16953.687667	1204.752930	133.966400
19518.960532	16953.687667	1203.633789	130.541214
19518.960532	16953.687667	1202.513672	240.702698
19518.960532	16953.687667	1201.393555	111.048492
19518.960532	16953.687667	1200.273438	-18.921797
19518.960532	16953.687667	1199.152344	-200.681671
19518.960532	16953.687667	1198.032227	214.341705
19518.960532	16953.687667	1196.911133	-56.349125
19518.960532	16953.687667	1195.790039	172.091675
19518.960532	16953.687667	1194.667969	103.436615
19518.960532	16953.687667	1193.545898	68.031570
19518.960532	16953.687667	1192.424805	129.816284
19518.960532	16953.687667	1191.301758	24.007269
19518.960532	16953.687667	1190.179688	104.238907
19518.960532	16953.687667	1189.056641	-1.933838
19518.960532	16953.687667	1187.933594	10.495233
19518.960532	16953.687667	1186.810547	144.732834
19518.960532	16953.687667	1185.687500	-214.469406
19518.960532	16953.687667	1184.563477	-101.473923
19518.960532	16953.687667	1183.440430	106.771370
19518.960532	16953.687667	1182.316406	-136.520660
19518.960532	16953.687667	1181.191406	-14.729295
19518.960532	16953.687667	1180.067383	59.365723
19518.960532	16953.687667	1178.942383	127.156792
19518.960532	16953.687667	1177.817383	-381.742157
19518.960532	16953.687667	1176.692383	-276.608765
19518.960532	16953.687667	1175.566406	199.432602
19518.960532	16953.687667	1174.440430	-57.767700
19518.960532	16953.687667	1173.314453	-2.809537
19518.960532	16953.687667	1172.188477	-3.033005
19518.960532	16953.687667	1171.062500	-9.668820
19518.960532	16953.687667	1169.935547	58.000320
19518.960532	16953.687667	1168.808594	67.451889
19518.960532	16953.687667	1167.681641	-62.154190
19518.960532	16953.687667	1166.553711	105.596573
19518.960532	16953.687667	1165.426758	167.204575
19518.960532	16953.687667	1164.298828	-97.727562
19518.960532	16953.687667	1163.170898	-137.700699
19518.960532	16953.687667	1162.041992	-249.853195
19518.960532	16953.687667	1160.914063	6.102725
19518.960532	16953.687667	1159.785156	66.574142
19518.960532	16953.687667	1158.656250	0.738077
19518.960532	16953.687667	1157.526367	-68.676758
19518.960532	16953.687667	1156.397461	8.566932
19518.960532	16953.687667	1155.267578	33.571274
19518.960532	16953.687667	1154.137695	-139.201401
19518.960532	16953.687667	1153.006836	159.332977
19518.960532	16953.687667	1151.876953	13.447153
19518.960532	16953.687667	1150.746094	-37.116383
19518.960532	16953.687667	1149.615234	215.136108
19518.960532	16953.687667	1148.484375	-59.168564
19518.960532	16953.687667	1147.352539	107.125793
19518.960532	16953.687667	1146.220703	-238.772141
19518.960532	16953.687667	1145.088867	-49.024593
19518.960532	16953.687667	1143.957031	-52.614128
19518.960532	16953.687667	1142.825195	111.744293
19518.960532	16953.687667	1141.692383	-132.681961
19518.960532	16953.687667	1140.559570	68.698814
19518.960532	16953.687667	1139.426758	22.419704
19518.960532	16953.687667	1138.292969	-85.783264
19518.960532	16953.687667	1137.159180	83.410248
19518.960532	16953.687667	1136.025391	81.925919
19518.960532	16953.687667	1134.891602	57.052715
19518.960532	16953.687667	1133.757813	-11.139135
19518.960532	16953.687667	1132.623047	-81.179382
19518.960532	16953.687667	1131.488281	217.969284
19518.960532	16953.687667	1130.353516	127.506035
19518.960532	16953.687667	1129.217773	178.131470
19518.960532	16953.687667	1128.083008	284.686279
19518.960532	16953.687667	1126.947266	125.120605
19518.960532	16953.687667	1125.811523	321.514923
19518.960532	16953.687667	1124.674805	263.499420
19518.960532	16953.687667	1123.539063	56.167030
19518.960532	16953.687667	1122.402344	-182.653473
19518.960532	16953.687667	1121.265625	25.761129
19518.960532	16953.687667	1120.127930	44.003784
19518.960532	16953.687667	1118.990234	-74.518600
19518.960532	16953.687667	1117.853516	-117.025925
19518.960532	16953.687667	1116.714844	31.559338
19518.960532	16953.687667	1115.577148	97.884216
19518.960532	16953.687667	1114.439453	-115.491608
19518.960532	16953.687667	1113.300781	64.924995
19518.960532	16953.687667	1112.162109	30.504076
19518.960532	16953.687667	1111.022461	108.855881
19518.960532	16953.687667	1109.883789	267.580139
19518.960532	16953.687667	1108.744141	50.129768
19518.960532	16953.687667	1107.604492	99.126923
19518.960532	16953.687667	1106.463867	260.433655
19518.960532	16953.687667	1105.324219	27.525051
19518.960532	16953.687667	1104.183594	122.716988
19518.960532	16953.687667	1103.042969	229.342712
19518.960532	16953.687667	1101.902344	110.412018
19518.960532	16953.687667	1100.760742	175.948914
19518.960532	16953.687667	1099.619141	-3.318697
19518.960532	16953.687667	1098.477539	89.450996
19518.960532	16953.687667	1097.335938	47.843960
19518.960532	16953.687667	1096.193359	5.009076
19518.960532	16953.687667	1095.051758	334.547058
19518.960532	16953.687667	1093.909180	224.269302
19518.960532	16953.687667	1092.765625	104.724533
19518.960532	16953.687667	1091.623047	371.382874
19518.960532	16953.687667	1090.479492	87.449982
19518.960532	16953.687667	1089.335938	257.288910
19518.960532	16953.687667	1088.192383	158.182861
19518.960532	16953.687667	1087.047852	-7.412866
19518.960532	16953.687667	1085.903320	-36.070709
19518.960532	16953.687667	1084.758789	-36.595306
19518.960532	16953.687667	1083.614258	-58.553009
19518.960532	16953.687667	1082.469727	31.907804
19518.960532	16953.687667	1081.324219	68.941429
19518.960532	16953.687667	1080.178711	-140.807556
19518.960532	16953.687667	1079.033203	90.350349
19518.960532	16953.687667	1077.886719	-38.606430
19518.960532	16953.687667	1076.740234	272.705078
19518.960532	16953.687667	1075.593750	206.798599
19518.960532	16953.687667	1074.447266	19.576551
19518.960532	16953.687667	1073.300781	-81.705132
19518.960532	16953.687667	1072.153320	104.052879
19518.960532	16953.687667	1071.005859	-133.561172
19518.960532	16953.687667	1069.858398	-138.996445
19518.960532	16953.687667	1068.709961	176.137314
19518.960532	16953.687667	1067.561523	-145.520767
19518.960532	16953.687667	1066.413086	-159.038956
19518.960532	16953.687667	1065.264648	187.028122
19518.960532	16953.687667	1064.116211	73.899292
19518.960532	16953.687667	1062.966797	43.339649
19518.960532	16953.687667	1061.817383	111.519737
19518.960532	16953.687667	1060.667969	129.451370
19518.960532	16953.687667	1059.517578	325.405365
19518.960532	16953.687667	1058.368164	-51.517136
19518.960532	16953.687667	1057.217773	-24.760918
19518.960532	16953.687667	1056.067383	247.602570
19518.960532	16953.687667	1054.916016	83.715126
19518.960532	16953.687667	1053.764648	133.618637
19518.960532	16953.687667	1052.613281	342.543671
19518.960532	16953.687667	1051.461914	-123.783104
19518.960532	16953.687667	1050.310547	174.478210
19518.960532	16953.687667	1049.158203	73.967293
19518.960532	16953.687667	1048.005859	267.952789
19518.960532	16953.687667	1046.853516	-142.776154
19518.960532	16953.687667	1045.700195	233.082138
19518.960532	16953.687667	1044.547852	297.658905
19518.960532	16953.687667	1043.394531	309.821075
19518.960532	16953.687667	1042.240234	248.804932
19518.960532	16953.687667	1041.086914	185.312271
19518.960532	16953.687667	1039.932617	478.116028
19518.960532	16953.687667	1038.778320	303.471436
19518.960532	16953.687667	1037.624023	363.282867
19518.960532	16953.687667	1036.469727	430.001617
19518.960532	16953.687667	1035.314453	327.759094
19518.960532	16953.687667	1034.159180	237.607574
19518.960532	16953.687667	1033.003906	524.039307
19518.960532	16953.687667	1031.847656	715.779419
19518.960532	16953.687667	1030.692383	614.950195
19518.960532	16953.687667	1029.536133	778.878601
19518.960532	16953.687667	1028.378906	677.584167
19518.960532	16953.687667	1027.222656	492.542999
19518.960532	16953.687667	1026.065430	629.017334
19518.960532	16953.687667	1024.908203	96.952332
19518.960532	16953.687667	1023.750977	179.570709
19518.960532	16953.687667	1022.593750	171.567856
19518.960532	16953.687667	1021.435547	126.109947
19518.960532	16953.687667	1020.277344	100.468391
19518.960532	16953.687667	1019.119141	245.746765
19518.960532	16953.687667	1017.959961	-61.869308
19518.960532	16953.687667	1016.800781	18.610409
19518.960532	16953.687667	1015.641602	308.414490
19518.960532	16953.687667	1014.482422	177.761765
19518.960532	16953.687667	1013.323242	-17.117250
19518.960532	16953.687667	1012.163086	298.042969
19518.960532	16953.687667	1011.002930	46.584404
19518.960532	16953.687667	1009.842773	78.833260
19518.960532	16953.687667	1008.681641	7.441675
19518.960532	16953.687667	1007.520508	-41.957275
19518.960532	16953.687667	1006.359375	0.896220
19518.960532	16953.687667	1005.198242	-288.724335
19518.960532	16953.687667	1004.037109	-59.244713
19518.960532	16953.687667	1002.875000	175.860138
19518.960532	16953.687667	1001.712891	254.188278
19518.960532	16953.687667	1000.550781	121.446754
19518.960532	16953.687667	999.387695	285.951508
19518.960532	16953.687667	998.224609	6.869060
19518.960532	16953.687667	997.061523	73.383018
19518.960532	16953.687667	995.898438	-13.143291
19518.960532	16953.687667	994.734375	310.186005
19518.960532	16953.687667	993.571289	506.831146
19518.960532	16953.687667	992.407227	168.740112
19518.960532	16953.687667	991.242188	-179.347000
19518.960532	16953.687667	990.078125	-72.116165
19518.960532	16953.687667	988.913086	59.077568
19518.960532	16953.687667	987.748047	209.836533
19518.960532	16953.687667	986.583008	262.539673
19518.960532	16953.687667	985.416992	40.895016
19518.960532	16953.687667	984.250977	201.438614
19518.960532	16953.687667	983.084961	119.188049
19518.960532	16953.687667	981.918945	46.043701
19518.960532	16953.687667	980.751953	61.518204
19518.960532	16953.687667	979.584961	-69.057396
19518.960532	16953.687667	978.417969	21.424324
19518.960532	16953.687667	977.250977	260.344208
19518.960532	16953.687667	976.083008	130.671768
19518.960532	16953.687667	974.915039	-133.509857
19518.960532	16953.687667	973.747070	-29.071793
19518.960532	16953.687667	972.579102	-192.627350
19518.960532	16953.687667	971.410156	269.050690
19518.960532	16953.687667	970.242188	90.607407
19518.960532	16953.687667	969.072266	84.800529
19518.960532	16953.687667	967.903320	-77.416794
19518.960532	16953.687667	966.733398	326.204620
19518.960532	16953.687667	965.563477	344.492218
19518.960532	16953.687667	964.393555	119.135460
19518.960532	16953.687667	963.223633	-45.842297
19518.960532	16953.687667	962.052734	181.795639
19518.960532	16953.687667	960.881836	191.396408
19518.960532	16953.687667	959.710938	402.600555
19518.960532	16953.687667	958.540039	121.620926
19518.960532	16953.687667	957.368164	27.613977
19518.960532	16953.687667	956.196289	-155.623825
19518.960532	16953.687667	955.024414	-0.287861
19518.960532	16953.687667	953.851563	123.932510
19518.960532	16953.687667	952.679688	276.659882
19518.960532	16953.687667	951.506836	-70.478561
19518.960532	16953.687667	950.333984	137.870438
19518.960532	16953.687667	949.160156	169.376755
19518.960532	16953.687667	947.986328	-22.069195
19518.960532	16953.687667	946.812500	-49.119835
19518.960532	16953.687667	945.638672	376.332153
19518.960532	16953.687667	944.464844	288.759338
19518.960532	16953.687667	943.290039	490.057922
19518.960532	16953.687667	942.115234	121.206436
19518.960532	16953.687667	940.940430	86.282860
19518.960532	16953.687667	939.764648	395.687225
19518.960532	16953.687667	938.588867	333.175476
19518.960532	16953.687667	937.413086	377.567780
19518.960532	16953.687667	936.237305	501.561279
19518.960532	16953.687667	935.060547	102.385941
19518.960532	16953.687667	933.883789	235.922791
19518.960532	16953.687667	932.707031	81.884605
19518.960532	16953.687667	931.530273	259.679413
19518.960532	16953.687667	930.352539	128.912079
19518.960532	16953.687667	929.175781	208.427155
19518.960532	16953.687667	927.998047	75.424622
19518.960532	16953.687667	926.819336	222.621017
19518.960532	16953.687667	925.641602	-94.912292
19518.960532	16953.687667	924.462891	579.709961
19518.960532	16953.687667	923.284180	215.517563
19518.960532	16953.687667	922.104492	315.767395
19518.960532	16953.687667	920.924805	245.645508
19518.960532	16953.687667	919.746094	258.810760
19518.960532	16953.687667	919.551758	-209.538162
19518.960532	16953.687667	918.386719	317.236633
19518.960532	16953.687667	917.220703	375.115906
19518.960532	16953.687667	916.054688	-12.311795
19518.960532	16953.687667	914.887695	-26.705797
19518.960532	16953.687667	913.721680	117.304771
19518.960532	16953.687667	912.554688	207.645477
19518.960532	16953.687667	911.387695	-18.866499
19518.960532	16953.687667	910.220703	187.823364
19518.960532	16953.687667	909.052734	61.451992
19518.960532	16953.687667	907.885742	98.029297
19518.960532	16953.687667	906.717773	-0.425796
19518.960532	16953.687667	905.548828	-217.542496
19518.960532	16953.687667	904.380859	-36.808731
19518.960532	16953.687667	903.211914	-188.787827
19518.960532	16953.687667	902.042969	-15.183794
19518.960532	16953.687667	900.874023	-213.688232
19518.960532	16953.687667	899.704102	-49.525490
19518.960532	16953.687667	898.535156	337.625488
19518.960532	16953.687667	897.365234	-56.125183
19518.960532	16953.687667	896.194336	103.140114
19518.960532	16953.687667	895.024414	25.383295
19518.960532	16953.687667	893.853516	26.577486
19518.960532	16953.687667	892.682617	204.171326
19518.960532	16953.687667	891.511719	-110.442825
19518.960532	16953.687667	890.340820	187.693802
19518.960532	16953.687667	889.168945	191.004929
19518.960532	16953.687667	887.997070	-123.537216
19518.960532	16953.687667	886.825195	-20.524643
19518.960532	16953.687667	885.653320	198.339294
19518.960532	16953.687667	884.480469	145.831665
19518.960532	16953.687667	883.307617	-8.686476
19518.960532	16953.687667	882.134766	96.360825
19518.960532	16953.687667	880.961914	233.754593
19518.960532	16953.687667	879.788086	-76.019302
19518.960532	16953.687667	878.614258	248.863266
19518.960532	16953.687667	877.440430	108.150116
19518.960532	16953.687667	876.266602	46.155457
19518.960532	16953.687667	875.091797	42.013447
19518.960532	16953.687667	873.916992	-38.541481
19518.960532	16953.687667	872.742188	91.425987
19518.960532	16953.687667	871.567383	-0.767977
19518.960532	16953.687667	870.391602	-0.458138
19518.960532	16953.687667	869.215820	11.361586
19518.960532	16953.687667	868.040039	-92.457474
19518.960532	16953.687667	866.864258	136.533661
19518.960532	16953.687667	865.687500	111.205139
19518.960532	16953.687667	864.510742	-6.575463
19518.960532	16953.687667	863.333984	-115.116966
19518.960532	16953.687667	862.157227	-189.027023
19518.960532	16953.687667	860.979492	-92.093880
19518.960532	16953.687667	859.802734	30.133211
19518.960532	16953.687667	858.625000	23.021313
19518.960532	16953.687667	857.446289	73.556389
19518.960532	16953.687667	856.268555	50.187504
19518.960532	16953.687667	855.089844	-23.960732
19518.960532	16953.687667	853.911133	171.673035
19518.960532	16953.687667	852.731445	-15.539586
19518.960532	16953.687667	851.552734	304.380127
19518.960532	16953.687667	850.373047	-329.982605
19518.960532	16953.687667	849.193359	-146.173706
19518.960532	16953.687667	848.013672	300.123047
19518.960532	16953.687667	846.833008	96.693069
19518.960532	16953.687667	845.652344	-118.222229
19518.960532	16953.687667	844.471680	-86.765648
19518.960532	16953.687667	843.291016	80.425888
19518.960532	16953.687667	842.110352	-33.263058
19518.960532	16953.687667	840.928711	177.462494
19518.960532	16953.687667	839.747070	-262.952698
19518.960532	16953.687667	838.564453	14.323345
19518.960532	16953.687667	837.382813	158.057663
19518.960532	16953.687667	836.200195	57.996437
19518.960532	16953.687667	835.017578	-306.401703
19518.960532	16953.687667	833.834961	39.366951
19518.960532	16953.687667	832.651367	35.724030
19518.960532	16953.687667	831.467773	126.202545
19518.960532	16953.687667	830.284180	-40.629314
19518.960532	16953.687667	829.100586	61.191177
19518.960532	16953.687667	827.916992	77.974411
19518.960532	16953.687667	826.732422	152.077301
19518.960532	16953.687667	825.547852	35.634705
19518.960532	16953.687667	824.363281	27.007807
19518.960532	16953.687667	823.177734	-112.409500
19518.960532	16953.687667	821.992188	229.752182
19518.960532	16953.687667	820.806641	21.449747
19518.960532	16953.687667	819.621094	-95.137245
19518.960532	16953.687667	818.434570	-69.634605
19518.960532	16953.687667	817.249023	93.273338
19518.960532	16953.687667	816.062500	26.969807
19518.960532	16953.687667	814.875000	-275.270081
19518.960532	16953.687667	813.688477	372.871643
19518.960532	16953.687667	812.500977	116.352127
19518.960532	16953.687667	811.313477	-140.122803
19518.960532	16953.687667	810.125977	95.479988
19518.960532	16953.687667	808.937500	207.376114
19518.960532	16953.687667	807.749023	65.244255
19518.960532	16953.687667	806.560547	176.978867
19518.960532	16953.687667	805.372070	-8.656401
19518.960532	16953.687667	804.182617	150.938629
19518.960532	16953.687667	802.994141	472.684479
19518.960532	16953.687667	801.803711	76.692276
19518.960532	16953.687667	800.614258	80.624275
19518.960532	16953.687667	799.424805	6.828719
19518.960532	16953.687667	798.234375	108.858711
19518.960532	16953.687667	797.043945	162.836823
19518.960532	16953.687667	795.852539	72.915695
19518.960532	16953.687667	794.662109	-94.635727
19518.960532	16953.687667	793.470703	317.427216
19518.960532	16953.687667	792.279297	1.483224
19518.960532	16953.687667	791.087891	255.846771
19518.960532	16953.687667	789.895508	-0.778928
19518.960532	16953.687667	788.703125	93.762321
19518.960532	16953.687667	787.510742	238.349503
19518.960532	16953.687667	786.318359	-150.484100
19518.960532	16953.687667	785.125000	-90.330360
19518.960532	16953.687667	783.931641	42.635124
19518.960532	16953.687667	782.738281	57.047245
19518.960532	16953.687667	781.544922	9.908082
19518.960532	16953.687667	780.350586	72.014252
19518.960532	16953.687667	779.156250	-127.733414
19518.960532	16953.687667	777.961914	57.143768
19518.960532	16953.687667	776.767578	-97.135277
19518.960532	16953.687667	775.572266	205.831360
19518.960532	16953.687667	774.376953	140.169403
19518.960532	16953.687667	773.181641	131.318497
19518.960532	16953.687667	771.986328	51.937054
19518.960532	16953.687667	770.790039	-2.465718
19518.960532	16953.687667	769.593750	52.171669
19518.960532	16953.687667	768.397461	65.831894
19518.960532	16953.687667	767.201172	245.245697
19518.960532	16953.687667	766.003906	-122.788834
19518.960532	16953.687667	764.806641	17.876003
19518.960532	16953.687667	763.609375	156.152618
19518.960532	16953.687667	762.412109	171.754211
19518.960532	16953.687667	761.213867	-114.499756
19518.960532	16953.687667	760.015625	-76.273872
19518.960532	16953.687667	758.817383	29.924429
19518.960532	16953.687667	757.618164	-65.802322
19518.960532	16953.687667	756.419922	19.828211
19518.960532	16953.687667	755.220703	216.444534
19518.960532	16953.687667	754.021484	129.634369
19518.960532	16953.687667	752.821289	-133.927643
19518.960532	16953.687667	751.621094	-12.323569
19518.960532	16953.687667	750.420898	43.491951
19518.960532	16953.687667	749.220703	-11.726704
19518.960532	16953.687667	748.020508	34.899864
19518.960532	16953.687667	746.819336	65.614532
19518.960532	16953.687667	745.618164	252.407761
19518.960532	16953.687667	744.416992	-11.171069
19518.960532	16953.687667	743.214844	-37.174103
19518.960532	16953.687667	742.012695	108.662750
19518.960532	16953.687667	740.810547	-1.118925
19518.960532	16953.687667	739.608398	-52.129856
19518.960532	16953.687667	738.406250	190.653992
19518.960532	16953.687667	737.203125	112.412796
19518.960532	16953.687667	736.000000	368.520294
19518.960532	16953.687667	734.795898	545.420288
19518.960532	16953.687667	733.592773	625.086487
19518.960532	16953.687667	732.388672	655.005493
19518.960532	16953.687667	731.184570	517.822632
19518.960532	16953.687667	729.979492	513.807922
19518.960532	16953.687667	728.775391	473.644348
19518.960532	16953.687667	727.570313	198.841675
19518.960532	16953.687667	726.365234	181.231140
19518.960532	16953.687667	725.160156	452.221710
19518.960532	16953.687667	723.954102	103.069496
19518.960532	16953.687667	722.748047	65.080490
19518.960532	16953.687667	721.541992	24.812170
19518.960532	16953.687667	720.334961	-101.092690
19518.960532	16953.687667	719.128906	-94.083122
19518.960532	16953.687667	717.921875	-152.425201
19518.960532	16953.687667	716.714844	-102.697464
19518.960532	16953.687667	715.506836	-228.618500
19518.960532	16953.687667	714.298828	-124.948387
19518.960532	16953.687667	713.090820	-156.371719
19518.960532	16953.687667	711.882813	30.413261
19518.960532	16953.687667	710.674805	34.893864
19518.960532	16953.687667	709.465820	360.929565
19518.960532	16953.687667	708.256836	-138.358658
19518.960532	16953.687667	707.047852	50.393570
19518.960532	16953.687667	705.837891	277.246826
19518.960532	16953.687667	704.627930	70.312523
19518.960532	16953.687667	703.417969	88.089775
19518.960532	16953.687667	702.208008	99.093353
19518.960532	16953.687667	700.998047	-51.609203
19518.960532	16953.687667	699.787109	49.177467
19518.960532	16953.687667	698.576172	194.793457
19518.960532	16953.687667	697.364258	-16.489702
19518.960532	16953.687667	696.153320	-81.865868
19518.960532	16953.687667	694.941406	29.980326
19518.960532	16953.687667	693.729492	-12.985901
19518.960532	16953.687667	692.516602	-24.555496
19518.960532	16953.687667	691.304688	15.421609
19518.960532	16953.687667	690.091797	-202.377945
19518.960532	16953.687667	688.878906	102.017067
19518.960532	16953.687667	687.665039	-8.194064
19518.960532	16953.687667	686.451172	262.415009
19518.960532	16953.687667	685.237305	138.761627
19518.960532	16953.687667	684.023438	30.827616
19518.960532	16953.687667	682.809570	106.487381
19518.960532	16953.687667	681.594727	123.924652
19518.960532	16953.687667	680.379883	51.851044
19518.960532	16953.687667	679.165039	-51.513290
19518.960532	16953.687667	677.949219	-110.099808
19518.960532	16953.687667	676.733398	-155.241760
19518.960532	16953.687667	675.517578	76.857201
19518.960532	16953.687667	674.301758	-33.121742
19518.960532	16953.687667	673.084961	71.487663
19518.960532	16953.687667	671.869141	202.869064
19518.960532	16953.687667	670.651367	-7.557840
19518.960532	16953.687667	669.434570	-7.959725
19518.960532	16953.687667	668.216797	-86.495682
19518.960532	16953.687667	667.000000	-234.191071
19518.960532	16953.687667	665.781250	142.688446
19518.960532	16953.687667	664.563477	77.605003
19518.960532	16953.687667	663.344727	52.723896
19518.960532	16953.687667	662.125977	-56.883770
19518.960532	16953.687667	660.907227	183.685959
19518.960532	16953.687667	659.688477	80.831161
19518.960532	16953.687667	658.468750	71.665688
19518.960532	16953.687667	657.249023	327.731323
19518.960532	16953.687667	656.029297	-31.241735
19518.960532	16953.687667	654.808594	66.635796
19518.960532	16953.687667	653.587891	124.413506
19518.960532	16953.687667	652.367188	246.774704
19518.960532	16953.687667	651.146484	-91.712517
19518.960532	16953.687667	649.924805	-2.670420
19518.960532	16953.687667	648.704102	135.326370
19518.960532	16953.687667	647.482422	182.088333
19518.960532	16953.687667	646.259766	195.511810
19518.960532	16953.687667	645.037109	371.314209
19518.960532	16953.687667	643.815430	17.912041
19518.960532	16953.687667	642.591797	-106.324066
19518.960532	16953.687667	641.369141	62.904690
19518.960532	16953.687667	640.145508	-38.969643
19518.960532	16953.687667	638.921875	3.651042
19518.960532	16953.687667	637.698242	250.645432
19518.960532	16953.687667	636.474609	17.941015
19518.960532	16953.687667	635.250000	240.523483
19518.960532	16953.687667	634.025391	50.213448
19518.960532	16953.687667	632.800781	8.731374
19518.960532	16953.687667	631.575195	224.703705
19518.960532	16953.687667	630.349609	185.550537
19518.960532	16953.687667	629.124023	62.205204
19518.960532	16953.687667	627.898438	154.058121
19518.960532	16953.687667	626.671875	505.314026
19518.960532	16953.687667	625.445313	153.906494
19518.960532	16953.687667	624.218750	108.514915
19518.960532	16953.687667	622.992188	320.207428
19518.960532	16953.687667	621.764648	219.581573
19518.960532	16953.687667	620.537109	218.728821
19518.960532	16953.687667	619.309570	76.258286
19518.960532	16953.687667	618.081055	-132.470612
19518.960532	16953.687667	616.852539	50.688103
19518.960532	16953.687667	615.624023	67.907928
19518.960532	16953.687667	614.395508	-129.370056
19518.960532	16953.687667	613.166992	-145.116913
19518.960532	16953.687667	611.937500	144.380630
19518.960532	16953.687667	610.708008	195.090363
19518.960532	16953.687667	609.477539	-19.354435
19518.960532	16953.687667	608.248047	-17.057367
19518.960532	16953.687667	607.017578	-41.171375
19518.960532	16953.687667	605.787109	60.728020
19518.960532	16953.687667	604.555664	-270.153412
19518.960532	16953.687667	603.325195	180.800735
19518.960532	16953.687667	602.093750	-28.351017
19518.960532	16953.687667	600.861328	91.535576
19518.960532	16953.687667	599.629883	-2.560368
19518.960532	16953.687667	598.397461	-191.361160
19518.960532	16953.687667	597.165039	-130.745758
19518.960532	16953.687667	595.932617	-21.531258
19518.960532	16953.687667	594.699219	-121.687187
19518.960532	16953.687667	593.465820	-82.823357
19518.960532	16953.687667	592.232422	196.338776
19518.960532	16953.687667	590.999023	138.405853
19518.960532	16953.687667	589.764648	111.459328
19518.960532	16953.687667	588.530273	401.769745
19518.960532	16953.687667	587.295898	319.970978
19518.960532	16953.687667	586.061523	401.226166
19518.960532	16953.687667	584.826172	394.540741
19518.960532	16953.687667	583.590820	495.799988
19518.960532	16953.687667	582.355469	502.541931
19518.960532	16953.687667	581.119141	386.240906
19518.960532	16953.687667	579.882813	124.982925
19518.960532	16953.687667	578.646484	191.544113
19518.960532	16953.687667	577.410156	449.432953
19518.960532	16953.687667	576.172852	333.756836
19518.960532	16953.687667	574.935547	534.642151
19518.960532	16953.687667	573.698242	307.226166
19518.960532	16953.687667	572.460938	255.729980
19518.960532	16953.687667	571.222656	-85.440018
19518.960532	16953.687667	569.984375	631.771667
19518.960532	16953.687667	568.746094	295.318329
19518.960532	16953.687667	567.506836	411.172913
19518.960532	16953.687667	566.267578	454.714569
19518.960532	16953.687667	565.028320	463.273438
19518.960532	16953.687667	563.789063	511.433441
19518.960532	16953.687667	562.548828	710.989868
19518.960532	16953.687667	561.309570	603.709290
19518.960532	16953.687667	560.068359	902.048157
19518.960532	16953.687667	558.828125	1025.100098
19518.960532	16953.687667	557.586914	1108.809692
19518.960532	16953.687667	556.345703	1269.267212
19518.960532	16953.687667	555.104492	1274.321899
19518.960532	16953.687667	553.863281	1023.373291
19518.960532	16953.687667	552.621094	1195.083984
19518.960532	16953.687667	551.378906	1115.206055
19518.960532	16953.687667	550.136719	1405.216797
19518.960532	16953.687667	548.893555	1395.581665
19518.960532	16953.687667	547.650391	1132.405396
19518.960532	16953.687667	546.407227	998.458252
19518.960532	16953.687667	545.164063	991.473145
19518.960532	16953.687667	543.919922	737.669189
19518.960532	16953.687667	542.675781	785.615234
19518.960532	16953.687667	541.431641	741.909180
19518.960532	16953.687667	540.186523	997.557068
19518.960532	16953.687667	538.941406	1178.968994
19518.960532	16953.687667	537.696289	1129.010132
19518.960532	16953.687667	536.451172	913.304871
19518.960532	16953.687667	535.205078	1040.402344
19518.960532	16953.687667	533.959961	1093.365356
19518.960532	16953.687667	532.712891	727.636353
19518.960532	16953.687667	531.466797	1164.663818
19518.960532	16953.687667	530.219727	1052.182617
19518.960532	16953.687667	528.972656	972.542419
19518.960532	16953.687667	527.725586	1132.751587
19518.960532	16953.687667	526.478516	1072.914185
19518.960532	16953.687667	525.230469	1080.724976
19518.960532	16953.687667	523.982422	1441.437012
19518.960532	16953.687667	522.734375	1253.350952
19518.960532	16953.687667	521.485352	1124.208374
19518.960532	16953.687667	520.236328	1119.249634
19518.960532	16953.687667	518.987305	1460.347534
19518.960532	16953.687667	517.737305	1370.604004
19518.960532	16953.687667	516.488281	1487.578125
19518.960532	16953.687667	515.238281	1295.759766
19518.960532	16953.687667	513.988281	1669.357300
19518.960532	16953.687667	512.737305	1260.304321
19518.960532	16953.687667	511.486328	1538.208862
19518.960532	16953.687667	510.235352	1720.416870
19518.960532	16953.687667	508.984375	1552.824585
19518.960532	16953.687667	507.732422	1450.485962
19518.960532	16953.687667	506.480469	1834.590332
19518.960532	16953.687667	505.228516	1667.117310
19518.960532	16953.687667	503.976563	1970.700684
19518.960532	16953.687667	502.723633	1701.276245
19518.960532	16953.687667	501.470703	1946.122192
19518.960532	16953.687667	500.217773	1937.057129
19518.960532	16953.687667	498.963867	1858.578613
19518.960532	16953.687667	497.709961	2430.524658
19518.960532	16953.687667	496.456055	2204.476563
19518.960532	16953.687667	495.202148	2611.285645
19518.960532	16953.687667	493.947266	2634.352051
19518.960532	16953.687667	492.692383	2486.194580
19518.960532	16953.687667	491.437500	2550.261230
19518.960532	16953.687667	490.181641	2536.261719
19518.960532	16953.687667	488.926758	2851.207764
19518.960532	16953.687667	487.670898	2936.485107
19518.960532	16953.687667	486.414063	2932.886230
19518.960532	16953.687667	485.158203	2991.880615
19518.960532	16953.687667	483.901367	3230.236328
19518.960532	16953.687667	482.644531	3167.737793
19518.960532	16953.687667	481.386719	3098.613525
19518.960532	16953.687667	480.128906	3375.187012
19518.960532	16953.687667	478.871094	3385.625732
19518.960532	16953.687667	477.613281	3503.879395
19518.960532	16953.687667	476.355469	3267.585693
19518.960532	16953.687667	475.096680	3584.052734
19518.960532	16953.687667	473.837891	3774.894043
19518.960532	16953.687667	472.578125	3816.437988
19518.960532	16953.687667	471.319336	3844.722656
19518.960532	16953.687667	470.059570	3680.656982
19518.960532	16953.687667	468.799805	3868.005615
19518.960532	16953.687667	467.539063	3817.688965
19518.960532	16953.687667	466.278320	4194.029785
19518.960532	16953.687667	465.017578	4229.197754
19518.960532	16953.687667	463.756836	4134.641113
19518.960532	16953.687667	462.495117	4356.529785
19518.960532	16953.687667	461.233398	4345.210938
19518.960532	16953.687667	459.971680	4587.652832
19518.960532	16953.687667	458.709961	4502.180176
19518.960532	16953.687667	457.447266	4355.990723
19518.960532	16953.687667	456.184570	4635.615723
19518.960532	16953.687667	454.921875	4600.375000
19518.960532	16953.687667	453.658203	4549.561035
19518.960532	16953.687667	452.394531	4773.587891
19518.960532	16953.687667	451.130859	4482.883301
19518.960532	16953.687667	449.867188	4907.796875
19518.960532	16953.687667	448.602539	4863.220703
19518.960532	16953.687667	447.337891	4805.123047
19518.960532	16953.687667	446.073242	4875.326660
19518.960532	16953.687667	444.807617	4684.833496
19518.960532	16953.687667	443.542969	4648.370117
19518.960532	16953.687667	442.276367	4772.254883
19518.960532	16953.687667	441.010742	4933.967285
19518.960532	16953.687667	439.744141	5058.322754
19518.960532	16953.687667	438.478516	5031.569824
19518.960532	16953.687667	437.210938	5089.807129
19518.960532	16953.687667	435.944336	4840.368164
19518.960532	16953.687667	434.676758	5222.855957
19518.960532	16953.687667	433.409180	5207.532715
19518.960532	16953.687667	432.141602	5197.687500
19518.960532	16953.687667	430.873047	5169.695313
19518.960532	16953.687667	429.604492	5121.402832
19518.960532	16953.687667	428.335938	4937.095215
19518.960532	16953.687667	427.067383	5017.390625
19518.960532	16953.687667	425.797852	5276.412598
19518.960532	16953.687667	424.528320	5103.797363
19518.960532	16953.687667	423.258789	5268.288086
19518.960532	16953.687667	421.988281	5279.515625
19518.960532	16953.687667	420.717773	5526.981445
19518.960532	16953.687667	419.447266	5227.528320
19518.960532	16953.687667	418.175781	5127.896973
19518.960532	16953.687667	416.905273	5217.261230
19518.960532	16953.687667	415.633789	5196.122070
19518.960532	16953.687667	414.362305	5344.531250
19518.960532	16953.687667	413.089844	5262.706543
19518.960532	16953.687667	411.817383	4989.231445
19518.960532	16953.687667	410.544922	5241.893066
19518.960532	16953.687667	409.272461	5172.489746
19518.960532	16953.687667	407.999023	5180.424805
19518.960532	16953.687667	406.725586	5457.742188
19518.960532	16953.687667	405.452148	5212.446289
19518.960532	16953.687667	404.177734	5257.744629
19518.960532	16953.687667	402.903320	5235.039551
19518.960532	16953.687667	401.628906	5285.095703
19518.960532	16953.687667	400.354492	5360.902832
19518.960532	16953.687667	399.079102	5268.361328
19518.960532	16953.687667	397.803711	5163.154297
19518.960532	16953.687667	396.528320	5379.797363
19518.960532	16953.687667	395.251953	5185.102051
19518.960532	16953.687667	393.976563	5026.667969
19518.960532	16953.687667	392.700195	5364.315430
19518.960532	16953.687667	391.422852	5160.797852
19518.960532	16953.687667	390.145508	4812.375488
19518.960532	16953.687667	388.869141	5144.860840
19518.960532	16953.687667	387.590820	5034.182617
19518.960532	16953.687667	386.313477	5142.285645
19518.960532	16953.687667	385.035156	5149.850098
19518.960532	16953.687667	383.756836	4986.759277
19518.960532	16953.687667	382.478516	4976.194336
19518.960532	16953.687667	381.199219	4945.771973
19518.960532	16953.687667	379.919922	4833.875977
19518.960532	16953.687667	378.640625	4504.530762
19518.960532	16953.687667	377.360352	4713.883301
19518.960532	16953.687667	376.080078	4675.869629
19518.960532	16953.687667	374.799805	4668.706055
19518.960532	16953.687667	373.519531	4584.048828
19518.960532	16953.687667	372.238281	4617.038574
19518.960532	16953.687667	370.957031	4619.075195
19518.960532	16953.687667	369.675781	4443.747070
19518.960532	16953.687667	368.394531	4606.435059
19518.960532	16953.687667	367.112305	4498.228516
19518.960532	16953.687667	365.830078	3941.248291
19518.960532	16953.687667	364.546875	4186.038574
19518.960532	16953.687667	363.264648	4098.567383
19518.960532	16953.687667	361.981445	3958.410889
19518.960532	16953.687667	360.698242	3791.033936
19518.960532	16953.687667	359.414063	3649.199951
19518.960532	16953.687667	358.129883	3774.251709
19518.960532	16953.687667	356.845703	3708.743164
19518.960532	16953.687667	355.561523	3941.535889
19518.960532	16953.687667	354.276367	3386.885254
19518.960532	16953.687667	352.991211	3325.031494
19518.960532	16953.687667	351.706055	3332.610840
19518.960532	16953.687667	350.420898	3288.965576
19518.960532	16953.687667	349.134766	3001.544434
19518.960532	16953.687667	347.848633	2859.394043
19518.960532	16953.687667	346.561523	2904.440674
19518.960532	16953.687667	345.275391	3136.734619
19518.960532	16953.687667	343.988281	2998.203125
19518.960532	16953.687667	342.700195	2575.545166
19518.960532	16953.687667	341.413086	2760.014893
19518.960532	16953.687667	340.125000	2451.169922
19518.960532	16953.687667	338.836914	2305.633057
19518.960532	16953.687667	337.548828	1840.069092
19518.960532	16953.687667	336.259766	2020.431030
19518.960532	16953.687667	334.970703	2209.496094
19518.960532	16953.687667	333.681641	1340.337769
19518.960532	16953.687667	332.391602	1565.458862
19518.960532	16953.687667	331.101563	1354.240234
19518.960532	16953.687667	329.811523	1425.305176
19518.960532	16953.687667	328.521484	1609.830078
19518.960532	16953.687667	327.230469	1511.482300
19518.960532	16953.687667	325.939453	1391.601929
19518.960532	16953.687667	324.648438	1243.760132
19518.960532	16953.687667	323.356445	1294.921631
19518.960532	16953.687667	322.064453	928.515808
19518.960532	16953.687667	320.772461	908.329224
19518.960532	16953.687667	319.480469	542.027222
19518.960532	16953.687667	318.187500	723.140320
19518.960532	16953.687667	316.894531	723.994690
19518.960532	16953.687667	315.601563	567.691223
19518.960532	16953.687667	314.307617	546.017883
19518.960532	16953.687667	313.013672	93.833481
19518.960532	16953.687667	311.719727	276.224976
19518.960532	16953.687667	310.425781	-58.195301
19518.960532	16953.687667	309.130859	-128.487198
19518.960532	16953.687667	307.835938	25.413498
19518.960532	16953.687667	306.541016	75.810028
19518.960532	16953.687667	305.245117	120.918587
19518.960532	16953.687667	303.949219	196.537018
19518.960532	16953.687667	302.653320	-51.963890
19518.960532	16953.687667	301.356445	-56.624378
19518.960532	16953.687667	300.060547	-9.988155
19518.960532	16953.687667	298.763672	-3.053425
