#X		#Y		#Wave		#Intensity
19437.193777	16902.679167	2000.043945	-248.517242
19437.193777	16902.679167	1999.080078	-373.051819
19437.193777	16902.679167	1998.116211	-145.067688
19437.193777	16902.679167	1997.151367	-31.885555
19437.193777	16902.679167	1996.186523	112.743973
19437.193777	16902.679167	1995.222656	50.986969
19437.193777	16902.679167	1994.256836	161.988434
19437.193777	16902.679167	1993.291992	131.109634
19437.193777	16902.679167	1992.327148	-125.711563
19437.193777	16902.679167	1991.361328	168.967545
19437.193777	16902.679167	1990.395508	113.961159
19437.193777	16902.679167	1989.429688	-114.838425
19437.193777	16902.679167	1988.463867	-198.168152
19437.193777	16902.679167	1987.497070	145.914963
19437.193777	16902.679167	1986.531250	195.007614
19437.193777	16902.679167	1985.564453	443.849060
19437.193777	16902.679167	1984.597656	227.309967
19437.193777	16902.679167	1983.630859	205.612793
19437.193777	16902.679167	1982.664063	344.073486
19437.193777	16902.679167	1981.696289	86.692635
19437.193777	16902.679167	1980.728516	184.677795
19437.193777	16902.679167	1979.761719	242.652130
19437.193777	16902.679167	1978.792969	317.486603
19437.193777	16902.679167	1977.825195	399.271545
19437.193777	16902.679167	1976.857422	389.282684
19437.193777	16902.679167	1975.888672	114.836647
19437.193777	16902.679167	1974.919922	183.110809
19437.193777	16902.679167	1973.951172	204.117828
19437.193777	16902.679167	1972.982422	121.163071
19437.193777	16902.679167	1972.013672	20.629747
19437.193777	16902.679167	1971.043945	89.952583
19437.193777	16902.679167	1970.075195	289.582306
19437.193777	16902.679167	1969.105469	483.906952
19437.193777	16902.679167	1968.135742	-88.559410
19437.193777	16902.679167	1967.165039	-232.372513
19437.193777	16902.679167	1966.195313	81.794853
19437.193777	16902.679167	1965.224609	378.343048
19437.193777	16902.679167	1964.253906	460.282501
19437.193777	16902.679167	1963.283203	303.119263
19437.193777	16902.679167	1962.312500	401.792786
19437.193777	16902.679167	1961.341797	367.296936
19437.193777	16902.679167	1960.370117	280.924225
19437.193777	16902.679167	1959.399414	88.578049
19437.193777	16902.679167	1958.427734	329.040527
19437.193777	16902.679167	1957.455078	219.991577
19437.193777	16902.679167	1956.483398	-2.313241
19437.193777	16902.679167	1955.511719	215.350708
19437.193777	16902.679167	1954.539063	157.476700
19437.193777	16902.679167	1953.566406	369.794067
19437.193777	16902.679167	1952.593750	247.716705
19437.193777	16902.679167	1951.621094	297.502075
19437.193777	16902.679167	1950.647461	447.841339
19437.193777	16902.679167	1949.674805	288.569000
19437.193777	16902.679167	1948.701172	389.489258
19437.193777	16902.679167	1947.727539	490.257019
19437.193777	16902.679167	1946.753906	615.417847
19437.193777	16902.679167	1945.780273	230.025055
19437.193777	16902.679167	1944.805664	-125.884361
19437.193777	16902.679167	1943.831055	35.824726
19437.193777	16902.679167	1942.856445	177.767548
19437.193777	16902.679167	1941.881836	589.301392
19437.193777	16902.679167	1940.907227	-122.224548
19437.193777	16902.679167	1939.932617	-115.371254
19437.193777	16902.679167	1938.957031	-91.431274
19437.193777	16902.679167	1937.981445	74.554283
19437.193777	16902.679167	1937.005859	-166.237808
19437.193777	16902.679167	1936.030273	244.525330
19437.193777	16902.679167	1935.054688	228.984970
19437.193777	16902.679167	1934.078125	184.035126
19437.193777	16902.679167	1933.101563	271.251404
19437.193777	16902.679167	1932.125000	578.677063
19437.193777	16902.679167	1931.148438	536.030884
19437.193777	16902.679167	1930.171875	554.539490
19437.193777	16902.679167	1929.194336	480.068695
19437.193777	16902.679167	1928.217773	373.815857
19437.193777	16902.679167	1927.240234	370.285980
19437.193777	16902.679167	1926.262695	525.655518
19437.193777	16902.679167	1925.284180	387.645111
19437.193777	16902.679167	1924.306641	237.455780
19437.193777	16902.679167	1923.328125	-49.501884
19437.193777	16902.679167	1922.350586	32.527508
19437.193777	16902.679167	1921.372070	319.700439
19437.193777	16902.679167	1920.392578	489.554688
19437.193777	16902.679167	1919.414063	173.482010
19437.193777	16902.679167	1918.434570	-69.224693
19437.193777	16902.679167	1917.456055	29.861210
19437.193777	16902.679167	1916.476563	109.407440
19437.193777	16902.679167	1915.497070	-108.707687
19437.193777	16902.679167	1914.516602	212.364304
19437.193777	16902.679167	1913.537109	135.803421
19437.193777	16902.679167	1912.556641	86.120857
19437.193777	16902.679167	1911.576172	133.995239
19437.193777	16902.679167	1910.595703	-15.552299
19437.193777	16902.679167	1909.615234	-240.563248
19437.193777	16902.679167	1908.633789	-248.605560
19437.193777	16902.679167	1907.653320	142.904175
19437.193777	16902.679167	1906.671875	-25.896090
19437.193777	16902.679167	1905.690430	156.064117
19437.193777	16902.679167	1904.708984	274.692078
19437.193777	16902.679167	1903.727539	359.230988
19437.193777	16902.679167	1902.745117	-164.682343
19437.193777	16902.679167	1901.762695	-233.319702
19437.193777	16902.679167	1900.780273	165.225891
19437.193777	16902.679167	1899.797852	159.873062
19437.193777	16902.679167	1898.815430	-151.871750
19437.193777	16902.679167	1897.832031	-213.008652
19437.193777	16902.679167	1896.849609	66.268723
19437.193777	16902.679167	1895.866211	-84.737679
19437.193777	16902.679167	1894.882813	143.461304
19437.193777	16902.679167	1893.898438	167.523682
19437.193777	16902.679167	1892.915039	82.296196
19437.193777	16902.679167	1891.930664	-85.436691
19437.193777	16902.679167	1890.947266	28.626554
19437.193777	16902.679167	1889.962891	72.278244
19437.193777	16902.679167	1888.977539	-228.739410
19437.193777	16902.679167	1887.993164	-56.340122
19437.193777	16902.679167	1887.007813	351.416931
19437.193777	16902.679167	1886.023438	-158.009262
19437.193777	16902.679167	1885.038086	293.355438
19437.193777	16902.679167	1884.051758	-259.432617
19437.193777	16902.679167	1883.066406	-113.654968
19437.193777	16902.679167	1882.081055	-16.376625
19437.193777	16902.679167	1881.094727	124.536789
19437.193777	16902.679167	1880.108398	459.305389
19437.193777	16902.679167	1879.122070	-243.024521
19437.193777	16902.679167	1878.135742	31.200686
19437.193777	16902.679167	1877.148438	232.705185
19437.193777	16902.679167	1876.162109	344.567871
19437.193777	16902.679167	1875.174805	76.309990
19437.193777	16902.679167	1874.187500	173.711731
19437.193777	16902.679167	1873.199219	338.878113
19437.193777	16902.679167	1872.211914	-246.110458
19437.193777	16902.679167	1871.223633	-213.925980
19437.193777	16902.679167	1870.236328	-60.783161
19437.193777	16902.679167	1869.248047	-134.990646
19437.193777	16902.679167	1868.258789	-175.287628
19437.193777	16902.679167	1867.270508	-319.496552
19437.193777	16902.679167	1866.282227	319.489471
19437.193777	16902.679167	1865.292969	136.634766
19437.193777	16902.679167	1864.303711	72.259926
19437.193777	16902.679167	1863.314453	12.766112
19437.193777	16902.679167	1862.324219	175.520020
19437.193777	16902.679167	1861.334961	101.583542
19437.193777	16902.679167	1860.344727	-68.871292
19437.193777	16902.679167	1859.354492	74.553970
19437.193777	16902.679167	1858.364258	169.676392
19437.193777	16902.679167	1857.374023	257.541565
19437.193777	16902.679167	1856.383789	0.400128
19437.193777	16902.679167	1855.392578	-73.309006
19437.193777	16902.679167	1854.401367	202.699142
19437.193777	16902.679167	1853.410156	-1.199853
19437.193777	16902.679167	1852.418945	286.766052
19437.193777	16902.679167	1851.426758	-90.587250
19437.193777	16902.679167	1850.435547	-55.725796
19437.193777	16902.679167	1849.443359	159.831177
19437.193777	16902.679167	1848.451172	341.589172
19437.193777	16902.679167	1847.458984	467.882690
19437.193777	16902.679167	1846.466797	-219.756531
19437.193777	16902.679167	1845.473633	144.946289
19437.193777	16902.679167	1844.480469	129.195831
19437.193777	16902.679167	1843.487305	147.139038
19437.193777	16902.679167	1842.494141	-219.913071
19437.193777	16902.679167	1841.500977	-177.864349
19437.193777	16902.679167	1840.506836	-102.162750
19437.193777	16902.679167	1839.513672	72.090897
19437.193777	16902.679167	1838.519531	311.189697
19437.193777	16902.679167	1837.525391	225.664474
19437.193777	16902.679167	1836.530273	265.137543
19437.193777	16902.679167	1835.536133	179.621460
19437.193777	16902.679167	1834.541016	46.075180
19437.193777	16902.679167	1833.545898	-166.710617
19437.193777	16902.679167	1832.550781	-31.200373
19437.193777	16902.679167	1831.555664	486.024323
19437.193777	16902.679167	1830.560547	227.596710
19437.193777	16902.679167	1829.564453	53.254166
19437.193777	16902.679167	1828.568359	-25.054337
19437.193777	16902.679167	1827.572266	153.368896
19437.193777	16902.679167	1826.576172	230.940323
19437.193777	16902.679167	1825.580078	150.154510
19437.193777	16902.679167	1824.583008	220.444046
19437.193777	16902.679167	1823.585938	396.164276
19437.193777	16902.679167	1822.588867	322.485596
19437.193777	16902.679167	1821.591797	-122.683311
19437.193777	16902.679167	1820.594727	371.585724
19437.193777	16902.679167	1819.596680	98.992714
19437.193777	16902.679167	1818.599609	252.820709
19437.193777	16902.679167	1817.601563	-72.417534
19437.193777	16902.679167	1816.603516	529.047729
19437.193777	16902.679167	1815.604492	33.824585
19437.193777	16902.679167	1814.606445	-32.832874
19437.193777	16902.679167	1813.607422	158.939377
19437.193777	16902.679167	1812.608398	240.528488
19437.193777	16902.679167	1811.609375	298.112732
19437.193777	16902.679167	1810.610352	214.513016
19437.193777	16902.679167	1809.610352	252.846893
19437.193777	16902.679167	1808.611328	334.140686
19437.193777	16902.679167	1807.611328	307.783203
19437.193777	16902.679167	1806.611328	274.206940
19437.193777	16902.679167	1805.610352	32.708988
19437.193777	16902.679167	1804.610352	137.636429
19437.193777	16902.679167	1803.609375	156.475372
19437.193777	16902.679167	1802.608398	-18.187147
19437.193777	16902.679167	1801.607422	353.911285
19437.193777	16902.679167	1800.606445	-76.283333
19437.193777	16902.679167	1799.605469	157.120361
19437.193777	16902.679167	1798.603516	302.079285
19437.193777	16902.679167	1797.601563	124.827339
19437.193777	16902.679167	1796.599609	291.062561
19437.193777	16902.679167	1795.597656	151.893127
19437.193777	16902.679167	1794.595703	542.048401
19437.193777	16902.679167	1793.592773	371.744812
19437.193777	16902.679167	1792.589844	-15.474781
19437.193777	16902.679167	1791.587891	19.179005
19437.193777	16902.679167	1790.583984	456.411926
19437.193777	16902.679167	1789.581055	31.045391
19437.193777	16902.679167	1788.577148	234.538284
19437.193777	16902.679167	1787.574219	473.588013
19437.193777	16902.679167	1786.570313	119.637604
19437.193777	16902.679167	1785.566406	-41.451023
19437.193777	16902.679167	1784.561523	237.725510
19437.193777	16902.679167	1783.557617	131.230576
19437.193777	16902.679167	1782.552734	17.553486
19437.193777	16902.679167	1781.547852	-36.705143
19437.193777	16902.679167	1780.542969	94.461639
19437.193777	16902.679167	1779.538086	456.121338
19437.193777	16902.679167	1778.532227	-100.053551
19437.193777	16902.679167	1777.527344	144.860901
19437.193777	16902.679167	1776.521484	116.313995
19437.193777	16902.679167	1775.515625	68.678513
19437.193777	16902.679167	1774.508789	61.347382
19437.193777	16902.679167	1773.502930	-69.575005
19437.193777	16902.679167	1772.496094	86.772163
19437.193777	16902.679167	1771.489258	302.316772
19437.193777	16902.679167	1770.482422	-4.516057
19437.193777	16902.679167	1769.475586	-0.445698
19437.193777	16902.679167	1768.467773	494.678162
19437.193777	16902.679167	1767.460938	85.677994
19437.193777	16902.679167	1766.453125	317.124512
19437.193777	16902.679167	1765.445313	159.477554
19437.193777	16902.679167	1764.437500	163.012024
19437.193777	16902.679167	1763.428711	102.438408
19437.193777	16902.679167	1762.420898	-145.445175
19437.193777	16902.679167	1761.412109	42.661640
19437.193777	16902.679167	1760.403320	228.225159
19437.193777	16902.679167	1759.393555	141.215363
19437.193777	16902.679167	1758.384766	108.603104
19437.193777	16902.679167	1757.375000	310.305237
19437.193777	16902.679167	1756.366211	263.259918
19437.193777	16902.679167	1755.356445	246.893372
19437.193777	16902.679167	1754.345703	76.609314
19437.193777	16902.679167	1753.335938	388.938324
19437.193777	16902.679167	1752.325195	-79.574684
19437.193777	16902.679167	1751.315430	-219.273712
19437.193777	16902.679167	1750.304688	66.598648
19437.193777	16902.679167	1749.292969	144.209900
19437.193777	16902.679167	1748.282227	-83.234413
19437.193777	16902.679167	1747.270508	62.690540
19437.193777	16902.679167	1746.259766	28.882166
19437.193777	16902.679167	1745.248047	-45.184284
19437.193777	16902.679167	1744.235352	12.932237
19437.193777	16902.679167	1743.223633	302.342712
19437.193777	16902.679167	1742.211914	-78.991737
19437.193777	16902.679167	1741.199219	-224.237305
19437.193777	16902.679167	1740.186523	159.127533
19437.193777	16902.679167	1739.173828	259.077423
19437.193777	16902.679167	1738.160156	-155.427094
19437.193777	16902.679167	1737.147461	-126.437752
19437.193777	16902.679167	1736.133789	-196.617645
19437.193777	16902.679167	1735.120117	-40.526669
19437.193777	16902.679167	1734.106445	-99.127533
19437.193777	16902.679167	1733.091797	-355.801910
19437.193777	16902.679167	1732.078125	85.038261
19437.193777	16902.679167	1731.063477	54.391106
19437.193777	16902.679167	1730.048828	-339.117096
19437.193777	16902.679167	1729.034180	-132.021210
19437.193777	16902.679167	1728.019531	-323.053345
19437.193777	16902.679167	1727.003906	-12.671857
19437.193777	16902.679167	1725.988281	-128.552673
19437.193777	16902.679167	1724.972656	-93.882935
19437.193777	16902.679167	1723.957031	-47.568489
19437.193777	16902.679167	1722.941406	132.711395
19437.193777	16902.679167	1721.924805	9.404244
19437.193777	16902.679167	1720.909180	-57.520481
19437.193777	16902.679167	1719.892578	21.238039
19437.193777	16902.679167	1718.875977	-85.839050
19437.193777	16902.679167	1717.858398	-68.423660
19437.193777	16902.679167	1716.841797	200.308044
19437.193777	16902.679167	1715.824219	212.755798
19437.193777	16902.679167	1714.806641	276.768402
19437.193777	16902.679167	1713.789063	436.938293
19437.193777	16902.679167	1712.770508	263.534546
19437.193777	16902.679167	1711.752930	-125.871834
19437.193777	16902.679167	1710.734375	52.750866
19437.193777	16902.679167	1709.715820	-1.107356
19437.193777	16902.679167	1708.697266	123.261238
19437.193777	16902.679167	1707.678711	141.927689
19437.193777	16902.679167	1706.659180	122.959526
19437.193777	16902.679167	1705.640625	42.940651
19437.193777	16902.679167	1704.621094	-196.564987
19437.193777	16902.679167	1703.600586	117.077911
19437.193777	16902.679167	1702.581055	-96.764893
19437.193777	16902.679167	1701.561523	-27.115803
19437.193777	16902.679167	1700.541016	129.080566
19437.193777	16902.679167	1699.520508	268.729401
19437.193777	16902.679167	1698.500000	307.540527
19437.193777	16902.679167	1697.478516	290.047699
19437.193777	16902.679167	1696.458008	-48.202530
19437.193777	16902.679167	1695.436523	37.176640
19437.193777	16902.679167	1694.415039	194.967819
19437.193777	16902.679167	1693.393555	151.421982
19437.193777	16902.679167	1692.372070	-130.768448
19437.193777	16902.679167	1691.349609	159.992355
19437.193777	16902.679167	1690.327148	15.676851
19437.193777	16902.679167	1689.304688	41.979458
19437.193777	16902.679167	1688.282227	14.432485
19437.193777	16902.679167	1687.259766	339.656158
19437.193777	16902.679167	1686.236328	615.605408
19437.193777	16902.679167	1685.213867	183.627487
19437.193777	16902.679167	1684.190430	548.088196
19437.193777	16902.679167	1683.166016	71.754028
19437.193777	16902.679167	1682.142578	424.265778
19437.193777	16902.679167	1681.119141	417.132935
19437.193777	16902.679167	1680.094727	554.599182
19437.193777	16902.679167	1679.070313	495.954407
19437.193777	16902.679167	1678.045898	551.566895
19437.193777	16902.679167	1677.020508	707.359985
19437.193777	16902.679167	1675.996094	538.916626
19437.193777	16902.679167	1674.970703	288.867096
19437.193777	16902.679167	1673.945313	551.634460
19437.193777	16902.679167	1672.919922	429.716125
19437.193777	16902.679167	1671.893555	601.347534
19437.193777	16902.679167	1670.868164	463.034180
19437.193777	16902.679167	1669.841797	708.995789
19437.193777	16902.679167	1668.815430	381.964294
19437.193777	16902.679167	1667.789063	625.401978
19437.193777	16902.679167	1666.761719	244.844940
19437.193777	16902.679167	1665.735352	418.279724
19437.193777	16902.679167	1664.708008	438.011444
19437.193777	16902.679167	1663.680664	371.608398
19437.193777	16902.679167	1662.653320	400.536774
19437.193777	16902.679167	1661.625000	424.746521
19437.193777	16902.679167	1660.597656	514.002136
19437.193777	16902.679167	1659.569336	596.194214
19437.193777	16902.679167	1658.541016	880.504578
19437.193777	16902.679167	1657.512695	602.329285
19437.193777	16902.679167	1656.483398	1076.934448
19437.193777	16902.679167	1655.455078	849.842773
19437.193777	16902.679167	1654.425781	362.686768
19437.193777	16902.679167	1653.396484	711.554810
19437.193777	16902.679167	1652.366211	897.736328
19437.193777	16902.679167	1651.336914	638.195862
19437.193777	16902.679167	1650.306641	756.952271
19437.193777	16902.679167	1649.276367	866.351990
19437.193777	16902.679167	1648.246094	829.536987
19437.193777	16902.679167	1647.215820	1024.622192
19437.193777	16902.679167	1646.185547	1133.808350
19437.193777	16902.679167	1645.154297	737.529419
19437.193777	16902.679167	1644.123047	978.780273
19437.193777	16902.679167	1643.091797	1222.234253
19437.193777	16902.679167	1642.060547	1189.849976
19437.193777	16902.679167	1641.028320	1340.452148
19437.193777	16902.679167	1639.997070	967.556335
19437.193777	16902.679167	1638.964844	1025.478027
19437.193777	16902.679167	1637.931641	1067.144775
19437.193777	16902.679167	1636.899414	1571.724487
19437.193777	16902.679167	1635.867188	1078.659058
19437.193777	16902.679167	1634.833984	1034.636230
19437.193777	16902.679167	1633.800781	1094.717529
19437.193777	16902.679167	1632.767578	1307.420044
19437.193777	16902.679167	1631.734375	1439.097168
19437.193777	16902.679167	1630.700195	1519.838867
19437.193777	16902.679167	1629.666016	1212.206787
19437.193777	16902.679167	1628.631836	1447.800049
19437.193777	16902.679167	1627.597656	1003.968018
19437.193777	16902.679167	1626.563477	1394.290527
19437.193777	16902.679167	1625.528320	1493.423950
19437.193777	16902.679167	1624.493164	1301.551025
19437.193777	16902.679167	1623.458008	1352.185181
19437.193777	16902.679167	1622.422852	1370.491943
19437.193777	16902.679167	1621.387695	1301.094238
19437.193777	16902.679167	1620.351563	1102.503906
19437.193777	16902.679167	1619.315430	1423.091187
19437.193777	16902.679167	1618.279297	1360.670288
19437.193777	16902.679167	1617.243164	1572.719238
19437.193777	16902.679167	1616.207031	1611.775024
19437.193777	16902.679167	1615.169922	1420.298828
19437.193777	16902.679167	1614.132813	1745.192139
19437.193777	16902.679167	1613.095703	1374.065796
19437.193777	16902.679167	1612.058594	1696.581665
19437.193777	16902.679167	1611.020508	1638.916138
19437.193777	16902.679167	1609.983398	1509.916504
19437.193777	16902.679167	1608.945313	1521.438110
19437.193777	16902.679167	1607.907227	1381.049927
19437.193777	16902.679167	1606.868164	1505.428345
19437.193777	16902.679167	1605.830078	1411.182373
19437.193777	16902.679167	1604.791016	1632.206299
19437.193777	16902.679167	1603.751953	1577.143433
19437.193777	16902.679167	1602.712891	1690.026611
19437.193777	16902.679167	1601.673828	1313.126831
19437.193777	16902.679167	1600.633789	1545.640381
19437.193777	16902.679167	1599.594727	1378.164185
19437.193777	16902.679167	1598.554688	1796.803711
19437.193777	16902.679167	1597.513672	1555.896973
19437.193777	16902.679167	1596.473633	1501.208130
19437.193777	16902.679167	1595.433594	1529.277344
19437.193777	16902.679167	1594.392578	1502.262085
19437.193777	16902.679167	1593.351563	1535.004272
19437.193777	16902.679167	1592.310547	1579.263184
19437.193777	16902.679167	1591.268555	1423.891846
19437.193777	16902.679167	1590.227539	1993.708618
19437.193777	16902.679167	1589.185547	1960.019531
19437.193777	16902.679167	1588.143555	1880.529419
19437.193777	16902.679167	1587.100586	1491.548340
19437.193777	16902.679167	1586.058594	1618.652100
19437.193777	16902.679167	1585.015625	1587.596436
19437.193777	16902.679167	1583.972656	1448.902100
19437.193777	16902.679167	1582.929688	1933.582520
19437.193777	16902.679167	1581.886719	2571.635254
19437.193777	16902.679167	1580.843750	2291.034424
19437.193777	16902.679167	1579.799805	1909.844604
19437.193777	16902.679167	1578.755859	2144.773926
19437.193777	16902.679167	1577.711914	2079.812256
19437.193777	16902.679167	1576.666992	1987.481201
19437.193777	16902.679167	1575.623047	1993.667480
19437.193777	16902.679167	1574.578125	2265.307861
19437.193777	16902.679167	1573.533203	2342.500732
19437.193777	16902.679167	1572.488281	1882.329590
19437.193777	16902.679167	1571.443359	1737.951904
19437.193777	16902.679167	1570.397461	2233.784668
19437.193777	16902.679167	1569.351563	1998.140503
19437.193777	16902.679167	1568.305664	1545.595093
19437.193777	16902.679167	1567.259766	1755.864746
19437.193777	16902.679167	1566.213867	1566.407837
19437.193777	16902.679167	1565.166992	1918.360352
19437.193777	16902.679167	1564.120117	1957.460449
19437.193777	16902.679167	1563.073242	1768.357666
19437.193777	16902.679167	1562.026367	1773.432495
19437.193777	16902.679167	1560.978516	1703.293701
19437.193777	16902.679167	1559.930664	2370.206543
19437.193777	16902.679167	1558.883789	1912.408081
19437.193777	16902.679167	1557.834961	1774.168335
19437.193777	16902.679167	1556.787109	1645.212280
19437.193777	16902.679167	1555.739258	1265.648804
19437.193777	16902.679167	1554.690430	1200.872559
19437.193777	16902.679167	1553.641602	1532.741821
19437.193777	16902.679167	1552.592773	1563.851318
19437.193777	16902.679167	1551.542969	1403.709595
19437.193777	16902.679167	1550.494141	1280.186523
19437.193777	16902.679167	1549.444336	920.016418
19437.193777	16902.679167	1548.394531	1249.900391
19437.193777	16902.679167	1547.344727	1147.312256
19437.193777	16902.679167	1546.293945	849.170959
19437.193777	16902.679167	1545.244141	1033.615112
19437.193777	16902.679167	1544.193359	1102.090576
19437.193777	16902.679167	1543.142578	1016.009033
19437.193777	16902.679167	1542.090820	1102.895264
19437.193777	16902.679167	1541.040039	971.629028
19437.193777	16902.679167	1539.988281	929.180603
19437.193777	16902.679167	1538.936523	743.707214
19437.193777	16902.679167	1537.884766	731.112244
19437.193777	16902.679167	1536.833008	777.713196
19437.193777	16902.679167	1535.780273	824.426147
19437.193777	16902.679167	1534.727539	1111.950562
19437.193777	16902.679167	1533.674805	718.404724
19437.193777	16902.679167	1532.622070	529.438110
19437.193777	16902.679167	1531.569336	501.805511
19437.193777	16902.679167	1530.515625	712.556519
19437.193777	16902.679167	1529.461914	750.960144
19437.193777	16902.679167	1528.408203	211.130783
19437.193777	16902.679167	1527.354492	737.424744
19437.193777	16902.679167	1526.299805	347.723999
19437.193777	16902.679167	1525.246094	549.927673
19437.193777	16902.679167	1524.191406	536.900513
19437.193777	16902.679167	1523.136719	381.273956
19437.193777	16902.679167	1522.081055	445.590668
19437.193777	16902.679167	1521.026367	688.959595
19437.193777	16902.679167	1519.970703	454.574524
19437.193777	16902.679167	1518.915039	383.437500
19437.193777	16902.679167	1517.859375	473.190002
19437.193777	16902.679167	1516.802734	465.746338
19437.193777	16902.679167	1515.747070	705.081116
19437.193777	16902.679167	1514.690430	252.233261
19437.193777	16902.679167	1513.633789	301.832977
19437.193777	16902.679167	1512.577148	353.826263
19437.193777	16902.679167	1511.519531	815.171082
19437.193777	16902.679167	1510.461914	600.618164
19437.193777	16902.679167	1509.405273	551.285034
19437.193777	16902.679167	1508.346680	174.494034
19437.193777	16902.679167	1507.289063	87.174065
19437.193777	16902.679167	1506.231445	440.478607
19437.193777	16902.679167	1505.172852	23.760889
19437.193777	16902.679167	1504.114258	232.762939
19437.193777	16902.679167	1503.055664	211.594742
19437.193777	16902.679167	1501.996094	140.945847
19437.193777	16902.679167	1500.937500	108.845230
19437.193777	16902.679167	1499.877930	88.202820
19437.193777	16902.679167	1498.818359	324.853577
19437.193777	16902.679167	1497.757813	-119.449860
19437.193777	16902.679167	1496.698242	97.187355
19437.193777	16902.679167	1495.637695	478.457581
19437.193777	16902.679167	1494.577148	-231.054916
19437.193777	16902.679167	1493.516602	-90.642632
19437.193777	16902.679167	1492.456055	72.413597
19437.193777	16902.679167	1491.394531	-3.179668
19437.193777	16902.679167	1490.333008	-98.842712
19437.193777	16902.679167	1489.271484	44.354530
19437.193777	16902.679167	1488.209961	-109.470390
19437.193777	16902.679167	1487.148438	90.276611
19437.193777	16902.679167	1486.085938	-164.415939
19437.193777	16902.679167	1485.023438	-2.641078
19437.193777	16902.679167	1483.960938	-254.621155
19437.193777	16902.679167	1482.898438	-155.516068
19437.193777	16902.679167	1481.834961	24.659382
19437.193777	16902.679167	1480.772461	-282.845490
19437.193777	16902.679167	1479.708984	-255.185455
19437.193777	16902.679167	1478.644531	-249.812988
19437.193777	16902.679167	1477.581055	-161.214081
19437.193777	16902.679167	1476.517578	145.366180
19437.193777	16902.679167	1475.453125	-136.164307
19437.193777	16902.679167	1474.388672	80.884842
19437.193777	16902.679167	1473.323242	86.867126
19437.193777	16902.679167	1472.258789	-0.900462
19437.193777	16902.679167	1471.193359	-133.429703
19437.193777	16902.679167	1470.127930	21.223015
19437.193777	16902.679167	1469.062500	180.463989
19437.193777	16902.679167	1467.997070	483.367493
19437.193777	16902.679167	1466.930664	38.104294
19437.193777	16902.679167	1465.865234	333.797943
19437.193777	16902.679167	1464.798828	251.938507
19437.193777	16902.679167	1463.731445	631.057678
19437.193777	16902.679167	1462.665039	350.199921
19437.193777	16902.679167	1461.597656	655.774109
19437.193777	16902.679167	1460.530273	610.151978
19437.193777	16902.679167	1459.462891	613.950684
19437.193777	16902.679167	1458.395508	663.232544
19437.193777	16902.679167	1457.327148	380.743805
19437.193777	16902.679167	1456.259766	600.901978
19437.193777	16902.679167	1455.191406	848.703735
19437.193777	16902.679167	1454.123047	752.382935
19437.193777	16902.679167	1453.053711	1328.205933
19437.193777	16902.679167	1451.985352	744.241333
19437.193777	16902.679167	1450.916016	705.439941
19437.193777	16902.679167	1449.846680	472.382721
19437.193777	16902.679167	1448.776367	687.281921
19437.193777	16902.679167	1447.707031	595.466431
19437.193777	16902.679167	1446.636719	675.376587
19437.193777	16902.679167	1445.566406	843.901306
19437.193777	16902.679167	1444.496094	717.016846
19437.193777	16902.679167	1443.425781	1028.543091
19437.193777	16902.679167	1442.354492	993.255676
19437.193777	16902.679167	1441.283203	978.742004
19437.193777	16902.679167	1440.211914	814.630493
19437.193777	16902.679167	1439.140625	1056.936523
19437.193777	16902.679167	1438.069336	956.264954
19437.193777	16902.679167	1436.997070	1063.579712
19437.193777	16902.679167	1435.924805	902.947815
19437.193777	16902.679167	1434.852539	899.263184
19437.193777	16902.679167	1433.780273	597.400452
19437.193777	16902.679167	1432.707031	492.710632
19437.193777	16902.679167	1431.633789	636.689697
19437.193777	16902.679167	1430.560547	764.567627
19437.193777	16902.679167	1429.487305	645.281372
19437.193777	16902.679167	1428.413086	526.080994
19437.193777	16902.679167	1427.339844	463.425812
19437.193777	16902.679167	1426.265625	483.551056
19437.193777	16902.679167	1425.191406	157.248489
19437.193777	16902.679167	1424.116211	316.253113
19437.193777	16902.679167	1423.041992	315.870605
19437.193777	16902.679167	1421.966797	211.524841
19437.193777	16902.679167	1420.891602	504.545990
19437.193777	16902.679167	1419.816406	465.042786
19437.193777	16902.679167	1418.740234	397.621979
19437.193777	16902.679167	1417.665039	353.009613
19437.193777	16902.679167	1416.588867	341.455139
19437.193777	16902.679167	1415.512695	274.823120
19437.193777	16902.679167	1414.435547	417.486450
19437.193777	16902.679167	1413.359375	285.759766
19437.193777	16902.679167	1412.282227	584.085022
19437.193777	16902.679167	1411.205078	191.404343
19437.193777	16902.679167	1410.127930	365.818451
19437.193777	16902.679167	1409.049805	552.415710
19437.193777	16902.679167	1407.972656	613.333618
19437.193777	16902.679167	1406.894531	547.663818
19437.193777	16902.679167	1405.816406	447.503906
19437.193777	16902.679167	1404.737305	372.399780
19437.193777	16902.679167	1403.659180	286.972046
19437.193777	16902.679167	1402.580078	162.067413
19437.193777	16902.679167	1401.500977	327.864838
19437.193777	16902.679167	1400.421875	527.531372
19437.193777	16902.679167	1399.341797	373.344055
19437.193777	16902.679167	1398.262695	489.472870
19437.193777	16902.679167	1397.182617	69.054878
19437.193777	16902.679167	1396.102539	92.654984
19437.193777	16902.679167	1395.021484	13.097594
19437.193777	16902.679167	1393.941406	83.821053
19437.193777	16902.679167	1392.860352	134.311142
19437.193777	16902.679167	1391.779297	40.358742
19437.193777	16902.679167	1390.698242	376.720673
19437.193777	16902.679167	1389.616211	390.104767
19437.193777	16902.679167	1388.535156	-28.856714
19437.193777	16902.679167	1387.453125	377.049835
19437.193777	16902.679167	1386.371094	106.950554
19437.193777	16902.679167	1385.288086	149.241180
19437.193777	16902.679167	1384.206055	327.009979
19437.193777	16902.679167	1383.123047	-71.501106
19437.193777	16902.679167	1382.040039	261.837341
19437.193777	16902.679167	1380.957031	269.496948
19437.193777	16902.679167	1379.873047	663.135742
19437.193777	16902.679167	1378.789063	470.671844
19437.193777	16902.679167	1377.705078	611.584656
19437.193777	16902.679167	1376.621094	381.810486
19437.193777	16902.679167	1375.537109	652.817078
19437.193777	16902.679167	1374.452148	173.520706
19437.193777	16902.679167	1373.367188	619.233459
19437.193777	16902.679167	1372.282227	529.614380
19437.193777	16902.679167	1371.197266	360.718903
19437.193777	16902.679167	1370.112305	433.905243
19437.193777	16902.679167	1369.026367	612.074646
19437.193777	16902.679167	1367.940430	626.866760
19437.193777	16902.679167	1366.854492	354.272461
19437.193777	16902.679167	1365.767578	754.484436
19437.193777	16902.679167	1364.681641	58.461609
19437.193777	16902.679167	1363.594727	325.834625
19437.193777	16902.679167	1362.507813	84.056862
19437.193777	16902.679167	1361.419922	503.969788
19437.193777	16902.679167	1360.333008	269.851776
19437.193777	16902.679167	1359.245117	330.105774
19437.193777	16902.679167	1358.157227	723.426880
19437.193777	16902.679167	1357.069336	306.208435
19437.193777	16902.679167	1355.981445	154.308533
19437.193777	16902.679167	1354.892578	354.594513
19437.193777	16902.679167	1353.803711	619.911499
19437.193777	16902.679167	1352.714844	424.047333
19437.193777	16902.679167	1351.625000	516.478943
19437.193777	16902.679167	1350.536133	576.877441
19437.193777	16902.679167	1349.446289	518.719788
19437.193777	16902.679167	1348.356445	495.110291
19437.193777	16902.679167	1347.266602	629.729309
19437.193777	16902.679167	1346.175781	907.077637
19437.193777	16902.679167	1345.085938	785.585327
19437.193777	16902.679167	1343.995117	627.901978
19437.193777	16902.679167	1342.903320	1033.684570
19437.193777	16902.679167	1341.812500	691.329529
19437.193777	16902.679167	1340.720703	589.135254
19437.193777	16902.679167	1339.629883	742.503601
19437.193777	16902.679167	1338.538086	603.516479
19437.193777	16902.679167	1337.445313	1105.885742
19437.193777	16902.679167	1336.353516	803.036133
19437.193777	16902.679167	1335.260742	938.866455
19437.193777	16902.679167	1334.167969	1047.700684
19437.193777	16902.679167	1333.075195	1108.254395
19437.193777	16902.679167	1331.981445	732.050598
19437.193777	16902.679167	1330.888672	1001.865112
19437.193777	16902.679167	1329.794922	815.136414
19437.193777	16902.679167	1328.701172	1012.369751
19437.193777	16902.679167	1327.606445	917.526245
19437.193777	16902.679167	1326.512695	827.480408
19437.193777	16902.679167	1325.417969	608.036682
19437.193777	16902.679167	1324.323242	993.604309
19437.193777	16902.679167	1323.227539	1033.625000
19437.193777	16902.679167	1322.132813	939.859680
19437.193777	16902.679167	1321.037109	1092.917847
19437.193777	16902.679167	1319.941406	710.878357
19437.193777	16902.679167	1318.845703	1022.667542
19437.193777	16902.679167	1317.750000	849.854431
19437.193777	16902.679167	1316.653320	836.402527
19437.193777	16902.679167	1315.556641	589.997925
19437.193777	16902.679167	1314.459961	461.805206
19437.193777	16902.679167	1313.363281	386.975403
19437.193777	16902.679167	1312.265625	265.212402
19437.193777	16902.679167	1311.167969	668.702209
19437.193777	16902.679167	1310.070313	399.632751
19437.193777	16902.679167	1308.972656	426.662903
19437.193777	16902.679167	1307.874023	262.789703
19437.193777	16902.679167	1306.776367	419.817566
19437.193777	16902.679167	1305.677734	219.630783
19437.193777	16902.679167	1304.579102	278.383759
19437.193777	16902.679167	1303.479492	335.398041
19437.193777	16902.679167	1302.380859	294.135773
19437.193777	16902.679167	1301.281250	548.626221
19437.193777	16902.679167	1300.181641	75.697380
19437.193777	16902.679167	1299.081055	205.922928
19437.193777	16902.679167	1297.981445	41.940521
19437.193777	16902.679167	1296.880859	47.127346
19437.193777	16902.679167	1295.780273	-131.635971
19437.193777	16902.679167	1294.679688	56.532024
19437.193777	16902.679167	1293.578125	160.628906
19437.193777	16902.679167	1292.476563	-353.865143
19437.193777	16902.679167	1291.375000	66.280914
19437.193777	16902.679167	1290.273438	111.438751
19437.193777	16902.679167	1289.171875	151.878479
19437.193777	16902.679167	1288.069336	-99.368958
19437.193777	16902.679167	1286.966797	-61.891876
19437.193777	16902.679167	1285.864258	-172.306870
19437.193777	16902.679167	1284.761719	-214.293030
19437.193777	16902.679167	1283.658203	3.643544
19437.193777	16902.679167	1282.554688	149.445740
19437.193777	16902.679167	1281.451172	86.555565
19437.193777	16902.679167	1280.347656	86.862297
19437.193777	16902.679167	1279.244141	-74.195946
19437.193777	16902.679167	1278.139648	153.855301
19437.193777	16902.679167	1277.035156	286.677612
19437.193777	16902.679167	1275.930664	22.373152
19437.193777	16902.679167	1274.825195	95.488716
19437.193777	16902.679167	1273.720703	68.586967
19437.193777	16902.679167	1272.615234	68.073318
19437.193777	16902.679167	1271.508789	405.807800
19437.193777	16902.679167	1270.403320	456.648010
19437.193777	16902.679167	1269.297852	503.732544
19437.193777	16902.679167	1268.191406	671.532043
19437.193777	16902.679167	1267.084961	765.932678
19437.193777	16902.679167	1265.977539	427.114014
19437.193777	16902.679167	1264.871094	533.013794
19437.193777	16902.679167	1263.763672	534.543396
19437.193777	16902.679167	1262.656250	515.063538
19437.193777	16902.679167	1261.548828	455.492920
19437.193777	16902.679167	1260.440430	259.138153
19437.193777	16902.679167	1259.333008	398.704529
19437.193777	16902.679167	1258.224609	207.837753
19437.193777	16902.679167	1257.115234	-41.959518
19437.193777	16902.679167	1256.006836	-166.280701
19437.193777	16902.679167	1254.897461	144.244446
19437.193777	16902.679167	1253.788086	293.797150
19437.193777	16902.679167	1252.678711	-43.393318
19437.193777	16902.679167	1251.569336	-107.589882
19437.193777	16902.679167	1250.458984	-106.976227
19437.193777	16902.679167	1249.349609	129.247025
19437.193777	16902.679167	1248.239258	-26.460180
19437.193777	16902.679167	1247.127930	101.289619
19437.193777	16902.679167	1246.017578	289.053741
19437.193777	16902.679167	1244.906250	257.772552
19437.193777	16902.679167	1243.794922	125.225090
19437.193777	16902.679167	1242.683594	202.289169
19437.193777	16902.679167	1241.571289	298.204773
19437.193777	16902.679167	1240.459961	385.162354
19437.193777	16902.679167	1239.347656	345.861786
19437.193777	16902.679167	1238.234375	483.135864
19437.193777	16902.679167	1237.122070	429.768951
19437.193777	16902.679167	1236.008789	313.540894
19437.193777	16902.679167	1234.896484	284.792816
19437.193777	16902.679167	1233.782227	389.850067
19437.193777	16902.679167	1232.668945	323.043335
19437.193777	16902.679167	1231.555664	282.438812
19437.193777	16902.679167	1230.441406	223.049652
19437.193777	16902.679167	1229.327148	162.833191
19437.193777	16902.679167	1228.211914	200.568253
19437.193777	16902.679167	1227.097656	113.031998
19437.193777	16902.679167	1225.982422	42.304562
19437.193777	16902.679167	1224.867188	16.296524
19437.193777	16902.679167	1223.751953	-42.024334
19437.193777	16902.679167	1222.635742	74.784714
19437.193777	16902.679167	1221.520508	141.860687
19437.193777	16902.679167	1220.404297	-362.458862
19437.193777	16902.679167	1219.287109	-209.153488
19437.193777	16902.679167	1218.170898	-186.638641
19437.193777	16902.679167	1217.053711	-44.543785
19437.193777	16902.679167	1215.936523	-42.051659
19437.193777	16902.679167	1214.819336	-86.663155
19437.193777	16902.679167	1213.702148	101.208733
19437.193777	16902.679167	1212.583984	-65.833412
19437.193777	16902.679167	1211.465820	-3.517054
19437.193777	16902.679167	1210.347656	184.176498
19437.193777	16902.679167	1209.229492	-17.331717
19437.193777	16902.679167	1208.110352	-95.732254
19437.193777	16902.679167	1206.992188	-107.585983
19437.193777	16902.679167	1205.873047	-89.320091
19437.193777	16902.679167	1204.752930	54.394554
19437.193777	16902.679167	1203.633789	-2.512337
19437.193777	16902.679167	1202.513672	99.756378
19437.193777	16902.679167	1201.393555	-68.858231
19437.193777	16902.679167	1200.273438	77.754417
19437.193777	16902.679167	1199.152344	-128.756729
19437.193777	16902.679167	1198.032227	-142.539490
19437.193777	16902.679167	1196.911133	-41.701492
19437.193777	16902.679167	1195.790039	175.788498
19437.193777	16902.679167	1194.667969	-54.639511
19437.193777	16902.679167	1193.545898	100.897446
19437.193777	16902.679167	1192.424805	68.311852
19437.193777	16902.679167	1191.301758	162.051056
19437.193777	16902.679167	1190.179688	51.195717
19437.193777	16902.679167	1189.056641	169.371796
19437.193777	16902.679167	1187.933594	-148.299103
19437.193777	16902.679167	1186.810547	-91.532440
19437.193777	16902.679167	1185.687500	-129.045609
19437.193777	16902.679167	1184.563477	-49.055542
19437.193777	16902.679167	1183.440430	-118.177063
19437.193777	16902.679167	1182.316406	83.615509
19437.193777	16902.679167	1181.191406	147.569473
19437.193777	16902.679167	1180.067383	48.597752
19437.193777	16902.679167	1178.942383	144.848740
19437.193777	16902.679167	1177.817383	-70.633446
19437.193777	16902.679167	1176.692383	108.767906
19437.193777	16902.679167	1175.566406	183.276825
19437.193777	16902.679167	1174.440430	-152.335724
19437.193777	16902.679167	1173.314453	-27.935465
19437.193777	16902.679167	1172.188477	77.027946
19437.193777	16902.679167	1171.062500	-129.170547
19437.193777	16902.679167	1169.935547	-52.061085
19437.193777	16902.679167	1168.808594	-165.624268
19437.193777	16902.679167	1167.681641	-3.317546
19437.193777	16902.679167	1166.553711	3.221352
19437.193777	16902.679167	1165.426758	-152.920837
19437.193777	16902.679167	1164.298828	-192.587585
19437.193777	16902.679167	1163.170898	-26.182943
19437.193777	16902.679167	1162.041992	96.526215
19437.193777	16902.679167	1160.914063	-97.560234
19437.193777	16902.679167	1159.785156	29.703909
19437.193777	16902.679167	1158.656250	-214.272537
19437.193777	16902.679167	1157.526367	-104.049660
19437.193777	16902.679167	1156.397461	47.339428
19437.193777	16902.679167	1155.267578	-173.561142
19437.193777	16902.679167	1154.137695	-180.930115
19437.193777	16902.679167	1153.006836	-55.859093
19437.193777	16902.679167	1151.876953	-90.347313
19437.193777	16902.679167	1150.746094	-135.583633
19437.193777	16902.679167	1149.615234	-109.144882
19437.193777	16902.679167	1148.484375	-284.054688
19437.193777	16902.679167	1147.352539	-339.832703
19437.193777	16902.679167	1146.220703	-263.047699
19437.193777	16902.679167	1145.088867	-229.643173
19437.193777	16902.679167	1143.957031	-150.627090
19437.193777	16902.679167	1142.825195	-279.021088
19437.193777	16902.679167	1141.692383	53.098259
19437.193777	16902.679167	1140.559570	-313.718262
19437.193777	16902.679167	1139.426758	-133.859390
19437.193777	16902.679167	1138.292969	-60.657806
19437.193777	16902.679167	1137.159180	-31.160076
19437.193777	16902.679167	1136.025391	94.389587
19437.193777	16902.679167	1134.891602	78.010674
19437.193777	16902.679167	1133.757813	128.996094
19437.193777	16902.679167	1132.623047	32.091000
19437.193777	16902.679167	1131.488281	28.399651
19437.193777	16902.679167	1130.353516	84.927895
19437.193777	16902.679167	1129.217773	38.977318
19437.193777	16902.679167	1128.083008	97.710312
19437.193777	16902.679167	1126.947266	253.376480
19437.193777	16902.679167	1125.811523	64.951614
19437.193777	16902.679167	1124.674805	107.957748
19437.193777	16902.679167	1123.539063	-59.988945
19437.193777	16902.679167	1122.402344	68.581268
19437.193777	16902.679167	1121.265625	75.361336
19437.193777	16902.679167	1120.127930	-160.916046
19437.193777	16902.679167	1118.990234	60.739124
19437.193777	16902.679167	1117.853516	-172.759033
19437.193777	16902.679167	1116.714844	-73.935646
19437.193777	16902.679167	1115.577148	144.592087
19437.193777	16902.679167	1114.439453	111.498199
19437.193777	16902.679167	1113.300781	73.973976
19437.193777	16902.679167	1112.162109	-37.296703
19437.193777	16902.679167	1111.022461	25.441780
19437.193777	16902.679167	1109.883789	76.913010
19437.193777	16902.679167	1108.744141	23.092855
19437.193777	16902.679167	1107.604492	110.483879
19437.193777	16902.679167	1106.463867	82.136375
19437.193777	16902.679167	1105.324219	175.624176
19437.193777	16902.679167	1104.183594	331.086639
19437.193777	16902.679167	1103.042969	159.952469
19437.193777	16902.679167	1101.902344	225.216049
19437.193777	16902.679167	1100.760742	170.714462
19437.193777	16902.679167	1099.619141	133.362961
19437.193777	16902.679167	1098.477539	-39.869392
19437.193777	16902.679167	1097.335938	285.865326
19437.193777	16902.679167	1096.193359	447.513336
19437.193777	16902.679167	1095.051758	285.063904
19437.193777	16902.679167	1093.909180	413.635651
19437.193777	16902.679167	1092.765625	297.929871
19437.193777	16902.679167	1091.623047	489.660950
19437.193777	16902.679167	1090.479492	320.595490
19437.193777	16902.679167	1089.335938	175.819412
19437.193777	16902.679167	1088.192383	85.114365
19437.193777	16902.679167	1087.047852	203.222885
19437.193777	16902.679167	1085.903320	283.502655
19437.193777	16902.679167	1084.758789	460.875885
19437.193777	16902.679167	1083.614258	-1.567137
19437.193777	16902.679167	1082.469727	-21.243994
19437.193777	16902.679167	1081.324219	133.788742
19437.193777	16902.679167	1080.178711	226.443802
19437.193777	16902.679167	1079.033203	242.008713
19437.193777	16902.679167	1077.886719	152.977524
19437.193777	16902.679167	1076.740234	457.284668
19437.193777	16902.679167	1075.593750	206.920807
19437.193777	16902.679167	1074.447266	570.140320
19437.193777	16902.679167	1073.300781	414.236664
19437.193777	16902.679167	1072.153320	270.988708
19437.193777	16902.679167	1071.005859	493.077332
19437.193777	16902.679167	1069.858398	346.110443
19437.193777	16902.679167	1068.709961	479.343353
19437.193777	16902.679167	1067.561523	357.484528
19437.193777	16902.679167	1066.413086	151.688721
19437.193777	16902.679167	1065.264648	386.036560
19437.193777	16902.679167	1064.116211	239.350800
19437.193777	16902.679167	1062.966797	477.075867
19437.193777	16902.679167	1061.817383	226.317123
19437.193777	16902.679167	1060.667969	411.676605
19437.193777	16902.679167	1059.517578	236.547821
19437.193777	16902.679167	1058.368164	212.340652
19437.193777	16902.679167	1057.217773	219.439148
19437.193777	16902.679167	1056.067383	383.206757
19437.193777	16902.679167	1054.916016	150.845352
19437.193777	16902.679167	1053.764648	222.448990
19437.193777	16902.679167	1052.613281	-71.065765
19437.193777	16902.679167	1051.461914	133.614166
19437.193777	16902.679167	1050.310547	23.626080
19437.193777	16902.679167	1049.158203	122.542648
19437.193777	16902.679167	1048.005859	21.643795
19437.193777	16902.679167	1046.853516	269.566833
19437.193777	16902.679167	1045.700195	-49.607922
19437.193777	16902.679167	1044.547852	245.271149
19437.193777	16902.679167	1043.394531	357.166779
19437.193777	16902.679167	1042.240234	70.239578
19437.193777	16902.679167	1041.086914	124.698120
19437.193777	16902.679167	1039.932617	331.559540
19437.193777	16902.679167	1038.778320	39.983128
19437.193777	16902.679167	1037.624023	246.883575
19437.193777	16902.679167	1036.469727	191.839615
19437.193777	16902.679167	1035.314453	550.001404
19437.193777	16902.679167	1034.159180	585.485596
19437.193777	16902.679167	1033.003906	562.146240
19437.193777	16902.679167	1031.847656	725.566956
19437.193777	16902.679167	1030.692383	510.724945
19437.193777	16902.679167	1029.536133	944.118835
19437.193777	16902.679167	1028.378906	896.237305
19437.193777	16902.679167	1027.222656	617.932861
19437.193777	16902.679167	1026.065430	551.949890
19437.193777	16902.679167	1024.908203	291.739349
19437.193777	16902.679167	1023.750977	220.491379
19437.193777	16902.679167	1022.593750	314.620636
19437.193777	16902.679167	1021.435547	388.917389
19437.193777	16902.679167	1020.277344	93.350334
19437.193777	16902.679167	1019.119141	434.351776
19437.193777	16902.679167	1017.959961	177.444244
19437.193777	16902.679167	1016.800781	239.190369
19437.193777	16902.679167	1015.641602	55.588818
19437.193777	16902.679167	1014.482422	193.649994
19437.193777	16902.679167	1013.323242	158.110840
19437.193777	16902.679167	1012.163086	78.442909
19437.193777	16902.679167	1011.002930	216.607483
19437.193777	16902.679167	1009.842773	432.198944
19437.193777	16902.679167	1008.681641	135.719925
19437.193777	16902.679167	1007.520508	205.657257
19437.193777	16902.679167	1006.359375	280.759583
19437.193777	16902.679167	1005.198242	258.957214
19437.193777	16902.679167	1004.037109	344.123810
19437.193777	16902.679167	1002.875000	406.861481
19437.193777	16902.679167	1001.712891	530.186462
19437.193777	16902.679167	1000.550781	30.894310
19437.193777	16902.679167	999.387695	35.157303
19437.193777	16902.679167	998.224609	243.429306
19437.193777	16902.679167	997.061523	334.623016
19437.193777	16902.679167	995.898438	369.940247
19437.193777	16902.679167	994.734375	38.560917
19437.193777	16902.679167	993.571289	12.941346
19437.193777	16902.679167	992.407227	8.624403
19437.193777	16902.679167	991.242188	234.065659
19437.193777	16902.679167	990.078125	278.690338
19437.193777	16902.679167	988.913086	119.613403
19437.193777	16902.679167	987.748047	313.464752
19437.193777	16902.679167	986.583008	229.465652
19437.193777	16902.679167	985.416992	-13.745231
19437.193777	16902.679167	984.250977	77.438667
19437.193777	16902.679167	983.084961	14.312838
19437.193777	16902.679167	981.918945	-9.538190
19437.193777	16902.679167	980.751953	180.977249
19437.193777	16902.679167	979.584961	-96.639671
19437.193777	16902.679167	978.417969	115.146759
19437.193777	16902.679167	977.250977	30.198412
19437.193777	16902.679167	976.083008	-306.051392
19437.193777	16902.679167	974.915039	12.666187
19437.193777	16902.679167	973.747070	-114.490105
19437.193777	16902.679167	972.579102	-64.220932
19437.193777	16902.679167	971.410156	-52.284500
19437.193777	16902.679167	970.242188	90.612488
19437.193777	16902.679167	969.072266	18.594721
19437.193777	16902.679167	967.903320	97.954514
19437.193777	16902.679167	966.733398	-5.700184
19437.193777	16902.679167	965.563477	91.882050
19437.193777	16902.679167	964.393555	197.131378
19437.193777	16902.679167	963.223633	163.020935
19437.193777	16902.679167	962.052734	-83.430397
19437.193777	16902.679167	960.881836	2.790617
19437.193777	16902.679167	959.710938	105.534019
19437.193777	16902.679167	958.540039	27.036573
19437.193777	16902.679167	957.368164	-41.087212
19437.193777	16902.679167	956.196289	-5.238133
19437.193777	16902.679167	955.024414	-27.064220
19437.193777	16902.679167	953.851563	18.775522
19437.193777	16902.679167	952.679688	8.627649
19437.193777	16902.679167	951.506836	222.361206
19437.193777	16902.679167	950.333984	289.716064
19437.193777	16902.679167	949.160156	-162.675873
19437.193777	16902.679167	947.986328	79.495621
19437.193777	16902.679167	946.812500	-203.524963
19437.193777	16902.679167	945.638672	-47.743149
19437.193777	16902.679167	944.464844	13.275021
19437.193777	16902.679167	943.290039	248.290222
19437.193777	16902.679167	942.115234	-3.266196
19437.193777	16902.679167	940.940430	-132.292358
19437.193777	16902.679167	939.764648	-65.584282
19437.193777	16902.679167	938.588867	51.881187
19437.193777	16902.679167	937.413086	59.295746
19437.193777	16902.679167	936.237305	-102.275864
19437.193777	16902.679167	935.060547	-102.846573
19437.193777	16902.679167	933.883789	-58.793583
19437.193777	16902.679167	932.707031	123.791573
19437.193777	16902.679167	931.530273	-27.700253
19437.193777	16902.679167	930.352539	-258.410980
19437.193777	16902.679167	929.175781	-126.815834
19437.193777	16902.679167	927.998047	67.865509
19437.193777	16902.679167	926.819336	207.523849
19437.193777	16902.679167	925.641602	200.586304
19437.193777	16902.679167	924.462891	-137.989105
19437.193777	16902.679167	923.284180	141.963379
19437.193777	16902.679167	922.104492	21.157171
19437.193777	16902.679167	920.924805	30.515886
19437.193777	16902.679167	919.746094	42.687794
19437.193777	16902.679167	919.551758	-67.931480
19437.193777	16902.679167	918.386719	-32.304054
19437.193777	16902.679167	917.220703	141.501068
19437.193777	16902.679167	916.054688	317.259094
19437.193777	16902.679167	914.887695	-234.320679
19437.193777	16902.679167	913.721680	45.003536
19437.193777	16902.679167	912.554688	283.599487
19437.193777	16902.679167	911.387695	-95.099396
19437.193777	16902.679167	910.220703	-349.835266
19437.193777	16902.679167	909.052734	10.438987
19437.193777	16902.679167	907.885742	11.414412
19437.193777	16902.679167	906.717773	-176.267944
19437.193777	16902.679167	905.548828	23.505180
19437.193777	16902.679167	904.380859	170.454132
19437.193777	16902.679167	903.211914	15.270664
19437.193777	16902.679167	902.042969	79.048325
19437.193777	16902.679167	900.874023	169.130844
19437.193777	16902.679167	899.704102	-172.378174
19437.193777	16902.679167	898.535156	-57.992706
19437.193777	16902.679167	897.365234	113.053055
19437.193777	16902.679167	896.194336	150.387909
19437.193777	16902.679167	895.024414	-105.857529
19437.193777	16902.679167	893.853516	174.369537
19437.193777	16902.679167	892.682617	156.996674
19437.193777	16902.679167	891.511719	-72.814140
19437.193777	16902.679167	890.340820	-90.148933
19437.193777	16902.679167	889.168945	-20.517601
19437.193777	16902.679167	887.997070	12.679304
19437.193777	16902.679167	886.825195	165.121323
19437.193777	16902.679167	885.653320	157.820007
19437.193777	16902.679167	884.480469	-108.135002
19437.193777	16902.679167	883.307617	149.269821
19437.193777	16902.679167	882.134766	53.073330
19437.193777	16902.679167	880.961914	102.306587
19437.193777	16902.679167	879.788086	50.563049
19437.193777	16902.679167	878.614258	61.405056
19437.193777	16902.679167	877.440430	286.164429
19437.193777	16902.679167	876.266602	-108.657150
19437.193777	16902.679167	875.091797	-3.001446
19437.193777	16902.679167	873.916992	25.951704
19437.193777	16902.679167	872.742188	-64.100700
19437.193777	16902.679167	871.567383	-71.467529
19437.193777	16902.679167	870.391602	362.616364
19437.193777	16902.679167	869.215820	222.131317
19437.193777	16902.679167	868.040039	89.746941
19437.193777	16902.679167	866.864258	158.853561
19437.193777	16902.679167	865.687500	82.909584
19437.193777	16902.679167	864.510742	-140.020660
19437.193777	16902.679167	863.333984	71.996101
19437.193777	16902.679167	862.157227	-52.243614
19437.193777	16902.679167	860.979492	-126.129166
19437.193777	16902.679167	859.802734	-59.168095
19437.193777	16902.679167	858.625000	-253.757935
19437.193777	16902.679167	857.446289	-251.174500
19437.193777	16902.679167	856.268555	-260.686981
19437.193777	16902.679167	855.089844	-111.384468
19437.193777	16902.679167	853.911133	-179.241577
19437.193777	16902.679167	852.731445	-24.018957
19437.193777	16902.679167	851.552734	60.789730
19437.193777	16902.679167	850.373047	81.269043
19437.193777	16902.679167	849.193359	35.444389
19437.193777	16902.679167	848.013672	25.758680
19437.193777	16902.679167	846.833008	-56.207069
19437.193777	16902.679167	845.652344	-102.034843
19437.193777	16902.679167	844.471680	325.712402
19437.193777	16902.679167	843.291016	171.436508
19437.193777	16902.679167	842.110352	-71.058311
19437.193777	16902.679167	840.928711	252.070526
19437.193777	16902.679167	839.747070	-86.626060
19437.193777	16902.679167	838.564453	-14.250875
19437.193777	16902.679167	837.382813	138.228241
19437.193777	16902.679167	836.200195	-134.180939
19437.193777	16902.679167	835.017578	26.226873
19437.193777	16902.679167	833.834961	264.656219
19437.193777	16902.679167	832.651367	-67.763451
19437.193777	16902.679167	831.467773	6.358774
19437.193777	16902.679167	830.284180	-85.721809
19437.193777	16902.679167	829.100586	-43.706928
19437.193777	16902.679167	827.916992	214.357941
19437.193777	16902.679167	826.732422	-5.827590
19437.193777	16902.679167	825.547852	-53.946743
19437.193777	16902.679167	824.363281	203.872955
19437.193777	16902.679167	823.177734	193.657181
19437.193777	16902.679167	821.992188	103.457176
19437.193777	16902.679167	820.806641	-156.606567
19437.193777	16902.679167	819.621094	-214.800278
19437.193777	16902.679167	818.434570	-27.287840
19437.193777	16902.679167	817.249023	68.229393
19437.193777	16902.679167	816.062500	-47.982086
19437.193777	16902.679167	814.875000	-52.378059
19437.193777	16902.679167	813.688477	-182.565933
19437.193777	16902.679167	812.500977	-81.246223
19437.193777	16902.679167	811.313477	-191.492462
19437.193777	16902.679167	810.125977	115.163506
19437.193777	16902.679167	808.937500	146.444183
19437.193777	16902.679167	807.749023	-121.417213
19437.193777	16902.679167	806.560547	202.859955
19437.193777	16902.679167	805.372070	156.243805
19437.193777	16902.679167	804.182617	145.480133
19437.193777	16902.679167	802.994141	-34.674530
19437.193777	16902.679167	801.803711	26.231201
19437.193777	16902.679167	800.614258	-161.872498
19437.193777	16902.679167	799.424805	227.451538
19437.193777	16902.679167	798.234375	-88.101883
19437.193777	16902.679167	797.043945	109.900017
19437.193777	16902.679167	795.852539	15.280878
19437.193777	16902.679167	794.662109	113.612221
19437.193777	16902.679167	793.470703	166.114166
19437.193777	16902.679167	792.279297	222.520447
19437.193777	16902.679167	791.087891	223.185913
19437.193777	16902.679167	789.895508	130.383224
19437.193777	16902.679167	788.703125	83.273949
19437.193777	16902.679167	787.510742	0.367256
19437.193777	16902.679167	786.318359	56.494579
19437.193777	16902.679167	785.125000	199.940109
19437.193777	16902.679167	783.931641	-85.632408
19437.193777	16902.679167	782.738281	-39.606384
19437.193777	16902.679167	781.544922	12.300794
19437.193777	16902.679167	780.350586	-21.195210
19437.193777	16902.679167	779.156250	94.067589
19437.193777	16902.679167	777.961914	-66.499268
19437.193777	16902.679167	776.767578	223.129044
19437.193777	16902.679167	775.572266	72.406273
19437.193777	16902.679167	774.376953	127.852058
19437.193777	16902.679167	773.181641	50.422878
19437.193777	16902.679167	771.986328	-46.850563
19437.193777	16902.679167	770.790039	71.805634
19437.193777	16902.679167	769.593750	-5.742979
19437.193777	16902.679167	768.397461	286.999176
19437.193777	16902.679167	767.201172	102.396805
19437.193777	16902.679167	766.003906	74.194344
19437.193777	16902.679167	764.806641	-53.015865
19437.193777	16902.679167	763.609375	209.560623
19437.193777	16902.679167	762.412109	193.026840
19437.193777	16902.679167	761.213867	263.466858
19437.193777	16902.679167	760.015625	211.207657
19437.193777	16902.679167	758.817383	232.053482
19437.193777	16902.679167	757.618164	-83.194931
19437.193777	16902.679167	756.419922	249.806839
19437.193777	16902.679167	755.220703	353.416534
19437.193777	16902.679167	754.021484	237.646988
19437.193777	16902.679167	752.821289	315.408173
19437.193777	16902.679167	751.621094	292.365387
19437.193777	16902.679167	750.420898	322.561279
19437.193777	16902.679167	749.220703	678.341125
19437.193777	16902.679167	748.020508	353.105011
19437.193777	16902.679167	746.819336	375.170837
19437.193777	16902.679167	745.618164	302.475739
19437.193777	16902.679167	744.416992	64.081963
19437.193777	16902.679167	743.214844	358.072845
19437.193777	16902.679167	742.012695	626.241272
19437.193777	16902.679167	740.810547	813.419067
19437.193777	16902.679167	739.608398	748.228943
19437.193777	16902.679167	738.406250	746.033936
19437.193777	16902.679167	737.203125	887.550110
19437.193777	16902.679167	736.000000	1147.086182
19437.193777	16902.679167	734.795898	1384.786011
19437.193777	16902.679167	733.592773	1323.113403
19437.193777	16902.679167	732.388672	1434.576660
19437.193777	16902.679167	731.184570	1144.535767
19437.193777	16902.679167	729.979492	1204.696533
19437.193777	16902.679167	728.775391	1309.986450
19437.193777	16902.679167	727.570313	962.907593
19437.193777	16902.679167	726.365234	438.962646
19437.193777	16902.679167	725.160156	536.260925
19437.193777	16902.679167	723.954102	578.424255
19437.193777	16902.679167	722.748047	367.049377
19437.193777	16902.679167	721.541992	615.323853
19437.193777	16902.679167	720.334961	203.566574
19437.193777	16902.679167	719.128906	-135.450027
19437.193777	16902.679167	717.921875	214.626572
19437.193777	16902.679167	716.714844	460.460052
19437.193777	16902.679167	715.506836	182.208969
19437.193777	16902.679167	714.298828	323.822266
19437.193777	16902.679167	713.090820	349.579468
19437.193777	16902.679167	711.882813	-28.714622
19437.193777	16902.679167	710.674805	183.205841
19437.193777	16902.679167	709.465820	310.678864
19437.193777	16902.679167	708.256836	93.106995
19437.193777	16902.679167	707.047852	253.701447
19437.193777	16902.679167	705.837891	-245.998718
19437.193777	16902.679167	704.627930	78.967896
19437.193777	16902.679167	703.417969	-142.587830
19437.193777	16902.679167	702.208008	-1.950686
19437.193777	16902.679167	700.998047	-59.132030
19437.193777	16902.679167	699.787109	-282.696472
19437.193777	16902.679167	698.576172	-171.684174
19437.193777	16902.679167	697.364258	68.310890
19437.193777	16902.679167	696.153320	87.142097
19437.193777	16902.679167	694.941406	31.597544
19437.193777	16902.679167	693.729492	75.699944
19437.193777	16902.679167	692.516602	121.667671
19437.193777	16902.679167	691.304688	36.628086
19437.193777	16902.679167	690.091797	-1.560732
19437.193777	16902.679167	688.878906	1.216043
19437.193777	16902.679167	687.665039	-33.178802
19437.193777	16902.679167	686.451172	135.418564
19437.193777	16902.679167	685.237305	112.584999
19437.193777	16902.679167	684.023438	331.684540
19437.193777	16902.679167	682.809570	148.694473
19437.193777	16902.679167	681.594727	277.830994
19437.193777	16902.679167	680.379883	221.570816
19437.193777	16902.679167	679.165039	321.260468
19437.193777	16902.679167	677.949219	114.778175
19437.193777	16902.679167	676.733398	436.516907
19437.193777	16902.679167	675.517578	74.081070
19437.193777	16902.679167	674.301758	-62.266636
19437.193777	16902.679167	673.084961	428.590149
19437.193777	16902.679167	671.869141	52.571960
19437.193777	16902.679167	670.651367	138.102081
19437.193777	16902.679167	669.434570	433.770996
19437.193777	16902.679167	668.216797	102.585785
19437.193777	16902.679167	667.000000	689.893188
19437.193777	16902.679167	665.781250	448.172760
19437.193777	16902.679167	664.563477	554.650391
19437.193777	16902.679167	663.344727	528.801575
19437.193777	16902.679167	662.125977	440.701965
19437.193777	16902.679167	660.907227	321.489441
19437.193777	16902.679167	659.688477	470.458221
19437.193777	16902.679167	658.468750	430.857361
19437.193777	16902.679167	657.249023	385.399353
19437.193777	16902.679167	656.029297	351.567932
19437.193777	16902.679167	654.808594	746.821106
19437.193777	16902.679167	653.587891	722.553223
19437.193777	16902.679167	652.367188	1051.490234
19437.193777	16902.679167	651.146484	567.201965
19437.193777	16902.679167	649.924805	729.115173
19437.193777	16902.679167	648.704102	464.203094
19437.193777	16902.679167	647.482422	377.778625
19437.193777	16902.679167	646.259766	502.690918
19437.193777	16902.679167	645.037109	247.592438
19437.193777	16902.679167	643.815430	285.206177
19437.193777	16902.679167	642.591797	599.854065
19437.193777	16902.679167	641.369141	154.969330
19437.193777	16902.679167	640.145508	395.860901
19437.193777	16902.679167	638.921875	324.876862
19437.193777	16902.679167	637.698242	430.071625
19437.193777	16902.679167	636.474609	161.644196
19437.193777	16902.679167	635.250000	462.240051
19437.193777	16902.679167	634.025391	155.191818
19437.193777	16902.679167	632.800781	99.718071
19437.193777	16902.679167	631.575195	40.390121
19437.193777	16902.679167	630.349609	342.636383
19437.193777	16902.679167	629.124023	140.214539
19437.193777	16902.679167	627.898438	-160.695786
19437.193777	16902.679167	626.671875	-11.267382
19437.193777	16902.679167	625.445313	236.617722
19437.193777	16902.679167	624.218750	-139.454575
19437.193777	16902.679167	622.992188	-73.163994
19437.193777	16902.679167	621.764648	-55.163689
19437.193777	16902.679167	620.537109	-185.792679
19437.193777	16902.679167	619.309570	-150.396637
19437.193777	16902.679167	618.081055	106.873283
19437.193777	16902.679167	616.852539	132.566772
19437.193777	16902.679167	615.624023	19.404587
19437.193777	16902.679167	614.395508	37.420002
19437.193777	16902.679167	613.166992	205.808411
19437.193777	16902.679167	611.937500	-71.069504
19437.193777	16902.679167	610.708008	-133.921860
19437.193777	16902.679167	609.477539	117.301514
19437.193777	16902.679167	608.248047	160.420502
19437.193777	16902.679167	607.017578	-27.534897
19437.193777	16902.679167	605.787109	23.354099
19437.193777	16902.679167	604.555664	108.901459
19437.193777	16902.679167	603.325195	-28.793810
19437.193777	16902.679167	602.093750	-77.887054
19437.193777	16902.679167	600.861328	-146.155411
19437.193777	16902.679167	599.629883	-77.808647
19437.193777	16902.679167	598.397461	142.457062
19437.193777	16902.679167	597.165039	-62.183834
19437.193777	16902.679167	595.932617	-57.192165
19437.193777	16902.679167	594.699219	-102.115044
19437.193777	16902.679167	593.465820	-258.399231
19437.193777	16902.679167	592.232422	-159.097366
19437.193777	16902.679167	590.999023	-163.486740
19437.193777	16902.679167	589.764648	-229.254944
19437.193777	16902.679167	588.530273	-66.507164
19437.193777	16902.679167	587.295898	-352.852722
19437.193777	16902.679167	586.061523	24.874363
19437.193777	16902.679167	584.826172	-6.101225
19437.193777	16902.679167	583.590820	-35.078293
19437.193777	16902.679167	582.355469	-261.480713
19437.193777	16902.679167	581.119141	26.072474
19437.193777	16902.679167	579.882813	3.069391
19437.193777	16902.679167	578.646484	-92.669792
19437.193777	16902.679167	577.410156	-33.104210
19437.193777	16902.679167	576.172852	53.330841
19437.193777	16902.679167	574.935547	170.451218
19437.193777	16902.679167	573.698242	-57.038250
19437.193777	16902.679167	572.460938	-20.178879
19437.193777	16902.679167	571.222656	167.943771
19437.193777	16902.679167	569.984375	103.500610
19437.193777	16902.679167	568.746094	37.258808
19437.193777	16902.679167	567.506836	145.187561
19437.193777	16902.679167	566.267578	77.234802
19437.193777	16902.679167	565.028320	213.968323
19437.193777	16902.679167	563.789063	213.117950
19437.193777	16902.679167	562.548828	363.330750
19437.193777	16902.679167	561.309570	60.769600
19437.193777	16902.679167	560.068359	228.339951
19437.193777	16902.679167	558.828125	395.937469
19437.193777	16902.679167	557.586914	328.714417
19437.193777	16902.679167	556.345703	124.178200
19437.193777	16902.679167	555.104492	181.300430
19437.193777	16902.679167	553.863281	429.312378
19437.193777	16902.679167	552.621094	343.476379
19437.193777	16902.679167	551.378906	61.328522
19437.193777	16902.679167	550.136719	366.732666
19437.193777	16902.679167	548.893555	412.832031
19437.193777	16902.679167	547.650391	338.935638
19437.193777	16902.679167	546.407227	320.442169
19437.193777	16902.679167	545.164063	368.746429
19437.193777	16902.679167	543.919922	573.341187
19437.193777	16902.679167	542.675781	383.733917
19437.193777	16902.679167	541.431641	441.840576
19437.193777	16902.679167	540.186523	520.974182
19437.193777	16902.679167	538.941406	381.307617
19437.193777	16902.679167	537.696289	749.863953
19437.193777	16902.679167	536.451172	673.201233
19437.193777	16902.679167	535.205078	843.942810
19437.193777	16902.679167	533.959961	379.578094
19437.193777	16902.679167	532.712891	603.756042
19437.193777	16902.679167	531.466797	1063.634155
19437.193777	16902.679167	530.219727	839.286255
19437.193777	16902.679167	528.972656	609.436035
19437.193777	16902.679167	527.725586	837.576355
19437.193777	16902.679167	526.478516	928.978821
19437.193777	16902.679167	525.230469	895.125854
19437.193777	16902.679167	523.982422	931.617310
19437.193777	16902.679167	522.734375	998.554749
19437.193777	16902.679167	521.485352	942.218811
19437.193777	16902.679167	520.236328	946.701111
19437.193777	16902.679167	518.987305	848.844604
19437.193777	16902.679167	517.737305	838.347717
19437.193777	16902.679167	516.488281	989.078369
19437.193777	16902.679167	515.238281	1183.424316
19437.193777	16902.679167	513.988281	1260.262695
19437.193777	16902.679167	512.737305	1219.672241
19437.193777	16902.679167	511.486328	1209.473267
19437.193777	16902.679167	510.235352	1358.423340
19437.193777	16902.679167	508.984375	1094.594238
19437.193777	16902.679167	507.732422	1342.058350
19437.193777	16902.679167	506.480469	1413.448975
19437.193777	16902.679167	505.228516	1530.265137
19437.193777	16902.679167	503.976563	1348.159790
19437.193777	16902.679167	502.723633	1514.192505
19437.193777	16902.679167	501.470703	1670.724243
19437.193777	16902.679167	500.217773	1955.770508
19437.193777	16902.679167	498.963867	2278.519043
19437.193777	16902.679167	497.709961	2117.349365
19437.193777	16902.679167	496.456055	2090.395264
19437.193777	16902.679167	495.202148	2199.454346
19437.193777	16902.679167	493.947266	2242.357666
19437.193777	16902.679167	492.692383	2387.181152
19437.193777	16902.679167	491.437500	2484.719482
19437.193777	16902.679167	490.181641	2542.550537
19437.193777	16902.679167	488.926758	2388.965576
19437.193777	16902.679167	487.670898	2778.722412
19437.193777	16902.679167	486.414063	2943.801758
19437.193777	16902.679167	485.158203	2522.267090
19437.193777	16902.679167	483.901367	3051.037354
19437.193777	16902.679167	482.644531	2940.500000
19437.193777	16902.679167	481.386719	3024.015625
19437.193777	16902.679167	480.128906	3162.014160
19437.193777	16902.679167	478.871094	3363.873047
19437.193777	16902.679167	477.613281	3409.189453
19437.193777	16902.679167	476.355469	3382.785645
19437.193777	16902.679167	475.096680	3666.841309
19437.193777	16902.679167	473.837891	3459.375488
19437.193777	16902.679167	472.578125	3611.209229
19437.193777	16902.679167	471.319336	3561.471191
19437.193777	16902.679167	470.059570	3458.875732
19437.193777	16902.679167	468.799805	3775.426025
19437.193777	16902.679167	467.539063	3847.189697
19437.193777	16902.679167	466.278320	4033.312256
19437.193777	16902.679167	465.017578	4040.542969
19437.193777	16902.679167	463.756836	4169.593750
19437.193777	16902.679167	462.495117	3931.984375
19437.193777	16902.679167	461.233398	4280.079590
19437.193777	16902.679167	459.971680	4287.824219
19437.193777	16902.679167	458.709961	4225.734863
19437.193777	16902.679167	457.447266	4060.058105
19437.193777	16902.679167	456.184570	4689.630859
19437.193777	16902.679167	454.921875	4359.868164
19437.193777	16902.679167	453.658203	4712.504395
19437.193777	16902.679167	452.394531	4620.096191
19437.193777	16902.679167	451.130859	4577.848145
19437.193777	16902.679167	449.867188	4581.954102
19437.193777	16902.679167	448.602539	4814.134766
19437.193777	16902.679167	447.337891	4869.530273
19437.193777	16902.679167	446.073242	4810.045410
19437.193777	16902.679167	444.807617	4781.800293
19437.193777	16902.679167	443.542969	4870.876465
19437.193777	16902.679167	442.276367	5095.888184
19437.193777	16902.679167	441.010742	5048.733398
19437.193777	16902.679167	439.744141	4897.951172
19437.193777	16902.679167	438.478516	4967.222168
19437.193777	16902.679167	437.210938	4721.454590
19437.193777	16902.679167	435.944336	5398.710449
19437.193777	16902.679167	434.676758	5237.280273
19437.193777	16902.679167	433.409180	4779.716797
19437.193777	16902.679167	432.141602	5040.883789
19437.193777	16902.679167	430.873047	5132.830566
19437.193777	16902.679167	429.604492	5064.983398
19437.193777	16902.679167	428.335938	5278.134766
19437.193777	16902.679167	427.067383	5409.852051
19437.193777	16902.679167	425.797852	5206.275391
19437.193777	16902.679167	424.528320	5220.005859
19437.193777	16902.679167	423.258789	5320.254395
19437.193777	16902.679167	421.988281	4952.871094
19437.193777	16902.679167	420.717773	5061.849121
19437.193777	16902.679167	419.447266	5143.380371
19437.193777	16902.679167	418.175781	5415.541992
19437.193777	16902.679167	416.905273	5609.804199
19437.193777	16902.679167	415.633789	5349.726074
19437.193777	16902.679167	414.362305	5127.415527
19437.193777	16902.679167	413.089844	5106.687988
19437.193777	16902.679167	411.817383	4991.294434
19437.193777	16902.679167	410.544922	5315.589355
19437.193777	16902.679167	409.272461	5159.696777
19437.193777	16902.679167	407.999023	5190.095703
19437.193777	16902.679167	406.725586	5103.356445
19437.193777	16902.679167	405.452148	5293.865234
19437.193777	16902.679167	404.177734	5145.766113
19437.193777	16902.679167	402.903320	5096.207031
19437.193777	16902.679167	401.628906	5057.698242
19437.193777	16902.679167	400.354492	5110.091309
19437.193777	16902.679167	399.079102	5191.912598
19437.193777	16902.679167	397.803711	5178.645508
19437.193777	16902.679167	396.528320	5335.896484
19437.193777	16902.679167	395.251953	5223.345703
19437.193777	16902.679167	393.976563	5251.492188
19437.193777	16902.679167	392.700195	4943.054688
19437.193777	16902.679167	391.422852	5205.652832
19437.193777	16902.679167	390.145508	5035.137207
19437.193777	16902.679167	388.869141	5171.902832
19437.193777	16902.679167	387.590820	4929.338379
19437.193777	16902.679167	386.313477	5197.766113
19437.193777	16902.679167	385.035156	5010.868652
19437.193777	16902.679167	383.756836	5043.538086
19437.193777	16902.679167	382.478516	5139.909180
19437.193777	16902.679167	381.199219	5071.934082
19437.193777	16902.679167	379.919922	4750.796875
19437.193777	16902.679167	378.640625	4913.576172
19437.193777	16902.679167	377.360352	4619.321289
19437.193777	16902.679167	376.080078	4597.582520
19437.193777	16902.679167	374.799805	4494.643555
19437.193777	16902.679167	373.519531	4591.691406
19437.193777	16902.679167	372.238281	4579.518066
19437.193777	16902.679167	370.957031	4572.838379
19437.193777	16902.679167	369.675781	4699.134277
19437.193777	16902.679167	368.394531	4597.763672
19437.193777	16902.679167	367.112305	4194.760254
19437.193777	16902.679167	365.830078	3778.554199
19437.193777	16902.679167	364.546875	3973.341064
19437.193777	16902.679167	363.264648	4128.712891
19437.193777	16902.679167	361.981445	4008.032471
19437.193777	16902.679167	360.698242	4133.922363
19437.193777	16902.679167	359.414063	3714.195557
19437.193777	16902.679167	358.129883	3717.988037
19437.193777	16902.679167	356.845703	3646.788818
19437.193777	16902.679167	355.561523	3627.804932
19437.193777	16902.679167	354.276367	3500.321045
19437.193777	16902.679167	352.991211	3642.369629
19437.193777	16902.679167	351.706055	3113.580811
19437.193777	16902.679167	350.420898	3137.944092
19437.193777	16902.679167	349.134766	3110.493652
19437.193777	16902.679167	347.848633	3016.542236
19437.193777	16902.679167	346.561523	2686.411621
19437.193777	16902.679167	345.275391	2748.309814
19437.193777	16902.679167	343.988281	2811.264404
19437.193777	16902.679167	342.700195	2328.510010
19437.193777	16902.679167	341.413086	2419.360596
19437.193777	16902.679167	340.125000	2575.208252
19437.193777	16902.679167	338.836914	2450.255859
19437.193777	16902.679167	337.548828	2476.678223
19437.193777	16902.679167	336.259766	2146.616455
19437.193777	16902.679167	334.970703	1978.672241
19437.193777	16902.679167	333.681641	1467.231201
19437.193777	16902.679167	332.391602	1942.327026
19437.193777	16902.679167	331.101563	1605.073486
19437.193777	16902.679167	329.811523	1599.955811
19437.193777	16902.679167	328.521484	1366.595947
19437.193777	16902.679167	327.230469	1282.885986
19437.193777	16902.679167	325.939453	1339.610229
19437.193777	16902.679167	324.648438	1182.374512
19437.193777	16902.679167	323.356445	1104.406982
19437.193777	16902.679167	322.064453	975.502136
19437.193777	16902.679167	320.772461	852.352905
19437.193777	16902.679167	319.480469	729.276672
19437.193777	16902.679167	318.187500	763.434143
19437.193777	16902.679167	316.894531	139.350952
19437.193777	16902.679167	315.601563	638.032959
19437.193777	16902.679167	314.307617	347.824738
19437.193777	16902.679167	313.013672	102.553101
19437.193777	16902.679167	311.719727	257.175568
19437.193777	16902.679167	310.425781	97.349854
19437.193777	16902.679167	309.130859	-205.236206
19437.193777	16902.679167	307.835938	-106.972733
19437.193777	16902.679167	306.541016	-7.121831
19437.193777	16902.679167	305.245117	-23.300034
19437.193777	16902.679167	303.949219	-257.711395
19437.193777	16902.679167	302.653320	53.696182
19437.193777	16902.679167	301.356445	-20.332134
19437.193777	16902.679167	300.060547	211.694855
19437.193777	16902.679167	298.763672	231.558029
