#X		#Y		#Wave		#Intensity
19348.260851	16917.124333	2000.043945	73.054672
19348.260851	16917.124333	1999.080078	7.814255
19348.260851	16917.124333	1998.116211	27.661905
19348.260851	16917.124333	1997.151367	-69.734421
19348.260851	16917.124333	1996.186523	-68.755486
19348.260851	16917.124333	1995.222656	-222.142517
19348.260851	16917.124333	1994.256836	22.604658
19348.260851	16917.124333	1993.291992	437.387909
19348.260851	16917.124333	1992.327148	-87.032288
19348.260851	16917.124333	1991.361328	24.263479
19348.260851	16917.124333	1990.395508	-226.489609
19348.260851	16917.124333	1989.429688	106.180519
19348.260851	16917.124333	1988.463867	250.071793
19348.260851	16917.124333	1987.497070	314.158417
19348.260851	16917.124333	1986.531250	147.602646
19348.260851	16917.124333	1985.564453	378.638092
19348.260851	16917.124333	1984.597656	188.748230
19348.260851	16917.124333	1983.630859	-33.760773
19348.260851	16917.124333	1982.664063	183.159225
19348.260851	16917.124333	1981.696289	137.584717
19348.260851	16917.124333	1980.728516	-78.941055
19348.260851	16917.124333	1979.761719	114.101563
19348.260851	16917.124333	1978.792969	69.553459
19348.260851	16917.124333	1977.825195	-172.984802
19348.260851	16917.124333	1976.857422	30.910490
19348.260851	16917.124333	1975.888672	113.364067
19348.260851	16917.124333	1974.919922	-68.680931
19348.260851	16917.124333	1973.951172	-56.176830
19348.260851	16917.124333	1972.982422	-182.220734
19348.260851	16917.124333	1972.013672	157.500168
19348.260851	16917.124333	1971.043945	-48.213036
19348.260851	16917.124333	1970.075195	155.003769
19348.260851	16917.124333	1969.105469	150.746033
19348.260851	16917.124333	1968.135742	316.178864
19348.260851	16917.124333	1967.165039	431.938873
19348.260851	16917.124333	1966.195313	42.300354
19348.260851	16917.124333	1965.224609	364.306213
19348.260851	16917.124333	1964.253906	432.235382
19348.260851	16917.124333	1963.283203	251.164200
19348.260851	16917.124333	1962.312500	92.022301
19348.260851	16917.124333	1961.341797	245.227402
19348.260851	16917.124333	1960.370117	516.223022
19348.260851	16917.124333	1959.399414	282.487457
19348.260851	16917.124333	1958.427734	-37.504639
19348.260851	16917.124333	1957.455078	227.709793
19348.260851	16917.124333	1956.483398	404.057251
19348.260851	16917.124333	1955.511719	-91.049599
19348.260851	16917.124333	1954.539063	760.787170
19348.260851	16917.124333	1953.566406	186.722290
19348.260851	16917.124333	1952.593750	578.292847
19348.260851	16917.124333	1951.621094	149.006332
19348.260851	16917.124333	1950.647461	63.552086
19348.260851	16917.124333	1949.674805	326.645447
19348.260851	16917.124333	1948.701172	199.082947
19348.260851	16917.124333	1947.727539	446.976532
19348.260851	16917.124333	1946.753906	436.905182
19348.260851	16917.124333	1945.780273	-44.466454
19348.260851	16917.124333	1944.805664	102.265701
19348.260851	16917.124333	1943.831055	219.358200
19348.260851	16917.124333	1942.856445	162.137375
19348.260851	16917.124333	1941.881836	381.880554
19348.260851	16917.124333	1940.907227	476.380524
19348.260851	16917.124333	1939.932617	-66.577911
19348.260851	16917.124333	1938.957031	478.653687
19348.260851	16917.124333	1937.981445	553.120850
19348.260851	16917.124333	1937.005859	245.287689
19348.260851	16917.124333	1936.030273	312.205994
19348.260851	16917.124333	1935.054688	-83.834297
19348.260851	16917.124333	1934.078125	75.966354
19348.260851	16917.124333	1933.101563	402.077179
19348.260851	16917.124333	1932.125000	329.035767
19348.260851	16917.124333	1931.148438	136.033859
19348.260851	16917.124333	1930.171875	160.768967
19348.260851	16917.124333	1929.194336	302.838348
19348.260851	16917.124333	1928.217773	183.092422
19348.260851	16917.124333	1927.240234	-2.694574
19348.260851	16917.124333	1926.262695	244.243164
19348.260851	16917.124333	1925.284180	407.925995
19348.260851	16917.124333	1924.306641	407.749329
19348.260851	16917.124333	1923.328125	270.691437
19348.260851	16917.124333	1922.350586	458.538422
19348.260851	16917.124333	1921.372070	-69.372528
19348.260851	16917.124333	1920.392578	-164.894058
19348.260851	16917.124333	1919.414063	327.992218
19348.260851	16917.124333	1918.434570	-70.347710
19348.260851	16917.124333	1917.456055	258.735352
19348.260851	16917.124333	1916.476563	9.337478
19348.260851	16917.124333	1915.497070	199.151581
19348.260851	16917.124333	1914.516602	213.239349
19348.260851	16917.124333	1913.537109	17.552589
19348.260851	16917.124333	1912.556641	-429.239044
19348.260851	16917.124333	1911.576172	60.273926
19348.260851	16917.124333	1910.595703	32.839520
19348.260851	16917.124333	1909.615234	-77.462288
19348.260851	16917.124333	1908.633789	258.148254
19348.260851	16917.124333	1907.653320	77.163696
19348.260851	16917.124333	1906.671875	351.696289
19348.260851	16917.124333	1905.690430	63.586712
19348.260851	16917.124333	1904.708984	401.297363
19348.260851	16917.124333	1903.727539	127.866699
19348.260851	16917.124333	1902.745117	-116.264008
19348.260851	16917.124333	1901.762695	-48.840221
19348.260851	16917.124333	1900.780273	247.244629
19348.260851	16917.124333	1899.797852	414.292389
19348.260851	16917.124333	1898.815430	136.216156
19348.260851	16917.124333	1897.832031	162.183380
19348.260851	16917.124333	1896.849609	73.873497
19348.260851	16917.124333	1895.866211	-145.656952
19348.260851	16917.124333	1894.882813	4.279726
19348.260851	16917.124333	1893.898438	78.838982
19348.260851	16917.124333	1892.915039	214.098465
19348.260851	16917.124333	1891.930664	55.421104
19348.260851	16917.124333	1890.947266	-93.484734
19348.260851	16917.124333	1889.962891	180.124634
19348.260851	16917.124333	1888.977539	-160.512192
19348.260851	16917.124333	1887.993164	219.797409
19348.260851	16917.124333	1887.007813	-33.363239
19348.260851	16917.124333	1886.023438	138.139755
19348.260851	16917.124333	1885.038086	-44.563492
19348.260851	16917.124333	1884.051758	-125.336151
19348.260851	16917.124333	1883.066406	-72.718346
19348.260851	16917.124333	1882.081055	241.702576
19348.260851	16917.124333	1881.094727	255.456421
19348.260851	16917.124333	1880.108398	-300.287537
19348.260851	16917.124333	1879.122070	106.077972
19348.260851	16917.124333	1878.135742	127.121147
19348.260851	16917.124333	1877.148438	-171.546356
19348.260851	16917.124333	1876.162109	312.058472
19348.260851	16917.124333	1875.174805	-189.903412
19348.260851	16917.124333	1874.187500	107.137428
19348.260851	16917.124333	1873.199219	24.097193
19348.260851	16917.124333	1872.211914	28.196999
19348.260851	16917.124333	1871.223633	-47.540977
19348.260851	16917.124333	1870.236328	-137.766769
19348.260851	16917.124333	1869.248047	-78.020790
19348.260851	16917.124333	1868.258789	288.780426
19348.260851	16917.124333	1867.270508	-43.210526
19348.260851	16917.124333	1866.282227	263.012207
19348.260851	16917.124333	1865.292969	112.386002
19348.260851	16917.124333	1864.303711	145.435089
19348.260851	16917.124333	1863.314453	-316.743561
19348.260851	16917.124333	1862.324219	-63.851265
19348.260851	16917.124333	1861.334961	-96.005081
19348.260851	16917.124333	1860.344727	258.137115
19348.260851	16917.124333	1859.354492	136.607239
19348.260851	16917.124333	1858.364258	191.293152
19348.260851	16917.124333	1857.374023	344.877655
19348.260851	16917.124333	1856.383789	47.258369
19348.260851	16917.124333	1855.392578	232.147812
19348.260851	16917.124333	1854.401367	525.476257
19348.260851	16917.124333	1853.410156	167.676437
19348.260851	16917.124333	1852.418945	-214.111923
19348.260851	16917.124333	1851.426758	-149.877579
19348.260851	16917.124333	1850.435547	323.973389
19348.260851	16917.124333	1849.443359	-19.125532
19348.260851	16917.124333	1848.451172	-44.144455
19348.260851	16917.124333	1847.458984	46.429340
19348.260851	16917.124333	1846.466797	-156.823090
19348.260851	16917.124333	1845.473633	386.310486
19348.260851	16917.124333	1844.480469	430.955688
19348.260851	16917.124333	1843.487305	59.218956
19348.260851	16917.124333	1842.494141	38.896137
19348.260851	16917.124333	1841.500977	88.320229
19348.260851	16917.124333	1840.506836	-59.529137
19348.260851	16917.124333	1839.513672	208.676712
19348.260851	16917.124333	1838.519531	217.085526
19348.260851	16917.124333	1837.525391	1.901176
19348.260851	16917.124333	1836.530273	-129.109726
19348.260851	16917.124333	1835.536133	268.549683
19348.260851	16917.124333	1834.541016	481.032745
19348.260851	16917.124333	1833.545898	-8.003444
19348.260851	16917.124333	1832.550781	-256.727875
19348.260851	16917.124333	1831.555664	214.956070
19348.260851	16917.124333	1830.560547	155.867645
19348.260851	16917.124333	1829.564453	269.581848
19348.260851	16917.124333	1828.568359	126.435608
19348.260851	16917.124333	1827.572266	-26.294760
19348.260851	16917.124333	1826.576172	185.626038
19348.260851	16917.124333	1825.580078	49.648136
19348.260851	16917.124333	1824.583008	115.110008
19348.260851	16917.124333	1823.585938	53.434727
19348.260851	16917.124333	1822.588867	291.373230
19348.260851	16917.124333	1821.591797	406.946014
19348.260851	16917.124333	1820.594727	170.187195
19348.260851	16917.124333	1819.596680	216.169434
19348.260851	16917.124333	1818.599609	278.847931
19348.260851	16917.124333	1817.601563	195.368896
19348.260851	16917.124333	1816.603516	78.349159
19348.260851	16917.124333	1815.604492	21.169765
19348.260851	16917.124333	1814.606445	-76.733185
19348.260851	16917.124333	1813.607422	38.327190
19348.260851	16917.124333	1812.608398	-30.938339
19348.260851	16917.124333	1811.609375	91.133362
19348.260851	16917.124333	1810.610352	119.826523
19348.260851	16917.124333	1809.610352	440.180115
19348.260851	16917.124333	1808.611328	138.752090
19348.260851	16917.124333	1807.611328	549.693542
19348.260851	16917.124333	1806.611328	219.559357
19348.260851	16917.124333	1805.610352	111.702827
19348.260851	16917.124333	1804.610352	168.660873
19348.260851	16917.124333	1803.609375	278.082245
19348.260851	16917.124333	1802.608398	155.756516
19348.260851	16917.124333	1801.607422	286.495361
19348.260851	16917.124333	1800.606445	264.340942
19348.260851	16917.124333	1799.605469	-139.746597
19348.260851	16917.124333	1798.603516	222.237991
19348.260851	16917.124333	1797.601563	128.328812
19348.260851	16917.124333	1796.599609	-49.101852
19348.260851	16917.124333	1795.597656	219.439407
19348.260851	16917.124333	1794.595703	175.444077
19348.260851	16917.124333	1793.592773	295.887817
19348.260851	16917.124333	1792.589844	437.666443
19348.260851	16917.124333	1791.587891	-14.073870
19348.260851	16917.124333	1790.583984	-129.766403
19348.260851	16917.124333	1789.581055	392.938782
19348.260851	16917.124333	1788.577148	527.145630
19348.260851	16917.124333	1787.574219	551.684692
19348.260851	16917.124333	1786.570313	338.054138
19348.260851	16917.124333	1785.566406	91.101624
19348.260851	16917.124333	1784.561523	-270.074585
19348.260851	16917.124333	1783.557617	334.878052
19348.260851	16917.124333	1782.552734	142.543228
19348.260851	16917.124333	1781.547852	76.268959
19348.260851	16917.124333	1780.542969	238.236359
19348.260851	16917.124333	1779.538086	-63.584312
19348.260851	16917.124333	1778.532227	-82.483871
19348.260851	16917.124333	1777.527344	48.278023
19348.260851	16917.124333	1776.521484	43.456127
19348.260851	16917.124333	1775.515625	330.785706
19348.260851	16917.124333	1774.508789	116.706169
19348.260851	16917.124333	1773.502930	128.247635
19348.260851	16917.124333	1772.496094	239.427979
19348.260851	16917.124333	1771.489258	447.818756
19348.260851	16917.124333	1770.482422	478.023224
19348.260851	16917.124333	1769.475586	137.916061
19348.260851	16917.124333	1768.467773	469.328918
19348.260851	16917.124333	1767.460938	155.273453
19348.260851	16917.124333	1766.453125	-137.403244
19348.260851	16917.124333	1765.445313	-169.205170
19348.260851	16917.124333	1764.437500	59.717102
19348.260851	16917.124333	1763.428711	532.620667
19348.260851	16917.124333	1762.420898	287.145081
19348.260851	16917.124333	1761.412109	297.583954
19348.260851	16917.124333	1760.403320	514.045105
19348.260851	16917.124333	1759.393555	379.771759
19348.260851	16917.124333	1758.384766	117.577988
19348.260851	16917.124333	1757.375000	272.120117
19348.260851	16917.124333	1756.366211	132.970428
19348.260851	16917.124333	1755.356445	277.806427
19348.260851	16917.124333	1754.345703	197.686493
19348.260851	16917.124333	1753.335938	389.595520
19348.260851	16917.124333	1752.325195	217.052444
19348.260851	16917.124333	1751.315430	330.659698
19348.260851	16917.124333	1750.304688	75.254280
19348.260851	16917.124333	1749.292969	292.685638
19348.260851	16917.124333	1748.282227	301.941589
19348.260851	16917.124333	1747.270508	-76.471451
19348.260851	16917.124333	1746.259766	50.815571
19348.260851	16917.124333	1745.248047	52.756073
19348.260851	16917.124333	1744.235352	26.260176
19348.260851	16917.124333	1743.223633	209.861511
19348.260851	16917.124333	1742.211914	-43.480759
19348.260851	16917.124333	1741.199219	19.494959
19348.260851	16917.124333	1740.186523	120.121201
19348.260851	16917.124333	1739.173828	-34.220867
19348.260851	16917.124333	1738.160156	136.974304
19348.260851	16917.124333	1737.147461	204.235565
19348.260851	16917.124333	1736.133789	-25.764229
19348.260851	16917.124333	1735.120117	321.911469
19348.260851	16917.124333	1734.106445	287.468140
19348.260851	16917.124333	1733.091797	285.946198
19348.260851	16917.124333	1732.078125	79.328506
19348.260851	16917.124333	1731.063477	-51.906155
19348.260851	16917.124333	1730.048828	-107.795341
19348.260851	16917.124333	1729.034180	168.329407
19348.260851	16917.124333	1728.019531	-10.193523
19348.260851	16917.124333	1727.003906	315.074371
19348.260851	16917.124333	1725.988281	202.328308
19348.260851	16917.124333	1724.972656	-192.858871
19348.260851	16917.124333	1723.957031	-65.633064
19348.260851	16917.124333	1722.941406	230.840286
19348.260851	16917.124333	1721.924805	120.218163
19348.260851	16917.124333	1720.909180	167.118103
19348.260851	16917.124333	1719.892578	115.169777
19348.260851	16917.124333	1718.875977	-265.928955
19348.260851	16917.124333	1717.858398	76.894630
19348.260851	16917.124333	1716.841797	-102.127968
19348.260851	16917.124333	1715.824219	-107.316795
19348.260851	16917.124333	1714.806641	-159.557663
19348.260851	16917.124333	1713.789063	-167.232605
19348.260851	16917.124333	1712.770508	-412.128540
19348.260851	16917.124333	1711.752930	-138.200668
19348.260851	16917.124333	1710.734375	-89.775528
19348.260851	16917.124333	1709.715820	-10.935750
19348.260851	16917.124333	1708.697266	-65.926598
19348.260851	16917.124333	1707.678711	-22.448402
19348.260851	16917.124333	1706.659180	145.235107
19348.260851	16917.124333	1705.640625	183.825806
19348.260851	16917.124333	1704.621094	142.621521
19348.260851	16917.124333	1703.600586	-100.218842
19348.260851	16917.124333	1702.581055	-122.741035
19348.260851	16917.124333	1701.561523	234.246231
19348.260851	16917.124333	1700.541016	487.951630
19348.260851	16917.124333	1699.520508	460.443695
19348.260851	16917.124333	1698.500000	442.250732
19348.260851	16917.124333	1697.478516	519.983643
19348.260851	16917.124333	1696.458008	38.193073
19348.260851	16917.124333	1695.436523	43.302963
19348.260851	16917.124333	1694.415039	179.384109
19348.260851	16917.124333	1693.393555	266.228577
19348.260851	16917.124333	1692.372070	254.743698
19348.260851	16917.124333	1691.349609	530.836975
19348.260851	16917.124333	1690.327148	117.042389
19348.260851	16917.124333	1689.304688	664.109070
19348.260851	16917.124333	1688.282227	612.600708
19348.260851	16917.124333	1687.259766	201.207764
19348.260851	16917.124333	1686.236328	437.056427
19348.260851	16917.124333	1685.213867	562.991577
19348.260851	16917.124333	1684.190430	807.922424
19348.260851	16917.124333	1683.166016	550.699707
19348.260851	16917.124333	1682.142578	473.291626
19348.260851	16917.124333	1681.119141	412.205109
19348.260851	16917.124333	1680.094727	663.786804
19348.260851	16917.124333	1679.070313	495.270508
19348.260851	16917.124333	1678.045898	1168.866455
19348.260851	16917.124333	1677.020508	722.694641
19348.260851	16917.124333	1675.996094	866.596863
19348.260851	16917.124333	1674.970703	674.690796
19348.260851	16917.124333	1673.945313	748.538574
19348.260851	16917.124333	1672.919922	708.133667
19348.260851	16917.124333	1671.893555	684.012024
19348.260851	16917.124333	1670.868164	874.187561
19348.260851	16917.124333	1669.841797	794.080566
19348.260851	16917.124333	1668.815430	548.640076
19348.260851	16917.124333	1667.789063	766.572449
19348.260851	16917.124333	1666.761719	523.495544
19348.260851	16917.124333	1665.735352	1239.328003
19348.260851	16917.124333	1664.708008	675.101135
19348.260851	16917.124333	1663.680664	708.943848
19348.260851	16917.124333	1662.653320	728.796875
19348.260851	16917.124333	1661.625000	602.106262
19348.260851	16917.124333	1660.597656	1042.759521
19348.260851	16917.124333	1659.569336	997.379639
19348.260851	16917.124333	1658.541016	1051.937378
19348.260851	16917.124333	1657.512695	1006.539673
19348.260851	16917.124333	1656.483398	998.308228
19348.260851	16917.124333	1655.455078	1134.087769
19348.260851	16917.124333	1654.425781	1179.223755
19348.260851	16917.124333	1653.396484	1280.058350
19348.260851	16917.124333	1652.366211	1264.763916
19348.260851	16917.124333	1651.336914	1495.499756
19348.260851	16917.124333	1650.306641	1220.255981
19348.260851	16917.124333	1649.276367	873.190979
19348.260851	16917.124333	1648.246094	1103.847168
19348.260851	16917.124333	1647.215820	1118.728027
19348.260851	16917.124333	1646.185547	1474.454102
19348.260851	16917.124333	1645.154297	1503.158813
19348.260851	16917.124333	1644.123047	1654.699951
19348.260851	16917.124333	1643.091797	1398.326904
19348.260851	16917.124333	1642.060547	1547.521606
19348.260851	16917.124333	1641.028320	1548.401978
19348.260851	16917.124333	1639.997070	1377.910400
19348.260851	16917.124333	1638.964844	1779.437622
19348.260851	16917.124333	1637.931641	1690.002563
19348.260851	16917.124333	1636.899414	1547.385376
19348.260851	16917.124333	1635.867188	1402.522461
19348.260851	16917.124333	1634.833984	1577.027954
19348.260851	16917.124333	1633.800781	1790.810059
19348.260851	16917.124333	1632.767578	1706.161499
19348.260851	16917.124333	1631.734375	2042.433228
19348.260851	16917.124333	1630.700195	1983.235474
19348.260851	16917.124333	1629.666016	1850.113403
19348.260851	16917.124333	1628.631836	1668.533325
19348.260851	16917.124333	1627.597656	1628.000366
19348.260851	16917.124333	1626.563477	1795.430298
19348.260851	16917.124333	1625.528320	2466.339844
19348.260851	16917.124333	1624.493164	2028.554810
19348.260851	16917.124333	1623.458008	2313.643311
19348.260851	16917.124333	1622.422852	2016.935059
19348.260851	16917.124333	1621.387695	1985.794556
19348.260851	16917.124333	1620.351563	2176.211426
19348.260851	16917.124333	1619.315430	1805.976563
19348.260851	16917.124333	1618.279297	2058.712158
19348.260851	16917.124333	1617.243164	2514.334229
19348.260851	16917.124333	1616.207031	2474.089844
19348.260851	16917.124333	1615.169922	2148.043457
19348.260851	16917.124333	1614.132813	2167.891357
19348.260851	16917.124333	1613.095703	2332.955811
19348.260851	16917.124333	1612.058594	2249.179199
19348.260851	16917.124333	1611.020508	1882.153442
19348.260851	16917.124333	1609.983398	1982.840210
19348.260851	16917.124333	1608.945313	1816.432861
19348.260851	16917.124333	1607.907227	2050.713867
19348.260851	16917.124333	1606.868164	1981.134521
19348.260851	16917.124333	1605.830078	1812.691284
19348.260851	16917.124333	1604.791016	2249.468506
19348.260851	16917.124333	1603.751953	2426.197998
19348.260851	16917.124333	1602.712891	1777.263306
19348.260851	16917.124333	1601.673828	2170.287354
19348.260851	16917.124333	1600.633789	1843.631836
19348.260851	16917.124333	1599.594727	1924.018921
19348.260851	16917.124333	1598.554688	1951.580811
19348.260851	16917.124333	1597.513672	1898.772095
19348.260851	16917.124333	1596.473633	2027.541260
19348.260851	16917.124333	1595.433594	1990.965088
19348.260851	16917.124333	1594.392578	1743.210083
19348.260851	16917.124333	1593.351563	1798.678955
19348.260851	16917.124333	1592.310547	1659.091675
19348.260851	16917.124333	1591.268555	1535.693359
19348.260851	16917.124333	1590.227539	1804.786987
19348.260851	16917.124333	1589.185547	1972.912231
19348.260851	16917.124333	1588.143555	2005.728882
19348.260851	16917.124333	1587.100586	2238.115234
19348.260851	16917.124333	1586.058594	1924.834717
19348.260851	16917.124333	1585.015625	2061.040527
19348.260851	16917.124333	1583.972656	2110.189453
19348.260851	16917.124333	1582.929688	1927.981689
19348.260851	16917.124333	1581.886719	2135.387451
19348.260851	16917.124333	1580.843750	2223.697021
19348.260851	16917.124333	1579.799805	2266.257813
19348.260851	16917.124333	1578.755859	2434.822510
19348.260851	16917.124333	1577.711914	2463.783447
19348.260851	16917.124333	1576.666992	2060.261475
19348.260851	16917.124333	1575.623047	2059.724854
19348.260851	16917.124333	1574.578125	1906.001099
19348.260851	16917.124333	1573.533203	2408.901123
19348.260851	16917.124333	1572.488281	2218.781250
19348.260851	16917.124333	1571.443359	2047.127197
19348.260851	16917.124333	1570.397461	2298.549072
19348.260851	16917.124333	1569.351563	2385.415771
19348.260851	16917.124333	1568.305664	2374.095703
19348.260851	16917.124333	1567.259766	2413.152588
19348.260851	16917.124333	1566.213867	2651.021240
19348.260851	16917.124333	1565.166992	1973.128052
19348.260851	16917.124333	1564.120117	2432.685791
19348.260851	16917.124333	1563.073242	2072.636719
19348.260851	16917.124333	1562.026367	2609.821777
19348.260851	16917.124333	1560.978516	2738.437988
19348.260851	16917.124333	1559.930664	2607.028809
19348.260851	16917.124333	1558.883789	2222.594971
19348.260851	16917.124333	1557.834961	2244.369629
19348.260851	16917.124333	1556.787109	2140.848145
19348.260851	16917.124333	1555.739258	1950.860229
19348.260851	16917.124333	1554.690430	2128.025391
19348.260851	16917.124333	1553.641602	1849.480103
19348.260851	16917.124333	1552.592773	1837.733398
19348.260851	16917.124333	1551.542969	1621.104004
19348.260851	16917.124333	1550.494141	1921.672119
19348.260851	16917.124333	1549.444336	1489.043457
19348.260851	16917.124333	1548.394531	1318.517944
19348.260851	16917.124333	1547.344727	1530.577271
19348.260851	16917.124333	1546.293945	1476.427368
19348.260851	16917.124333	1545.244141	1595.346313
19348.260851	16917.124333	1544.193359	1197.976196
19348.260851	16917.124333	1543.142578	1223.917114
19348.260851	16917.124333	1542.090820	836.135498
19348.260851	16917.124333	1541.040039	1433.035400
19348.260851	16917.124333	1539.988281	936.533020
19348.260851	16917.124333	1538.936523	758.515259
19348.260851	16917.124333	1537.884766	1500.897095
19348.260851	16917.124333	1536.833008	1186.815918
19348.260851	16917.124333	1535.780273	625.433960
19348.260851	16917.124333	1534.727539	822.842834
19348.260851	16917.124333	1533.674805	813.717041
19348.260851	16917.124333	1532.622070	940.924500
19348.260851	16917.124333	1531.569336	945.678833
19348.260851	16917.124333	1530.515625	821.244507
19348.260851	16917.124333	1529.461914	910.239502
19348.260851	16917.124333	1528.408203	833.777893
19348.260851	16917.124333	1527.354492	1015.998901
19348.260851	16917.124333	1526.299805	1227.765259
19348.260851	16917.124333	1525.246094	1061.054810
19348.260851	16917.124333	1524.191406	504.764252
19348.260851	16917.124333	1523.136719	902.745056
19348.260851	16917.124333	1522.081055	528.231445
19348.260851	16917.124333	1521.026367	654.559631
19348.260851	16917.124333	1519.970703	670.031555
19348.260851	16917.124333	1518.915039	678.857483
19348.260851	16917.124333	1517.859375	375.455933
19348.260851	16917.124333	1516.802734	520.428894
19348.260851	16917.124333	1515.747070	848.771301
19348.260851	16917.124333	1514.690430	561.813721
19348.260851	16917.124333	1513.633789	788.546936
19348.260851	16917.124333	1512.577148	691.975281
19348.260851	16917.124333	1511.519531	552.642822
19348.260851	16917.124333	1510.461914	266.592651
19348.260851	16917.124333	1509.405273	-16.929705
19348.260851	16917.124333	1508.346680	244.371933
19348.260851	16917.124333	1507.289063	128.456085
19348.260851	16917.124333	1506.231445	8.226386
19348.260851	16917.124333	1505.172852	75.635895
19348.260851	16917.124333	1504.114258	156.724731
19348.260851	16917.124333	1503.055664	-211.262650
19348.260851	16917.124333	1501.996094	-188.505585
19348.260851	16917.124333	1500.937500	157.064667
19348.260851	16917.124333	1499.877930	-180.891281
19348.260851	16917.124333	1498.818359	171.632690
19348.260851	16917.124333	1497.757813	314.463623
19348.260851	16917.124333	1496.698242	-97.243118
19348.260851	16917.124333	1495.637695	-35.241760
19348.260851	16917.124333	1494.577148	-70.015152
19348.260851	16917.124333	1493.516602	-264.592407
19348.260851	16917.124333	1492.456055	503.024719
19348.260851	16917.124333	1491.394531	63.234329
19348.260851	16917.124333	1490.333008	276.840088
19348.260851	16917.124333	1489.271484	-90.359093
19348.260851	16917.124333	1488.209961	445.418182
19348.260851	16917.124333	1487.148438	-69.876831
19348.260851	16917.124333	1486.085938	373.762115
19348.260851	16917.124333	1485.023438	270.713989
19348.260851	16917.124333	1483.960938	203.859680
19348.260851	16917.124333	1482.898438	197.917999
19348.260851	16917.124333	1481.834961	372.020721
19348.260851	16917.124333	1480.772461	71.925957
19348.260851	16917.124333	1479.708984	-259.364349
19348.260851	16917.124333	1478.644531	418.521362
19348.260851	16917.124333	1477.581055	62.976910
19348.260851	16917.124333	1476.517578	257.958557
19348.260851	16917.124333	1475.453125	246.577408
19348.260851	16917.124333	1474.388672	35.478359
19348.260851	16917.124333	1473.323242	248.753281
19348.260851	16917.124333	1472.258789	340.995605
19348.260851	16917.124333	1471.193359	406.447876
19348.260851	16917.124333	1470.127930	160.342239
19348.260851	16917.124333	1469.062500	279.936279
19348.260851	16917.124333	1467.997070	171.067780
19348.260851	16917.124333	1466.930664	163.345001
19348.260851	16917.124333	1465.865234	-43.761581
19348.260851	16917.124333	1464.798828	186.306747
19348.260851	16917.124333	1463.731445	230.720123
19348.260851	16917.124333	1462.665039	-52.409370
19348.260851	16917.124333	1461.597656	108.667305
19348.260851	16917.124333	1460.530273	79.928810
19348.260851	16917.124333	1459.462891	495.081879
19348.260851	16917.124333	1458.395508	497.911377
19348.260851	16917.124333	1457.327148	234.403778
19348.260851	16917.124333	1456.259766	313.569641
19348.260851	16917.124333	1455.191406	429.112885
19348.260851	16917.124333	1454.123047	42.030693
19348.260851	16917.124333	1453.053711	284.015167
19348.260851	16917.124333	1451.985352	-13.834535
19348.260851	16917.124333	1450.916016	395.807709
19348.260851	16917.124333	1449.846680	213.401352
19348.260851	16917.124333	1448.776367	125.689796
19348.260851	16917.124333	1447.707031	33.288570
19348.260851	16917.124333	1446.636719	391.060028
19348.260851	16917.124333	1445.566406	256.213013
19348.260851	16917.124333	1444.496094	253.194290
19348.260851	16917.124333	1443.425781	375.196686
19348.260851	16917.124333	1442.354492	30.351152
19348.260851	16917.124333	1441.283203	258.293579
19348.260851	16917.124333	1440.211914	401.681641
19348.260851	16917.124333	1439.140625	281.284302
19348.260851	16917.124333	1438.069336	416.755280
19348.260851	16917.124333	1436.997070	274.864838
19348.260851	16917.124333	1435.924805	266.796906
19348.260851	16917.124333	1434.852539	91.994232
19348.260851	16917.124333	1433.780273	292.848816
19348.260851	16917.124333	1432.707031	434.158691
19348.260851	16917.124333	1431.633789	409.954865
19348.260851	16917.124333	1430.560547	-22.769163
19348.260851	16917.124333	1429.487305	-18.871489
19348.260851	16917.124333	1428.413086	-68.284004
19348.260851	16917.124333	1427.339844	-66.154617
19348.260851	16917.124333	1426.265625	108.634155
19348.260851	16917.124333	1425.191406	-19.106344
19348.260851	16917.124333	1424.116211	23.006943
19348.260851	16917.124333	1423.041992	-35.606659
19348.260851	16917.124333	1421.966797	-296.871613
19348.260851	16917.124333	1420.891602	231.772842
19348.260851	16917.124333	1419.816406	-309.888885
19348.260851	16917.124333	1418.740234	95.444763
19348.260851	16917.124333	1417.665039	-107.933212
19348.260851	16917.124333	1416.588867	10.038342
19348.260851	16917.124333	1415.512695	266.849152
19348.260851	16917.124333	1414.435547	26.559147
19348.260851	16917.124333	1413.359375	279.598846
19348.260851	16917.124333	1412.282227	56.563610
19348.260851	16917.124333	1411.205078	61.257069
19348.260851	16917.124333	1410.127930	8.264284
19348.260851	16917.124333	1409.049805	141.147690
19348.260851	16917.124333	1407.972656	410.334564
19348.260851	16917.124333	1406.894531	67.120659
19348.260851	16917.124333	1405.816406	494.244507
19348.260851	16917.124333	1404.737305	486.196686
19348.260851	16917.124333	1403.659180	461.096832
19348.260851	16917.124333	1402.580078	677.395935
19348.260851	16917.124333	1401.500977	791.595642
19348.260851	16917.124333	1400.421875	495.794617
19348.260851	16917.124333	1399.341797	589.212524
19348.260851	16917.124333	1398.262695	557.332947
19348.260851	16917.124333	1397.182617	488.904907
19348.260851	16917.124333	1396.102539	655.021179
19348.260851	16917.124333	1395.021484	455.700775
19348.260851	16917.124333	1393.941406	579.080566
19348.260851	16917.124333	1392.860352	717.640930
19348.260851	16917.124333	1391.779297	662.985901
19348.260851	16917.124333	1390.698242	564.729675
19348.260851	16917.124333	1389.616211	157.981461
19348.260851	16917.124333	1388.535156	403.517761
19348.260851	16917.124333	1387.453125	577.790649
19348.260851	16917.124333	1386.371094	592.339172
19348.260851	16917.124333	1385.288086	79.741646
19348.260851	16917.124333	1384.206055	266.131104
19348.260851	16917.124333	1383.123047	337.087402
19348.260851	16917.124333	1382.040039	300.820953
19348.260851	16917.124333	1380.957031	314.898987
19348.260851	16917.124333	1379.873047	266.253937
19348.260851	16917.124333	1378.789063	349.375122
19348.260851	16917.124333	1377.705078	179.255554
19348.260851	16917.124333	1376.621094	476.093323
19348.260851	16917.124333	1375.537109	645.391174
19348.260851	16917.124333	1374.452148	510.296783
19348.260851	16917.124333	1373.367188	600.914246
19348.260851	16917.124333	1372.282227	409.314636
19348.260851	16917.124333	1371.197266	555.065186
19348.260851	16917.124333	1370.112305	684.195862
19348.260851	16917.124333	1369.026367	803.528748
19348.260851	16917.124333	1367.940430	710.276672
19348.260851	16917.124333	1366.854492	596.760742
19348.260851	16917.124333	1365.767578	706.715271
19348.260851	16917.124333	1364.681641	651.988403
19348.260851	16917.124333	1363.594727	891.686768
19348.260851	16917.124333	1362.507813	702.052185
19348.260851	16917.124333	1361.419922	473.950043
19348.260851	16917.124333	1360.333008	523.413391
19348.260851	16917.124333	1359.245117	570.112000
19348.260851	16917.124333	1358.157227	738.142761
19348.260851	16917.124333	1357.069336	740.420471
19348.260851	16917.124333	1355.981445	714.500427
19348.260851	16917.124333	1354.892578	1201.881470
19348.260851	16917.124333	1353.803711	683.652283
19348.260851	16917.124333	1352.714844	947.780396
19348.260851	16917.124333	1351.625000	735.993225
19348.260851	16917.124333	1350.536133	906.382935
19348.260851	16917.124333	1349.446289	1041.802246
19348.260851	16917.124333	1348.356445	1032.638306
19348.260851	16917.124333	1347.266602	855.169250
19348.260851	16917.124333	1346.175781	1131.404053
19348.260851	16917.124333	1345.085938	840.398865
19348.260851	16917.124333	1343.995117	847.239685
19348.260851	16917.124333	1342.903320	919.153870
19348.260851	16917.124333	1341.812500	880.261719
19348.260851	16917.124333	1340.720703	864.014648
19348.260851	16917.124333	1339.629883	734.405884
19348.260851	16917.124333	1338.538086	938.896729
19348.260851	16917.124333	1337.445313	932.240051
19348.260851	16917.124333	1336.353516	594.225464
19348.260851	16917.124333	1335.260742	792.730774
19348.260851	16917.124333	1334.167969	984.796570
19348.260851	16917.124333	1333.075195	783.632507
19348.260851	16917.124333	1331.981445	717.599854
19348.260851	16917.124333	1330.888672	945.442932
19348.260851	16917.124333	1329.794922	635.078979
19348.260851	16917.124333	1328.701172	769.146118
19348.260851	16917.124333	1327.606445	675.624878
19348.260851	16917.124333	1326.512695	779.046204
19348.260851	16917.124333	1325.417969	901.056458
19348.260851	16917.124333	1324.323242	1139.330444
19348.260851	16917.124333	1323.227539	732.602905
19348.260851	16917.124333	1322.132813	785.125122
19348.260851	16917.124333	1321.037109	1035.694092
19348.260851	16917.124333	1319.941406	1018.758057
19348.260851	16917.124333	1318.845703	942.716064
19348.260851	16917.124333	1317.750000	780.599976
19348.260851	16917.124333	1316.653320	945.722839
19348.260851	16917.124333	1315.556641	1038.894165
19348.260851	16917.124333	1314.459961	1101.559814
19348.260851	16917.124333	1313.363281	730.435303
19348.260851	16917.124333	1312.265625	760.800659
19348.260851	16917.124333	1311.167969	700.728760
19348.260851	16917.124333	1310.070313	698.728149
19348.260851	16917.124333	1308.972656	541.750610
19348.260851	16917.124333	1307.874023	665.984436
19348.260851	16917.124333	1306.776367	563.779663
19348.260851	16917.124333	1305.677734	452.803253
19348.260851	16917.124333	1304.579102	260.631927
19348.260851	16917.124333	1303.479492	496.510742
19348.260851	16917.124333	1302.380859	485.617615
19348.260851	16917.124333	1301.281250	435.961548
19348.260851	16917.124333	1300.181641	805.953125
19348.260851	16917.124333	1299.081055	564.187134
19348.260851	16917.124333	1297.981445	381.233917
19348.260851	16917.124333	1296.880859	497.702209
19348.260851	16917.124333	1295.780273	497.393219
19348.260851	16917.124333	1294.679688	368.149414
19348.260851	16917.124333	1293.578125	266.456238
19348.260851	16917.124333	1292.476563	293.249573
19348.260851	16917.124333	1291.375000	412.209839
19348.260851	16917.124333	1290.273438	614.990051
19348.260851	16917.124333	1289.171875	260.415192
19348.260851	16917.124333	1288.069336	339.099640
19348.260851	16917.124333	1286.966797	398.731232
19348.260851	16917.124333	1285.864258	215.064606
19348.260851	16917.124333	1284.761719	391.500854
19348.260851	16917.124333	1283.658203	337.185699
19348.260851	16917.124333	1282.554688	401.053040
19348.260851	16917.124333	1281.451172	105.898544
19348.260851	16917.124333	1280.347656	315.543274
19348.260851	16917.124333	1279.244141	278.142273
19348.260851	16917.124333	1278.139648	437.743652
19348.260851	16917.124333	1277.035156	327.738312
19348.260851	16917.124333	1275.930664	443.148529
19348.260851	16917.124333	1274.825195	215.108337
19348.260851	16917.124333	1273.720703	356.678192
19348.260851	16917.124333	1272.615234	394.267944
19348.260851	16917.124333	1271.508789	432.395905
19348.260851	16917.124333	1270.403320	379.054321
19348.260851	16917.124333	1269.297852	415.170135
19348.260851	16917.124333	1268.191406	398.308990
19348.260851	16917.124333	1267.084961	382.213531
19348.260851	16917.124333	1265.977539	267.082153
19348.260851	16917.124333	1264.871094	307.827148
19348.260851	16917.124333	1263.763672	436.608215
19348.260851	16917.124333	1262.656250	501.925842
19348.260851	16917.124333	1261.548828	550.941040
19348.260851	16917.124333	1260.440430	616.276062
19348.260851	16917.124333	1259.333008	623.841370
19348.260851	16917.124333	1258.224609	687.292603
19348.260851	16917.124333	1257.115234	646.277100
19348.260851	16917.124333	1256.006836	783.631348
19348.260851	16917.124333	1254.897461	1043.922852
19348.260851	16917.124333	1253.788086	785.490417
19348.260851	16917.124333	1252.678711	782.832825
19348.260851	16917.124333	1251.569336	775.800720
19348.260851	16917.124333	1250.458984	1004.020020
19348.260851	16917.124333	1249.349609	787.919312
19348.260851	16917.124333	1248.239258	715.452698
19348.260851	16917.124333	1247.127930	859.613220
19348.260851	16917.124333	1246.017578	886.675476
19348.260851	16917.124333	1244.906250	654.989746
19348.260851	16917.124333	1243.794922	825.633301
19348.260851	16917.124333	1242.683594	665.241943
19348.260851	16917.124333	1241.571289	600.933533
19348.260851	16917.124333	1240.459961	622.346313
19348.260851	16917.124333	1239.347656	578.293274
19348.260851	16917.124333	1238.234375	475.359283
19348.260851	16917.124333	1237.122070	588.921021
19348.260851	16917.124333	1236.008789	424.226898
19348.260851	16917.124333	1234.896484	312.517029
19348.260851	16917.124333	1233.782227	643.597717
19348.260851	16917.124333	1232.668945	324.324951
19348.260851	16917.124333	1231.555664	265.314545
19348.260851	16917.124333	1230.441406	277.744751
19348.260851	16917.124333	1229.327148	304.992157
19348.260851	16917.124333	1228.211914	114.188042
19348.260851	16917.124333	1227.097656	5.200144
19348.260851	16917.124333	1225.982422	251.703888
19348.260851	16917.124333	1224.867188	272.058533
19348.260851	16917.124333	1223.751953	108.282837
19348.260851	16917.124333	1222.635742	-6.787098
19348.260851	16917.124333	1221.520508	-20.226341
19348.260851	16917.124333	1220.404297	-123.678276
19348.260851	16917.124333	1219.287109	221.246811
19348.260851	16917.124333	1218.170898	295.753448
19348.260851	16917.124333	1217.053711	159.635513
19348.260851	16917.124333	1215.936523	42.426563
19348.260851	16917.124333	1214.819336	87.879776
19348.260851	16917.124333	1213.702148	174.953415
19348.260851	16917.124333	1212.583984	33.510586
19348.260851	16917.124333	1211.465820	37.333160
19348.260851	16917.124333	1210.347656	-171.198685
19348.260851	16917.124333	1209.229492	0.596000
19348.260851	16917.124333	1208.110352	94.218819
19348.260851	16917.124333	1206.992188	30.527822
19348.260851	16917.124333	1205.873047	230.942841
19348.260851	16917.124333	1204.752930	105.090004
19348.260851	16917.124333	1203.633789	239.630508
19348.260851	16917.124333	1202.513672	239.442810
19348.260851	16917.124333	1201.393555	-119.344894
19348.260851	16917.124333	1200.273438	-179.196091
19348.260851	16917.124333	1199.152344	-43.777561
19348.260851	16917.124333	1198.032227	72.871361
19348.260851	16917.124333	1196.911133	-96.217102
19348.260851	16917.124333	1195.790039	62.187149
19348.260851	16917.124333	1194.667969	97.651505
19348.260851	16917.124333	1193.545898	118.701126
19348.260851	16917.124333	1192.424805	53.640739
19348.260851	16917.124333	1191.301758	-31.184172
19348.260851	16917.124333	1190.179688	97.461937
19348.260851	16917.124333	1189.056641	41.915157
19348.260851	16917.124333	1187.933594	-66.822403
19348.260851	16917.124333	1186.810547	86.408943
19348.260851	16917.124333	1185.687500	49.942730
19348.260851	16917.124333	1184.563477	95.339996
19348.260851	16917.124333	1183.440430	-243.759048
19348.260851	16917.124333	1182.316406	-2.095217
19348.260851	16917.124333	1181.191406	163.737137
19348.260851	16917.124333	1180.067383	-52.412361
19348.260851	16917.124333	1178.942383	-70.378639
19348.260851	16917.124333	1177.817383	233.829376
19348.260851	16917.124333	1176.692383	-4.446876
19348.260851	16917.124333	1175.566406	244.948883
19348.260851	16917.124333	1174.440430	137.929825
19348.260851	16917.124333	1173.314453	-75.057098
19348.260851	16917.124333	1172.188477	108.311996
19348.260851	16917.124333	1171.062500	-117.291328
19348.260851	16917.124333	1169.935547	153.177597
19348.260851	16917.124333	1168.808594	109.878433
19348.260851	16917.124333	1167.681641	154.508194
19348.260851	16917.124333	1166.553711	-48.134769
19348.260851	16917.124333	1165.426758	-208.612915
19348.260851	16917.124333	1164.298828	-182.747238
19348.260851	16917.124333	1163.170898	-267.770203
19348.260851	16917.124333	1162.041992	-364.850525
19348.260851	16917.124333	1160.914063	-232.038284
19348.260851	16917.124333	1159.785156	3.649654
19348.260851	16917.124333	1158.656250	-146.907532
19348.260851	16917.124333	1157.526367	-39.023289
19348.260851	16917.124333	1156.397461	-185.610397
19348.260851	16917.124333	1155.267578	-237.082748
19348.260851	16917.124333	1154.137695	-375.013916
19348.260851	16917.124333	1153.006836	-37.903206
19348.260851	16917.124333	1151.876953	67.309929
19348.260851	16917.124333	1150.746094	-6.997931
19348.260851	16917.124333	1149.615234	-251.175461
19348.260851	16917.124333	1148.484375	-30.828209
19348.260851	16917.124333	1147.352539	-26.334681
19348.260851	16917.124333	1146.220703	-52.355774
19348.260851	16917.124333	1145.088867	-47.725544
19348.260851	16917.124333	1143.957031	3.302035
19348.260851	16917.124333	1142.825195	-13.038713
19348.260851	16917.124333	1141.692383	96.844109
19348.260851	16917.124333	1140.559570	-78.620140
19348.260851	16917.124333	1139.426758	-46.341633
19348.260851	16917.124333	1138.292969	178.800613
19348.260851	16917.124333	1137.159180	-184.580170
19348.260851	16917.124333	1136.025391	-34.609009
19348.260851	16917.124333	1134.891602	209.188751
19348.260851	16917.124333	1133.757813	-128.290405
19348.260851	16917.124333	1132.623047	-78.019547
19348.260851	16917.124333	1131.488281	23.753635
19348.260851	16917.124333	1130.353516	50.199108
19348.260851	16917.124333	1129.217773	262.486176
19348.260851	16917.124333	1128.083008	235.748993
19348.260851	16917.124333	1126.947266	189.333878
19348.260851	16917.124333	1125.811523	475.733795
19348.260851	16917.124333	1124.674805	134.842361
19348.260851	16917.124333	1123.539063	15.815893
19348.260851	16917.124333	1122.402344	77.099724
19348.260851	16917.124333	1121.265625	56.109024
19348.260851	16917.124333	1120.127930	21.608269
19348.260851	16917.124333	1118.990234	24.462013
19348.260851	16917.124333	1117.853516	-94.714874
19348.260851	16917.124333	1116.714844	53.471893
19348.260851	16917.124333	1115.577148	12.235777
19348.260851	16917.124333	1114.439453	35.423168
19348.260851	16917.124333	1113.300781	147.266891
19348.260851	16917.124333	1112.162109	-79.614075
19348.260851	16917.124333	1111.022461	-181.686279
19348.260851	16917.124333	1109.883789	-49.271988
19348.260851	16917.124333	1108.744141	106.898621
19348.260851	16917.124333	1107.604492	146.327637
19348.260851	16917.124333	1106.463867	293.948669
19348.260851	16917.124333	1105.324219	133.729126
19348.260851	16917.124333	1104.183594	33.559361
19348.260851	16917.124333	1103.042969	133.502335
19348.260851	16917.124333	1101.902344	273.646210
19348.260851	16917.124333	1100.760742	355.627411
19348.260851	16917.124333	1099.619141	372.776672
19348.260851	16917.124333	1098.477539	320.309143
19348.260851	16917.124333	1097.335938	386.666565
19348.260851	16917.124333	1096.193359	396.949860
19348.260851	16917.124333	1095.051758	384.575043
19348.260851	16917.124333	1093.909180	347.987976
19348.260851	16917.124333	1092.765625	542.874207
19348.260851	16917.124333	1091.623047	230.449097
19348.260851	16917.124333	1090.479492	307.081818
19348.260851	16917.124333	1089.335938	520.482727
19348.260851	16917.124333	1088.192383	519.544800
19348.260851	16917.124333	1087.047852	483.720093
19348.260851	16917.124333	1085.903320	344.016022
19348.260851	16917.124333	1084.758789	436.561890
19348.260851	16917.124333	1083.614258	518.162781
19348.260851	16917.124333	1082.469727	492.231110
19348.260851	16917.124333	1081.324219	219.960846
19348.260851	16917.124333	1080.178711	-24.341358
19348.260851	16917.124333	1079.033203	141.990921
19348.260851	16917.124333	1077.886719	219.223679
19348.260851	16917.124333	1076.740234	357.042725
19348.260851	16917.124333	1075.593750	89.186745
19348.260851	16917.124333	1074.447266	284.286987
19348.260851	16917.124333	1073.300781	268.328247
19348.260851	16917.124333	1072.153320	243.273499
19348.260851	16917.124333	1071.005859	149.486618
19348.260851	16917.124333	1069.858398	56.235600
19348.260851	16917.124333	1068.709961	127.500824
19348.260851	16917.124333	1067.561523	154.126862
19348.260851	16917.124333	1066.413086	390.024292
19348.260851	16917.124333	1065.264648	348.070526
19348.260851	16917.124333	1064.116211	392.472992
19348.260851	16917.124333	1062.966797	165.354385
19348.260851	16917.124333	1061.817383	358.356445
19348.260851	16917.124333	1060.667969	310.620270
19348.260851	16917.124333	1059.517578	251.914810
19348.260851	16917.124333	1058.368164	-21.292654
19348.260851	16917.124333	1057.217773	310.228668
19348.260851	16917.124333	1056.067383	339.081787
19348.260851	16917.124333	1054.916016	129.515900
19348.260851	16917.124333	1053.764648	187.241638
19348.260851	16917.124333	1052.613281	93.806313
19348.260851	16917.124333	1051.461914	230.310013
19348.260851	16917.124333	1050.310547	375.493439
19348.260851	16917.124333	1049.158203	162.490265
19348.260851	16917.124333	1048.005859	371.460632
19348.260851	16917.124333	1046.853516	22.371782
19348.260851	16917.124333	1045.700195	-74.425957
19348.260851	16917.124333	1044.547852	175.897461
19348.260851	16917.124333	1043.394531	71.692520
19348.260851	16917.124333	1042.240234	-41.464291
19348.260851	16917.124333	1041.086914	126.944908
19348.260851	16917.124333	1039.932617	178.151138
19348.260851	16917.124333	1038.778320	451.402863
19348.260851	16917.124333	1037.624023	274.300171
19348.260851	16917.124333	1036.469727	-112.857597
19348.260851	16917.124333	1035.314453	263.500061
19348.260851	16917.124333	1034.159180	422.158966
19348.260851	16917.124333	1033.003906	480.228943
19348.260851	16917.124333	1031.847656	491.506989
19348.260851	16917.124333	1030.692383	386.797058
19348.260851	16917.124333	1029.536133	495.588989
19348.260851	16917.124333	1028.378906	686.564819
19348.260851	16917.124333	1027.222656	653.372498
19348.260851	16917.124333	1026.065430	476.646149
19348.260851	16917.124333	1024.908203	265.039154
19348.260851	16917.124333	1023.750977	334.288330
19348.260851	16917.124333	1022.593750	78.446884
19348.260851	16917.124333	1021.435547	102.309364
19348.260851	16917.124333	1020.277344	22.015675
19348.260851	16917.124333	1019.119141	52.611217
19348.260851	16917.124333	1017.959961	-97.830315
19348.260851	16917.124333	1016.800781	91.952217
19348.260851	16917.124333	1015.641602	65.924133
19348.260851	16917.124333	1014.482422	171.132782
19348.260851	16917.124333	1013.323242	-78.288559
19348.260851	16917.124333	1012.163086	79.907387
19348.260851	16917.124333	1011.002930	-314.051208
19348.260851	16917.124333	1009.842773	22.423996
19348.260851	16917.124333	1008.681641	137.078201
19348.260851	16917.124333	1007.520508	87.473671
19348.260851	16917.124333	1006.359375	18.704618
19348.260851	16917.124333	1005.198242	216.386719
19348.260851	16917.124333	1004.037109	-88.379959
19348.260851	16917.124333	1002.875000	108.094849
19348.260851	16917.124333	1001.712891	244.527908
19348.260851	16917.124333	1000.550781	343.747803
19348.260851	16917.124333	999.387695	541.688782
19348.260851	16917.124333	998.224609	81.880287
19348.260851	16917.124333	997.061523	275.053162
19348.260851	16917.124333	995.898438	-2.628079
19348.260851	16917.124333	994.734375	98.053864
19348.260851	16917.124333	993.571289	42.165573
19348.260851	16917.124333	992.407227	-80.095116
19348.260851	16917.124333	991.242188	-248.684937
19348.260851	16917.124333	990.078125	60.992203
19348.260851	16917.124333	988.913086	55.100693
19348.260851	16917.124333	987.748047	-69.402031
19348.260851	16917.124333	986.583008	142.773499
19348.260851	16917.124333	985.416992	61.314934
19348.260851	16917.124333	984.250977	194.031387
19348.260851	16917.124333	983.084961	124.089264
19348.260851	16917.124333	981.918945	-9.382177
19348.260851	16917.124333	980.751953	68.441299
19348.260851	16917.124333	979.584961	3.728291
19348.260851	16917.124333	978.417969	108.149078
19348.260851	16917.124333	977.250977	-76.417084
19348.260851	16917.124333	976.083008	-137.886353
19348.260851	16917.124333	974.915039	-54.111511
19348.260851	16917.124333	973.747070	21.980055
19348.260851	16917.124333	972.579102	-39.240242
19348.260851	16917.124333	971.410156	339.416748
19348.260851	16917.124333	970.242188	211.397858
19348.260851	16917.124333	969.072266	9.486584
19348.260851	16917.124333	967.903320	118.126602
19348.260851	16917.124333	966.733398	273.857819
19348.260851	16917.124333	965.563477	18.485867
19348.260851	16917.124333	964.393555	127.907547
19348.260851	16917.124333	963.223633	259.203186
19348.260851	16917.124333	962.052734	-36.360222
19348.260851	16917.124333	960.881836	13.614861
19348.260851	16917.124333	959.710938	129.222443
19348.260851	16917.124333	958.540039	-89.886818
19348.260851	16917.124333	957.368164	-31.428556
19348.260851	16917.124333	956.196289	50.991001
19348.260851	16917.124333	955.024414	164.526367
19348.260851	16917.124333	953.851563	134.555588
19348.260851	16917.124333	952.679688	-225.061554
19348.260851	16917.124333	951.506836	150.534256
19348.260851	16917.124333	950.333984	-66.468178
19348.260851	16917.124333	949.160156	-73.921455
19348.260851	16917.124333	947.986328	-155.800797
19348.260851	16917.124333	946.812500	-29.617722
19348.260851	16917.124333	945.638672	118.815414
19348.260851	16917.124333	944.464844	-34.298088
19348.260851	16917.124333	943.290039	-83.135223
19348.260851	16917.124333	942.115234	3.676559
19348.260851	16917.124333	940.940430	85.666695
19348.260851	16917.124333	939.764648	29.574095
19348.260851	16917.124333	938.588867	-257.095795
19348.260851	16917.124333	937.413086	-25.239388
19348.260851	16917.124333	936.237305	160.399323
19348.260851	16917.124333	935.060547	3.215366
19348.260851	16917.124333	933.883789	12.798211
19348.260851	16917.124333	932.707031	174.126465
19348.260851	16917.124333	931.530273	-108.307594
19348.260851	16917.124333	930.352539	59.390900
19348.260851	16917.124333	929.175781	-16.675055
19348.260851	16917.124333	927.998047	216.907242
19348.260851	16917.124333	926.819336	39.815475
19348.260851	16917.124333	925.641602	352.186005
19348.260851	16917.124333	924.462891	157.536789
19348.260851	16917.124333	923.284180	232.799301
19348.260851	16917.124333	922.104492	95.206055
19348.260851	16917.124333	920.924805	181.360458
19348.260851	16917.124333	919.746094	190.840576
19348.260851	16917.124333	919.551758	429.091766
19348.260851	16917.124333	918.386719	-50.695660
19348.260851	16917.124333	917.220703	0.163763
19348.260851	16917.124333	916.054688	2.753971
19348.260851	16917.124333	914.887695	-75.751328
19348.260851	16917.124333	913.721680	-127.973106
19348.260851	16917.124333	912.554688	-267.810059
19348.260851	16917.124333	911.387695	-87.906685
19348.260851	16917.124333	910.220703	-81.069679
19348.260851	16917.124333	909.052734	11.110826
19348.260851	16917.124333	907.885742	-211.925369
19348.260851	16917.124333	906.717773	265.272339
19348.260851	16917.124333	905.548828	-95.591133
19348.260851	16917.124333	904.380859	83.875336
19348.260851	16917.124333	903.211914	13.962003
19348.260851	16917.124333	902.042969	-108.424675
19348.260851	16917.124333	900.874023	64.289398
19348.260851	16917.124333	899.704102	77.377098
19348.260851	16917.124333	898.535156	118.823524
19348.260851	16917.124333	897.365234	225.762390
19348.260851	16917.124333	896.194336	243.086044
19348.260851	16917.124333	895.024414	15.803175
19348.260851	16917.124333	893.853516	6.900823
19348.260851	16917.124333	892.682617	-108.983925
19348.260851	16917.124333	891.511719	233.414383
19348.260851	16917.124333	890.340820	220.007675
19348.260851	16917.124333	889.168945	101.875145
19348.260851	16917.124333	887.997070	278.179352
19348.260851	16917.124333	886.825195	48.810749
19348.260851	16917.124333	885.653320	-86.758232
19348.260851	16917.124333	884.480469	-189.604797
19348.260851	16917.124333	883.307617	289.379028
19348.260851	16917.124333	882.134766	-279.808899
19348.260851	16917.124333	880.961914	13.778421
19348.260851	16917.124333	879.788086	-8.563304
19348.260851	16917.124333	878.614258	204.221268
19348.260851	16917.124333	877.440430	305.862366
19348.260851	16917.124333	876.266602	-10.454706
19348.260851	16917.124333	875.091797	78.065582
19348.260851	16917.124333	873.916992	-212.034988
19348.260851	16917.124333	872.742188	54.772610
19348.260851	16917.124333	871.567383	-87.402504
19348.260851	16917.124333	870.391602	329.223328
19348.260851	16917.124333	869.215820	-49.960331
19348.260851	16917.124333	868.040039	-55.215500
19348.260851	16917.124333	866.864258	150.262222
19348.260851	16917.124333	865.687500	16.721210
19348.260851	16917.124333	864.510742	206.822601
19348.260851	16917.124333	863.333984	-39.674149
19348.260851	16917.124333	862.157227	39.554890
19348.260851	16917.124333	860.979492	-198.199112
19348.260851	16917.124333	859.802734	-166.796799
19348.260851	16917.124333	858.625000	68.516312
19348.260851	16917.124333	857.446289	58.564014
19348.260851	16917.124333	856.268555	24.708527
19348.260851	16917.124333	855.089844	-145.778320
19348.260851	16917.124333	853.911133	-251.199936
19348.260851	16917.124333	852.731445	-85.671669
19348.260851	16917.124333	851.552734	344.124054
19348.260851	16917.124333	850.373047	-209.955307
19348.260851	16917.124333	849.193359	-226.630997
19348.260851	16917.124333	848.013672	-171.874054
19348.260851	16917.124333	846.833008	-73.872284
19348.260851	16917.124333	845.652344	-8.430821
19348.260851	16917.124333	844.471680	11.487101
19348.260851	16917.124333	843.291016	-126.620811
19348.260851	16917.124333	842.110352	70.629868
19348.260851	16917.124333	840.928711	127.156578
19348.260851	16917.124333	839.747070	123.058693
19348.260851	16917.124333	838.564453	75.677399
19348.260851	16917.124333	837.382813	-23.621939
19348.260851	16917.124333	836.200195	11.079700
19348.260851	16917.124333	835.017578	-25.590822
19348.260851	16917.124333	833.834961	-75.258850
19348.260851	16917.124333	832.651367	-144.390030
19348.260851	16917.124333	831.467773	-42.939407
19348.260851	16917.124333	830.284180	257.055573
19348.260851	16917.124333	829.100586	-43.227726
19348.260851	16917.124333	827.916992	27.772890
19348.260851	16917.124333	826.732422	277.790771
19348.260851	16917.124333	825.547852	221.316391
19348.260851	16917.124333	824.363281	91.480293
19348.260851	16917.124333	823.177734	32.810627
19348.260851	16917.124333	821.992188	-99.190269
19348.260851	16917.124333	820.806641	-106.171150
19348.260851	16917.124333	819.621094	-220.954620
19348.260851	16917.124333	818.434570	45.629910
19348.260851	16917.124333	817.249023	206.490280
19348.260851	16917.124333	816.062500	57.092926
19348.260851	16917.124333	814.875000	79.972542
19348.260851	16917.124333	813.688477	188.896667
19348.260851	16917.124333	812.500977	-10.070913
19348.260851	16917.124333	811.313477	72.894867
19348.260851	16917.124333	810.125977	155.770279
19348.260851	16917.124333	808.937500	51.415001
19348.260851	16917.124333	807.749023	91.138611
19348.260851	16917.124333	806.560547	98.536545
19348.260851	16917.124333	805.372070	159.614380
19348.260851	16917.124333	804.182617	143.239456
19348.260851	16917.124333	802.994141	139.703644
19348.260851	16917.124333	801.803711	-33.609459
19348.260851	16917.124333	800.614258	74.472687
19348.260851	16917.124333	799.424805	261.909180
19348.260851	16917.124333	798.234375	94.942169
19348.260851	16917.124333	797.043945	234.955902
19348.260851	16917.124333	795.852539	168.819382
19348.260851	16917.124333	794.662109	117.667030
19348.260851	16917.124333	793.470703	-90.128265
19348.260851	16917.124333	792.279297	79.595375
19348.260851	16917.124333	791.087891	-57.461048
19348.260851	16917.124333	789.895508	75.620071
19348.260851	16917.124333	788.703125	-48.637894
19348.260851	16917.124333	787.510742	-52.893288
19348.260851	16917.124333	786.318359	129.199448
19348.260851	16917.124333	785.125000	341.151520
19348.260851	16917.124333	783.931641	19.654533
19348.260851	16917.124333	782.738281	357.753265
19348.260851	16917.124333	781.544922	443.025787
19348.260851	16917.124333	780.350586	329.145233
19348.260851	16917.124333	779.156250	208.828842
19348.260851	16917.124333	777.961914	216.871475
19348.260851	16917.124333	776.767578	83.669563
19348.260851	16917.124333	775.572266	65.948845
19348.260851	16917.124333	774.376953	-86.536079
19348.260851	16917.124333	773.181641	128.675720
19348.260851	16917.124333	771.986328	399.303009
19348.260851	16917.124333	770.790039	430.430725
19348.260851	16917.124333	769.593750	128.198502
19348.260851	16917.124333	768.397461	272.448181
19348.260851	16917.124333	767.201172	190.207214
19348.260851	16917.124333	766.003906	112.212708
19348.260851	16917.124333	764.806641	333.036224
19348.260851	16917.124333	763.609375	26.556746
19348.260851	16917.124333	762.412109	383.741241
19348.260851	16917.124333	761.213867	72.988815
19348.260851	16917.124333	760.015625	84.367355
19348.260851	16917.124333	758.817383	59.425888
19348.260851	16917.124333	757.618164	143.166931
19348.260851	16917.124333	756.419922	207.623123
19348.260851	16917.124333	755.220703	-66.849159
19348.260851	16917.124333	754.021484	-60.025402
19348.260851	16917.124333	752.821289	166.149521
19348.260851	16917.124333	751.621094	-18.877108
19348.260851	16917.124333	750.420898	145.320801
19348.260851	16917.124333	749.220703	19.860779
19348.260851	16917.124333	748.020508	-3.440431
19348.260851	16917.124333	746.819336	226.438965
19348.260851	16917.124333	745.618164	124.266891
19348.260851	16917.124333	744.416992	-122.565605
19348.260851	16917.124333	743.214844	-105.648148
19348.260851	16917.124333	742.012695	-10.126658
19348.260851	16917.124333	740.810547	297.874329
19348.260851	16917.124333	739.608398	272.013550
19348.260851	16917.124333	738.406250	526.588318
19348.260851	16917.124333	737.203125	545.190613
19348.260851	16917.124333	736.000000	676.299805
19348.260851	16917.124333	734.795898	730.851501
19348.260851	16917.124333	733.592773	1001.880554
19348.260851	16917.124333	732.388672	943.730164
19348.260851	16917.124333	731.184570	1010.759033
19348.260851	16917.124333	729.979492	710.642883
19348.260851	16917.124333	728.775391	953.657104
19348.260851	16917.124333	727.570313	672.660522
19348.260851	16917.124333	726.365234	398.091949
19348.260851	16917.124333	725.160156	335.585022
19348.260851	16917.124333	723.954102	343.002899
19348.260851	16917.124333	722.748047	310.105042
19348.260851	16917.124333	721.541992	71.659874
19348.260851	16917.124333	720.334961	396.718018
19348.260851	16917.124333	719.128906	219.676880
19348.260851	16917.124333	717.921875	214.168152
19348.260851	16917.124333	716.714844	202.268005
19348.260851	16917.124333	715.506836	90.855133
19348.260851	16917.124333	714.298828	351.863281
19348.260851	16917.124333	713.090820	460.398956
19348.260851	16917.124333	711.882813	243.119400
19348.260851	16917.124333	710.674805	63.955441
19348.260851	16917.124333	709.465820	-68.657639
19348.260851	16917.124333	708.256836	-241.416656
19348.260851	16917.124333	707.047852	-21.054832
19348.260851	16917.124333	705.837891	197.064316
19348.260851	16917.124333	704.627930	-235.580078
19348.260851	16917.124333	703.417969	-159.080551
19348.260851	16917.124333	702.208008	1.820048
19348.260851	16917.124333	700.998047	-46.380924
19348.260851	16917.124333	699.787109	6.722579
19348.260851	16917.124333	698.576172	108.311111
19348.260851	16917.124333	697.364258	-3.260049
19348.260851	16917.124333	696.153320	-180.199280
19348.260851	16917.124333	694.941406	-91.365746
19348.260851	16917.124333	693.729492	-131.207581
19348.260851	16917.124333	692.516602	73.478172
19348.260851	16917.124333	691.304688	46.221668
19348.260851	16917.124333	690.091797	73.745773
19348.260851	16917.124333	688.878906	-170.522491
19348.260851	16917.124333	687.665039	21.293747
19348.260851	16917.124333	686.451172	137.203613
19348.260851	16917.124333	685.237305	84.626724
19348.260851	16917.124333	684.023438	387.793274
19348.260851	16917.124333	682.809570	518.255737
19348.260851	16917.124333	681.594727	368.818817
19348.260851	16917.124333	680.379883	250.993774
19348.260851	16917.124333	679.165039	9.130071
19348.260851	16917.124333	677.949219	200.524658
19348.260851	16917.124333	676.733398	278.317810
19348.260851	16917.124333	675.517578	99.657875
19348.260851	16917.124333	674.301758	332.949097
19348.260851	16917.124333	673.084961	620.771729
19348.260851	16917.124333	671.869141	515.687805
19348.260851	16917.124333	670.651367	990.276245
19348.260851	16917.124333	669.434570	792.797974
19348.260851	16917.124333	668.216797	691.980225
19348.260851	16917.124333	667.000000	1034.051025
19348.260851	16917.124333	665.781250	687.759399
19348.260851	16917.124333	664.563477	589.180847
19348.260851	16917.124333	663.344727	467.593475
19348.260851	16917.124333	662.125977	429.960052
19348.260851	16917.124333	660.907227	369.310059
19348.260851	16917.124333	659.688477	312.905518
19348.260851	16917.124333	658.468750	214.643570
19348.260851	16917.124333	657.249023	219.121796
19348.260851	16917.124333	656.029297	250.865860
19348.260851	16917.124333	654.808594	282.634460
19348.260851	16917.124333	653.587891	-169.252197
19348.260851	16917.124333	652.367188	210.182770
19348.260851	16917.124333	651.146484	296.486664
19348.260851	16917.124333	649.924805	223.769989
19348.260851	16917.124333	648.704102	345.697784
19348.260851	16917.124333	647.482422	250.096176
19348.260851	16917.124333	646.259766	401.352509
19348.260851	16917.124333	645.037109	374.888397
19348.260851	16917.124333	643.815430	95.564735
19348.260851	16917.124333	642.591797	284.556732
19348.260851	16917.124333	641.369141	431.744934
19348.260851	16917.124333	640.145508	133.981537
19348.260851	16917.124333	638.921875	444.186035
19348.260851	16917.124333	637.698242	284.505524
19348.260851	16917.124333	636.474609	154.196442
19348.260851	16917.124333	635.250000	142.993164
19348.260851	16917.124333	634.025391	-22.546303
19348.260851	16917.124333	632.800781	31.133368
19348.260851	16917.124333	631.575195	-96.594536
19348.260851	16917.124333	630.349609	238.792664
19348.260851	16917.124333	629.124023	-30.526613
19348.260851	16917.124333	627.898438	-278.791962
19348.260851	16917.124333	626.671875	8.770686
19348.260851	16917.124333	625.445313	48.349731
19348.260851	16917.124333	624.218750	0.518147
19348.260851	16917.124333	622.992188	2.800067
19348.260851	16917.124333	621.764648	90.567520
19348.260851	16917.124333	620.537109	-92.241356
19348.260851	16917.124333	619.309570	118.542114
19348.260851	16917.124333	618.081055	-38.991009
19348.260851	16917.124333	616.852539	-152.646988
19348.260851	16917.124333	615.624023	-31.071615
19348.260851	16917.124333	614.395508	-140.275909
19348.260851	16917.124333	613.166992	131.203735
19348.260851	16917.124333	611.937500	38.904129
19348.260851	16917.124333	610.708008	329.200165
19348.260851	16917.124333	609.477539	189.375015
19348.260851	16917.124333	608.248047	-95.680473
19348.260851	16917.124333	607.017578	-46.064617
19348.260851	16917.124333	605.787109	-10.860052
19348.260851	16917.124333	604.555664	47.314438
19348.260851	16917.124333	603.325195	14.278474
19348.260851	16917.124333	602.093750	-35.190434
19348.260851	16917.124333	600.861328	-219.345261
19348.260851	16917.124333	599.629883	-150.191376
19348.260851	16917.124333	598.397461	-228.153717
19348.260851	16917.124333	597.165039	119.152893
19348.260851	16917.124333	595.932617	29.053143
19348.260851	16917.124333	594.699219	24.143929
19348.260851	16917.124333	593.465820	164.460358
19348.260851	16917.124333	592.232422	0.338750
19348.260851	16917.124333	590.999023	-78.615059
19348.260851	16917.124333	589.764648	-33.098675
19348.260851	16917.124333	588.530273	118.172325
19348.260851	16917.124333	587.295898	6.668907
19348.260851	16917.124333	586.061523	255.500641
19348.260851	16917.124333	584.826172	71.972298
19348.260851	16917.124333	583.590820	-88.534767
19348.260851	16917.124333	582.355469	-135.028290
19348.260851	16917.124333	581.119141	17.206951
19348.260851	16917.124333	579.882813	-24.760761
19348.260851	16917.124333	578.646484	47.168095
19348.260851	16917.124333	577.410156	137.862518
19348.260851	16917.124333	576.172852	-17.131769
19348.260851	16917.124333	574.935547	49.162807
19348.260851	16917.124333	573.698242	92.915848
19348.260851	16917.124333	572.460938	130.664078
19348.260851	16917.124333	571.222656	77.781723
19348.260851	16917.124333	569.984375	-34.719387
19348.260851	16917.124333	568.746094	257.464844
19348.260851	16917.124333	567.506836	-135.156357
19348.260851	16917.124333	566.267578	37.734798
19348.260851	16917.124333	565.028320	262.317139
19348.260851	16917.124333	563.789063	320.029236
19348.260851	16917.124333	562.548828	66.702873
19348.260851	16917.124333	561.309570	411.313995
19348.260851	16917.124333	560.068359	364.553864
19348.260851	16917.124333	558.828125	235.631058
19348.260851	16917.124333	557.586914	389.136536
19348.260851	16917.124333	556.345703	256.596924
19348.260851	16917.124333	555.104492	455.764496
19348.260851	16917.124333	553.863281	257.854340
19348.260851	16917.124333	552.621094	399.776978
19348.260851	16917.124333	551.378906	389.628204
19348.260851	16917.124333	550.136719	486.659851
19348.260851	16917.124333	548.893555	528.360718
19348.260851	16917.124333	547.650391	666.895996
19348.260851	16917.124333	546.407227	671.989807
19348.260851	16917.124333	545.164063	712.239136
19348.260851	16917.124333	543.919922	454.787231
19348.260851	16917.124333	542.675781	645.473877
19348.260851	16917.124333	541.431641	729.503052
19348.260851	16917.124333	540.186523	867.113770
19348.260851	16917.124333	538.941406	744.174133
19348.260851	16917.124333	537.696289	738.489136
19348.260851	16917.124333	536.451172	845.879456
19348.260851	16917.124333	535.205078	994.480530
19348.260851	16917.124333	533.959961	876.576233
19348.260851	16917.124333	532.712891	1158.830933
19348.260851	16917.124333	531.466797	1219.737671
19348.260851	16917.124333	530.219727	959.024536
19348.260851	16917.124333	528.972656	1153.574585
19348.260851	16917.124333	527.725586	1190.474365
19348.260851	16917.124333	526.478516	1205.023804
19348.260851	16917.124333	525.230469	1146.045288
19348.260851	16917.124333	523.982422	1146.660645
19348.260851	16917.124333	522.734375	1217.063477
19348.260851	16917.124333	521.485352	1281.490112
19348.260851	16917.124333	520.236328	1084.151001
19348.260851	16917.124333	518.987305	1355.557495
19348.260851	16917.124333	517.737305	1592.258057
19348.260851	16917.124333	516.488281	1514.090332
19348.260851	16917.124333	515.238281	1636.487915
19348.260851	16917.124333	513.988281	1675.181030
19348.260851	16917.124333	512.737305	1855.028442
19348.260851	16917.124333	511.486328	1932.782715
19348.260851	16917.124333	510.235352	1894.205322
19348.260851	16917.124333	508.984375	1612.738770
19348.260851	16917.124333	507.732422	2154.397461
19348.260851	16917.124333	506.480469	1934.492920
19348.260851	16917.124333	505.228516	1851.537354
19348.260851	16917.124333	503.976563	2089.079590
19348.260851	16917.124333	502.723633	2416.390869
19348.260851	16917.124333	501.470703	2186.822266
19348.260851	16917.124333	500.217773	2530.445068
19348.260851	16917.124333	498.963867	2441.781982
19348.260851	16917.124333	497.709961	2534.627686
19348.260851	16917.124333	496.456055	2839.422119
19348.260851	16917.124333	495.202148	2757.004883
19348.260851	16917.124333	493.947266	3035.216797
19348.260851	16917.124333	492.692383	3001.730957
19348.260851	16917.124333	491.437500	3245.178711
19348.260851	16917.124333	490.181641	3409.138184
19348.260851	16917.124333	488.926758	3615.731934
19348.260851	16917.124333	487.670898	3877.165039
19348.260851	16917.124333	486.414063	3741.748535
19348.260851	16917.124333	485.158203	3821.918457
19348.260851	16917.124333	483.901367	3810.489258
19348.260851	16917.124333	482.644531	3792.882568
19348.260851	16917.124333	481.386719	4017.081787
19348.260851	16917.124333	480.128906	4165.880371
19348.260851	16917.124333	478.871094	4340.897949
19348.260851	16917.124333	477.613281	4042.394043
19348.260851	16917.124333	476.355469	4529.811523
19348.260851	16917.124333	475.096680	4375.231934
19348.260851	16917.124333	473.837891	4486.455078
19348.260851	16917.124333	472.578125	4558.866699
19348.260851	16917.124333	471.319336	4649.264648
19348.260851	16917.124333	470.059570	4842.847168
19348.260851	16917.124333	468.799805	4841.362793
19348.260851	16917.124333	467.539063	4963.299805
19348.260851	16917.124333	466.278320	4975.391113
19348.260851	16917.124333	465.017578	4928.361816
19348.260851	16917.124333	463.756836	5073.516602
19348.260851	16917.124333	462.495117	5376.277832
19348.260851	16917.124333	461.233398	5259.201172
19348.260851	16917.124333	459.971680	5291.615234
19348.260851	16917.124333	458.709961	5362.036621
19348.260851	16917.124333	457.447266	5355.041992
19348.260851	16917.124333	456.184570	5207.902832
19348.260851	16917.124333	454.921875	5665.312500
19348.260851	16917.124333	453.658203	5587.908203
19348.260851	16917.124333	452.394531	5659.626953
19348.260851	16917.124333	451.130859	6062.335938
19348.260851	16917.124333	449.867188	5799.095215
19348.260851	16917.124333	448.602539	5982.009766
19348.260851	16917.124333	447.337891	6083.313965
19348.260851	16917.124333	446.073242	6111.111328
19348.260851	16917.124333	444.807617	5766.473145
19348.260851	16917.124333	443.542969	6091.662598
19348.260851	16917.124333	442.276367	6082.745117
19348.260851	16917.124333	441.010742	6353.558105
19348.260851	16917.124333	439.744141	6163.212402
19348.260851	16917.124333	438.478516	6228.266602
19348.260851	16917.124333	437.210938	6812.802246
19348.260851	16917.124333	435.944336	6718.397461
19348.260851	16917.124333	434.676758	6461.676270
19348.260851	16917.124333	433.409180	6601.132813
19348.260851	16917.124333	432.141602	6441.100586
19348.260851	16917.124333	430.873047	6735.391113
19348.260851	16917.124333	429.604492	6444.078613
19348.260851	16917.124333	428.335938	6562.552734
19348.260851	16917.124333	427.067383	6707.873535
19348.260851	16917.124333	425.797852	6799.436523
19348.260851	16917.124333	424.528320	6780.871094
19348.260851	16917.124333	423.258789	6525.416504
19348.260851	16917.124333	421.988281	6658.923828
19348.260851	16917.124333	420.717773	6746.585449
19348.260851	16917.124333	419.447266	6595.305664
19348.260851	16917.124333	418.175781	6683.735840
19348.260851	16917.124333	416.905273	6969.481934
19348.260851	16917.124333	415.633789	6756.904297
19348.260851	16917.124333	414.362305	6713.428711
19348.260851	16917.124333	413.089844	6796.685059
19348.260851	16917.124333	411.817383	6512.431152
19348.260851	16917.124333	410.544922	6517.520508
19348.260851	16917.124333	409.272461	7084.756836
19348.260851	16917.124333	407.999023	6894.897949
19348.260851	16917.124333	406.725586	6704.980957
19348.260851	16917.124333	405.452148	6520.962891
19348.260851	16917.124333	404.177734	6727.894531
19348.260851	16917.124333	402.903320	6673.682617
19348.260851	16917.124333	401.628906	6532.873047
19348.260851	16917.124333	400.354492	6664.292480
19348.260851	16917.124333	399.079102	6815.121582
19348.260851	16917.124333	397.803711	6620.619141
19348.260851	16917.124333	396.528320	6780.116699
19348.260851	16917.124333	395.251953	6762.484375
19348.260851	16917.124333	393.976563	6710.028809
19348.260851	16917.124333	392.700195	6666.653809
19348.260851	16917.124333	391.422852	6572.216309
19348.260851	16917.124333	390.145508	6720.895020
19348.260851	16917.124333	388.869141	6410.240723
19348.260851	16917.124333	387.590820	6556.450684
19348.260851	16917.124333	386.313477	6747.333984
19348.260851	16917.124333	385.035156	6690.736816
19348.260851	16917.124333	383.756836	6900.542480
19348.260851	16917.124333	382.478516	6359.203613
19348.260851	16917.124333	381.199219	6275.935059
19348.260851	16917.124333	379.919922	6344.759766
19348.260851	16917.124333	378.640625	6114.098633
19348.260851	16917.124333	377.360352	6412.667969
19348.260851	16917.124333	376.080078	6022.281738
19348.260851	16917.124333	374.799805	6017.130371
19348.260851	16917.124333	373.519531	6143.430176
19348.260851	16917.124333	372.238281	5997.884277
19348.260851	16917.124333	370.957031	6063.367188
19348.260851	16917.124333	369.675781	6034.514160
19348.260851	16917.124333	368.394531	5789.657715
19348.260851	16917.124333	367.112305	5986.536621
19348.260851	16917.124333	365.830078	5730.018066
19348.260851	16917.124333	364.546875	6141.956055
19348.260851	16917.124333	363.264648	5616.408203
19348.260851	16917.124333	361.981445	5565.709961
19348.260851	16917.124333	360.698242	5475.816895
19348.260851	16917.124333	359.414063	5448.030273
19348.260851	16917.124333	358.129883	5181.766602
19348.260851	16917.124333	356.845703	5055.139648
19348.260851	16917.124333	355.561523	5109.707520
19348.260851	16917.124333	354.276367	5006.935547
19348.260851	16917.124333	352.991211	4917.958008
19348.260851	16917.124333	351.706055	5093.137207
19348.260851	16917.124333	350.420898	4844.405762
19348.260851	16917.124333	349.134766	4547.336426
19348.260851	16917.124333	347.848633	4513.915527
19348.260851	16917.124333	346.561523	4443.695313
19348.260851	16917.124333	345.275391	4448.122559
19348.260851	16917.124333	343.988281	4387.646973
19348.260851	16917.124333	342.700195	3952.463867
19348.260851	16917.124333	341.413086	3988.528564
19348.260851	16917.124333	340.125000	3969.154053
19348.260851	16917.124333	338.836914	3747.604492
19348.260851	16917.124333	337.548828	3486.491211
19348.260851	16917.124333	336.259766	3486.865967
19348.260851	16917.124333	334.970703	2773.190430
19348.260851	16917.124333	333.681641	3149.481689
19348.260851	16917.124333	332.391602	2660.679199
19348.260851	16917.124333	331.101563	2519.926758
19348.260851	16917.124333	329.811523	2336.594727
19348.260851	16917.124333	328.521484	2437.295898
19348.260851	16917.124333	327.230469	2257.106689
19348.260851	16917.124333	325.939453	1877.438354
19348.260851	16917.124333	324.648438	1905.810791
19348.260851	16917.124333	323.356445	1662.797485
19348.260851	16917.124333	322.064453	1591.778931
19348.260851	16917.124333	320.772461	1631.129639
19348.260851	16917.124333	319.480469	1491.883423
19348.260851	16917.124333	318.187500	1185.492432
19348.260851	16917.124333	316.894531	1307.086060
19348.260851	16917.124333	315.601563	976.827393
19348.260851	16917.124333	314.307617	761.458679
19348.260851	16917.124333	313.013672	518.803406
19348.260851	16917.124333	311.719727	377.011261
19348.260851	16917.124333	310.425781	592.463318
19348.260851	16917.124333	309.130859	19.447092
19348.260851	16917.124333	307.835938	122.928497
19348.260851	16917.124333	306.541016	-240.162888
19348.260851	16917.124333	305.245117	6.878863
19348.260851	16917.124333	303.949219	-27.623331
19348.260851	16917.124333	302.653320	111.737991
19348.260851	16917.124333	301.356445	47.647602
19348.260851	16917.124333	300.060547	-29.944523
19348.260851	16917.124333	298.763672	-13.805424
