#X		#Y		#Wave		#Intensity
2685.953032	17481.916333	2000.043945	-119.219002
2685.953032	17481.916333	1999.080078	-110.537148
2685.953032	17481.916333	1998.116211	35.156811
2685.953032	17481.916333	1997.151367	-123.866455
2685.953032	17481.916333	1996.186523	41.893394
2685.953032	17481.916333	1995.222656	106.164764
2685.953032	17481.916333	1994.256836	-94.468704
2685.953032	17481.916333	1993.291992	207.794098
2685.953032	17481.916333	1992.327148	-39.571171
2685.953032	17481.916333	1991.361328	92.011421
2685.953032	17481.916333	1990.395508	23.188568
2685.953032	17481.916333	1989.429688	209.372421
2685.953032	17481.916333	1988.463867	22.015282
2685.953032	17481.916333	1987.497070	101.973228
2685.953032	17481.916333	1986.531250	-55.420979
2685.953032	17481.916333	1985.564453	-84.085976
2685.953032	17481.916333	1984.597656	13.427672
2685.953032	17481.916333	1983.630859	249.404831
2685.953032	17481.916333	1982.664063	223.420502
2685.953032	17481.916333	1981.696289	-5.086083
2685.953032	17481.916333	1980.728516	58.066021
2685.953032	17481.916333	1979.761719	175.599533
2685.953032	17481.916333	1978.792969	9.169988
2685.953032	17481.916333	1977.825195	247.773682
2685.953032	17481.916333	1976.857422	-64.132919
2685.953032	17481.916333	1975.888672	70.849335
2685.953032	17481.916333	1974.919922	65.178841
2685.953032	17481.916333	1973.951172	69.425568
2685.953032	17481.916333	1972.982422	127.981834
2685.953032	17481.916333	1972.013672	-131.586136
2685.953032	17481.916333	1971.043945	57.751308
2685.953032	17481.916333	1970.075195	-332.295807
2685.953032	17481.916333	1969.105469	123.279411
2685.953032	17481.916333	1968.135742	144.982468
2685.953032	17481.916333	1967.165039	144.528992
2685.953032	17481.916333	1966.195313	114.536270
2685.953032	17481.916333	1965.224609	151.079086
2685.953032	17481.916333	1964.253906	113.751015
2685.953032	17481.916333	1963.283203	113.384552
2685.953032	17481.916333	1962.312500	-14.973856
2685.953032	17481.916333	1961.341797	137.302383
2685.953032	17481.916333	1960.370117	-27.900612
2685.953032	17481.916333	1959.399414	153.861847
2685.953032	17481.916333	1958.427734	79.743286
2685.953032	17481.916333	1957.455078	79.436974
2685.953032	17481.916333	1956.483398	-88.075180
2685.953032	17481.916333	1955.511719	71.447762
2685.953032	17481.916333	1954.539063	169.459656
2685.953032	17481.916333	1953.566406	92.946243
2685.953032	17481.916333	1952.593750	-10.572820
2685.953032	17481.916333	1951.621094	104.576508
2685.953032	17481.916333	1950.647461	-21.028688
2685.953032	17481.916333	1949.674805	74.413284
2685.953032	17481.916333	1948.701172	-36.432816
2685.953032	17481.916333	1947.727539	81.043083
2685.953032	17481.916333	1946.753906	151.825790
2685.953032	17481.916333	1945.780273	75.332802
2685.953032	17481.916333	1944.805664	40.557377
2685.953032	17481.916333	1943.831055	-332.733917
2685.953032	17481.916333	1942.856445	-139.379318
2685.953032	17481.916333	1941.881836	112.729218
2685.953032	17481.916333	1940.907227	-7.922256
2685.953032	17481.916333	1939.932617	-5.999032
2685.953032	17481.916333	1938.957031	162.544998
2685.953032	17481.916333	1937.981445	44.320511
2685.953032	17481.916333	1937.005859	100.045128
2685.953032	17481.916333	1936.030273	89.586922
2685.953032	17481.916333	1935.054688	61.959469
2685.953032	17481.916333	1934.078125	34.309490
2685.953032	17481.916333	1933.101563	50.700111
2685.953032	17481.916333	1932.125000	167.396973
2685.953032	17481.916333	1931.148438	-2.287363
2685.953032	17481.916333	1930.171875	43.352242
2685.953032	17481.916333	1929.194336	-207.040466
2685.953032	17481.916333	1928.217773	-2.487036
2685.953032	17481.916333	1927.240234	-91.472542
2685.953032	17481.916333	1926.262695	-124.235168
2685.953032	17481.916333	1925.284180	-34.810909
2685.953032	17481.916333	1924.306641	25.211700
2685.953032	17481.916333	1923.328125	46.075890
2685.953032	17481.916333	1922.350586	-152.974625
2685.953032	17481.916333	1921.372070	-68.667442
2685.953032	17481.916333	1920.392578	267.092346
2685.953032	17481.916333	1919.414063	65.538033
2685.953032	17481.916333	1918.434570	88.595146
2685.953032	17481.916333	1917.456055	-178.840714
2685.953032	17481.916333	1916.476563	-182.682037
2685.953032	17481.916333	1915.497070	13.488938
2685.953032	17481.916333	1914.516602	-34.389442
2685.953032	17481.916333	1913.537109	49.397247
2685.953032	17481.916333	1912.556641	211.132462
2685.953032	17481.916333	1911.576172	-2.682756
2685.953032	17481.916333	1910.595703	-19.034241
2685.953032	17481.916333	1909.615234	113.227928
2685.953032	17481.916333	1908.633789	-181.007919
2685.953032	17481.916333	1907.653320	-19.635098
2685.953032	17481.916333	1906.671875	-77.583542
2685.953032	17481.916333	1905.690430	193.188217
2685.953032	17481.916333	1904.708984	239.809631
2685.953032	17481.916333	1903.727539	-20.358353
2685.953032	17481.916333	1902.745117	279.294983
2685.953032	17481.916333	1901.762695	140.775253
2685.953032	17481.916333	1900.780273	94.704117
2685.953032	17481.916333	1899.797852	-92.489075
2685.953032	17481.916333	1898.815430	-12.146472
2685.953032	17481.916333	1897.832031	70.540672
2685.953032	17481.916333	1896.849609	-4.880209
2685.953032	17481.916333	1895.866211	-36.578415
2685.953032	17481.916333	1894.882813	65.337814
2685.953032	17481.916333	1893.898438	-170.574936
2685.953032	17481.916333	1892.915039	174.140457
2685.953032	17481.916333	1891.930664	117.911880
2685.953032	17481.916333	1890.947266	68.932045
2685.953032	17481.916333	1889.962891	36.905991
2685.953032	17481.916333	1888.977539	342.248291
2685.953032	17481.916333	1887.993164	-39.425148
2685.953032	17481.916333	1887.007813	-146.815872
2685.953032	17481.916333	1886.023438	-31.024530
2685.953032	17481.916333	1885.038086	-48.748989
2685.953032	17481.916333	1884.051758	35.328671
2685.953032	17481.916333	1883.066406	-144.980713
2685.953032	17481.916333	1882.081055	-27.097586
2685.953032	17481.916333	1881.094727	-45.056862
2685.953032	17481.916333	1880.108398	72.638634
2685.953032	17481.916333	1879.122070	13.353880
2685.953032	17481.916333	1878.135742	157.515381
2685.953032	17481.916333	1877.148438	117.485420
2685.953032	17481.916333	1876.162109	271.133331
2685.953032	17481.916333	1875.174805	17.913376
2685.953032	17481.916333	1874.187500	-36.783329
2685.953032	17481.916333	1873.199219	0.442370
2685.953032	17481.916333	1872.211914	-51.939125
2685.953032	17481.916333	1871.223633	-22.111731
2685.953032	17481.916333	1870.236328	109.232117
2685.953032	17481.916333	1869.248047	-27.981390
2685.953032	17481.916333	1868.258789	-136.195084
2685.953032	17481.916333	1867.270508	-53.452572
2685.953032	17481.916333	1866.282227	-14.313944
2685.953032	17481.916333	1865.292969	19.908520
2685.953032	17481.916333	1864.303711	27.473738
2685.953032	17481.916333	1863.314453	-71.320694
2685.953032	17481.916333	1862.324219	39.975441
2685.953032	17481.916333	1861.334961	-109.628960
2685.953032	17481.916333	1860.344727	-10.575084
2685.953032	17481.916333	1859.354492	6.301582
2685.953032	17481.916333	1858.364258	175.147263
2685.953032	17481.916333	1857.374023	150.825943
2685.953032	17481.916333	1856.383789	230.181137
2685.953032	17481.916333	1855.392578	63.405708
2685.953032	17481.916333	1854.401367	77.490685
2685.953032	17481.916333	1853.410156	-86.922600
2685.953032	17481.916333	1852.418945	-92.239708
2685.953032	17481.916333	1851.426758	-49.425224
2685.953032	17481.916333	1850.435547	31.861271
2685.953032	17481.916333	1849.443359	52.808933
2685.953032	17481.916333	1848.451172	201.346664
2685.953032	17481.916333	1847.458984	123.365768
2685.953032	17481.916333	1846.466797	86.277107
2685.953032	17481.916333	1845.473633	90.053154
2685.953032	17481.916333	1844.480469	-12.156236
2685.953032	17481.916333	1843.487305	111.819550
2685.953032	17481.916333	1842.494141	31.152092
2685.953032	17481.916333	1841.500977	181.386993
2685.953032	17481.916333	1840.506836	40.452419
2685.953032	17481.916333	1839.513672	96.692253
2685.953032	17481.916333	1838.519531	3.762835
2685.953032	17481.916333	1837.525391	360.318420
2685.953032	17481.916333	1836.530273	178.290771
2685.953032	17481.916333	1835.536133	229.348572
2685.953032	17481.916333	1834.541016	-0.789940
2685.953032	17481.916333	1833.545898	110.175285
2685.953032	17481.916333	1832.550781	204.209763
2685.953032	17481.916333	1831.555664	70.019211
2685.953032	17481.916333	1830.560547	84.645309
2685.953032	17481.916333	1829.564453	-20.830311
2685.953032	17481.916333	1828.568359	221.626144
2685.953032	17481.916333	1827.572266	144.797546
2685.953032	17481.916333	1826.576172	-68.819366
2685.953032	17481.916333	1825.580078	34.159863
2685.953032	17481.916333	1824.583008	45.889698
2685.953032	17481.916333	1823.585938	-249.352524
2685.953032	17481.916333	1822.588867	9.164294
2685.953032	17481.916333	1821.591797	164.446671
2685.953032	17481.916333	1820.594727	312.399536
2685.953032	17481.916333	1819.596680	24.182821
2685.953032	17481.916333	1818.599609	97.686508
2685.953032	17481.916333	1817.601563	192.626236
2685.953032	17481.916333	1816.603516	28.853113
2685.953032	17481.916333	1815.604492	315.110718
2685.953032	17481.916333	1814.606445	182.321915
2685.953032	17481.916333	1813.607422	-36.656723
2685.953032	17481.916333	1812.608398	-11.595844
2685.953032	17481.916333	1811.609375	77.958313
2685.953032	17481.916333	1810.610352	14.323761
2685.953032	17481.916333	1809.610352	91.702599
2685.953032	17481.916333	1808.611328	-223.114197
2685.953032	17481.916333	1807.611328	-7.256352
2685.953032	17481.916333	1806.611328	65.040146
2685.953032	17481.916333	1805.610352	151.550308
2685.953032	17481.916333	1804.610352	-48.729153
2685.953032	17481.916333	1803.609375	87.750084
2685.953032	17481.916333	1802.608398	126.178146
2685.953032	17481.916333	1801.607422	-236.616211
2685.953032	17481.916333	1800.606445	-131.481964
2685.953032	17481.916333	1799.605469	171.618637
2685.953032	17481.916333	1798.603516	138.043976
2685.953032	17481.916333	1797.601563	197.436768
2685.953032	17481.916333	1796.599609	127.906052
2685.953032	17481.916333	1795.597656	-115.788765
2685.953032	17481.916333	1794.595703	55.409611
2685.953032	17481.916333	1793.592773	109.626724
2685.953032	17481.916333	1792.589844	89.838722
2685.953032	17481.916333	1791.587891	289.217407
2685.953032	17481.916333	1790.583984	111.952103
2685.953032	17481.916333	1789.581055	103.803017
2685.953032	17481.916333	1788.577148	147.951660
2685.953032	17481.916333	1787.574219	44.355701
2685.953032	17481.916333	1786.570313	88.306641
2685.953032	17481.916333	1785.566406	244.022461
2685.953032	17481.916333	1784.561523	135.401382
2685.953032	17481.916333	1783.557617	155.224060
2685.953032	17481.916333	1782.552734	48.844776
2685.953032	17481.916333	1781.547852	51.822693
2685.953032	17481.916333	1780.542969	121.288368
2685.953032	17481.916333	1779.538086	214.405563
2685.953032	17481.916333	1778.532227	157.612976
2685.953032	17481.916333	1777.527344	409.733429
2685.953032	17481.916333	1776.521484	255.297791
2685.953032	17481.916333	1775.515625	103.194946
2685.953032	17481.916333	1774.508789	138.699158
2685.953032	17481.916333	1773.502930	164.597885
2685.953032	17481.916333	1772.496094	0.414440
2685.953032	17481.916333	1771.489258	315.753906
2685.953032	17481.916333	1770.482422	170.389450
2685.953032	17481.916333	1769.475586	179.233902
2685.953032	17481.916333	1768.467773	116.779732
2685.953032	17481.916333	1767.460938	-92.823128
2685.953032	17481.916333	1766.453125	74.658516
2685.953032	17481.916333	1765.445313	66.491432
2685.953032	17481.916333	1764.437500	-10.532603
2685.953032	17481.916333	1763.428711	54.585262
2685.953032	17481.916333	1762.420898	-6.026511
2685.953032	17481.916333	1761.412109	212.877991
2685.953032	17481.916333	1760.403320	0.415669
2685.953032	17481.916333	1759.393555	-62.856373
2685.953032	17481.916333	1758.384766	82.202835
2685.953032	17481.916333	1757.375000	-61.776787
2685.953032	17481.916333	1756.366211	-25.880415
2685.953032	17481.916333	1755.356445	-151.062485
2685.953032	17481.916333	1754.345703	-37.307842
2685.953032	17481.916333	1753.335938	-18.330946
2685.953032	17481.916333	1752.325195	-183.989136
2685.953032	17481.916333	1751.315430	-84.793350
2685.953032	17481.916333	1750.304688	-94.527092
2685.953032	17481.916333	1749.292969	-113.834343
2685.953032	17481.916333	1748.282227	126.778488
2685.953032	17481.916333	1747.270508	38.685524
2685.953032	17481.916333	1746.259766	0.150305
2685.953032	17481.916333	1745.248047	-128.262024
2685.953032	17481.916333	1744.235352	-157.545990
2685.953032	17481.916333	1743.223633	-99.541924
2685.953032	17481.916333	1742.211914	85.824554
2685.953032	17481.916333	1741.199219	-227.077621
2685.953032	17481.916333	1740.186523	-108.071815
2685.953032	17481.916333	1739.173828	-166.194214
2685.953032	17481.916333	1738.160156	86.996101
2685.953032	17481.916333	1737.147461	19.203991
2685.953032	17481.916333	1736.133789	10.271210
2685.953032	17481.916333	1735.120117	-111.944389
2685.953032	17481.916333	1734.106445	-106.924271
2685.953032	17481.916333	1733.091797	29.959543
2685.953032	17481.916333	1732.078125	169.050644
2685.953032	17481.916333	1731.063477	53.511131
2685.953032	17481.916333	1730.048828	-33.826973
2685.953032	17481.916333	1729.034180	123.692627
2685.953032	17481.916333	1728.019531	90.311195
2685.953032	17481.916333	1727.003906	-93.854599
2685.953032	17481.916333	1725.988281	303.328522
2685.953032	17481.916333	1724.972656	184.865479
2685.953032	17481.916333	1723.957031	12.220267
2685.953032	17481.916333	1722.941406	138.291412
2685.953032	17481.916333	1721.924805	87.788910
2685.953032	17481.916333	1720.909180	-26.281181
2685.953032	17481.916333	1719.892578	2.984302
2685.953032	17481.916333	1718.875977	175.518219
2685.953032	17481.916333	1717.858398	91.688408
2685.953032	17481.916333	1716.841797	59.490051
2685.953032	17481.916333	1715.824219	327.889038
2685.953032	17481.916333	1714.806641	170.932938
2685.953032	17481.916333	1713.789063	2.186404
2685.953032	17481.916333	1712.770508	256.009003
2685.953032	17481.916333	1711.752930	314.798340
2685.953032	17481.916333	1710.734375	56.587757
2685.953032	17481.916333	1709.715820	162.090378
2685.953032	17481.916333	1708.697266	297.943207
2685.953032	17481.916333	1707.678711	210.792953
2685.953032	17481.916333	1706.659180	243.159866
2685.953032	17481.916333	1705.640625	477.074585
2685.953032	17481.916333	1704.621094	300.513702
2685.953032	17481.916333	1703.600586	189.525070
2685.953032	17481.916333	1702.581055	237.842163
2685.953032	17481.916333	1701.561523	279.004578
2685.953032	17481.916333	1700.541016	542.569092
2685.953032	17481.916333	1699.520508	370.294830
2685.953032	17481.916333	1698.500000	560.936157
2685.953032	17481.916333	1697.478516	365.082794
2685.953032	17481.916333	1696.458008	663.113953
2685.953032	17481.916333	1695.436523	635.606079
2685.953032	17481.916333	1694.415039	577.584595
2685.953032	17481.916333	1693.393555	741.723755
2685.953032	17481.916333	1692.372070	765.357910
2685.953032	17481.916333	1691.349609	828.616455
2685.953032	17481.916333	1690.327148	700.026123
2685.953032	17481.916333	1689.304688	917.347107
2685.953032	17481.916333	1688.282227	942.833862
2685.953032	17481.916333	1687.259766	748.559143
2685.953032	17481.916333	1686.236328	958.410706
2685.953032	17481.916333	1685.213867	1205.471069
2685.953032	17481.916333	1684.190430	1195.427124
2685.953032	17481.916333	1683.166016	1056.848633
2685.953032	17481.916333	1682.142578	1140.015869
2685.953032	17481.916333	1681.119141	1113.351563
2685.953032	17481.916333	1680.094727	1149.586792
2685.953032	17481.916333	1679.070313	1022.392029
2685.953032	17481.916333	1678.045898	927.804932
2685.953032	17481.916333	1677.020508	1224.948975
2685.953032	17481.916333	1675.996094	962.278381
2685.953032	17481.916333	1674.970703	1179.843872
2685.953032	17481.916333	1673.945313	963.689636
2685.953032	17481.916333	1672.919922	1139.032959
2685.953032	17481.916333	1671.893555	1172.068237
2685.953032	17481.916333	1670.868164	1200.356079
2685.953032	17481.916333	1669.841797	1119.054077
2685.953032	17481.916333	1668.815430	1244.938965
2685.953032	17481.916333	1667.789063	1244.961670
2685.953032	17481.916333	1666.761719	1040.036133
2685.953032	17481.916333	1665.735352	1265.662109
2685.953032	17481.916333	1664.708008	1349.156616
2685.953032	17481.916333	1663.680664	1283.642578
2685.953032	17481.916333	1662.653320	1259.931396
2685.953032	17481.916333	1661.625000	1391.929810
2685.953032	17481.916333	1660.597656	1593.560303
2685.953032	17481.916333	1659.569336	1574.173340
2685.953032	17481.916333	1658.541016	1454.772339
2685.953032	17481.916333	1657.512695	1660.647095
2685.953032	17481.916333	1656.483398	1752.500854
2685.953032	17481.916333	1655.455078	1832.643921
2685.953032	17481.916333	1654.425781	1712.933716
2685.953032	17481.916333	1653.396484	1901.998047
2685.953032	17481.916333	1652.366211	2146.604248
2685.953032	17481.916333	1651.336914	2031.305420
2685.953032	17481.916333	1650.306641	2045.902832
2685.953032	17481.916333	1649.276367	2181.061768
2685.953032	17481.916333	1648.246094	2160.677002
2685.953032	17481.916333	1647.215820	2188.927979
2685.953032	17481.916333	1646.185547	2228.687744
2685.953032	17481.916333	1645.154297	2655.491211
2685.953032	17481.916333	1644.123047	2611.537109
2685.953032	17481.916333	1643.091797	2810.854736
2685.953032	17481.916333	1642.060547	2525.785156
2685.953032	17481.916333	1641.028320	2724.882080
2685.953032	17481.916333	1639.997070	2659.826172
2685.953032	17481.916333	1638.964844	2729.012451
2685.953032	17481.916333	1637.931641	2668.435547
2685.953032	17481.916333	1636.899414	2746.722168
2685.953032	17481.916333	1635.867188	2887.398682
2685.953032	17481.916333	1634.833984	3296.337158
2685.953032	17481.916333	1633.800781	3200.745850
2685.953032	17481.916333	1632.767578	3165.266602
2685.953032	17481.916333	1631.734375	3791.102051
2685.953032	17481.916333	1630.700195	3706.832520
2685.953032	17481.916333	1629.666016	3994.698242
2685.953032	17481.916333	1628.631836	4243.106934
2685.953032	17481.916333	1627.597656	4385.076660
2685.953032	17481.916333	1626.563477	4612.414063
2685.953032	17481.916333	1625.528320	4537.012207
2685.953032	17481.916333	1624.493164	4706.374512
2685.953032	17481.916333	1623.458008	4884.858398
2685.953032	17481.916333	1622.422852	4779.291016
2685.953032	17481.916333	1621.387695	4906.819824
2685.953032	17481.916333	1620.351563	5228.062988
2685.953032	17481.916333	1619.315430	5138.481445
2685.953032	17481.916333	1618.279297	5364.896973
2685.953032	17481.916333	1617.243164	5201.439453
2685.953032	17481.916333	1616.207031	5067.981934
2685.953032	17481.916333	1615.169922	5533.883789
2685.953032	17481.916333	1614.132813	5946.555664
2685.953032	17481.916333	1613.095703	5785.242676
2685.953032	17481.916333	1612.058594	6091.653809
2685.953032	17481.916333	1611.020508	5716.062988
2685.953032	17481.916333	1609.983398	5985.453613
2685.953032	17481.916333	1608.945313	5957.655762
2685.953032	17481.916333	1607.907227	5761.782227
2685.953032	17481.916333	1606.868164	5634.986816
2685.953032	17481.916333	1605.830078	5501.333496
2685.953032	17481.916333	1604.791016	5728.906738
2685.953032	17481.916333	1603.751953	5696.432617
2685.953032	17481.916333	1602.712891	5611.048828
2685.953032	17481.916333	1601.673828	5132.475586
2685.953032	17481.916333	1600.633789	4964.413086
2685.953032	17481.916333	1599.594727	5375.649902
2685.953032	17481.916333	1598.554688	5157.013184
2685.953032	17481.916333	1597.513672	4965.997070
2685.953032	17481.916333	1596.473633	5142.614746
2685.953032	17481.916333	1595.433594	5300.776855
2685.953032	17481.916333	1594.392578	4836.552246
2685.953032	17481.916333	1593.351563	5332.162598
2685.953032	17481.916333	1592.310547	5242.246094
2685.953032	17481.916333	1591.268555	5138.568848
2685.953032	17481.916333	1590.227539	5457.140625
2685.953032	17481.916333	1589.185547	5192.872070
2685.953032	17481.916333	1588.143555	5015.864746
2685.953032	17481.916333	1587.100586	5175.999512
2685.953032	17481.916333	1586.058594	5122.873535
2685.953032	17481.916333	1585.015625	4989.523926
2685.953032	17481.916333	1583.972656	4867.689941
2685.953032	17481.916333	1582.929688	4816.946777
2685.953032	17481.916333	1581.886719	4610.448730
2685.953032	17481.916333	1580.843750	4433.818359
2685.953032	17481.916333	1579.799805	4408.391113
2685.953032	17481.916333	1578.755859	4092.211426
2685.953032	17481.916333	1577.711914	4353.031738
2685.953032	17481.916333	1576.666992	3906.544189
2685.953032	17481.916333	1575.623047	3975.125244
2685.953032	17481.916333	1574.578125	4094.008789
2685.953032	17481.916333	1573.533203	3970.414795
2685.953032	17481.916333	1572.488281	3926.932617
2685.953032	17481.916333	1571.443359	3908.643799
2685.953032	17481.916333	1570.397461	4048.102539
2685.953032	17481.916333	1569.351563	4020.693848
2685.953032	17481.916333	1568.305664	4071.018799
2685.953032	17481.916333	1567.259766	4185.327637
2685.953032	17481.916333	1566.213867	4114.607910
2685.953032	17481.916333	1565.166992	3993.689697
2685.953032	17481.916333	1564.120117	3948.205322
2685.953032	17481.916333	1563.073242	4169.872070
2685.953032	17481.916333	1562.026367	4249.985840
2685.953032	17481.916333	1560.978516	4113.304199
2685.953032	17481.916333	1559.930664	4412.490234
2685.953032	17481.916333	1558.883789	4259.978027
2685.953032	17481.916333	1557.834961	4166.828613
2685.953032	17481.916333	1556.787109	4251.641113
2685.953032	17481.916333	1555.739258	4010.474365
2685.953032	17481.916333	1554.690430	3846.931396
2685.953032	17481.916333	1553.641602	3476.136963
2685.953032	17481.916333	1552.592773	3647.795898
2685.953032	17481.916333	1551.542969	3577.969238
2685.953032	17481.916333	1550.494141	3467.257324
2685.953032	17481.916333	1549.444336	3320.199951
2685.953032	17481.916333	1548.394531	3537.517334
2685.953032	17481.916333	1547.344727	3347.390625
2685.953032	17481.916333	1546.293945	3546.525879
2685.953032	17481.916333	1545.244141	3445.344971
2685.953032	17481.916333	1544.193359	3735.519287
2685.953032	17481.916333	1543.142578	3880.094727
2685.953032	17481.916333	1542.090820	3642.657959
2685.953032	17481.916333	1541.040039	3671.406250
2685.953032	17481.916333	1539.988281	3509.271240
2685.953032	17481.916333	1538.936523	3406.366699
2685.953032	17481.916333	1537.884766	3167.262695
2685.953032	17481.916333	1536.833008	2946.511963
2685.953032	17481.916333	1535.780273	3148.356201
2685.953032	17481.916333	1534.727539	3000.513916
2685.953032	17481.916333	1533.674805	2489.577393
2685.953032	17481.916333	1532.622070	2394.313721
2685.953032	17481.916333	1531.569336	1913.386719
2685.953032	17481.916333	1530.515625	1922.819580
2685.953032	17481.916333	1529.461914	1612.487305
2685.953032	17481.916333	1528.408203	1547.327148
2685.953032	17481.916333	1527.354492	1348.506958
2685.953032	17481.916333	1526.299805	1249.603027
2685.953032	17481.916333	1525.246094	1275.532227
2685.953032	17481.916333	1524.191406	1065.850098
2685.953032	17481.916333	1523.136719	1286.862671
2685.953032	17481.916333	1522.081055	1152.218750
2685.953032	17481.916333	1521.026367	1158.182373
2685.953032	17481.916333	1519.970703	953.645569
2685.953032	17481.916333	1518.915039	1016.458862
2685.953032	17481.916333	1517.859375	909.598450
2685.953032	17481.916333	1516.802734	968.091064
2685.953032	17481.916333	1515.747070	1361.574097
2685.953032	17481.916333	1514.690430	924.771118
2685.953032	17481.916333	1513.633789	890.861938
2685.953032	17481.916333	1512.577148	710.106140
2685.953032	17481.916333	1511.519531	861.884277
2685.953032	17481.916333	1510.461914	875.844727
2685.953032	17481.916333	1509.405273	596.150757
2685.953032	17481.916333	1508.346680	1186.590454
2685.953032	17481.916333	1507.289063	740.027405
2685.953032	17481.916333	1506.231445	740.987183
2685.953032	17481.916333	1505.172852	992.730103
2685.953032	17481.916333	1504.114258	711.684814
2685.953032	17481.916333	1503.055664	893.642029
2685.953032	17481.916333	1501.996094	653.620239
2685.953032	17481.916333	1500.937500	630.474060
2685.953032	17481.916333	1499.877930	896.229309
2685.953032	17481.916333	1498.818359	783.103088
2685.953032	17481.916333	1497.757813	672.411255
2685.953032	17481.916333	1496.698242	679.173279
2685.953032	17481.916333	1495.637695	320.896545
2685.953032	17481.916333	1494.577148	183.781906
2685.953032	17481.916333	1493.516602	116.729317
2685.953032	17481.916333	1492.456055	223.332092
2685.953032	17481.916333	1491.394531	246.700027
2685.953032	17481.916333	1490.333008	324.267670
2685.953032	17481.916333	1489.271484	57.493511
2685.953032	17481.916333	1488.209961	-150.483246
2685.953032	17481.916333	1487.148438	-11.619149
2685.953032	17481.916333	1486.085938	-12.163994
2685.953032	17481.916333	1485.023438	-8.038579
2685.953032	17481.916333	1483.960938	83.977287
2685.953032	17481.916333	1482.898438	304.308838
2685.953032	17481.916333	1481.834961	12.090741
2685.953032	17481.916333	1480.772461	201.222183
2685.953032	17481.916333	1479.708984	406.174286
2685.953032	17481.916333	1478.644531	611.196960
2685.953032	17481.916333	1477.581055	647.858337
2685.953032	17481.916333	1476.517578	922.670288
2685.953032	17481.916333	1475.453125	1226.725342
2685.953032	17481.916333	1474.388672	1405.107910
2685.953032	17481.916333	1473.323242	1601.512329
2685.953032	17481.916333	1472.258789	1483.916992
2685.953032	17481.916333	1471.193359	1662.499023
2685.953032	17481.916333	1470.127930	1634.988159
2685.953032	17481.916333	1469.062500	1704.018677
2685.953032	17481.916333	1467.997070	1562.378784
2685.953032	17481.916333	1466.930664	1528.807129
2685.953032	17481.916333	1465.865234	1535.615723
2685.953032	17481.916333	1464.798828	1482.241333
2685.953032	17481.916333	1463.731445	1558.818604
2685.953032	17481.916333	1462.665039	1273.121460
2685.953032	17481.916333	1461.597656	1592.159912
2685.953032	17481.916333	1460.530273	1319.994263
2685.953032	17481.916333	1459.462891	1127.156860
2685.953032	17481.916333	1458.395508	1068.600220
2685.953032	17481.916333	1457.327148	1215.333740
2685.953032	17481.916333	1456.259766	1309.376831
2685.953032	17481.916333	1455.191406	1072.701172
2685.953032	17481.916333	1454.123047	1070.748413
2685.953032	17481.916333	1453.053711	1093.882446
2685.953032	17481.916333	1451.985352	1029.431519
2685.953032	17481.916333	1450.916016	774.267151
2685.953032	17481.916333	1449.846680	798.232605
2685.953032	17481.916333	1448.776367	822.712036
2685.953032	17481.916333	1447.707031	841.522339
2685.953032	17481.916333	1446.636719	905.239563
2685.953032	17481.916333	1445.566406	569.305786
2685.953032	17481.916333	1444.496094	472.600769
2685.953032	17481.916333	1443.425781	667.697754
2685.953032	17481.916333	1442.354492	676.472351
2685.953032	17481.916333	1441.283203	836.769836
2685.953032	17481.916333	1440.211914	1155.651733
2685.953032	17481.916333	1439.140625	569.257446
2685.953032	17481.916333	1438.069336	428.873077
2685.953032	17481.916333	1436.997070	531.097778
2685.953032	17481.916333	1435.924805	454.736786
2685.953032	17481.916333	1434.852539	546.689270
2685.953032	17481.916333	1433.780273	527.612305
2685.953032	17481.916333	1432.707031	352.832336
2685.953032	17481.916333	1431.633789	848.669373
2685.953032	17481.916333	1430.560547	736.303711
2685.953032	17481.916333	1429.487305	533.693237
2685.953032	17481.916333	1428.413086	472.762787
2685.953032	17481.916333	1427.339844	559.945923
2685.953032	17481.916333	1426.265625	308.978912
2685.953032	17481.916333	1425.191406	384.228973
2685.953032	17481.916333	1424.116211	143.323135
2685.953032	17481.916333	1423.041992	613.527039
2685.953032	17481.916333	1421.966797	542.969238
2685.953032	17481.916333	1420.891602	169.383270
2685.953032	17481.916333	1419.816406	320.004028
2685.953032	17481.916333	1418.740234	320.754456
2685.953032	17481.916333	1417.665039	492.245514
2685.953032	17481.916333	1416.588867	472.943787
2685.953032	17481.916333	1415.512695	410.148071
2685.953032	17481.916333	1414.435547	605.184448
2685.953032	17481.916333	1413.359375	261.162018
2685.953032	17481.916333	1412.282227	726.484619
2685.953032	17481.916333	1411.205078	361.473511
2685.953032	17481.916333	1410.127930	603.517700
2685.953032	17481.916333	1409.049805	623.481445
2685.953032	17481.916333	1407.972656	652.309387
2685.953032	17481.916333	1406.894531	428.087219
2685.953032	17481.916333	1405.816406	469.371246
2685.953032	17481.916333	1404.737305	390.702362
2685.953032	17481.916333	1403.659180	513.245911
2685.953032	17481.916333	1402.580078	600.044495
2685.953032	17481.916333	1401.500977	505.934631
2685.953032	17481.916333	1400.421875	650.059082
2685.953032	17481.916333	1399.341797	560.045715
2685.953032	17481.916333	1398.262695	439.174713
2685.953032	17481.916333	1397.182617	844.498596
2685.953032	17481.916333	1396.102539	1030.143799
2685.953032	17481.916333	1395.021484	925.850159
2685.953032	17481.916333	1393.941406	446.304230
2685.953032	17481.916333	1392.860352	654.452881
2685.953032	17481.916333	1391.779297	647.425415
2685.953032	17481.916333	1390.698242	676.364380
2685.953032	17481.916333	1389.616211	572.004944
2685.953032	17481.916333	1388.535156	643.814392
2685.953032	17481.916333	1387.453125	860.599182
2685.953032	17481.916333	1386.371094	896.608459
2685.953032	17481.916333	1385.288086	630.964905
2685.953032	17481.916333	1384.206055	469.987457
2685.953032	17481.916333	1383.123047	691.906189
2685.953032	17481.916333	1382.040039	586.625488
2685.953032	17481.916333	1380.957031	733.051392
2685.953032	17481.916333	1379.873047	597.413147
2685.953032	17481.916333	1378.789063	629.729553
2685.953032	17481.916333	1377.705078	799.006165
2685.953032	17481.916333	1376.621094	876.789734
2685.953032	17481.916333	1375.537109	915.486023
2685.953032	17481.916333	1374.452148	924.907532
2685.953032	17481.916333	1373.367188	930.815857
2685.953032	17481.916333	1372.282227	994.157898
2685.953032	17481.916333	1371.197266	997.019226
2685.953032	17481.916333	1370.112305	995.999084
2685.953032	17481.916333	1369.026367	884.559265
2685.953032	17481.916333	1367.940430	1105.802002
2685.953032	17481.916333	1366.854492	1034.644653
2685.953032	17481.916333	1365.767578	1187.626099
2685.953032	17481.916333	1364.681641	870.765381
2685.953032	17481.916333	1363.594727	757.585632
2685.953032	17481.916333	1362.507813	970.004395
2685.953032	17481.916333	1361.419922	606.451599
2685.953032	17481.916333	1360.333008	991.610596
2685.953032	17481.916333	1359.245117	894.605896
2685.953032	17481.916333	1358.157227	713.932068
2685.953032	17481.916333	1357.069336	853.838440
2685.953032	17481.916333	1355.981445	773.810669
2685.953032	17481.916333	1354.892578	715.514404
2685.953032	17481.916333	1353.803711	825.534912
2685.953032	17481.916333	1352.714844	814.496582
2685.953032	17481.916333	1351.625000	848.337036
2685.953032	17481.916333	1350.536133	944.241333
2685.953032	17481.916333	1349.446289	1265.982300
2685.953032	17481.916333	1348.356445	1090.524902
2685.953032	17481.916333	1347.266602	1252.784424
2685.953032	17481.916333	1346.175781	1488.769775
2685.953032	17481.916333	1345.085938	1385.903931
2685.953032	17481.916333	1343.995117	1703.209839
2685.953032	17481.916333	1342.903320	1766.704834
2685.953032	17481.916333	1341.812500	1940.634766
2685.953032	17481.916333	1340.720703	1963.375244
2685.953032	17481.916333	1339.629883	1892.323730
2685.953032	17481.916333	1338.538086	2145.444580
2685.953032	17481.916333	1337.445313	2171.057617
2685.953032	17481.916333	1336.353516	2255.590332
2685.953032	17481.916333	1335.260742	2202.215088
2685.953032	17481.916333	1334.167969	2103.339355
2685.953032	17481.916333	1333.075195	2221.583252
2685.953032	17481.916333	1331.981445	2278.176514
2685.953032	17481.916333	1330.888672	1978.167603
2685.953032	17481.916333	1329.794922	1971.287720
2685.953032	17481.916333	1328.701172	2031.187134
2685.953032	17481.916333	1327.606445	1991.288330
2685.953032	17481.916333	1326.512695	1884.930420
2685.953032	17481.916333	1325.417969	1829.184326
2685.953032	17481.916333	1324.323242	1743.338013
2685.953032	17481.916333	1323.227539	1707.492432
2685.953032	17481.916333	1322.132813	1620.164673
2685.953032	17481.916333	1321.037109	1415.292480
2685.953032	17481.916333	1319.941406	1147.658936
2685.953032	17481.916333	1318.845703	1212.674927
2685.953032	17481.916333	1317.750000	1147.995361
2685.953032	17481.916333	1316.653320	939.663330
2685.953032	17481.916333	1315.556641	870.576660
2685.953032	17481.916333	1314.459961	782.966370
2685.953032	17481.916333	1313.363281	704.442261
2685.953032	17481.916333	1312.265625	606.806091
2685.953032	17481.916333	1311.167969	747.786804
2685.953032	17481.916333	1310.070313	581.996216
2685.953032	17481.916333	1308.972656	545.211975
2685.953032	17481.916333	1307.874023	273.640900
2685.953032	17481.916333	1306.776367	313.037018
2685.953032	17481.916333	1305.677734	238.352463
2685.953032	17481.916333	1304.579102	-42.869579
2685.953032	17481.916333	1303.479492	320.548889
2685.953032	17481.916333	1302.380859	481.768677
2685.953032	17481.916333	1301.281250	340.799896
2685.953032	17481.916333	1300.181641	371.252319
2685.953032	17481.916333	1299.081055	465.927612
2685.953032	17481.916333	1297.981445	395.329865
2685.953032	17481.916333	1296.880859	493.940247
2685.953032	17481.916333	1295.780273	415.060120
2685.953032	17481.916333	1294.679688	455.375275
2685.953032	17481.916333	1293.578125	475.787750
2685.953032	17481.916333	1292.476563	437.135498
2685.953032	17481.916333	1291.375000	362.936249
2685.953032	17481.916333	1290.273438	377.207733
2685.953032	17481.916333	1289.171875	254.855408
2685.953032	17481.916333	1288.069336	272.242950
2685.953032	17481.916333	1286.966797	164.094147
2685.953032	17481.916333	1285.864258	231.370026
2685.953032	17481.916333	1284.761719	73.609772
2685.953032	17481.916333	1283.658203	63.011570
2685.953032	17481.916333	1282.554688	160.913788
2685.953032	17481.916333	1281.451172	5.733451
2685.953032	17481.916333	1280.347656	144.233307
2685.953032	17481.916333	1279.244141	-20.998745
2685.953032	17481.916333	1278.139648	186.156067
2685.953032	17481.916333	1277.035156	126.534348
2685.953032	17481.916333	1275.930664	32.356770
2685.953032	17481.916333	1274.825195	99.287384
2685.953032	17481.916333	1273.720703	125.191475
2685.953032	17481.916333	1272.615234	31.512522
2685.953032	17481.916333	1271.508789	-70.772598
2685.953032	17481.916333	1270.403320	91.459373
2685.953032	17481.916333	1269.297852	43.847286
2685.953032	17481.916333	1268.191406	238.352768
2685.953032	17481.916333	1267.084961	62.312077
2685.953032	17481.916333	1265.977539	-34.597130
2685.953032	17481.916333	1264.871094	-122.119110
2685.953032	17481.916333	1263.763672	-33.682518
2685.953032	17481.916333	1262.656250	-100.740685
2685.953032	17481.916333	1261.548828	-205.532059
2685.953032	17481.916333	1260.440430	-158.420456
2685.953032	17481.916333	1259.333008	-10.879865
2685.953032	17481.916333	1258.224609	-120.801712
2685.953032	17481.916333	1257.115234	19.022104
2685.953032	17481.916333	1256.006836	-35.762924
2685.953032	17481.916333	1254.897461	-25.444132
2685.953032	17481.916333	1253.788086	102.592545
2685.953032	17481.916333	1252.678711	292.513855
2685.953032	17481.916333	1251.569336	355.538269
2685.953032	17481.916333	1250.458984	347.610413
2685.953032	17481.916333	1249.349609	526.999512
2685.953032	17481.916333	1248.239258	764.391113
2685.953032	17481.916333	1247.127930	664.649353
2685.953032	17481.916333	1246.017578	814.882751
2685.953032	17481.916333	1244.906250	775.710938
2685.953032	17481.916333	1243.794922	812.081970
2685.953032	17481.916333	1242.683594	823.168396
2685.953032	17481.916333	1241.571289	710.421265
2685.953032	17481.916333	1240.459961	660.024475
2685.953032	17481.916333	1239.347656	773.048523
2685.953032	17481.916333	1238.234375	716.306702
2685.953032	17481.916333	1237.122070	572.297913
2685.953032	17481.916333	1236.008789	776.917236
2685.953032	17481.916333	1234.896484	785.627075
2685.953032	17481.916333	1233.782227	734.887085
2685.953032	17481.916333	1232.668945	541.424377
2685.953032	17481.916333	1231.555664	490.812439
2685.953032	17481.916333	1230.441406	400.743256
2685.953032	17481.916333	1229.327148	345.728333
2685.953032	17481.916333	1228.211914	418.359100
2685.953032	17481.916333	1227.097656	465.297302
2685.953032	17481.916333	1225.982422	450.280853
2685.953032	17481.916333	1224.867188	454.055481
2685.953032	17481.916333	1223.751953	651.868835
2685.953032	17481.916333	1222.635742	698.644531
2685.953032	17481.916333	1221.520508	669.202026
2685.953032	17481.916333	1220.404297	825.166504
2685.953032	17481.916333	1219.287109	979.640137
2685.953032	17481.916333	1218.170898	1039.553467
2685.953032	17481.916333	1217.053711	1368.843384
2685.953032	17481.916333	1215.936523	1529.543335
2685.953032	17481.916333	1214.819336	1918.529785
2685.953032	17481.916333	1213.702148	2277.330566
2685.953032	17481.916333	1212.583984	2636.408691
2685.953032	17481.916333	1211.465820	3060.563232
2685.953032	17481.916333	1210.347656	3613.930420
2685.953032	17481.916333	1209.229492	4143.970703
2685.953032	17481.916333	1208.110352	4578.297363
2685.953032	17481.916333	1206.992188	4933.463867
2685.953032	17481.916333	1205.873047	5415.220703
2685.953032	17481.916333	1204.752930	6043.250977
2685.953032	17481.916333	1203.633789	6338.493164
2685.953032	17481.916333	1202.513672	6583.990234
2685.953032	17481.916333	1201.393555	6404.973633
2685.953032	17481.916333	1200.273438	6570.775879
2685.953032	17481.916333	1199.152344	6488.187012
2685.953032	17481.916333	1198.032227	6136.323730
2685.953032	17481.916333	1196.911133	5916.615723
2685.953032	17481.916333	1195.790039	5543.655762
2685.953032	17481.916333	1194.667969	5105.614258
2685.953032	17481.916333	1193.545898	4765.378418
2685.953032	17481.916333	1192.424805	4285.680664
2685.953032	17481.916333	1191.301758	3845.595459
2685.953032	17481.916333	1190.179688	3474.878906
2685.953032	17481.916333	1189.056641	2965.699951
2685.953032	17481.916333	1187.933594	2621.446045
2685.953032	17481.916333	1186.810547	2409.270996
2685.953032	17481.916333	1185.687500	2215.328125
2685.953032	17481.916333	1184.563477	1922.505859
2685.953032	17481.916333	1183.440430	1806.194580
2685.953032	17481.916333	1182.316406	1554.538574
2685.953032	17481.916333	1181.191406	1447.470703
2685.953032	17481.916333	1180.067383	1330.347534
2685.953032	17481.916333	1178.942383	1087.558960
2685.953032	17481.916333	1177.817383	948.756592
2685.953032	17481.916333	1176.692383	918.432312
2685.953032	17481.916333	1175.566406	868.689575
2685.953032	17481.916333	1174.440430	824.455444
2685.953032	17481.916333	1173.314453	597.609558
2685.953032	17481.916333	1172.188477	461.053009
2685.953032	17481.916333	1171.062500	616.673218
2685.953032	17481.916333	1169.935547	448.582062
2685.953032	17481.916333	1168.808594	551.632813
2685.953032	17481.916333	1167.681641	528.463928
2685.953032	17481.916333	1166.553711	288.344330
2685.953032	17481.916333	1165.426758	396.713806
2685.953032	17481.916333	1164.298828	341.021667
2685.953032	17481.916333	1163.170898	359.176208
2685.953032	17481.916333	1162.041992	185.622925
2685.953032	17481.916333	1160.914063	166.651718
2685.953032	17481.916333	1159.785156	86.319839
2685.953032	17481.916333	1158.656250	113.228249
2685.953032	17481.916333	1157.526367	3.767547
2685.953032	17481.916333	1156.397461	109.828804
2685.953032	17481.916333	1155.267578	157.739258
2685.953032	17481.916333	1154.137695	201.313065
2685.953032	17481.916333	1153.006836	101.175926
2685.953032	17481.916333	1151.876953	56.715672
2685.953032	17481.916333	1150.746094	-25.559414
2685.953032	17481.916333	1149.615234	-9.220541
2685.953032	17481.916333	1148.484375	-188.194534
2685.953032	17481.916333	1147.352539	-66.470345
2685.953032	17481.916333	1146.220703	55.887962
2685.953032	17481.916333	1145.088867	-104.712418
2685.953032	17481.916333	1143.957031	-53.709984
2685.953032	17481.916333	1142.825195	-101.018799
2685.953032	17481.916333	1141.692383	-65.021767
2685.953032	17481.916333	1140.559570	81.948036
2685.953032	17481.916333	1139.426758	-66.944313
2685.953032	17481.916333	1138.292969	73.700241
2685.953032	17481.916333	1137.159180	145.875137
2685.953032	17481.916333	1136.025391	271.725983
2685.953032	17481.916333	1134.891602	366.087799
2685.953032	17481.916333	1133.757813	392.615051
2685.953032	17481.916333	1132.623047	631.003174
2685.953032	17481.916333	1131.488281	735.861450
2685.953032	17481.916333	1130.353516	955.647034
2685.953032	17481.916333	1129.217773	1070.608887
2685.953032	17481.916333	1128.083008	940.413635
2685.953032	17481.916333	1126.947266	1188.480835
2685.953032	17481.916333	1125.811523	1024.762939
2685.953032	17481.916333	1124.674805	1220.072144
2685.953032	17481.916333	1123.539063	1081.904053
2685.953032	17481.916333	1122.402344	1308.702881
2685.953032	17481.916333	1121.265625	1318.945068
2685.953032	17481.916333	1120.127930	1322.314209
2685.953032	17481.916333	1118.990234	1409.983521
2685.953032	17481.916333	1117.853516	1407.725708
2685.953032	17481.916333	1116.714844	1517.603516
2685.953032	17481.916333	1115.577148	1822.592896
2685.953032	17481.916333	1114.439453	1695.238525
2685.953032	17481.916333	1113.300781	1806.998779
2685.953032	17481.916333	1112.162109	1832.975342
2685.953032	17481.916333	1111.022461	1881.848145
2685.953032	17481.916333	1109.883789	1847.242432
2685.953032	17481.916333	1108.744141	1952.378174
2685.953032	17481.916333	1107.604492	2031.663818
2685.953032	17481.916333	1106.463867	1883.249146
2685.953032	17481.916333	1105.324219	1805.508667
2685.953032	17481.916333	1104.183594	1889.382202
2685.953032	17481.916333	1103.042969	1747.112793
2685.953032	17481.916333	1101.902344	1876.413574
2685.953032	17481.916333	1100.760742	1758.374634
2685.953032	17481.916333	1099.619141	1719.827881
2685.953032	17481.916333	1098.477539	1650.098389
2685.953032	17481.916333	1097.335938	1555.726807
2685.953032	17481.916333	1096.193359	1455.203857
2685.953032	17481.916333	1095.051758	1357.996582
2685.953032	17481.916333	1093.909180	1303.871460
2685.953032	17481.916333	1092.765625	1234.583740
2685.953032	17481.916333	1091.623047	1107.369141
2685.953032	17481.916333	1090.479492	956.933716
2685.953032	17481.916333	1089.335938	1010.008667
2685.953032	17481.916333	1088.192383	917.598755
2685.953032	17481.916333	1087.047852	813.246155
2685.953032	17481.916333	1085.903320	598.212036
2685.953032	17481.916333	1084.758789	905.961121
2685.953032	17481.916333	1083.614258	680.646790
2685.953032	17481.916333	1082.469727	792.727051
2685.953032	17481.916333	1081.324219	879.182800
2685.953032	17481.916333	1080.178711	830.665710
2685.953032	17481.916333	1079.033203	834.075317
2685.953032	17481.916333	1077.886719	792.245605
2685.953032	17481.916333	1076.740234	1042.963501
2685.953032	17481.916333	1075.593750	948.413879
2685.953032	17481.916333	1074.447266	1049.383911
2685.953032	17481.916333	1073.300781	1140.815308
2685.953032	17481.916333	1072.153320	1443.468018
2685.953032	17481.916333	1071.005859	1347.546021
2685.953032	17481.916333	1069.858398	1481.307373
2685.953032	17481.916333	1068.709961	1633.629883
2685.953032	17481.916333	1067.561523	1436.897827
2685.953032	17481.916333	1066.413086	1539.944458
2685.953032	17481.916333	1065.264648	1408.659912
2685.953032	17481.916333	1064.116211	1296.037598
2685.953032	17481.916333	1062.966797	1398.164551
2685.953032	17481.916333	1061.817383	1322.387085
2685.953032	17481.916333	1060.667969	1332.624390
2685.953032	17481.916333	1059.517578	1259.817505
2685.953032	17481.916333	1058.368164	1385.019409
2685.953032	17481.916333	1057.217773	1248.640869
2685.953032	17481.916333	1056.067383	1098.064941
2685.953032	17481.916333	1054.916016	1195.004639
2685.953032	17481.916333	1053.764648	1230.568359
2685.953032	17481.916333	1052.613281	1318.942017
2685.953032	17481.916333	1051.461914	1241.450684
2685.953032	17481.916333	1050.310547	1213.230835
2685.953032	17481.916333	1049.158203	1335.034424
2685.953032	17481.916333	1048.005859	1342.152466
2685.953032	17481.916333	1046.853516	1519.951050
2685.953032	17481.916333	1045.700195	1742.460083
2685.953032	17481.916333	1044.547852	1910.085693
2685.953032	17481.916333	1043.394531	2061.016846
2685.953032	17481.916333	1042.240234	2122.076904
2685.953032	17481.916333	1041.086914	2232.967285
2685.953032	17481.916333	1039.932617	2203.593506
2685.953032	17481.916333	1038.778320	2136.652832
2685.953032	17481.916333	1037.624023	2320.307861
2685.953032	17481.916333	1036.469727	2146.510254
2685.953032	17481.916333	1035.314453	2096.919922
2685.953032	17481.916333	1034.159180	2029.343140
2685.953032	17481.916333	1033.003906	2173.860352
2685.953032	17481.916333	1031.847656	2116.075439
2685.953032	17481.916333	1030.692383	2047.676758
2685.953032	17481.916333	1029.536133	1992.621582
2685.953032	17481.916333	1028.378906	1828.334106
2685.953032	17481.916333	1027.222656	1775.114502
2685.953032	17481.916333	1026.065430	1802.523071
2685.953032	17481.916333	1024.908203	1545.957520
2685.953032	17481.916333	1023.750977	1549.779663
2685.953032	17481.916333	1022.593750	1372.205566
2685.953032	17481.916333	1021.435547	1286.043945
2685.953032	17481.916333	1020.277344	1087.001953
2685.953032	17481.916333	1019.119141	1040.317261
2685.953032	17481.916333	1017.959961	1079.181030
2685.953032	17481.916333	1016.800781	1032.652710
2685.953032	17481.916333	1015.641602	990.115417
2685.953032	17481.916333	1014.482422	793.988586
2685.953032	17481.916333	1013.323242	884.509033
2685.953032	17481.916333	1012.163086	917.014587
2685.953032	17481.916333	1011.002930	975.820557
2685.953032	17481.916333	1009.842773	878.514343
2685.953032	17481.916333	1008.681641	812.132507
2685.953032	17481.916333	1007.520508	869.088562
2685.953032	17481.916333	1006.359375	814.883179
2685.953032	17481.916333	1005.198242	897.302124
2685.953032	17481.916333	1004.037109	1184.038452
2685.953032	17481.916333	1002.875000	1094.548950
2685.953032	17481.916333	1001.712891	933.403381
2685.953032	17481.916333	1000.550781	1045.517456
2685.953032	17481.916333	999.387695	981.781067
2685.953032	17481.916333	998.224609	980.115112
2685.953032	17481.916333	997.061523	1037.295898
2685.953032	17481.916333	995.898438	991.730408
2685.953032	17481.916333	994.734375	911.884155
2685.953032	17481.916333	993.571289	947.685059
2685.953032	17481.916333	992.407227	1035.307251
2685.953032	17481.916333	991.242188	1138.558716
2685.953032	17481.916333	990.078125	1047.747559
2685.953032	17481.916333	988.913086	1118.212646
2685.953032	17481.916333	987.748047	1229.710815
2685.953032	17481.916333	986.583008	1275.671753
2685.953032	17481.916333	985.416992	1638.077271
2685.953032	17481.916333	984.250977	1690.872070
2685.953032	17481.916333	983.084961	1865.105225
2685.953032	17481.916333	981.918945	1979.224854
2685.953032	17481.916333	980.751953	2011.101074
2685.953032	17481.916333	979.584961	1936.802368
2685.953032	17481.916333	978.417969	1889.931519
2685.953032	17481.916333	977.250977	1694.679932
2685.953032	17481.916333	976.083008	1734.871338
2685.953032	17481.916333	974.915039	1442.710449
2685.953032	17481.916333	973.747070	1483.149902
2685.953032	17481.916333	972.579102	1163.442871
2685.953032	17481.916333	971.410156	1129.614258
2685.953032	17481.916333	970.242188	1097.043579
2685.953032	17481.916333	969.072266	1172.028564
2685.953032	17481.916333	967.903320	935.595337
2685.953032	17481.916333	966.733398	1025.765625
2685.953032	17481.916333	965.563477	1137.903198
2685.953032	17481.916333	964.393555	1046.231079
2685.953032	17481.916333	963.223633	1106.608887
2685.953032	17481.916333	962.052734	1106.862671
2685.953032	17481.916333	960.881836	1160.861328
2685.953032	17481.916333	959.710938	1100.151367
2685.953032	17481.916333	958.540039	1026.962769
2685.953032	17481.916333	957.368164	1193.094482
2685.953032	17481.916333	956.196289	1110.407471
2685.953032	17481.916333	955.024414	1192.184326
2685.953032	17481.916333	953.851563	1081.495361
2685.953032	17481.916333	952.679688	1112.057373
2685.953032	17481.916333	951.506836	1058.604370
2685.953032	17481.916333	950.333984	1215.454468
2685.953032	17481.916333	949.160156	1192.171143
2685.953032	17481.916333	947.986328	1209.703491
2685.953032	17481.916333	946.812500	1143.176147
2685.953032	17481.916333	945.638672	1026.689331
2685.953032	17481.916333	944.464844	1034.152954
2685.953032	17481.916333	943.290039	1009.970825
2685.953032	17481.916333	942.115234	1032.925781
2685.953032	17481.916333	940.940430	770.122070
2685.953032	17481.916333	939.764648	793.195679
2685.953032	17481.916333	938.588867	855.656311
2685.953032	17481.916333	937.413086	822.757568
2685.953032	17481.916333	936.237305	765.589111
2685.953032	17481.916333	935.060547	654.804138
2685.953032	17481.916333	933.883789	456.483215
2685.953032	17481.916333	932.707031	688.148560
2685.953032	17481.916333	931.530273	565.774536
2685.953032	17481.916333	930.352539	495.744568
2685.953032	17481.916333	929.175781	661.967102
2685.953032	17481.916333	927.998047	556.775269
2685.953032	17481.916333	926.819336	527.649109
2685.953032	17481.916333	925.641602	601.521240
2685.953032	17481.916333	924.462891	464.320831
2685.953032	17481.916333	923.284180	563.305237
2685.953032	17481.916333	922.104492	419.610046
2685.953032	17481.916333	920.924805	421.674438
2685.953032	17481.916333	919.746094	419.102081
2685.953032	17481.916333	919.551758	450.141937
2685.953032	17481.916333	918.386719	423.489014
2685.953032	17481.916333	917.220703	369.806000
2685.953032	17481.916333	916.054688	466.480713
2685.953032	17481.916333	914.887695	358.760468
2685.953032	17481.916333	913.721680	349.125702
2685.953032	17481.916333	912.554688	271.333801
2685.953032	17481.916333	911.387695	313.728973
2685.953032	17481.916333	910.220703	268.996674
2685.953032	17481.916333	909.052734	505.721680
2685.953032	17481.916333	907.885742	522.446838
2685.953032	17481.916333	906.717773	333.530334
2685.953032	17481.916333	905.548828	416.479584
2685.953032	17481.916333	904.380859	355.490295
2685.953032	17481.916333	903.211914	278.632019
2685.953032	17481.916333	902.042969	416.564148
2685.953032	17481.916333	900.874023	405.887146
2685.953032	17481.916333	899.704102	264.059296
2685.953032	17481.916333	898.535156	340.084595
2685.953032	17481.916333	897.365234	297.609100
2685.953032	17481.916333	896.194336	433.399139
2685.953032	17481.916333	895.024414	445.990326
2685.953032	17481.916333	893.853516	324.408264
2685.953032	17481.916333	892.682617	142.869492
2685.953032	17481.916333	891.511719	368.163940
2685.953032	17481.916333	890.340820	363.121582
2685.953032	17481.916333	889.168945	417.906189
2685.953032	17481.916333	887.997070	281.917175
2685.953032	17481.916333	886.825195	364.924957
2685.953032	17481.916333	885.653320	397.427460
2685.953032	17481.916333	884.480469	232.984726
2685.953032	17481.916333	883.307617	396.069611
2685.953032	17481.916333	882.134766	44.237656
2685.953032	17481.916333	880.961914	177.276840
2685.953032	17481.916333	879.788086	100.908150
2685.953032	17481.916333	878.614258	101.610466
2685.953032	17481.916333	877.440430	119.566261
2685.953032	17481.916333	876.266602	-24.519505
2685.953032	17481.916333	875.091797	5.934343
2685.953032	17481.916333	873.916992	0.173414
2685.953032	17481.916333	872.742188	50.953419
2685.953032	17481.916333	871.567383	84.386505
2685.953032	17481.916333	870.391602	53.347645
2685.953032	17481.916333	869.215820	173.075729
2685.953032	17481.916333	868.040039	61.865513
2685.953032	17481.916333	866.864258	44.873043
2685.953032	17481.916333	865.687500	106.339386
2685.953032	17481.916333	864.510742	81.428314
2685.953032	17481.916333	863.333984	164.770477
2685.953032	17481.916333	862.157227	171.178162
2685.953032	17481.916333	860.979492	274.799530
2685.953032	17481.916333	859.802734	60.019192
2685.953032	17481.916333	858.625000	122.810410
2685.953032	17481.916333	857.446289	121.281288
2685.953032	17481.916333	856.268555	-101.238190
2685.953032	17481.916333	855.089844	-113.726044
2685.953032	17481.916333	853.911133	-77.660004
2685.953032	17481.916333	852.731445	-11.868625
2685.953032	17481.916333	851.552734	-126.193764
2685.953032	17481.916333	850.373047	-104.280540
2685.953032	17481.916333	849.193359	102.318108
2685.953032	17481.916333	848.013672	265.006134
2685.953032	17481.916333	846.833008	349.383606
2685.953032	17481.916333	845.652344	443.108490
2685.953032	17481.916333	844.471680	535.227295
2685.953032	17481.916333	843.291016	649.198608
2685.953032	17481.916333	842.110352	772.504395
2685.953032	17481.916333	840.928711	850.427307
2685.953032	17481.916333	839.747070	868.937805
2685.953032	17481.916333	838.564453	1001.495178
2685.953032	17481.916333	837.382813	1229.296509
2685.953032	17481.916333	836.200195	1183.699585
2685.953032	17481.916333	835.017578	1053.814209
2685.953032	17481.916333	833.834961	1073.858643
2685.953032	17481.916333	832.651367	950.309875
2685.953032	17481.916333	831.467773	574.030701
2685.953032	17481.916333	830.284180	550.512756
2685.953032	17481.916333	829.100586	307.086456
2685.953032	17481.916333	827.916992	221.287399
2685.953032	17481.916333	826.732422	196.345398
2685.953032	17481.916333	825.547852	497.234467
2685.953032	17481.916333	824.363281	995.954895
2685.953032	17481.916333	823.177734	1410.344971
2685.953032	17481.916333	821.992188	1785.640259
2685.953032	17481.916333	820.806641	2162.363525
2685.953032	17481.916333	819.621094	1987.692871
2685.953032	17481.916333	818.434570	1785.092285
2685.953032	17481.916333	817.249023	1528.127319
2685.953032	17481.916333	816.062500	1400.465332
2685.953032	17481.916333	814.875000	1118.843018
2685.953032	17481.916333	813.688477	818.706360
2685.953032	17481.916333	812.500977	664.922180
2685.953032	17481.916333	811.313477	534.562561
2685.953032	17481.916333	810.125977	178.863937
2685.953032	17481.916333	808.937500	148.204727
2685.953032	17481.916333	807.749023	15.029916
2685.953032	17481.916333	806.560547	-23.273741
2685.953032	17481.916333	805.372070	-70.841995
2685.953032	17481.916333	804.182617	-107.481934
2685.953032	17481.916333	802.994141	-54.001328
2685.953032	17481.916333	801.803711	-73.472679
2685.953032	17481.916333	800.614258	-182.909576
2685.953032	17481.916333	799.424805	-168.113312
2685.953032	17481.916333	798.234375	-136.216064
2685.953032	17481.916333	797.043945	-126.001900
2685.953032	17481.916333	795.852539	-10.291442
2685.953032	17481.916333	794.662109	32.549225
2685.953032	17481.916333	793.470703	200.981522
2685.953032	17481.916333	792.279297	209.758286
2685.953032	17481.916333	791.087891	461.859711
2685.953032	17481.916333	789.895508	565.178101
2685.953032	17481.916333	788.703125	495.029602
2685.953032	17481.916333	787.510742	400.186310
2685.953032	17481.916333	786.318359	350.334351
2685.953032	17481.916333	785.125000	209.224594
2685.953032	17481.916333	783.931641	400.964813
2685.953032	17481.916333	782.738281	462.707916
2685.953032	17481.916333	781.544922	400.722931
2685.953032	17481.916333	780.350586	512.042053
2685.953032	17481.916333	779.156250	641.926086
2685.953032	17481.916333	777.961914	620.305237
2685.953032	17481.916333	776.767578	595.659302
2685.953032	17481.916333	775.572266	373.271545
2685.953032	17481.916333	774.376953	197.385956
2685.953032	17481.916333	773.181641	159.112228
2685.953032	17481.916333	771.986328	178.056107
2685.953032	17481.916333	770.790039	252.635727
2685.953032	17481.916333	769.593750	503.232422
2685.953032	17481.916333	768.397461	610.244873
2685.953032	17481.916333	767.201172	774.368530
2685.953032	17481.916333	766.003906	927.681824
2685.953032	17481.916333	764.806641	885.097046
2685.953032	17481.916333	763.609375	836.421936
2685.953032	17481.916333	762.412109	627.477844
2685.953032	17481.916333	761.213867	320.021942
2685.953032	17481.916333	760.015625	308.663544
2685.953032	17481.916333	758.817383	241.900681
2685.953032	17481.916333	757.618164	186.007217
2685.953032	17481.916333	756.419922	159.465714
2685.953032	17481.916333	755.220703	69.858070
2685.953032	17481.916333	754.021484	9.600786
2685.953032	17481.916333	752.821289	3.302779
2685.953032	17481.916333	751.621094	-139.898926
2685.953032	17481.916333	750.420898	-47.568920
2685.953032	17481.916333	749.220703	3.248651
2685.953032	17481.916333	748.020508	-131.991333
2685.953032	17481.916333	746.819336	-42.616352
2685.953032	17481.916333	745.618164	-165.371582
2685.953032	17481.916333	744.416992	17.852066
2685.953032	17481.916333	743.214844	260.987946
2685.953032	17481.916333	742.012695	428.800415
2685.953032	17481.916333	740.810547	458.355499
2685.953032	17481.916333	739.608398	742.890137
2685.953032	17481.916333	738.406250	1004.333618
2685.953032	17481.916333	737.203125	1261.119385
2685.953032	17481.916333	736.000000	1520.924561
2685.953032	17481.916333	734.795898	1898.831055
2685.953032	17481.916333	733.592773	1893.103271
2685.953032	17481.916333	732.388672	2088.362549
2685.953032	17481.916333	731.184570	1967.695068
2685.953032	17481.916333	729.979492	1607.957031
2685.953032	17481.916333	728.775391	1384.849976
2685.953032	17481.916333	727.570313	1071.469238
2685.953032	17481.916333	726.365234	767.466797
2685.953032	17481.916333	725.160156	399.305023
2685.953032	17481.916333	723.954102	464.782776
2685.953032	17481.916333	722.748047	389.410400
2685.953032	17481.916333	721.541992	415.162750
2685.953032	17481.916333	720.334961	370.544891
2685.953032	17481.916333	719.128906	269.375488
2685.953032	17481.916333	717.921875	358.013092
2685.953032	17481.916333	716.714844	273.811462
2685.953032	17481.916333	715.506836	484.851898
2685.953032	17481.916333	714.298828	503.195984
2685.953032	17481.916333	713.090820	422.213013
2685.953032	17481.916333	711.882813	468.162811
2685.953032	17481.916333	710.674805	399.533691
2685.953032	17481.916333	709.465820	404.307526
2685.953032	17481.916333	708.256836	305.257507
2685.953032	17481.916333	707.047852	346.782104
2685.953032	17481.916333	705.837891	147.100449
2685.953032	17481.916333	704.627930	14.705350
2685.953032	17481.916333	703.417969	-3.136625
2685.953032	17481.916333	702.208008	15.685794
2685.953032	17481.916333	700.998047	81.826828
2685.953032	17481.916333	699.787109	201.356293
2685.953032	17481.916333	698.576172	76.893707
2685.953032	17481.916333	697.364258	8.923923
2685.953032	17481.916333	696.153320	8.080384
2685.953032	17481.916333	694.941406	78.890564
2685.953032	17481.916333	693.729492	67.428879
2685.953032	17481.916333	692.516602	173.289627
2685.953032	17481.916333	691.304688	36.989761
2685.953032	17481.916333	690.091797	-67.252670
2685.953032	17481.916333	688.878906	27.994030
2685.953032	17481.916333	687.665039	112.570274
2685.953032	17481.916333	686.451172	87.576637
2685.953032	17481.916333	685.237305	70.220879
2685.953032	17481.916333	684.023438	163.926559
2685.953032	17481.916333	682.809570	227.199295
2685.953032	17481.916333	681.594727	238.770142
2685.953032	17481.916333	680.379883	93.788368
2685.953032	17481.916333	679.165039	433.676544
2685.953032	17481.916333	677.949219	340.403992
2685.953032	17481.916333	676.733398	479.605316
2685.953032	17481.916333	675.517578	605.089722
2685.953032	17481.916333	674.301758	601.464355
2685.953032	17481.916333	673.084961	912.101929
2685.953032	17481.916333	671.869141	1075.388794
2685.953032	17481.916333	670.651367	1306.900879
2685.953032	17481.916333	669.434570	1297.090820
2685.953032	17481.916333	668.216797	1384.366699
2685.953032	17481.916333	667.000000	1210.766968
2685.953032	17481.916333	665.781250	1313.191040
2685.953032	17481.916333	664.563477	1277.625610
2685.953032	17481.916333	663.344727	1436.066528
2685.953032	17481.916333	662.125977	1411.093384
2685.953032	17481.916333	660.907227	1325.529297
2685.953032	17481.916333	659.688477	1467.187256
2685.953032	17481.916333	658.468750	1330.149902
2685.953032	17481.916333	657.249023	1217.386719
2685.953032	17481.916333	656.029297	1169.747803
2685.953032	17481.916333	654.808594	1396.030762
2685.953032	17481.916333	653.587891	1324.143433
2685.953032	17481.916333	652.367188	1624.395020
2685.953032	17481.916333	651.146484	1897.282349
2685.953032	17481.916333	649.924805	2407.430176
2685.953032	17481.916333	648.704102	2822.105469
2685.953032	17481.916333	647.482422	2860.246582
2685.953032	17481.916333	646.259766	2742.709473
2685.953032	17481.916333	645.037109	2380.455078
2685.953032	17481.916333	643.815430	1772.129395
2685.953032	17481.916333	642.591797	1325.620728
2685.953032	17481.916333	641.369141	912.491577
2685.953032	17481.916333	640.145508	759.143738
2685.953032	17481.916333	638.921875	473.027374
2685.953032	17481.916333	637.698242	576.286743
2685.953032	17481.916333	636.474609	441.124756
2685.953032	17481.916333	635.250000	269.791931
2685.953032	17481.916333	634.025391	244.765869
2685.953032	17481.916333	632.800781	243.837418
2685.953032	17481.916333	631.575195	209.716003
2685.953032	17481.916333	630.349609	-26.356962
2685.953032	17481.916333	629.124023	182.086182
2685.953032	17481.916333	627.898438	212.660568
2685.953032	17481.916333	626.671875	109.149796
2685.953032	17481.916333	625.445313	-99.752380
2685.953032	17481.916333	624.218750	4.503796
2685.953032	17481.916333	622.992188	15.361674
2685.953032	17481.916333	621.764648	-12.949881
2685.953032	17481.916333	620.537109	62.509174
2685.953032	17481.916333	619.309570	76.224243
2685.953032	17481.916333	618.081055	249.283524
2685.953032	17481.916333	616.852539	274.888000
2685.953032	17481.916333	615.624023	365.067047
2685.953032	17481.916333	614.395508	348.460510
2685.953032	17481.916333	613.166992	400.926941
2685.953032	17481.916333	611.937500	393.233185
2685.953032	17481.916333	610.708008	427.542450
2685.953032	17481.916333	609.477539	571.395935
2685.953032	17481.916333	608.248047	534.992310
2685.953032	17481.916333	607.017578	364.973236
2685.953032	17481.916333	605.787109	568.610657
2685.953032	17481.916333	604.555664	473.559082
2685.953032	17481.916333	603.325195	466.989166
2685.953032	17481.916333	602.093750	385.385284
2685.953032	17481.916333	600.861328	228.794632
2685.953032	17481.916333	599.629883	407.981079
2685.953032	17481.916333	598.397461	348.750092
2685.953032	17481.916333	597.165039	148.644592
2685.953032	17481.916333	595.932617	-3.497888
2685.953032	17481.916333	594.699219	101.965317
2685.953032	17481.916333	593.465820	181.870331
2685.953032	17481.916333	592.232422	23.652426
2685.953032	17481.916333	590.999023	-25.296993
2685.953032	17481.916333	589.764648	148.678391
2685.953032	17481.916333	588.530273	36.766571
2685.953032	17481.916333	587.295898	80.403008
2685.953032	17481.916333	586.061523	11.801505
2685.953032	17481.916333	584.826172	266.117371
2685.953032	17481.916333	583.590820	-16.375078
2685.953032	17481.916333	582.355469	-14.851591
2685.953032	17481.916333	581.119141	128.555054
2685.953032	17481.916333	579.882813	55.231728
2685.953032	17481.916333	578.646484	98.375870
2685.953032	17481.916333	577.410156	26.464281
2685.953032	17481.916333	576.172852	168.006744
2685.953032	17481.916333	574.935547	52.704937
2685.953032	17481.916333	573.698242	116.465462
2685.953032	17481.916333	572.460938	168.205719
2685.953032	17481.916333	571.222656	191.521454
2685.953032	17481.916333	569.984375	181.961334
2685.953032	17481.916333	568.746094	214.096237
2685.953032	17481.916333	567.506836	113.488701
2685.953032	17481.916333	566.267578	155.942566
2685.953032	17481.916333	565.028320	137.230972
2685.953032	17481.916333	563.789063	-12.622878
2685.953032	17481.916333	562.548828	28.175007
2685.953032	17481.916333	561.309570	94.218674
2685.953032	17481.916333	560.068359	-66.114426
2685.953032	17481.916333	558.828125	-169.867920
2685.953032	17481.916333	557.586914	9.114726
2685.953032	17481.916333	556.345703	12.409548
2685.953032	17481.916333	555.104492	-110.782196
2685.953032	17481.916333	553.863281	-225.045334
2685.953032	17481.916333	552.621094	-4.766454
2685.953032	17481.916333	551.378906	31.042927
2685.953032	17481.916333	550.136719	81.655540
2685.953032	17481.916333	548.893555	261.473907
2685.953032	17481.916333	547.650391	164.854935
2685.953032	17481.916333	546.407227	239.043167
2685.953032	17481.916333	545.164063	262.673828
2685.953032	17481.916333	543.919922	305.553802
2685.953032	17481.916333	542.675781	297.912354
2685.953032	17481.916333	541.431641	336.245209
2685.953032	17481.916333	540.186523	208.353470
2685.953032	17481.916333	538.941406	49.334774
2685.953032	17481.916333	537.696289	11.965252
2685.953032	17481.916333	536.451172	-95.103935
2685.953032	17481.916333	535.205078	186.234070
2685.953032	17481.916333	533.959961	-85.388222
2685.953032	17481.916333	532.712891	-103.539536
2685.953032	17481.916333	531.466797	-62.441277
2685.953032	17481.916333	530.219727	-125.062111
2685.953032	17481.916333	528.972656	3.354306
2685.953032	17481.916333	527.725586	-142.191925
2685.953032	17481.916333	526.478516	5.388179
2685.953032	17481.916333	525.230469	-174.157669
2685.953032	17481.916333	523.982422	-170.170578
2685.953032	17481.916333	522.734375	-124.772377
2685.953032	17481.916333	521.485352	47.786694
2685.953032	17481.916333	520.236328	36.923450
2685.953032	17481.916333	518.987305	181.286667
2685.953032	17481.916333	517.737305	355.145752
2685.953032	17481.916333	516.488281	506.776520
2685.953032	17481.916333	515.238281	413.110016
2685.953032	17481.916333	513.988281	566.154053
2685.953032	17481.916333	512.737305	516.836426
2685.953032	17481.916333	511.486328	631.432434
2685.953032	17481.916333	510.235352	610.200439
2685.953032	17481.916333	508.984375	531.444763
2685.953032	17481.916333	507.732422	578.152832
2685.953032	17481.916333	506.480469	586.514160
2685.953032	17481.916333	505.228516	636.193359
2685.953032	17481.916333	503.976563	719.795532
2685.953032	17481.916333	502.723633	616.174622
2685.953032	17481.916333	501.470703	935.624390
2685.953032	17481.916333	500.217773	752.505981
2685.953032	17481.916333	498.963867	861.198730
2685.953032	17481.916333	497.709961	784.305054
2685.953032	17481.916333	496.456055	648.587341
2685.953032	17481.916333	495.202148	652.842102
2685.953032	17481.916333	493.947266	537.916626
2685.953032	17481.916333	492.692383	577.615417
2685.953032	17481.916333	491.437500	718.873657
2685.953032	17481.916333	490.181641	676.254517
2685.953032	17481.916333	488.926758	923.440063
2685.953032	17481.916333	487.670898	705.951660
2685.953032	17481.916333	486.414063	700.305725
2685.953032	17481.916333	485.158203	525.716980
2685.953032	17481.916333	483.901367	702.461060
2685.953032	17481.916333	482.644531	570.695374
2685.953032	17481.916333	481.386719	384.717712
2685.953032	17481.916333	480.128906	520.489990
2685.953032	17481.916333	478.871094	788.418823
2685.953032	17481.916333	477.613281	651.198853
2685.953032	17481.916333	476.355469	916.219971
2685.953032	17481.916333	475.096680	804.147339
2685.953032	17481.916333	473.837891	857.970581
2685.953032	17481.916333	472.578125	532.024719
2685.953032	17481.916333	471.319336	417.454437
2685.953032	17481.916333	470.059570	524.382813
2685.953032	17481.916333	468.799805	327.985413
2685.953032	17481.916333	467.539063	325.189209
2685.953032	17481.916333	466.278320	441.160675
2685.953032	17481.916333	465.017578	602.589905
2685.953032	17481.916333	463.756836	506.332794
2685.953032	17481.916333	462.495117	629.825989
2685.953032	17481.916333	461.233398	466.489258
2685.953032	17481.916333	459.971680	386.746582
2685.953032	17481.916333	458.709961	538.314819
2685.953032	17481.916333	457.447266	347.644135
2685.953032	17481.916333	456.184570	320.962036
2685.953032	17481.916333	454.921875	69.238960
2685.953032	17481.916333	453.658203	314.752075
2685.953032	17481.916333	452.394531	155.442078
2685.953032	17481.916333	451.130859	95.676353
2685.953032	17481.916333	449.867188	195.286057
2685.953032	17481.916333	448.602539	221.940704
2685.953032	17481.916333	447.337891	185.909073
2685.953032	17481.916333	446.073242	164.607697
2685.953032	17481.916333	444.807617	174.081833
2685.953032	17481.916333	443.542969	259.547577
2685.953032	17481.916333	442.276367	280.895752
2685.953032	17481.916333	441.010742	246.917831
2685.953032	17481.916333	439.744141	366.189941
2685.953032	17481.916333	438.478516	508.847565
2685.953032	17481.916333	437.210938	718.605835
2685.953032	17481.916333	435.944336	639.814880
2685.953032	17481.916333	434.676758	900.658875
2685.953032	17481.916333	433.409180	884.707031
2685.953032	17481.916333	432.141602	871.771851
2685.953032	17481.916333	430.873047	687.114685
2685.953032	17481.916333	429.604492	738.469543
2685.953032	17481.916333	428.335938	756.413818
2685.953032	17481.916333	427.067383	967.971680
2685.953032	17481.916333	425.797852	1141.690674
2685.953032	17481.916333	424.528320	1334.317993
2685.953032	17481.916333	423.258789	1666.538086
2685.953032	17481.916333	421.988281	1800.946533
2685.953032	17481.916333	420.717773	1881.570435
2685.953032	17481.916333	419.447266	1954.945801
2685.953032	17481.916333	418.175781	2057.396729
2685.953032	17481.916333	416.905273	2074.133057
2685.953032	17481.916333	415.633789	2077.823242
2685.953032	17481.916333	414.362305	2112.029541
2685.953032	17481.916333	413.089844	1667.172241
2685.953032	17481.916333	411.817383	1742.116333
2685.953032	17481.916333	410.544922	1595.010742
2685.953032	17481.916333	409.272461	1437.802368
2685.953032	17481.916333	407.999023	1383.624268
2685.953032	17481.916333	406.725586	1271.433228
2685.953032	17481.916333	405.452148	1101.255615
2685.953032	17481.916333	404.177734	1106.490356
2685.953032	17481.916333	402.903320	694.289185
2685.953032	17481.916333	401.628906	554.577209
2685.953032	17481.916333	400.354492	574.178162
2685.953032	17481.916333	399.079102	393.807159
2685.953032	17481.916333	397.803711	266.968262
2685.953032	17481.916333	396.528320	302.184753
2685.953032	17481.916333	395.251953	88.300362
2685.953032	17481.916333	393.976563	283.840485
2685.953032	17481.916333	392.700195	169.525070
2685.953032	17481.916333	391.422852	16.008228
2685.953032	17481.916333	390.145508	56.109196
2685.953032	17481.916333	388.869141	90.172592
2685.953032	17481.916333	387.590820	110.955101
2685.953032	17481.916333	386.313477	193.591095
2685.953032	17481.916333	385.035156	145.861588
2685.953032	17481.916333	383.756836	84.831100
2685.953032	17481.916333	382.478516	-57.389061
2685.953032	17481.916333	381.199219	-3.552216
2685.953032	17481.916333	379.919922	133.595840
2685.953032	17481.916333	378.640625	99.966675
2685.953032	17481.916333	377.360352	29.834682
2685.953032	17481.916333	376.080078	18.409374
2685.953032	17481.916333	374.799805	-19.469679
2685.953032	17481.916333	373.519531	-24.694283
2685.953032	17481.916333	372.238281	22.864084
2685.953032	17481.916333	370.957031	-31.079563
2685.953032	17481.916333	369.675781	38.308575
2685.953032	17481.916333	368.394531	-111.973663
2685.953032	17481.916333	367.112305	41.041016
2685.953032	17481.916333	365.830078	204.787979
2685.953032	17481.916333	364.546875	-0.883076
2685.953032	17481.916333	363.264648	125.262901
2685.953032	17481.916333	361.981445	-76.173775
2685.953032	17481.916333	360.698242	-13.652569
2685.953032	17481.916333	359.414063	-0.991127
2685.953032	17481.916333	358.129883	-77.023132
2685.953032	17481.916333	356.845703	28.588678
2685.953032	17481.916333	355.561523	279.743805
2685.953032	17481.916333	354.276367	196.240509
2685.953032	17481.916333	352.991211	141.810333
2685.953032	17481.916333	351.706055	155.175995
2685.953032	17481.916333	350.420898	63.883102
2685.953032	17481.916333	349.134766	24.458101
2685.953032	17481.916333	347.848633	6.678329
2685.953032	17481.916333	346.561523	112.369911
2685.953032	17481.916333	345.275391	-44.600521
2685.953032	17481.916333	343.988281	-49.514832
2685.953032	17481.916333	342.700195	-129.174683
2685.953032	17481.916333	341.413086	82.153999
2685.953032	17481.916333	340.125000	-78.251205
2685.953032	17481.916333	338.836914	-51.121105
2685.953032	17481.916333	337.548828	-22.959545
2685.953032	17481.916333	336.259766	-88.433968
2685.953032	17481.916333	334.970703	11.770460
2685.953032	17481.916333	333.681641	-135.016464
2685.953032	17481.916333	332.391602	-140.683105
2685.953032	17481.916333	331.101563	24.698544
2685.953032	17481.916333	329.811523	184.888290
2685.953032	17481.916333	328.521484	-33.682079
2685.953032	17481.916333	327.230469	61.570858
2685.953032	17481.916333	325.939453	-43.112553
2685.953032	17481.916333	324.648438	-3.037949
2685.953032	17481.916333	323.356445	71.475487
2685.953032	17481.916333	322.064453	-25.481987
2685.953032	17481.916333	320.772461	-38.074871
2685.953032	17481.916333	319.480469	72.127892
2685.953032	17481.916333	318.187500	69.189125
2685.953032	17481.916333	316.894531	-49.718403
2685.953032	17481.916333	315.601563	-20.461452
2685.953032	17481.916333	314.307617	-7.472960
2685.953032	17481.916333	313.013672	3.482231
2685.953032	17481.916333	311.719727	12.297750
2685.953032	17481.916333	310.425781	-156.609787
2685.953032	17481.916333	309.130859	-55.446964
2685.953032	17481.916333	307.835938	-1.010484
2685.953032	17481.916333	306.541016	-4.795740
2685.953032	17481.916333	305.245117	116.909241
2685.953032	17481.916333	303.949219	41.906021
2685.953032	17481.916333	302.653320	-34.608753
2685.953032	17481.916333	301.356445	50.955132
2685.953032	17481.916333	300.060547	-37.556038
2685.953032	17481.916333	298.763672	159.544891
