#X		#Y		#Wave		#Intensity
2778.742128	17466.247000	2000.043945	-51.141693
2778.742128	17466.247000	1999.080078	-67.224991
2778.742128	17466.247000	1998.116211	-15.273499
2778.742128	17466.247000	1997.151367	-45.379734
2778.742128	17466.247000	1996.186523	-1.400607
2778.742128	17466.247000	1995.222656	-160.825439
2778.742128	17466.247000	1994.256836	41.186798
2778.742128	17466.247000	1993.291992	94.306633
2778.742128	17466.247000	1992.327148	35.765919
2778.742128	17466.247000	1991.361328	150.310547
2778.742128	17466.247000	1990.395508	-17.543255
2778.742128	17466.247000	1989.429688	42.111462
2778.742128	17466.247000	1988.463867	49.591152
2778.742128	17466.247000	1987.497070	91.509460
2778.742128	17466.247000	1986.531250	76.341110
2778.742128	17466.247000	1985.564453	-32.957977
2778.742128	17466.247000	1984.597656	85.051643
2778.742128	17466.247000	1983.630859	-19.605772
2778.742128	17466.247000	1982.664063	308.086548
2778.742128	17466.247000	1981.696289	104.279922
2778.742128	17466.247000	1980.728516	130.142014
2778.742128	17466.247000	1979.761719	118.799416
2778.742128	17466.247000	1978.792969	109.795616
2778.742128	17466.247000	1977.825195	-45.010376
2778.742128	17466.247000	1976.857422	-148.048248
2778.742128	17466.247000	1975.888672	-88.277618
2778.742128	17466.247000	1974.919922	28.106941
2778.742128	17466.247000	1973.951172	-1.227070
2778.742128	17466.247000	1972.982422	92.675308
2778.742128	17466.247000	1972.013672	85.322617
2778.742128	17466.247000	1971.043945	16.229691
2778.742128	17466.247000	1970.075195	55.538940
2778.742128	17466.247000	1969.105469	79.954369
2778.742128	17466.247000	1968.135742	111.666649
2778.742128	17466.247000	1967.165039	-11.943978
2778.742128	17466.247000	1966.195313	7.293022
2778.742128	17466.247000	1965.224609	-106.554726
2778.742128	17466.247000	1964.253906	50.449478
2778.742128	17466.247000	1963.283203	0.509988
2778.742128	17466.247000	1962.312500	-44.552254
2778.742128	17466.247000	1961.341797	13.710550
2778.742128	17466.247000	1960.370117	12.836627
2778.742128	17466.247000	1959.399414	51.272640
2778.742128	17466.247000	1958.427734	-55.486683
2778.742128	17466.247000	1957.455078	137.787170
2778.742128	17466.247000	1956.483398	72.758675
2778.742128	17466.247000	1955.511719	147.842438
2778.742128	17466.247000	1954.539063	203.194992
2778.742128	17466.247000	1953.566406	-88.023224
2778.742128	17466.247000	1952.593750	28.707031
2778.742128	17466.247000	1951.621094	20.073847
2778.742128	17466.247000	1950.647461	112.117081
2778.742128	17466.247000	1949.674805	49.388821
2778.742128	17466.247000	1948.701172	195.354797
2778.742128	17466.247000	1947.727539	78.580910
2778.742128	17466.247000	1946.753906	62.457497
2778.742128	17466.247000	1945.780273	-7.664255
2778.742128	17466.247000	1944.805664	-65.509735
2778.742128	17466.247000	1943.831055	43.452572
2778.742128	17466.247000	1942.856445	15.021389
2778.742128	17466.247000	1941.881836	148.424561
2778.742128	17466.247000	1940.907227	-130.099380
2778.742128	17466.247000	1939.932617	128.272003
2778.742128	17466.247000	1938.957031	80.204910
2778.742128	17466.247000	1937.981445	-60.957951
2778.742128	17466.247000	1937.005859	-6.089652
2778.742128	17466.247000	1936.030273	46.306290
2778.742128	17466.247000	1935.054688	-65.390884
2778.742128	17466.247000	1934.078125	168.177582
2778.742128	17466.247000	1933.101563	14.885358
2778.742128	17466.247000	1932.125000	135.772125
2778.742128	17466.247000	1931.148438	19.255470
2778.742128	17466.247000	1930.171875	-45.834991
2778.742128	17466.247000	1929.194336	-47.296524
2778.742128	17466.247000	1928.217773	-36.522011
2778.742128	17466.247000	1927.240234	-113.772087
2778.742128	17466.247000	1926.262695	-46.744308
2778.742128	17466.247000	1925.284180	37.377151
2778.742128	17466.247000	1924.306641	170.354401
2778.742128	17466.247000	1923.328125	49.180119
2778.742128	17466.247000	1922.350586	204.113327
2778.742128	17466.247000	1921.372070	-14.698575
2778.742128	17466.247000	1920.392578	64.509590
2778.742128	17466.247000	1919.414063	70.453697
2778.742128	17466.247000	1918.434570	44.674122
2778.742128	17466.247000	1917.456055	-71.386353
2778.742128	17466.247000	1916.476563	-38.537941
2778.742128	17466.247000	1915.497070	65.064598
2778.742128	17466.247000	1914.516602	158.885178
2778.742128	17466.247000	1913.537109	101.478127
2778.742128	17466.247000	1912.556641	-14.413621
2778.742128	17466.247000	1911.576172	-69.299995
2778.742128	17466.247000	1910.595703	-143.650650
2778.742128	17466.247000	1909.615234	240.199524
2778.742128	17466.247000	1908.633789	-14.456607
2778.742128	17466.247000	1907.653320	-40.008984
2778.742128	17466.247000	1906.671875	70.859055
2778.742128	17466.247000	1905.690430	38.024460
2778.742128	17466.247000	1904.708984	14.955387
2778.742128	17466.247000	1903.727539	69.806465
2778.742128	17466.247000	1902.745117	0.526723
2778.742128	17466.247000	1901.762695	-12.745829
2778.742128	17466.247000	1900.780273	-33.298050
2778.742128	17466.247000	1899.797852	62.929363
2778.742128	17466.247000	1898.815430	39.965900
2778.742128	17466.247000	1897.832031	-14.586165
2778.742128	17466.247000	1896.849609	47.587662
2778.742128	17466.247000	1895.866211	58.706867
2778.742128	17466.247000	1894.882813	101.426758
2778.742128	17466.247000	1893.898438	88.258247
2778.742128	17466.247000	1892.915039	9.515635
2778.742128	17466.247000	1891.930664	-52.185593
2778.742128	17466.247000	1890.947266	-45.858864
2778.742128	17466.247000	1889.962891	-168.204132
2778.742128	17466.247000	1888.977539	-156.984085
2778.742128	17466.247000	1887.993164	-85.084343
2778.742128	17466.247000	1887.007813	-102.985626
2778.742128	17466.247000	1886.023438	-23.828981
2778.742128	17466.247000	1885.038086	-41.720615
2778.742128	17466.247000	1884.051758	1.030771
2778.742128	17466.247000	1883.066406	4.975924
2778.742128	17466.247000	1882.081055	-3.196649
2778.742128	17466.247000	1881.094727	-21.057224
2778.742128	17466.247000	1880.108398	33.794201
2778.742128	17466.247000	1879.122070	20.786135
2778.742128	17466.247000	1878.135742	44.122467
2778.742128	17466.247000	1877.148438	-53.648960
2778.742128	17466.247000	1876.162109	-66.627937
2778.742128	17466.247000	1875.174805	-26.337721
2778.742128	17466.247000	1874.187500	76.873558
2778.742128	17466.247000	1873.199219	3.370595
2778.742128	17466.247000	1872.211914	9.744954
2778.742128	17466.247000	1871.223633	6.436720
2778.742128	17466.247000	1870.236328	-98.464989
2778.742128	17466.247000	1869.248047	-77.576263
2778.742128	17466.247000	1868.258789	-22.849098
2778.742128	17466.247000	1867.270508	-35.837925
2778.742128	17466.247000	1866.282227	101.026474
2778.742128	17466.247000	1865.292969	-185.067581
2778.742128	17466.247000	1864.303711	29.073212
2778.742128	17466.247000	1863.314453	-10.520714
2778.742128	17466.247000	1862.324219	160.013718
2778.742128	17466.247000	1861.334961	-19.666925
2778.742128	17466.247000	1860.344727	-18.218967
2778.742128	17466.247000	1859.354492	-19.198580
2778.742128	17466.247000	1858.364258	73.930977
2778.742128	17466.247000	1857.374023	5.344150
2778.742128	17466.247000	1856.383789	127.354042
2778.742128	17466.247000	1855.392578	53.927139
2778.742128	17466.247000	1854.401367	105.913078
2778.742128	17466.247000	1853.410156	-30.207064
2778.742128	17466.247000	1852.418945	163.968185
2778.742128	17466.247000	1851.426758	73.644020
2778.742128	17466.247000	1850.435547	12.250738
2778.742128	17466.247000	1849.443359	66.505684
2778.742128	17466.247000	1848.451172	70.132133
2778.742128	17466.247000	1847.458984	59.283531
2778.742128	17466.247000	1846.466797	178.444382
2778.742128	17466.247000	1845.473633	49.561893
2778.742128	17466.247000	1844.480469	45.869232
2778.742128	17466.247000	1843.487305	145.634583
2778.742128	17466.247000	1842.494141	45.624672
2778.742128	17466.247000	1841.500977	41.851845
2778.742128	17466.247000	1840.506836	93.371124
2778.742128	17466.247000	1839.513672	10.173442
2778.742128	17466.247000	1838.519531	18.339870
2778.742128	17466.247000	1837.525391	31.279547
2778.742128	17466.247000	1836.530273	-27.922344
2778.742128	17466.247000	1835.536133	88.283005
2778.742128	17466.247000	1834.541016	24.219614
2778.742128	17466.247000	1833.545898	5.785030
2778.742128	17466.247000	1832.550781	-43.899963
2778.742128	17466.247000	1831.555664	40.862087
2778.742128	17466.247000	1830.560547	72.738846
2778.742128	17466.247000	1829.564453	135.767944
2778.742128	17466.247000	1828.568359	241.930145
2778.742128	17466.247000	1827.572266	9.702700
2778.742128	17466.247000	1826.576172	84.582420
2778.742128	17466.247000	1825.580078	106.625687
2778.742128	17466.247000	1824.583008	224.537430
2778.742128	17466.247000	1823.585938	76.233711
2778.742128	17466.247000	1822.588867	71.767509
2778.742128	17466.247000	1821.591797	-47.780834
2778.742128	17466.247000	1820.594727	72.289627
2778.742128	17466.247000	1819.596680	41.336006
2778.742128	17466.247000	1818.599609	10.348482
2778.742128	17466.247000	1817.601563	94.275841
2778.742128	17466.247000	1816.603516	271.504211
2778.742128	17466.247000	1815.604492	87.130814
2778.742128	17466.247000	1814.606445	10.485579
2778.742128	17466.247000	1813.607422	58.255230
2778.742128	17466.247000	1812.608398	-54.347202
2778.742128	17466.247000	1811.609375	7.665939
2778.742128	17466.247000	1810.610352	-2.146877
2778.742128	17466.247000	1809.610352	198.417267
2778.742128	17466.247000	1808.611328	183.683594
2778.742128	17466.247000	1807.611328	-39.057713
2778.742128	17466.247000	1806.611328	65.641617
2778.742128	17466.247000	1805.610352	-20.909227
2778.742128	17466.247000	1804.610352	-97.925575
2778.742128	17466.247000	1803.609375	99.707092
2778.742128	17466.247000	1802.608398	36.909458
2778.742128	17466.247000	1801.607422	107.783539
2778.742128	17466.247000	1800.606445	-93.563744
2778.742128	17466.247000	1799.605469	-15.648996
2778.742128	17466.247000	1798.603516	28.767326
2778.742128	17466.247000	1797.601563	56.405556
2778.742128	17466.247000	1796.599609	98.285255
2778.742128	17466.247000	1795.597656	56.616913
2778.742128	17466.247000	1794.595703	14.902542
2778.742128	17466.247000	1793.592773	-24.476454
2778.742128	17466.247000	1792.589844	-40.067467
2778.742128	17466.247000	1791.587891	-29.498684
2778.742128	17466.247000	1790.583984	235.940536
2778.742128	17466.247000	1789.581055	48.601292
2778.742128	17466.247000	1788.577148	42.278679
2778.742128	17466.247000	1787.574219	23.990503
2778.742128	17466.247000	1786.570313	29.449602
2778.742128	17466.247000	1785.566406	-91.318634
2778.742128	17466.247000	1784.561523	-55.034321
2778.742128	17466.247000	1783.557617	-21.205963
2778.742128	17466.247000	1782.552734	55.362724
2778.742128	17466.247000	1781.547852	-70.343590
2778.742128	17466.247000	1780.542969	-70.028778
2778.742128	17466.247000	1779.538086	-7.961148
2778.742128	17466.247000	1778.532227	122.951874
2778.742128	17466.247000	1777.527344	32.710438
2778.742128	17466.247000	1776.521484	54.119019
2778.742128	17466.247000	1775.515625	139.600250
2778.742128	17466.247000	1774.508789	23.065338
2778.742128	17466.247000	1773.502930	-55.490364
2778.742128	17466.247000	1772.496094	25.003756
2778.742128	17466.247000	1771.489258	-96.397522
2778.742128	17466.247000	1770.482422	-30.306152
2778.742128	17466.247000	1769.475586	54.676201
2778.742128	17466.247000	1768.467773	-7.556167
2778.742128	17466.247000	1767.460938	-100.669647
2778.742128	17466.247000	1766.453125	112.142479
2778.742128	17466.247000	1765.445313	-0.073324
2778.742128	17466.247000	1764.437500	3.858187
2778.742128	17466.247000	1763.428711	50.382317
2778.742128	17466.247000	1762.420898	-104.628525
2778.742128	17466.247000	1761.412109	-77.198761
2778.742128	17466.247000	1760.403320	-139.875793
2778.742128	17466.247000	1759.393555	-48.641266
2778.742128	17466.247000	1758.384766	82.752304
2778.742128	17466.247000	1757.375000	88.529533
2778.742128	17466.247000	1756.366211	-142.491486
2778.742128	17466.247000	1755.356445	-117.879837
2778.742128	17466.247000	1754.345703	34.433704
2778.742128	17466.247000	1753.335938	28.104580
2778.742128	17466.247000	1752.325195	-75.283333
2778.742128	17466.247000	1751.315430	-20.237869
2778.742128	17466.247000	1750.304688	-19.674906
2778.742128	17466.247000	1749.292969	35.188217
2778.742128	17466.247000	1748.282227	11.963724
2778.742128	17466.247000	1747.270508	5.215365
2778.742128	17466.247000	1746.259766	74.015121
2778.742128	17466.247000	1745.248047	90.741447
2778.742128	17466.247000	1744.235352	-41.412769
2778.742128	17466.247000	1743.223633	22.419790
2778.742128	17466.247000	1742.211914	3.523852
2778.742128	17466.247000	1741.199219	43.574516
2778.742128	17466.247000	1740.186523	59.940506
2778.742128	17466.247000	1739.173828	45.555672
2778.742128	17466.247000	1738.160156	-23.158941
2778.742128	17466.247000	1737.147461	49.615028
2778.742128	17466.247000	1736.133789	-14.493546
2778.742128	17466.247000	1735.120117	-57.424648
2778.742128	17466.247000	1734.106445	62.254169
2778.742128	17466.247000	1733.091797	92.249832
2778.742128	17466.247000	1732.078125	-30.998997
2778.742128	17466.247000	1731.063477	41.279064
2778.742128	17466.247000	1730.048828	7.460804
2778.742128	17466.247000	1729.034180	-108.839630
2778.742128	17466.247000	1728.019531	-65.042267
2778.742128	17466.247000	1727.003906	-212.026901
2778.742128	17466.247000	1725.988281	81.140182
2778.742128	17466.247000	1724.972656	61.135666
2778.742128	17466.247000	1723.957031	-147.157196
2778.742128	17466.247000	1722.941406	75.063774
2778.742128	17466.247000	1721.924805	24.298441
2778.742128	17466.247000	1720.909180	-54.721600
2778.742128	17466.247000	1719.892578	66.061928
2778.742128	17466.247000	1718.875977	29.244356
2778.742128	17466.247000	1717.858398	22.924950
2778.742128	17466.247000	1716.841797	-286.563110
2778.742128	17466.247000	1715.824219	78.248169
2778.742128	17466.247000	1714.806641	109.323067
2778.742128	17466.247000	1713.789063	-47.545414
2778.742128	17466.247000	1712.770508	110.204659
2778.742128	17466.247000	1711.752930	-30.288755
2778.742128	17466.247000	1710.734375	-98.035172
2778.742128	17466.247000	1709.715820	73.539352
2778.742128	17466.247000	1708.697266	-48.277020
2778.742128	17466.247000	1707.678711	66.812691
2778.742128	17466.247000	1706.659180	90.329643
2778.742128	17466.247000	1705.640625	97.376328
2778.742128	17466.247000	1704.621094	209.853806
2778.742128	17466.247000	1703.600586	78.460785
2778.742128	17466.247000	1702.581055	8.001758
2778.742128	17466.247000	1701.561523	-74.197990
2778.742128	17466.247000	1700.541016	-69.752304
2778.742128	17466.247000	1699.520508	-16.176014
2778.742128	17466.247000	1698.500000	79.478317
2778.742128	17466.247000	1697.478516	-9.917435
2778.742128	17466.247000	1696.458008	153.480392
2778.742128	17466.247000	1695.436523	35.922176
2778.742128	17466.247000	1694.415039	185.103317
2778.742128	17466.247000	1693.393555	336.518646
2778.742128	17466.247000	1692.372070	-64.164108
2778.742128	17466.247000	1691.349609	80.123466
2778.742128	17466.247000	1690.327148	198.590652
2778.742128	17466.247000	1689.304688	167.360718
2778.742128	17466.247000	1688.282227	180.504242
2778.742128	17466.247000	1687.259766	30.029749
2778.742128	17466.247000	1686.236328	176.265793
2778.742128	17466.247000	1685.213867	116.860725
2778.742128	17466.247000	1684.190430	129.824371
2778.742128	17466.247000	1683.166016	124.054337
2778.742128	17466.247000	1682.142578	195.291992
2778.742128	17466.247000	1681.119141	198.776474
2778.742128	17466.247000	1680.094727	274.552460
2778.742128	17466.247000	1679.070313	266.269653
2778.742128	17466.247000	1678.045898	278.946869
2778.742128	17466.247000	1677.020508	359.207886
2778.742128	17466.247000	1675.996094	192.244583
2778.742128	17466.247000	1674.970703	109.228897
2778.742128	17466.247000	1673.945313	275.613434
2778.742128	17466.247000	1672.919922	292.753967
2778.742128	17466.247000	1671.893555	437.994812
2778.742128	17466.247000	1670.868164	548.214233
2778.742128	17466.247000	1669.841797	469.696747
2778.742128	17466.247000	1668.815430	419.122559
2778.742128	17466.247000	1667.789063	375.523804
2778.742128	17466.247000	1666.761719	578.641663
2778.742128	17466.247000	1665.735352	455.845367
2778.742128	17466.247000	1664.708008	388.904053
2778.742128	17466.247000	1663.680664	468.524048
2778.742128	17466.247000	1662.653320	448.073822
2778.742128	17466.247000	1661.625000	478.757874
2778.742128	17466.247000	1660.597656	537.316345
2778.742128	17466.247000	1659.569336	512.135742
2778.742128	17466.247000	1658.541016	647.307373
2778.742128	17466.247000	1657.512695	547.715332
2778.742128	17466.247000	1656.483398	668.837891
2778.742128	17466.247000	1655.455078	799.195740
2778.742128	17466.247000	1654.425781	625.250427
2778.742128	17466.247000	1653.396484	690.507813
2778.742128	17466.247000	1652.366211	741.786072
2778.742128	17466.247000	1651.336914	658.420776
2778.742128	17466.247000	1650.306641	709.654663
2778.742128	17466.247000	1649.276367	821.176392
2778.742128	17466.247000	1648.246094	972.076050
2778.742128	17466.247000	1647.215820	914.178406
2778.742128	17466.247000	1646.185547	740.355347
2778.742128	17466.247000	1645.154297	497.030945
2778.742128	17466.247000	1644.123047	671.001709
2778.742128	17466.247000	1643.091797	905.148315
2778.742128	17466.247000	1642.060547	958.475220
2778.742128	17466.247000	1641.028320	761.584595
2778.742128	17466.247000	1639.997070	1055.773682
2778.742128	17466.247000	1638.964844	1041.860718
2778.742128	17466.247000	1637.931641	1004.788147
2778.742128	17466.247000	1636.899414	1060.323853
2778.742128	17466.247000	1635.867188	967.724304
2778.742128	17466.247000	1634.833984	1229.159790
2778.742128	17466.247000	1633.800781	1136.551147
2778.742128	17466.247000	1632.767578	1215.132813
2778.742128	17466.247000	1631.734375	1157.251343
2778.742128	17466.247000	1630.700195	1235.792603
2778.742128	17466.247000	1629.666016	1404.456665
2778.742128	17466.247000	1628.631836	1325.771484
2778.742128	17466.247000	1627.597656	1249.432495
2778.742128	17466.247000	1626.563477	1230.882935
2778.742128	17466.247000	1625.528320	1041.416870
2778.742128	17466.247000	1624.493164	1184.571167
2778.742128	17466.247000	1623.458008	1140.661133
2778.742128	17466.247000	1622.422852	1219.122192
2778.742128	17466.247000	1621.387695	1036.764771
2778.742128	17466.247000	1620.351563	1182.145874
2778.742128	17466.247000	1619.315430	1022.949646
2778.742128	17466.247000	1618.279297	1092.183716
2778.742128	17466.247000	1617.243164	1202.914429
2778.742128	17466.247000	1616.207031	1226.000122
2778.742128	17466.247000	1615.169922	981.671570
2778.742128	17466.247000	1614.132813	1030.167480
2778.742128	17466.247000	1613.095703	1237.661743
2778.742128	17466.247000	1612.058594	1265.388428
2778.742128	17466.247000	1611.020508	1355.307983
2778.742128	17466.247000	1609.983398	1571.887085
2778.742128	17466.247000	1608.945313	1689.383545
2778.742128	17466.247000	1607.907227	1622.685181
2778.742128	17466.247000	1606.868164	1772.383667
2778.742128	17466.247000	1605.830078	1721.849365
2778.742128	17466.247000	1604.791016	1731.170532
2778.742128	17466.247000	1603.751953	2046.456787
2778.742128	17466.247000	1602.712891	1894.770386
2778.742128	17466.247000	1601.673828	1662.689331
2778.742128	17466.247000	1600.633789	1789.359985
2778.742128	17466.247000	1599.594727	1653.984375
2778.742128	17466.247000	1598.554688	1449.739990
2778.742128	17466.247000	1597.513672	1610.920776
2778.742128	17466.247000	1596.473633	1581.412354
2778.742128	17466.247000	1595.433594	1347.536743
2778.742128	17466.247000	1594.392578	1405.406250
2778.742128	17466.247000	1593.351563	1401.298828
2778.742128	17466.247000	1592.310547	1169.983032
2778.742128	17466.247000	1591.268555	1124.674683
2778.742128	17466.247000	1590.227539	1026.655396
2778.742128	17466.247000	1589.185547	1222.341431
2778.742128	17466.247000	1588.143555	1083.122070
2778.742128	17466.247000	1587.100586	994.436890
2778.742128	17466.247000	1586.058594	1164.910156
2778.742128	17466.247000	1585.015625	840.220886
2778.742128	17466.247000	1583.972656	928.225159
2778.742128	17466.247000	1582.929688	853.549683
2778.742128	17466.247000	1581.886719	847.673584
2778.742128	17466.247000	1580.843750	1025.080200
2778.742128	17466.247000	1579.799805	1021.541321
2778.742128	17466.247000	1578.755859	896.701721
2778.742128	17466.247000	1577.711914	1062.675415
2778.742128	17466.247000	1576.666992	958.558533
2778.742128	17466.247000	1575.623047	968.949036
2778.742128	17466.247000	1574.578125	1180.699707
2778.742128	17466.247000	1573.533203	1115.649536
2778.742128	17466.247000	1572.488281	1114.706177
2778.742128	17466.247000	1571.443359	1191.552246
2778.742128	17466.247000	1570.397461	1192.973511
2778.742128	17466.247000	1569.351563	1096.167969
2778.742128	17466.247000	1568.305664	940.040588
2778.742128	17466.247000	1567.259766	1069.606689
2778.742128	17466.247000	1566.213867	1068.977417
2778.742128	17466.247000	1565.166992	924.518738
2778.742128	17466.247000	1564.120117	896.619995
2778.742128	17466.247000	1563.073242	941.839294
2778.742128	17466.247000	1562.026367	884.389282
2778.742128	17466.247000	1560.978516	877.214417
2778.742128	17466.247000	1559.930664	719.522034
2778.742128	17466.247000	1558.883789	719.348999
2778.742128	17466.247000	1557.834961	719.220642
2778.742128	17466.247000	1556.787109	700.918579
2778.742128	17466.247000	1555.739258	830.864014
2778.742128	17466.247000	1554.690430	719.211853
2778.742128	17466.247000	1553.641602	799.084839
2778.742128	17466.247000	1552.592773	708.112549
2778.742128	17466.247000	1551.542969	740.239014
2778.742128	17466.247000	1550.494141	733.705688
2778.742128	17466.247000	1549.444336	590.612244
2778.742128	17466.247000	1548.394531	597.892578
2778.742128	17466.247000	1547.344727	475.497498
2778.742128	17466.247000	1546.293945	555.743408
2778.742128	17466.247000	1545.244141	515.445313
2778.742128	17466.247000	1544.193359	411.529694
2778.742128	17466.247000	1543.142578	457.827515
2778.742128	17466.247000	1542.090820	499.622284
2778.742128	17466.247000	1541.040039	677.879883
2778.742128	17466.247000	1539.988281	551.552551
2778.742128	17466.247000	1538.936523	491.247375
2778.742128	17466.247000	1537.884766	360.601654
2778.742128	17466.247000	1536.833008	289.141144
2778.742128	17466.247000	1535.780273	249.571136
2778.742128	17466.247000	1534.727539	321.354401
2778.742128	17466.247000	1533.674805	306.910828
2778.742128	17466.247000	1532.622070	294.816528
2778.742128	17466.247000	1531.569336	146.635406
2778.742128	17466.247000	1530.515625	313.966034
2778.742128	17466.247000	1529.461914	390.563354
2778.742128	17466.247000	1528.408203	303.907227
2778.742128	17466.247000	1527.354492	208.289063
2778.742128	17466.247000	1526.299805	276.014740
2778.742128	17466.247000	1525.246094	343.794037
2778.742128	17466.247000	1524.191406	302.838013
2778.742128	17466.247000	1523.136719	221.191071
2778.742128	17466.247000	1522.081055	422.818604
2778.742128	17466.247000	1521.026367	400.222687
2778.742128	17466.247000	1519.970703	422.998718
2778.742128	17466.247000	1518.915039	423.203522
2778.742128	17466.247000	1517.859375	561.564941
2778.742128	17466.247000	1516.802734	656.948120
2778.742128	17466.247000	1515.747070	691.283997
2778.742128	17466.247000	1514.690430	662.339539
2778.742128	17466.247000	1513.633789	821.215210
2778.742128	17466.247000	1512.577148	751.713928
2778.742128	17466.247000	1511.519531	863.187500
2778.742128	17466.247000	1510.461914	696.665710
2778.742128	17466.247000	1509.405273	697.533447
2778.742128	17466.247000	1508.346680	759.482605
2778.742128	17466.247000	1507.289063	713.057129
2778.742128	17466.247000	1506.231445	657.697815
2778.742128	17466.247000	1505.172852	742.447144
2778.742128	17466.247000	1504.114258	617.275879
2778.742128	17466.247000	1503.055664	681.851196
2778.742128	17466.247000	1501.996094	593.014648
2778.742128	17466.247000	1500.937500	599.069092
2778.742128	17466.247000	1499.877930	463.077454
2778.742128	17466.247000	1498.818359	392.633057
2778.742128	17466.247000	1497.757813	511.724304
2778.742128	17466.247000	1496.698242	243.061417
2778.742128	17466.247000	1495.637695	517.841858
2778.742128	17466.247000	1494.577148	350.869446
2778.742128	17466.247000	1493.516602	204.327957
2778.742128	17466.247000	1492.456055	231.397156
2778.742128	17466.247000	1491.394531	301.334412
2778.742128	17466.247000	1490.333008	112.358337
2778.742128	17466.247000	1489.271484	24.859598
2778.742128	17466.247000	1488.209961	232.366608
2778.742128	17466.247000	1487.148438	-16.990686
2778.742128	17466.247000	1486.085938	-45.651306
2778.742128	17466.247000	1485.023438	-87.712082
2778.742128	17466.247000	1483.960938	104.252312
2778.742128	17466.247000	1482.898438	82.591049
2778.742128	17466.247000	1481.834961	128.474274
2778.742128	17466.247000	1480.772461	39.555489
2778.742128	17466.247000	1479.708984	148.521225
2778.742128	17466.247000	1478.644531	-36.792824
2778.742128	17466.247000	1477.581055	36.382553
2778.742128	17466.247000	1476.517578	105.109222
2778.742128	17466.247000	1475.453125	-32.615566
2778.742128	17466.247000	1474.388672	220.336044
2778.742128	17466.247000	1473.323242	239.803253
2778.742128	17466.247000	1472.258789	8.150105
2778.742128	17466.247000	1471.193359	283.609772
2778.742128	17466.247000	1470.127930	157.785858
2778.742128	17466.247000	1469.062500	105.869652
2778.742128	17466.247000	1467.997070	166.219513
2778.742128	17466.247000	1466.930664	210.978256
2778.742128	17466.247000	1465.865234	89.830727
2778.742128	17466.247000	1464.798828	123.669197
2778.742128	17466.247000	1463.731445	222.317047
2778.742128	17466.247000	1462.665039	343.429291
2778.742128	17466.247000	1461.597656	361.731689
2778.742128	17466.247000	1460.530273	272.794769
2778.742128	17466.247000	1459.462891	411.635040
2778.742128	17466.247000	1458.395508	211.274750
2778.742128	17466.247000	1457.327148	347.770538
2778.742128	17466.247000	1456.259766	283.976563
2778.742128	17466.247000	1455.191406	312.157593
2778.742128	17466.247000	1454.123047	250.348526
2778.742128	17466.247000	1453.053711	362.294678
2778.742128	17466.247000	1451.985352	336.679657
2778.742128	17466.247000	1450.916016	428.963165
2778.742128	17466.247000	1449.846680	499.471741
2778.742128	17466.247000	1448.776367	220.003738
2778.742128	17466.247000	1447.707031	95.017487
2778.742128	17466.247000	1446.636719	245.662735
2778.742128	17466.247000	1445.566406	284.711975
2778.742128	17466.247000	1444.496094	372.566254
2778.742128	17466.247000	1443.425781	281.870880
2778.742128	17466.247000	1442.354492	176.623856
2778.742128	17466.247000	1441.283203	239.031845
2778.742128	17466.247000	1440.211914	349.752808
2778.742128	17466.247000	1439.140625	69.776146
2778.742128	17466.247000	1438.069336	93.702682
2778.742128	17466.247000	1436.997070	288.949219
2778.742128	17466.247000	1435.924805	77.840202
2778.742128	17466.247000	1434.852539	87.004196
2778.742128	17466.247000	1433.780273	230.907684
2778.742128	17466.247000	1432.707031	58.775871
2778.742128	17466.247000	1431.633789	32.199936
2778.742128	17466.247000	1430.560547	-32.389805
2778.742128	17466.247000	1429.487305	93.410606
2778.742128	17466.247000	1428.413086	-53.542515
2778.742128	17466.247000	1427.339844	37.190510
2778.742128	17466.247000	1426.265625	-85.236824
2778.742128	17466.247000	1425.191406	-76.241150
2778.742128	17466.247000	1424.116211	-71.570358
2778.742128	17466.247000	1423.041992	-116.093506
2778.742128	17466.247000	1421.966797	21.620331
2778.742128	17466.247000	1420.891602	52.649311
2778.742128	17466.247000	1419.816406	4.779171
2778.742128	17466.247000	1418.740234	-52.277222
2778.742128	17466.247000	1417.665039	-73.206062
2778.742128	17466.247000	1416.588867	-87.339920
2778.742128	17466.247000	1415.512695	-42.697685
2778.742128	17466.247000	1414.435547	-49.925121
2778.742128	17466.247000	1413.359375	50.023903
2778.742128	17466.247000	1412.282227	6.203094
2778.742128	17466.247000	1411.205078	-55.090828
2778.742128	17466.247000	1410.127930	62.554279
2778.742128	17466.247000	1409.049805	156.238571
2778.742128	17466.247000	1407.972656	72.421051
2778.742128	17466.247000	1406.894531	162.868469
2778.742128	17466.247000	1405.816406	198.213104
2778.742128	17466.247000	1404.737305	337.511444
2778.742128	17466.247000	1403.659180	383.082245
2778.742128	17466.247000	1402.580078	470.517517
2778.742128	17466.247000	1401.500977	380.393097
2778.742128	17466.247000	1400.421875	401.837372
2778.742128	17466.247000	1399.341797	347.475006
2778.742128	17466.247000	1398.262695	372.989807
2778.742128	17466.247000	1397.182617	291.727264
2778.742128	17466.247000	1396.102539	445.826447
2778.742128	17466.247000	1395.021484	302.454132
2778.742128	17466.247000	1393.941406	336.780975
2778.742128	17466.247000	1392.860352	245.054352
2778.742128	17466.247000	1391.779297	325.954956
2778.742128	17466.247000	1390.698242	409.678528
2778.742128	17466.247000	1389.616211	347.667572
2778.742128	17466.247000	1388.535156	322.324524
2778.742128	17466.247000	1387.453125	420.179565
2778.742128	17466.247000	1386.371094	457.204102
2778.742128	17466.247000	1385.288086	379.863281
2778.742128	17466.247000	1384.206055	530.171387
2778.742128	17466.247000	1383.123047	432.432495
2778.742128	17466.247000	1382.040039	390.947815
2778.742128	17466.247000	1380.957031	636.143494
2778.742128	17466.247000	1379.873047	588.868774
2778.742128	17466.247000	1378.789063	397.343689
2778.742128	17466.247000	1377.705078	551.984619
2778.742128	17466.247000	1376.621094	603.660095
2778.742128	17466.247000	1375.537109	444.690826
2778.742128	17466.247000	1374.452148	595.510254
2778.742128	17466.247000	1373.367188	489.639893
2778.742128	17466.247000	1372.282227	451.650360
2778.742128	17466.247000	1371.197266	632.915100
2778.742128	17466.247000	1370.112305	598.019470
2778.742128	17466.247000	1369.026367	685.385376
2778.742128	17466.247000	1367.940430	678.994019
2778.742128	17466.247000	1366.854492	724.265686
2778.742128	17466.247000	1365.767578	661.334351
2778.742128	17466.247000	1364.681641	528.123535
2778.742128	17466.247000	1363.594727	517.418579
2778.742128	17466.247000	1362.507813	496.834106
2778.742128	17466.247000	1361.419922	357.141113
2778.742128	17466.247000	1360.333008	401.615631
2778.742128	17466.247000	1359.245117	412.936493
2778.742128	17466.247000	1358.157227	422.874878
2778.742128	17466.247000	1357.069336	400.390167
2778.742128	17466.247000	1355.981445	373.211609
2778.742128	17466.247000	1354.892578	300.447845
2778.742128	17466.247000	1353.803711	150.001724
2778.742128	17466.247000	1352.714844	378.556702
2778.742128	17466.247000	1351.625000	347.598907
2778.742128	17466.247000	1350.536133	472.459808
2778.742128	17466.247000	1349.446289	493.118195
2778.742128	17466.247000	1348.356445	510.047058
2778.742128	17466.247000	1347.266602	492.967468
2778.742128	17466.247000	1346.175781	445.539520
2778.742128	17466.247000	1345.085938	599.491760
2778.742128	17466.247000	1343.995117	670.759399
2778.742128	17466.247000	1342.903320	772.753113
2778.742128	17466.247000	1341.812500	786.511597
2778.742128	17466.247000	1340.720703	769.239014
2778.742128	17466.247000	1339.629883	676.079468
2778.742128	17466.247000	1338.538086	881.345520
2778.742128	17466.247000	1337.445313	831.306152
2778.742128	17466.247000	1336.353516	728.429504
2778.742128	17466.247000	1335.260742	868.553772
2778.742128	17466.247000	1334.167969	773.475159
2778.742128	17466.247000	1333.075195	826.214478
2778.742128	17466.247000	1331.981445	634.075867
2778.742128	17466.247000	1330.888672	596.762085
2778.742128	17466.247000	1329.794922	510.007477
2778.742128	17466.247000	1328.701172	570.250854
2778.742128	17466.247000	1327.606445	680.621460
2778.742128	17466.247000	1326.512695	718.302490
2778.742128	17466.247000	1325.417969	736.106567
2778.742128	17466.247000	1324.323242	621.034790
2778.742128	17466.247000	1323.227539	691.350525
2778.742128	17466.247000	1322.132813	624.287781
2778.742128	17466.247000	1321.037109	721.139465
2778.742128	17466.247000	1319.941406	721.913513
2778.742128	17466.247000	1318.845703	680.846924
2778.742128	17466.247000	1317.750000	571.917053
2778.742128	17466.247000	1316.653320	697.328308
2778.742128	17466.247000	1315.556641	566.971191
2778.742128	17466.247000	1314.459961	654.377319
2778.742128	17466.247000	1313.363281	494.683105
2778.742128	17466.247000	1312.265625	510.243988
2778.742128	17466.247000	1311.167969	549.814636
2778.742128	17466.247000	1310.070313	517.781494
2778.742128	17466.247000	1308.972656	539.879395
2778.742128	17466.247000	1307.874023	360.348907
2778.742128	17466.247000	1306.776367	347.722870
2778.742128	17466.247000	1305.677734	492.371429
2778.742128	17466.247000	1304.579102	429.323669
2778.742128	17466.247000	1303.479492	534.036072
2778.742128	17466.247000	1302.380859	469.024780
2778.742128	17466.247000	1301.281250	493.189362
2778.742128	17466.247000	1300.181641	351.925476
2778.742128	17466.247000	1299.081055	302.924133
2778.742128	17466.247000	1297.981445	346.871216
2778.742128	17466.247000	1296.880859	347.398895
2778.742128	17466.247000	1295.780273	255.600006
2778.742128	17466.247000	1294.679688	306.304504
2778.742128	17466.247000	1293.578125	278.772736
2778.742128	17466.247000	1292.476563	271.211365
2778.742128	17466.247000	1291.375000	182.544998
2778.742128	17466.247000	1290.273438	327.928772
2778.742128	17466.247000	1289.171875	340.010040
2778.742128	17466.247000	1288.069336	392.977386
2778.742128	17466.247000	1286.966797	224.861649
2778.742128	17466.247000	1285.864258	313.742279
2778.742128	17466.247000	1284.761719	185.434586
2778.742128	17466.247000	1283.658203	227.490494
2778.742128	17466.247000	1282.554688	211.751358
2778.742128	17466.247000	1281.451172	342.568146
2778.742128	17466.247000	1280.347656	208.744415
2778.742128	17466.247000	1279.244141	233.197540
2778.742128	17466.247000	1278.139648	224.703613
2778.742128	17466.247000	1277.035156	282.127899
2778.742128	17466.247000	1275.930664	118.133408
2778.742128	17466.247000	1274.825195	55.328716
2778.742128	17466.247000	1273.720703	87.480659
2778.742128	17466.247000	1272.615234	60.373959
2778.742128	17466.247000	1271.508789	250.855194
2778.742128	17466.247000	1270.403320	256.179016
2778.742128	17466.247000	1269.297852	268.263092
2778.742128	17466.247000	1268.191406	258.084229
2778.742128	17466.247000	1267.084961	233.173294
2778.742128	17466.247000	1265.977539	253.239471
2778.742128	17466.247000	1264.871094	302.820160
2778.742128	17466.247000	1263.763672	122.800652
2778.742128	17466.247000	1262.656250	135.365631
2778.742128	17466.247000	1261.548828	151.644928
2778.742128	17466.247000	1260.440430	295.005432
2778.742128	17466.247000	1259.333008	170.667725
2778.742128	17466.247000	1258.224609	172.595673
2778.742128	17466.247000	1257.115234	250.009918
2778.742128	17466.247000	1256.006836	266.057343
2778.742128	17466.247000	1254.897461	363.444489
2778.742128	17466.247000	1253.788086	313.632446
2778.742128	17466.247000	1252.678711	197.616806
2778.742128	17466.247000	1251.569336	375.982025
2778.742128	17466.247000	1250.458984	314.342987
2778.742128	17466.247000	1249.349609	430.121674
2778.742128	17466.247000	1248.239258	326.337952
2778.742128	17466.247000	1247.127930	381.099670
2778.742128	17466.247000	1246.017578	458.904541
2778.742128	17466.247000	1244.906250	494.901337
2778.742128	17466.247000	1243.794922	406.977570
2778.742128	17466.247000	1242.683594	345.750458
2778.742128	17466.247000	1241.571289	525.310913
2778.742128	17466.247000	1240.459961	421.259277
2778.742128	17466.247000	1239.347656	392.586060
2778.742128	17466.247000	1238.234375	342.945007
2778.742128	17466.247000	1237.122070	338.130493
2778.742128	17466.247000	1236.008789	285.428741
2778.742128	17466.247000	1234.896484	232.270432
2778.742128	17466.247000	1233.782227	397.171204
2778.742128	17466.247000	1232.668945	220.055939
2778.742128	17466.247000	1231.555664	232.620972
2778.742128	17466.247000	1230.441406	164.219299
2778.742128	17466.247000	1229.327148	263.220184
2778.742128	17466.247000	1228.211914	266.398468
2778.742128	17466.247000	1227.097656	220.605560
2778.742128	17466.247000	1225.982422	311.886627
2778.742128	17466.247000	1224.867188	306.786346
2778.742128	17466.247000	1223.751953	170.958633
2778.742128	17466.247000	1222.635742	195.337875
2778.742128	17466.247000	1221.520508	105.531593
2778.742128	17466.247000	1220.404297	129.759598
2778.742128	17466.247000	1219.287109	160.980927
2778.742128	17466.247000	1218.170898	115.824219
2778.742128	17466.247000	1217.053711	99.455452
2778.742128	17466.247000	1215.936523	162.781799
2778.742128	17466.247000	1214.819336	74.111031
2778.742128	17466.247000	1213.702148	112.577057
2778.742128	17466.247000	1212.583984	128.025284
2778.742128	17466.247000	1211.465820	-18.637486
2778.742128	17466.247000	1210.347656	-9.236296
2778.742128	17466.247000	1209.229492	-2.967274
2778.742128	17466.247000	1208.110352	-14.093491
2778.742128	17466.247000	1206.992188	-103.245552
2778.742128	17466.247000	1205.873047	-86.065987
2778.742128	17466.247000	1204.752930	-32.449707
2778.742128	17466.247000	1203.633789	-134.732224
2778.742128	17466.247000	1202.513672	-111.806221
2778.742128	17466.247000	1201.393555	-111.472626
2778.742128	17466.247000	1200.273438	-71.802521
2778.742128	17466.247000	1199.152344	59.855400
2778.742128	17466.247000	1198.032227	48.529701
2778.742128	17466.247000	1196.911133	36.070629
2778.742128	17466.247000	1195.790039	82.836098
2778.742128	17466.247000	1194.667969	-91.343468
2778.742128	17466.247000	1193.545898	26.418732
2778.742128	17466.247000	1192.424805	-51.877117
2778.742128	17466.247000	1191.301758	-122.630997
2778.742128	17466.247000	1190.179688	-146.002457
2778.742128	17466.247000	1189.056641	-110.108925
2778.742128	17466.247000	1187.933594	-26.613697
2778.742128	17466.247000	1186.810547	-151.136139
2778.742128	17466.247000	1185.687500	35.627254
2778.742128	17466.247000	1184.563477	-81.418602
2778.742128	17466.247000	1183.440430	35.700508
2778.742128	17466.247000	1182.316406	-46.086758
2778.742128	17466.247000	1181.191406	21.148529
2778.742128	17466.247000	1180.067383	30.311928
2778.742128	17466.247000	1178.942383	156.449127
2778.742128	17466.247000	1177.817383	52.237949
2778.742128	17466.247000	1176.692383	-21.958981
2778.742128	17466.247000	1175.566406	-40.626106
2778.742128	17466.247000	1174.440430	30.801710
2778.742128	17466.247000	1173.314453	59.812115
2778.742128	17466.247000	1172.188477	39.967472
2778.742128	17466.247000	1171.062500	-13.910568
2778.742128	17466.247000	1169.935547	13.380914
2778.742128	17466.247000	1168.808594	91.331558
2778.742128	17466.247000	1167.681641	39.075527
2778.742128	17466.247000	1166.553711	-3.424077
2778.742128	17466.247000	1165.426758	-20.144587
2778.742128	17466.247000	1164.298828	50.098095
2778.742128	17466.247000	1163.170898	-58.186184
2778.742128	17466.247000	1162.041992	-83.930428
2778.742128	17466.247000	1160.914063	2.441052
2778.742128	17466.247000	1159.785156	-58.121773
2778.742128	17466.247000	1158.656250	-54.548355
2778.742128	17466.247000	1157.526367	-33.391930
2778.742128	17466.247000	1156.397461	-37.696144
2778.742128	17466.247000	1155.267578	-96.217323
2778.742128	17466.247000	1154.137695	-54.886723
2778.742128	17466.247000	1153.006836	24.462532
2778.742128	17466.247000	1151.876953	124.149872
2778.742128	17466.247000	1150.746094	-109.820053
2778.742128	17466.247000	1149.615234	-69.284081
2778.742128	17466.247000	1148.484375	28.803167
2778.742128	17466.247000	1147.352539	-63.153778
2778.742128	17466.247000	1146.220703	24.542521
2778.742128	17466.247000	1145.088867	106.914528
2778.742128	17466.247000	1143.957031	4.946614
2778.742128	17466.247000	1142.825195	74.446411
2778.742128	17466.247000	1141.692383	-51.772022
2778.742128	17466.247000	1140.559570	61.357109
2778.742128	17466.247000	1139.426758	26.976892
2778.742128	17466.247000	1138.292969	161.649353
2778.742128	17466.247000	1137.159180	64.510216
2778.742128	17466.247000	1136.025391	29.421352
2778.742128	17466.247000	1134.891602	129.679672
2778.742128	17466.247000	1133.757813	36.638268
2778.742128	17466.247000	1132.623047	195.596802
2778.742128	17466.247000	1131.488281	145.977341
2778.742128	17466.247000	1130.353516	184.248688
2778.742128	17466.247000	1129.217773	213.742188
2778.742128	17466.247000	1128.083008	138.415482
2778.742128	17466.247000	1126.947266	100.300766
2778.742128	17466.247000	1125.811523	6.248995
2778.742128	17466.247000	1124.674805	-20.396894
2778.742128	17466.247000	1123.539063	-67.855240
2778.742128	17466.247000	1122.402344	-24.716160
2778.742128	17466.247000	1121.265625	-45.130501
2778.742128	17466.247000	1120.127930	67.051201
2778.742128	17466.247000	1118.990234	-45.405800
2778.742128	17466.247000	1117.853516	29.538776
2778.742128	17466.247000	1116.714844	95.533119
2778.742128	17466.247000	1115.577148	-18.294334
2778.742128	17466.247000	1114.439453	2.574977
2778.742128	17466.247000	1113.300781	-72.705742
2778.742128	17466.247000	1112.162109	32.731037
2778.742128	17466.247000	1111.022461	89.114143
2778.742128	17466.247000	1109.883789	6.805662
2778.742128	17466.247000	1108.744141	145.247955
2778.742128	17466.247000	1107.604492	90.626556
2778.742128	17466.247000	1106.463867	65.273224
2778.742128	17466.247000	1105.324219	140.998550
2778.742128	17466.247000	1104.183594	85.385284
2778.742128	17466.247000	1103.042969	165.835907
2778.742128	17466.247000	1101.902344	162.493195
2778.742128	17466.247000	1100.760742	155.133072
2778.742128	17466.247000	1099.619141	32.141048
2778.742128	17466.247000	1098.477539	64.870346
2778.742128	17466.247000	1097.335938	31.569201
2778.742128	17466.247000	1096.193359	43.579395
2778.742128	17466.247000	1095.051758	89.453796
2778.742128	17466.247000	1093.909180	69.632072
2778.742128	17466.247000	1092.765625	194.491791
2778.742128	17466.247000	1091.623047	61.314037
2778.742128	17466.247000	1090.479492	5.925044
2778.742128	17466.247000	1089.335938	59.798485
2778.742128	17466.247000	1088.192383	-7.677720
2778.742128	17466.247000	1087.047852	-1.258672
2778.742128	17466.247000	1085.903320	67.623154
2778.742128	17466.247000	1084.758789	151.313690
2778.742128	17466.247000	1083.614258	-18.029102
2778.742128	17466.247000	1082.469727	110.402634
2778.742128	17466.247000	1081.324219	81.832191
2778.742128	17466.247000	1080.178711	90.774025
2778.742128	17466.247000	1079.033203	44.596058
2778.742128	17466.247000	1077.886719	-50.000462
2778.742128	17466.247000	1076.740234	136.844711
2778.742128	17466.247000	1075.593750	72.549820
2778.742128	17466.247000	1074.447266	3.747442
2778.742128	17466.247000	1073.300781	109.814796
2778.742128	17466.247000	1072.153320	30.668346
2778.742128	17466.247000	1071.005859	12.980987
2778.742128	17466.247000	1069.858398	57.685120
2778.742128	17466.247000	1068.709961	87.813835
2778.742128	17466.247000	1067.561523	111.536209
2778.742128	17466.247000	1066.413086	133.734360
2778.742128	17466.247000	1065.264648	-8.991819
2778.742128	17466.247000	1064.116211	15.471722
2778.742128	17466.247000	1062.966797	70.427010
2778.742128	17466.247000	1061.817383	29.593550
2778.742128	17466.247000	1060.667969	93.257759
2778.742128	17466.247000	1059.517578	86.194756
2778.742128	17466.247000	1058.368164	36.244328
2778.742128	17466.247000	1057.217773	-23.513336
2778.742128	17466.247000	1056.067383	-4.759004
2778.742128	17466.247000	1054.916016	61.834106
2778.742128	17466.247000	1053.764648	24.026688
2778.742128	17466.247000	1052.613281	177.875687
2778.742128	17466.247000	1051.461914	-24.293411
2778.742128	17466.247000	1050.310547	-8.615050
2778.742128	17466.247000	1049.158203	90.021141
2778.742128	17466.247000	1048.005859	91.291016
2778.742128	17466.247000	1046.853516	115.937050
2778.742128	17466.247000	1045.700195	131.856705
2778.742128	17466.247000	1044.547852	98.259903
2778.742128	17466.247000	1043.394531	53.303516
2778.742128	17466.247000	1042.240234	10.138175
2778.742128	17466.247000	1041.086914	141.347504
2778.742128	17466.247000	1039.932617	144.590164
2778.742128	17466.247000	1038.778320	160.017273
2778.742128	17466.247000	1037.624023	107.730721
2778.742128	17466.247000	1036.469727	255.116074
2778.742128	17466.247000	1035.314453	165.665314
2778.742128	17466.247000	1034.159180	246.243027
2778.742128	17466.247000	1033.003906	183.311920
2778.742128	17466.247000	1031.847656	275.984070
2778.742128	17466.247000	1030.692383	331.464508
2778.742128	17466.247000	1029.536133	289.516052
2778.742128	17466.247000	1028.378906	227.767471
2778.742128	17466.247000	1027.222656	292.588867
2778.742128	17466.247000	1026.065430	51.247936
2778.742128	17466.247000	1024.908203	145.592255
2778.742128	17466.247000	1023.750977	33.276447
2778.742128	17466.247000	1022.593750	156.716843
2778.742128	17466.247000	1021.435547	144.523438
2778.742128	17466.247000	1020.277344	239.430115
2778.742128	17466.247000	1019.119141	286.429382
2778.742128	17466.247000	1017.959961	108.611626
2778.742128	17466.247000	1016.800781	125.995964
2778.742128	17466.247000	1015.641602	195.642761
2778.742128	17466.247000	1014.482422	309.816010
2778.742128	17466.247000	1013.323242	182.705978
2778.742128	17466.247000	1012.163086	267.492340
2778.742128	17466.247000	1011.002930	-4.257404
2778.742128	17466.247000	1009.842773	-3.720676
2778.742128	17466.247000	1008.681641	104.135208
2778.742128	17466.247000	1007.520508	165.510101
2778.742128	17466.247000	1006.359375	73.303230
2778.742128	17466.247000	1005.198242	29.099874
2778.742128	17466.247000	1004.037109	138.084915
2778.742128	17466.247000	1002.875000	48.104923
2778.742128	17466.247000	1001.712891	-35.122604
2778.742128	17466.247000	1000.550781	176.336212
2778.742128	17466.247000	999.387695	-29.480644
2778.742128	17466.247000	998.224609	79.407494
2778.742128	17466.247000	997.061523	112.361282
2778.742128	17466.247000	995.898438	-34.865070
2778.742128	17466.247000	994.734375	-29.495369
2778.742128	17466.247000	993.571289	-27.281340
2778.742128	17466.247000	992.407227	-3.124984
2778.742128	17466.247000	991.242188	-32.857582
2778.742128	17466.247000	990.078125	-61.236187
2778.742128	17466.247000	988.913086	-18.580339
2778.742128	17466.247000	987.748047	-1.810171
2778.742128	17466.247000	986.583008	105.146866
2778.742128	17466.247000	985.416992	-57.006348
2778.742128	17466.247000	984.250977	54.014172
2778.742128	17466.247000	983.084961	49.955284
2778.742128	17466.247000	981.918945	-160.474258
2778.742128	17466.247000	980.751953	-66.950005
2778.742128	17466.247000	979.584961	67.918480
2778.742128	17466.247000	978.417969	-43.670792
2778.742128	17466.247000	977.250977	-36.239532
2778.742128	17466.247000	976.083008	-3.352494
2778.742128	17466.247000	974.915039	-50.061611
2778.742128	17466.247000	973.747070	-32.278255
2778.742128	17466.247000	972.579102	15.475849
2778.742128	17466.247000	971.410156	-89.415840
2778.742128	17466.247000	970.242188	-15.586699
2778.742128	17466.247000	969.072266	-151.664200
2778.742128	17466.247000	967.903320	-137.037018
2778.742128	17466.247000	966.733398	-109.707520
2778.742128	17466.247000	965.563477	5.532115
2778.742128	17466.247000	964.393555	-106.584488
2778.742128	17466.247000	963.223633	53.634785
2778.742128	17466.247000	962.052734	144.642685
2778.742128	17466.247000	960.881836	91.551834
2778.742128	17466.247000	959.710938	96.956673
2778.742128	17466.247000	958.540039	110.774406
2778.742128	17466.247000	957.368164	41.906490
2778.742128	17466.247000	956.196289	-9.599401
2778.742128	17466.247000	955.024414	92.302338
2778.742128	17466.247000	953.851563	-3.062055
2778.742128	17466.247000	952.679688	-46.698494
2778.742128	17466.247000	951.506836	38.920303
2778.742128	17466.247000	950.333984	11.443077
2778.742128	17466.247000	949.160156	-55.235104
2778.742128	17466.247000	947.986328	6.719551
2778.742128	17466.247000	946.812500	34.645100
2778.742128	17466.247000	945.638672	-43.400188
2778.742128	17466.247000	944.464844	84.627304
2778.742128	17466.247000	943.290039	26.630920
2778.742128	17466.247000	942.115234	-75.421768
2778.742128	17466.247000	940.940430	-52.531120
2778.742128	17466.247000	939.764648	-44.680012
2778.742128	17466.247000	938.588867	-140.271515
2778.742128	17466.247000	937.413086	-25.331360
2778.742128	17466.247000	936.237305	-59.256893
2778.742128	17466.247000	935.060547	33.854233
2778.742128	17466.247000	933.883789	61.237125
2778.742128	17466.247000	932.707031	11.820610
2778.742128	17466.247000	931.530273	-13.350284
2778.742128	17466.247000	930.352539	-23.261894
2778.742128	17466.247000	929.175781	52.273609
2778.742128	17466.247000	927.998047	66.440666
2778.742128	17466.247000	926.819336	-35.369518
2778.742128	17466.247000	925.641602	44.490822
2778.742128	17466.247000	924.462891	-41.944752
2778.742128	17466.247000	923.284180	51.010460
2778.742128	17466.247000	922.104492	30.216297
2778.742128	17466.247000	920.924805	2.872634
2778.742128	17466.247000	919.746094	5.108539
2778.742128	17466.247000	919.551758	17.448265
2778.742128	17466.247000	918.386719	1.026180
2778.742128	17466.247000	917.220703	21.766041
2778.742128	17466.247000	916.054688	-64.559547
2778.742128	17466.247000	914.887695	-122.447220
2778.742128	17466.247000	913.721680	-189.046173
2778.742128	17466.247000	912.554688	-120.232544
2778.742128	17466.247000	911.387695	-68.908546
2778.742128	17466.247000	910.220703	39.146542
2778.742128	17466.247000	909.052734	-16.504370
2778.742128	17466.247000	907.885742	32.594463
2778.742128	17466.247000	906.717773	22.781757
2778.742128	17466.247000	905.548828	50.053608
2778.742128	17466.247000	904.380859	55.510746
2778.742128	17466.247000	903.211914	13.010435
2778.742128	17466.247000	902.042969	-5.494138
2778.742128	17466.247000	900.874023	-108.973701
2778.742128	17466.247000	899.704102	90.429085
2778.742128	17466.247000	898.535156	-10.843793
2778.742128	17466.247000	897.365234	12.063463
2778.742128	17466.247000	896.194336	58.916935
2778.742128	17466.247000	895.024414	-72.753532
2778.742128	17466.247000	893.853516	2.397130
2778.742128	17466.247000	892.682617	81.872330
2778.742128	17466.247000	891.511719	115.630989
2778.742128	17466.247000	890.340820	18.871286
2778.742128	17466.247000	889.168945	98.304047
2778.742128	17466.247000	887.997070	49.427280
2778.742128	17466.247000	886.825195	87.524612
2778.742128	17466.247000	885.653320	-59.125740
2778.742128	17466.247000	884.480469	-103.585907
2778.742128	17466.247000	883.307617	140.911148
2778.742128	17466.247000	882.134766	20.412188
2778.742128	17466.247000	880.961914	-82.662964
2778.742128	17466.247000	879.788086	135.634277
2778.742128	17466.247000	878.614258	-17.342165
2778.742128	17466.247000	877.440430	-3.146611
2778.742128	17466.247000	876.266602	-28.011610
2778.742128	17466.247000	875.091797	20.894709
2778.742128	17466.247000	873.916992	93.640114
2778.742128	17466.247000	872.742188	-20.130522
2778.742128	17466.247000	871.567383	-18.949076
2778.742128	17466.247000	870.391602	-24.267879
2778.742128	17466.247000	869.215820	57.100929
2778.742128	17466.247000	868.040039	69.102997
2778.742128	17466.247000	866.864258	141.755722
2778.742128	17466.247000	865.687500	-99.660805
2778.742128	17466.247000	864.510742	-20.505136
2778.742128	17466.247000	863.333984	-71.277451
2778.742128	17466.247000	862.157227	40.306248
2778.742128	17466.247000	860.979492	-21.276726
2778.742128	17466.247000	859.802734	-2.784795
2778.742128	17466.247000	858.625000	11.374056
2778.742128	17466.247000	857.446289	90.409096
2778.742128	17466.247000	856.268555	-139.793579
2778.742128	17466.247000	855.089844	-11.041395
2778.742128	17466.247000	853.911133	-16.348679
2778.742128	17466.247000	852.731445	34.529903
2778.742128	17466.247000	851.552734	-98.256371
2778.742128	17466.247000	850.373047	8.774116
2778.742128	17466.247000	849.193359	57.449291
2778.742128	17466.247000	848.013672	58.599976
2778.742128	17466.247000	846.833008	126.669228
2778.742128	17466.247000	845.652344	-100.974495
2778.742128	17466.247000	844.471680	72.824318
2778.742128	17466.247000	843.291016	54.542465
2778.742128	17466.247000	842.110352	-58.641117
2778.742128	17466.247000	840.928711	-158.841507
2778.742128	17466.247000	839.747070	38.527512
2778.742128	17466.247000	838.564453	-40.104237
2778.742128	17466.247000	837.382813	-110.089882
2778.742128	17466.247000	836.200195	-87.398148
2778.742128	17466.247000	835.017578	34.374580
2778.742128	17466.247000	833.834961	151.783188
2778.742128	17466.247000	832.651367	43.034321
2778.742128	17466.247000	831.467773	3.217122
2778.742128	17466.247000	830.284180	-71.030510
2778.742128	17466.247000	829.100586	29.060648
2778.742128	17466.247000	827.916992	139.860901
2778.742128	17466.247000	826.732422	13.982107
2778.742128	17466.247000	825.547852	10.737069
2778.742128	17466.247000	824.363281	108.547836
2778.742128	17466.247000	823.177734	-21.570932
2778.742128	17466.247000	821.992188	104.132050
2778.742128	17466.247000	820.806641	152.410873
2778.742128	17466.247000	819.621094	207.105515
2778.742128	17466.247000	818.434570	298.286285
2778.742128	17466.247000	817.249023	174.655350
2778.742128	17466.247000	816.062500	126.217361
2778.742128	17466.247000	814.875000	159.365021
2778.742128	17466.247000	813.688477	115.219521
2778.742128	17466.247000	812.500977	189.103302
2778.742128	17466.247000	811.313477	237.199341
2778.742128	17466.247000	810.125977	75.057121
2778.742128	17466.247000	808.937500	105.976280
2778.742128	17466.247000	807.749023	89.699898
2778.742128	17466.247000	806.560547	-57.345135
2778.742128	17466.247000	805.372070	136.422867
2778.742128	17466.247000	804.182617	186.533966
2778.742128	17466.247000	802.994141	93.073906
2778.742128	17466.247000	801.803711	-0.359098
2778.742128	17466.247000	800.614258	163.197540
2778.742128	17466.247000	799.424805	78.318794
2778.742128	17466.247000	798.234375	51.254391
2778.742128	17466.247000	797.043945	180.410095
2778.742128	17466.247000	795.852539	31.344175
2778.742128	17466.247000	794.662109	34.203121
2778.742128	17466.247000	793.470703	178.202484
2778.742128	17466.247000	792.279297	206.654800
2778.742128	17466.247000	791.087891	386.864899
2778.742128	17466.247000	789.895508	263.468597
2778.742128	17466.247000	788.703125	223.446487
2778.742128	17466.247000	787.510742	249.653137
2778.742128	17466.247000	786.318359	122.030106
2778.742128	17466.247000	785.125000	199.463135
2778.742128	17466.247000	783.931641	261.896240
2778.742128	17466.247000	782.738281	176.983322
2778.742128	17466.247000	781.544922	153.978928
2778.742128	17466.247000	780.350586	150.168137
2778.742128	17466.247000	779.156250	208.205963
2778.742128	17466.247000	777.961914	172.344482
2778.742128	17466.247000	776.767578	83.160950
2778.742128	17466.247000	775.572266	177.352997
2778.742128	17466.247000	774.376953	226.716324
2778.742128	17466.247000	773.181641	173.735931
2778.742128	17466.247000	771.986328	208.114563
2778.742128	17466.247000	770.790039	150.850052
2778.742128	17466.247000	769.593750	63.765049
2778.742128	17466.247000	768.397461	268.424622
2778.742128	17466.247000	767.201172	396.327911
2778.742128	17466.247000	766.003906	264.467285
2778.742128	17466.247000	764.806641	204.990234
2778.742128	17466.247000	763.609375	305.085815
2778.742128	17466.247000	762.412109	134.952866
2778.742128	17466.247000	761.213867	230.711639
2778.742128	17466.247000	760.015625	28.712816
2778.742128	17466.247000	758.817383	126.521935
2778.742128	17466.247000	757.618164	158.371475
2778.742128	17466.247000	756.419922	185.926727
2778.742128	17466.247000	755.220703	202.818527
2778.742128	17466.247000	754.021484	340.747742
2778.742128	17466.247000	752.821289	321.435547
2778.742128	17466.247000	751.621094	299.976410
2778.742128	17466.247000	750.420898	244.529221
2778.742128	17466.247000	749.220703	218.785980
2778.742128	17466.247000	748.020508	375.506134
2778.742128	17466.247000	746.819336	311.494171
2778.742128	17466.247000	745.618164	264.443909
2778.742128	17466.247000	744.416992	317.047394
2778.742128	17466.247000	743.214844	392.916656
2778.742128	17466.247000	742.012695	388.170898
2778.742128	17466.247000	740.810547	328.291229
2778.742128	17466.247000	739.608398	393.412109
2778.742128	17466.247000	738.406250	636.414063
2778.742128	17466.247000	737.203125	794.561890
2778.742128	17466.247000	736.000000	906.021729
2778.742128	17466.247000	734.795898	1220.636475
2778.742128	17466.247000	733.592773	1190.074585
2778.742128	17466.247000	732.388672	1275.877319
2778.742128	17466.247000	731.184570	1276.977661
2778.742128	17466.247000	729.979492	1214.581177
2778.742128	17466.247000	728.775391	1061.233521
2778.742128	17466.247000	727.570313	926.941589
2778.742128	17466.247000	726.365234	782.097046
2778.742128	17466.247000	725.160156	766.198120
2778.742128	17466.247000	723.954102	549.524902
2778.742128	17466.247000	722.748047	554.728943
2778.742128	17466.247000	721.541992	688.734680
2778.742128	17466.247000	720.334961	552.340271
2778.742128	17466.247000	719.128906	401.182617
2778.742128	17466.247000	717.921875	520.239075
2778.742128	17466.247000	716.714844	457.707581
2778.742128	17466.247000	715.506836	253.792404
2778.742128	17466.247000	714.298828	319.942139
2778.742128	17466.247000	713.090820	223.621445
2778.742128	17466.247000	711.882813	129.408218
2778.742128	17466.247000	710.674805	283.961456
2778.742128	17466.247000	709.465820	223.414474
2778.742128	17466.247000	708.256836	145.991928
2778.742128	17466.247000	707.047852	270.819611
2778.742128	17466.247000	705.837891	317.613770
2778.742128	17466.247000	704.627930	259.044037
2778.742128	17466.247000	703.417969	278.361664
2778.742128	17466.247000	702.208008	156.584167
2778.742128	17466.247000	700.998047	192.665451
2778.742128	17466.247000	699.787109	205.540405
2778.742128	17466.247000	698.576172	294.102448
2778.742128	17466.247000	697.364258	264.794220
2778.742128	17466.247000	696.153320	241.763794
2778.742128	17466.247000	694.941406	264.952179
2778.742128	17466.247000	693.729492	250.249100
2778.742128	17466.247000	692.516602	172.459793
2778.742128	17466.247000	691.304688	206.019379
2778.742128	17466.247000	690.091797	342.453979
2778.742128	17466.247000	688.878906	209.952316
2778.742128	17466.247000	687.665039	180.351334
2778.742128	17466.247000	686.451172	289.276855
2778.742128	17466.247000	685.237305	335.143372
2778.742128	17466.247000	684.023438	393.535828
2778.742128	17466.247000	682.809570	284.014313
2778.742128	17466.247000	681.594727	384.253479
2778.742128	17466.247000	680.379883	415.198730
2778.742128	17466.247000	679.165039	383.183044
2778.742128	17466.247000	677.949219	336.460663
2778.742128	17466.247000	676.733398	442.708984
2778.742128	17466.247000	675.517578	439.906128
2778.742128	17466.247000	674.301758	569.041870
2778.742128	17466.247000	673.084961	507.474792
2778.742128	17466.247000	671.869141	443.795563
2778.742128	17466.247000	670.651367	438.717346
2778.742128	17466.247000	669.434570	458.715118
2778.742128	17466.247000	668.216797	484.936523
2778.742128	17466.247000	667.000000	416.949036
2778.742128	17466.247000	665.781250	384.504120
2778.742128	17466.247000	664.563477	504.704102
2778.742128	17466.247000	663.344727	585.077698
2778.742128	17466.247000	662.125977	496.038330
2778.742128	17466.247000	660.907227	377.730621
2778.742128	17466.247000	659.688477	560.340820
2778.742128	17466.247000	658.468750	521.369263
2778.742128	17466.247000	657.249023	396.730042
2778.742128	17466.247000	656.029297	480.934509
2778.742128	17466.247000	654.808594	633.958130
2778.742128	17466.247000	653.587891	432.005035
2778.742128	17466.247000	652.367188	484.710785
2778.742128	17466.247000	651.146484	547.783630
2778.742128	17466.247000	649.924805	537.770569
2778.742128	17466.247000	648.704102	529.806396
2778.742128	17466.247000	647.482422	521.801758
2778.742128	17466.247000	646.259766	417.854065
2778.742128	17466.247000	645.037109	378.524292
2778.742128	17466.247000	643.815430	387.102509
2778.742128	17466.247000	642.591797	356.044922
2778.742128	17466.247000	641.369141	389.536652
2778.742128	17466.247000	640.145508	481.284515
2778.742128	17466.247000	638.921875	406.378967
2778.742128	17466.247000	637.698242	343.956177
2778.742128	17466.247000	636.474609	229.487686
2778.742128	17466.247000	635.250000	310.625824
2778.742128	17466.247000	634.025391	268.947021
2778.742128	17466.247000	632.800781	422.764252
2778.742128	17466.247000	631.575195	291.580292
2778.742128	17466.247000	630.349609	116.754036
2778.742128	17466.247000	629.124023	270.390381
2778.742128	17466.247000	627.898438	270.137756
2778.742128	17466.247000	626.671875	244.912979
2778.742128	17466.247000	625.445313	286.137573
2778.742128	17466.247000	624.218750	221.388153
2778.742128	17466.247000	622.992188	256.300507
2778.742128	17466.247000	621.764648	133.385193
2778.742128	17466.247000	620.537109	176.532547
2778.742128	17466.247000	619.309570	288.107361
2778.742128	17466.247000	618.081055	150.637756
2778.742128	17466.247000	616.852539	-40.736328
2778.742128	17466.247000	615.624023	66.566284
2778.742128	17466.247000	614.395508	-14.883525
2778.742128	17466.247000	613.166992	69.504204
2778.742128	17466.247000	611.937500	62.633934
2778.742128	17466.247000	610.708008	80.601891
2778.742128	17466.247000	609.477539	125.460953
2778.742128	17466.247000	608.248047	70.860168
2778.742128	17466.247000	607.017578	94.939323
2778.742128	17466.247000	605.787109	216.284531
2778.742128	17466.247000	604.555664	142.983795
2778.742128	17466.247000	603.325195	115.218071
2778.742128	17466.247000	602.093750	-34.632214
2778.742128	17466.247000	600.861328	144.448715
2778.742128	17466.247000	599.629883	-26.073364
2778.742128	17466.247000	598.397461	132.206299
2778.742128	17466.247000	597.165039	-9.347675
2778.742128	17466.247000	595.932617	76.480774
2778.742128	17466.247000	594.699219	23.805471
2778.742128	17466.247000	593.465820	57.899311
2778.742128	17466.247000	592.232422	135.333374
2778.742128	17466.247000	590.999023	57.840832
2778.742128	17466.247000	589.764648	149.654648
2778.742128	17466.247000	588.530273	43.256283
2778.742128	17466.247000	587.295898	-75.495056
2778.742128	17466.247000	586.061523	-35.341244
2778.742128	17466.247000	584.826172	-42.667522
2778.742128	17466.247000	583.590820	-70.627586
2778.742128	17466.247000	582.355469	-143.951569
2778.742128	17466.247000	581.119141	5.380577
2778.742128	17466.247000	579.882813	24.792339
2778.742128	17466.247000	578.646484	-11.451759
2778.742128	17466.247000	577.410156	65.619339
2778.742128	17466.247000	576.172852	8.762977
2778.742128	17466.247000	574.935547	-29.543577
2778.742128	17466.247000	573.698242	47.454445
2778.742128	17466.247000	572.460938	52.369244
2778.742128	17466.247000	571.222656	106.664215
2778.742128	17466.247000	569.984375	-18.073463
2778.742128	17466.247000	568.746094	-23.450823
2778.742128	17466.247000	567.506836	-18.548397
2778.742128	17466.247000	566.267578	15.137020
2778.742128	17466.247000	565.028320	30.305052
2778.742128	17466.247000	563.789063	29.023487
2778.742128	17466.247000	562.548828	77.057518
2778.742128	17466.247000	561.309570	-4.354430
2778.742128	17466.247000	560.068359	82.693253
2778.742128	17466.247000	558.828125	-6.897082
2778.742128	17466.247000	557.586914	69.856712
2778.742128	17466.247000	556.345703	130.160965
2778.742128	17466.247000	555.104492	9.846663
2778.742128	17466.247000	553.863281	-91.942711
2778.742128	17466.247000	552.621094	91.458481
2778.742128	17466.247000	551.378906	36.880566
2778.742128	17466.247000	550.136719	-17.664324
2778.742128	17466.247000	548.893555	71.326881
2778.742128	17466.247000	547.650391	37.313381
2778.742128	17466.247000	546.407227	32.016293
2778.742128	17466.247000	545.164063	30.832022
2778.742128	17466.247000	543.919922	-25.645029
2778.742128	17466.247000	542.675781	112.465683
2778.742128	17466.247000	541.431641	43.742184
2778.742128	17466.247000	540.186523	28.283800
2778.742128	17466.247000	538.941406	8.757150
2778.742128	17466.247000	537.696289	161.131851
2778.742128	17466.247000	536.451172	45.476627
2778.742128	17466.247000	535.205078	189.634506
2778.742128	17466.247000	533.959961	172.215469
2778.742128	17466.247000	532.712891	7.625813
2778.742128	17466.247000	531.466797	-26.056179
2778.742128	17466.247000	530.219727	-31.093504
2778.742128	17466.247000	528.972656	8.843345
2778.742128	17466.247000	527.725586	-30.873255
2778.742128	17466.247000	526.478516	-95.052574
2778.742128	17466.247000	525.230469	-104.053154
2778.742128	17466.247000	523.982422	-64.030495
2778.742128	17466.247000	522.734375	20.902874
2778.742128	17466.247000	521.485352	-41.083725
2778.742128	17466.247000	520.236328	-76.494041
2778.742128	17466.247000	518.987305	-91.462608
2778.742128	17466.247000	517.737305	-47.261009
2778.742128	17466.247000	516.488281	3.072493
2778.742128	17466.247000	515.238281	-138.179276
2778.742128	17466.247000	513.988281	-32.762951
2778.742128	17466.247000	512.737305	-67.937843
2778.742128	17466.247000	511.486328	-52.139149
2778.742128	17466.247000	510.235352	-95.369713
2778.742128	17466.247000	508.984375	-75.427788
2778.742128	17466.247000	507.732422	-61.566799
2778.742128	17466.247000	506.480469	23.556173
2778.742128	17466.247000	505.228516	4.909891
2778.742128	17466.247000	503.976563	-68.616020
2778.742128	17466.247000	502.723633	45.040981
2778.742128	17466.247000	501.470703	-16.185595
2778.742128	17466.247000	500.217773	-59.048767
2778.742128	17466.247000	498.963867	-49.009426
2778.742128	17466.247000	497.709961	121.602592
2778.742128	17466.247000	496.456055	-61.328617
2778.742128	17466.247000	495.202148	-81.640663
2778.742128	17466.247000	493.947266	-146.582016
2778.742128	17466.247000	492.692383	-178.967636
2778.742128	17466.247000	491.437500	-99.651840
2778.742128	17466.247000	490.181641	-36.566185
2778.742128	17466.247000	488.926758	-81.001862
2778.742128	17466.247000	487.670898	81.539604
2778.742128	17466.247000	486.414063	-62.201889
2778.742128	17466.247000	485.158203	-205.837189
2778.742128	17466.247000	483.901367	-39.192898
2778.742128	17466.247000	482.644531	42.294350
2778.742128	17466.247000	481.386719	18.412685
2778.742128	17466.247000	480.128906	33.077881
2778.742128	17466.247000	478.871094	-47.422180
2778.742128	17466.247000	477.613281	76.691071
2778.742128	17466.247000	476.355469	101.583839
2778.742128	17466.247000	475.096680	77.923592
2778.742128	17466.247000	473.837891	179.790741
2778.742128	17466.247000	472.578125	34.802444
2778.742128	17466.247000	471.319336	-51.416573
2778.742128	17466.247000	470.059570	28.284363
2778.742128	17466.247000	468.799805	19.019508
2778.742128	17466.247000	467.539063	-54.895840
2778.742128	17466.247000	466.278320	107.737366
2778.742128	17466.247000	465.017578	13.703039
2778.742128	17466.247000	463.756836	8.639035
2778.742128	17466.247000	462.495117	78.346870
2778.742128	17466.247000	461.233398	81.418304
2778.742128	17466.247000	459.971680	44.141891
2778.742128	17466.247000	458.709961	103.805145
2778.742128	17466.247000	457.447266	28.258759
2778.742128	17466.247000	456.184570	23.394899
2778.742128	17466.247000	454.921875	73.028229
2778.742128	17466.247000	453.658203	54.095242
2778.742128	17466.247000	452.394531	105.770050
2778.742128	17466.247000	451.130859	54.634682
2778.742128	17466.247000	449.867188	74.087990
2778.742128	17466.247000	448.602539	85.493500
2778.742128	17466.247000	447.337891	88.855995
2778.742128	17466.247000	446.073242	271.500366
2778.742128	17466.247000	444.807617	268.813904
2778.742128	17466.247000	443.542969	40.651192
2778.742128	17466.247000	442.276367	164.855835
2778.742128	17466.247000	441.010742	83.746635
2778.742128	17466.247000	439.744141	314.545502
2778.742128	17466.247000	438.478516	32.294628
2778.742128	17466.247000	437.210938	144.355392
2778.742128	17466.247000	435.944336	71.383583
2778.742128	17466.247000	434.676758	-88.001289
2778.742128	17466.247000	433.409180	76.266014
2778.742128	17466.247000	432.141602	-10.721527
2778.742128	17466.247000	430.873047	127.324738
2778.742128	17466.247000	429.604492	-74.145485
2778.742128	17466.247000	428.335938	-78.748497
2778.742128	17466.247000	427.067383	-49.237438
2778.742128	17466.247000	425.797852	-11.732808
2778.742128	17466.247000	424.528320	79.914436
2778.742128	17466.247000	423.258789	-13.092617
2778.742128	17466.247000	421.988281	76.448380
2778.742128	17466.247000	420.717773	49.595356
2778.742128	17466.247000	419.447266	106.927048
2778.742128	17466.247000	418.175781	73.980804
2778.742128	17466.247000	416.905273	119.166618
2778.742128	17466.247000	415.633789	144.242035
2778.742128	17466.247000	414.362305	121.170784
2778.742128	17466.247000	413.089844	194.186844
2778.742128	17466.247000	411.817383	82.879265
2778.742128	17466.247000	410.544922	123.704811
2778.742128	17466.247000	409.272461	240.498062
2778.742128	17466.247000	407.999023	85.001999
2778.742128	17466.247000	406.725586	91.547539
2778.742128	17466.247000	405.452148	73.997154
2778.742128	17466.247000	404.177734	-55.635296
2778.742128	17466.247000	402.903320	54.618549
2778.742128	17466.247000	401.628906	54.773582
2778.742128	17466.247000	400.354492	46.821598
2778.742128	17466.247000	399.079102	164.634415
2778.742128	17466.247000	397.803711	220.342712
2778.742128	17466.247000	396.528320	152.066238
2778.742128	17466.247000	395.251953	169.543243
2778.742128	17466.247000	393.976563	9.192429
2778.742128	17466.247000	392.700195	-19.509169
2778.742128	17466.247000	391.422852	91.326759
2778.742128	17466.247000	390.145508	-53.420952
2778.742128	17466.247000	388.869141	1.189391
2778.742128	17466.247000	387.590820	63.567471
2778.742128	17466.247000	386.313477	75.888802
2778.742128	17466.247000	385.035156	60.099560
2778.742128	17466.247000	383.756836	145.751709
2778.742128	17466.247000	382.478516	-9.934797
2778.742128	17466.247000	381.199219	-54.223171
2778.742128	17466.247000	379.919922	100.440399
2778.742128	17466.247000	378.640625	149.266037
2778.742128	17466.247000	377.360352	64.439606
2778.742128	17466.247000	376.080078	43.083687
2778.742128	17466.247000	374.799805	132.905380
2778.742128	17466.247000	373.519531	158.750763
2778.742128	17466.247000	372.238281	13.239101
2778.742128	17466.247000	370.957031	139.931946
2778.742128	17466.247000	369.675781	21.722092
2778.742128	17466.247000	368.394531	181.528503
2778.742128	17466.247000	367.112305	201.822708
2778.742128	17466.247000	365.830078	118.454361
2778.742128	17466.247000	364.546875	112.237732
2778.742128	17466.247000	363.264648	-31.362917
2778.742128	17466.247000	361.981445	-76.001816
2778.742128	17466.247000	360.698242	-27.703705
2778.742128	17466.247000	359.414063	-41.355564
2778.742128	17466.247000	358.129883	2.133672
2778.742128	17466.247000	356.845703	-109.555405
2778.742128	17466.247000	355.561523	-55.023682
2778.742128	17466.247000	354.276367	20.841057
2778.742128	17466.247000	352.991211	54.579357
2778.742128	17466.247000	351.706055	10.527084
2778.742128	17466.247000	350.420898	-8.231126
2778.742128	17466.247000	349.134766	-98.817940
2778.742128	17466.247000	347.848633	-39.340889
2778.742128	17466.247000	346.561523	-0.235502
2778.742128	17466.247000	345.275391	-163.635696
2778.742128	17466.247000	343.988281	-12.796160
2778.742128	17466.247000	342.700195	137.387817
2778.742128	17466.247000	341.413086	-83.079773
2778.742128	17466.247000	340.125000	-135.925781
2778.742128	17466.247000	338.836914	44.003414
2778.742128	17466.247000	337.548828	-14.069167
2778.742128	17466.247000	336.259766	-90.582970
2778.742128	17466.247000	334.970703	-45.198311
2778.742128	17466.247000	333.681641	48.873348
2778.742128	17466.247000	332.391602	-67.241074
2778.742128	17466.247000	331.101563	31.260126
2778.742128	17466.247000	329.811523	111.195313
2778.742128	17466.247000	328.521484	-92.001221
2778.742128	17466.247000	327.230469	100.837860
2778.742128	17466.247000	325.939453	130.960968
2778.742128	17466.247000	324.648438	156.297043
2778.742128	17466.247000	323.356445	64.369934
2778.742128	17466.247000	322.064453	194.469376
2778.742128	17466.247000	320.772461	92.928566
2778.742128	17466.247000	319.480469	89.086731
2778.742128	17466.247000	318.187500	-6.369839
2778.742128	17466.247000	316.894531	-16.040308
2778.742128	17466.247000	315.601563	176.227951
2778.742128	17466.247000	314.307617	-109.254608
2778.742128	17466.247000	313.013672	17.887041
2778.742128	17466.247000	311.719727	141.956772
2778.742128	17466.247000	310.425781	221.598938
2778.742128	17466.247000	309.130859	115.102264
2778.742128	17466.247000	307.835938	-21.980869
2778.742128	17466.247000	306.541016	7.045962
2778.742128	17466.247000	305.245117	192.183594
2778.742128	17466.247000	303.949219	191.223984
2778.742128	17466.247000	302.653320	399.372650
2778.742128	17466.247000	301.356445	287.768066
2778.742128	17466.247000	300.060547	216.230698
2778.742128	17466.247000	298.763672	208.209564
