#X		#Y		#Wave		#Intensity
2830.744894	17361.782333	2000.043945	110.670807
2830.744894	17361.782333	1999.080078	-81.699036
2830.744894	17361.782333	1998.116211	-136.935013
2830.744894	17361.782333	1997.151367	-48.704262
2830.744894	17361.782333	1996.186523	-30.167801
2830.744894	17361.782333	1995.222656	-135.783981
2830.744894	17361.782333	1994.256836	1.108369
2830.744894	17361.782333	1993.291992	43.582474
2830.744894	17361.782333	1992.327148	-45.431595
2830.744894	17361.782333	1991.361328	85.660065
2830.744894	17361.782333	1990.395508	-18.653463
2830.744894	17361.782333	1989.429688	-115.733513
2830.744894	17361.782333	1988.463867	12.137044
2830.744894	17361.782333	1987.497070	-33.397682
2830.744894	17361.782333	1986.531250	56.892254
2830.744894	17361.782333	1985.564453	48.048317
2830.744894	17361.782333	1984.597656	53.848133
2830.744894	17361.782333	1983.630859	-69.071053
2830.744894	17361.782333	1982.664063	72.301872
2830.744894	17361.782333	1981.696289	84.970795
2830.744894	17361.782333	1980.728516	40.650059
2830.744894	17361.782333	1979.761719	-26.047998
2830.744894	17361.782333	1978.792969	62.705761
2830.744894	17361.782333	1977.825195	87.080688
2830.744894	17361.782333	1976.857422	2.688029
2830.744894	17361.782333	1975.888672	7.043596
2830.744894	17361.782333	1974.919922	-75.101501
2830.744894	17361.782333	1973.951172	114.043861
2830.744894	17361.782333	1972.982422	-44.805508
2830.744894	17361.782333	1972.013672	99.633438
2830.744894	17361.782333	1971.043945	95.964607
2830.744894	17361.782333	1970.075195	72.465408
2830.744894	17361.782333	1969.105469	16.832859
2830.744894	17361.782333	1968.135742	32.591503
2830.744894	17361.782333	1967.165039	-8.416858
2830.744894	17361.782333	1966.195313	26.867739
2830.744894	17361.782333	1965.224609	148.263626
2830.744894	17361.782333	1964.253906	-117.088005
2830.744894	17361.782333	1963.283203	65.687080
2830.744894	17361.782333	1962.312500	-24.920757
2830.744894	17361.782333	1961.341797	44.415154
2830.744894	17361.782333	1960.370117	111.202293
2830.744894	17361.782333	1959.399414	67.190369
2830.744894	17361.782333	1958.427734	13.300427
2830.744894	17361.782333	1957.455078	-28.324560
2830.744894	17361.782333	1956.483398	-10.971466
2830.744894	17361.782333	1955.511719	62.872421
2830.744894	17361.782333	1954.539063	-91.946007
2830.744894	17361.782333	1953.566406	-64.889503
2830.744894	17361.782333	1952.593750	-5.938956
2830.744894	17361.782333	1951.621094	65.238136
2830.744894	17361.782333	1950.647461	163.376328
2830.744894	17361.782333	1949.674805	10.965518
2830.744894	17361.782333	1948.701172	84.469360
2830.744894	17361.782333	1947.727539	101.461380
2830.744894	17361.782333	1946.753906	27.615448
2830.744894	17361.782333	1945.780273	76.471519
2830.744894	17361.782333	1944.805664	39.424644
2830.744894	17361.782333	1943.831055	31.811785
2830.744894	17361.782333	1942.856445	-19.955746
2830.744894	17361.782333	1941.881836	16.559647
2830.744894	17361.782333	1940.907227	111.890694
2830.744894	17361.782333	1939.932617	74.818588
2830.744894	17361.782333	1938.957031	-72.524368
2830.744894	17361.782333	1937.981445	-26.247398
2830.744894	17361.782333	1937.005859	-68.181351
2830.744894	17361.782333	1936.030273	-132.142990
2830.744894	17361.782333	1935.054688	90.437080
2830.744894	17361.782333	1934.078125	-46.976173
2830.744894	17361.782333	1933.101563	40.876816
2830.744894	17361.782333	1932.125000	-155.205261
2830.744894	17361.782333	1931.148438	-28.199177
2830.744894	17361.782333	1930.171875	211.310318
2830.744894	17361.782333	1929.194336	98.500313
2830.744894	17361.782333	1928.217773	100.687950
2830.744894	17361.782333	1927.240234	-53.606388
2830.744894	17361.782333	1926.262695	-102.706123
2830.744894	17361.782333	1925.284180	-7.559391
2830.744894	17361.782333	1924.306641	-27.295153
2830.744894	17361.782333	1923.328125	-66.555267
2830.744894	17361.782333	1922.350586	-12.954235
2830.744894	17361.782333	1921.372070	43.086750
2830.744894	17361.782333	1920.392578	1.444319
2830.744894	17361.782333	1919.414063	-154.919617
2830.744894	17361.782333	1918.434570	120.870560
2830.744894	17361.782333	1917.456055	59.764866
2830.744894	17361.782333	1916.476563	130.472885
2830.744894	17361.782333	1915.497070	25.512705
2830.744894	17361.782333	1914.516602	64.530563
2830.744894	17361.782333	1913.537109	-35.460884
2830.744894	17361.782333	1912.556641	-8.597792
2830.744894	17361.782333	1911.576172	-47.547863
2830.744894	17361.782333	1910.595703	13.473217
2830.744894	17361.782333	1909.615234	-22.988070
2830.744894	17361.782333	1908.633789	-71.596672
2830.744894	17361.782333	1907.653320	43.051178
2830.744894	17361.782333	1906.671875	-54.222675
2830.744894	17361.782333	1905.690430	-36.985226
2830.744894	17361.782333	1904.708984	-17.299072
2830.744894	17361.782333	1903.727539	-104.708305
2830.744894	17361.782333	1902.745117	-84.974159
2830.744894	17361.782333	1901.762695	-33.593548
2830.744894	17361.782333	1900.780273	-55.199528
2830.744894	17361.782333	1899.797852	-108.399796
2830.744894	17361.782333	1898.815430	-22.936352
2830.744894	17361.782333	1897.832031	-107.692581
2830.744894	17361.782333	1896.849609	-102.449623
2830.744894	17361.782333	1895.866211	145.875671
2830.744894	17361.782333	1894.882813	15.016983
2830.744894	17361.782333	1893.898438	44.588451
2830.744894	17361.782333	1892.915039	103.316010
2830.744894	17361.782333	1891.930664	77.030869
2830.744894	17361.782333	1890.947266	-73.077286
2830.744894	17361.782333	1889.962891	0.256367
2830.744894	17361.782333	1888.977539	-74.496048
2830.744894	17361.782333	1887.993164	25.536619
2830.744894	17361.782333	1887.007813	33.338455
2830.744894	17361.782333	1886.023438	-4.947019
2830.744894	17361.782333	1885.038086	65.949440
2830.744894	17361.782333	1884.051758	-6.252614
2830.744894	17361.782333	1883.066406	35.543827
2830.744894	17361.782333	1882.081055	-87.516495
2830.744894	17361.782333	1881.094727	17.320553
2830.744894	17361.782333	1880.108398	56.696316
2830.744894	17361.782333	1879.122070	50.029438
2830.744894	17361.782333	1878.135742	55.484650
2830.744894	17361.782333	1877.148438	60.946419
2830.744894	17361.782333	1876.162109	-110.363976
2830.744894	17361.782333	1875.174805	142.089310
2830.744894	17361.782333	1874.187500	-29.161407
2830.744894	17361.782333	1873.199219	-50.291279
2830.744894	17361.782333	1872.211914	-112.548347
2830.744894	17361.782333	1871.223633	-22.364084
2830.744894	17361.782333	1870.236328	120.999771
2830.744894	17361.782333	1869.248047	102.278717
2830.744894	17361.782333	1868.258789	27.953260
2830.744894	17361.782333	1867.270508	74.525307
2830.744894	17361.782333	1866.282227	-38.447449
2830.744894	17361.782333	1865.292969	34.695194
2830.744894	17361.782333	1864.303711	-61.322670
2830.744894	17361.782333	1863.314453	43.189384
2830.744894	17361.782333	1862.324219	-4.501542
2830.744894	17361.782333	1861.334961	-61.844215
2830.744894	17361.782333	1860.344727	-121.586700
2830.744894	17361.782333	1859.354492	33.515125
2830.744894	17361.782333	1858.364258	-47.965046
2830.744894	17361.782333	1857.374023	152.886810
2830.744894	17361.782333	1856.383789	25.551638
2830.744894	17361.782333	1855.392578	137.043457
2830.744894	17361.782333	1854.401367	-50.558605
2830.744894	17361.782333	1853.410156	-105.494354
2830.744894	17361.782333	1852.418945	177.067703
2830.744894	17361.782333	1851.426758	6.384692
2830.744894	17361.782333	1850.435547	55.033504
2830.744894	17361.782333	1849.443359	24.137798
2830.744894	17361.782333	1848.451172	104.039459
2830.744894	17361.782333	1847.458984	77.918610
2830.744894	17361.782333	1846.466797	39.743458
2830.744894	17361.782333	1845.473633	167.677734
2830.744894	17361.782333	1844.480469	4.284609
2830.744894	17361.782333	1843.487305	14.201237
2830.744894	17361.782333	1842.494141	194.922684
2830.744894	17361.782333	1841.500977	9.881529
2830.744894	17361.782333	1840.506836	-112.582367
2830.744894	17361.782333	1839.513672	123.280792
2830.744894	17361.782333	1838.519531	27.225962
2830.744894	17361.782333	1837.525391	135.504501
2830.744894	17361.782333	1836.530273	70.662209
2830.744894	17361.782333	1835.536133	22.628361
2830.744894	17361.782333	1834.541016	101.912048
2830.744894	17361.782333	1833.545898	190.736465
2830.744894	17361.782333	1832.550781	53.736839
2830.744894	17361.782333	1831.555664	135.255951
2830.744894	17361.782333	1830.560547	147.083359
2830.744894	17361.782333	1829.564453	29.251453
2830.744894	17361.782333	1828.568359	187.400131
2830.744894	17361.782333	1827.572266	117.506958
2830.744894	17361.782333	1826.576172	-45.961727
2830.744894	17361.782333	1825.580078	99.986778
2830.744894	17361.782333	1824.583008	15.626877
2830.744894	17361.782333	1823.585938	-13.605380
2830.744894	17361.782333	1822.588867	14.656275
2830.744894	17361.782333	1821.591797	35.667767
2830.744894	17361.782333	1820.594727	-41.622585
2830.744894	17361.782333	1819.596680	84.703941
2830.744894	17361.782333	1818.599609	268.417542
2830.744894	17361.782333	1817.601563	20.938520
2830.744894	17361.782333	1816.603516	56.036858
2830.744894	17361.782333	1815.604492	153.310303
2830.744894	17361.782333	1814.606445	32.683765
2830.744894	17361.782333	1813.607422	5.375073
2830.744894	17361.782333	1812.608398	78.507935
2830.744894	17361.782333	1811.609375	-121.147476
2830.744894	17361.782333	1810.610352	205.381668
2830.744894	17361.782333	1809.610352	12.832992
2830.744894	17361.782333	1808.611328	92.844070
2830.744894	17361.782333	1807.611328	105.834236
2830.744894	17361.782333	1806.611328	13.603392
2830.744894	17361.782333	1805.610352	136.391876
2830.744894	17361.782333	1804.610352	142.010666
2830.744894	17361.782333	1803.609375	99.792229
2830.744894	17361.782333	1802.608398	90.957146
2830.744894	17361.782333	1801.607422	-139.987946
2830.744894	17361.782333	1800.606445	137.551468
2830.744894	17361.782333	1799.605469	30.659206
2830.744894	17361.782333	1798.603516	-71.489227
2830.744894	17361.782333	1797.601563	172.273453
2830.744894	17361.782333	1796.599609	-82.664253
2830.744894	17361.782333	1795.597656	77.396751
2830.744894	17361.782333	1794.595703	-17.809771
2830.744894	17361.782333	1793.592773	15.682933
2830.744894	17361.782333	1792.589844	63.392139
2830.744894	17361.782333	1791.587891	80.030724
2830.744894	17361.782333	1790.583984	-96.406479
2830.744894	17361.782333	1789.581055	63.039192
2830.744894	17361.782333	1788.577148	36.572403
2830.744894	17361.782333	1787.574219	38.617466
2830.744894	17361.782333	1786.570313	-61.791622
2830.744894	17361.782333	1785.566406	82.940643
2830.744894	17361.782333	1784.561523	-72.332291
2830.744894	17361.782333	1783.557617	167.372116
2830.744894	17361.782333	1782.552734	19.123489
2830.744894	17361.782333	1781.547852	44.489349
2830.744894	17361.782333	1780.542969	-25.358847
2830.744894	17361.782333	1779.538086	152.018936
2830.744894	17361.782333	1778.532227	34.471355
2830.744894	17361.782333	1777.527344	-2.299763
2830.744894	17361.782333	1776.521484	122.450630
2830.744894	17361.782333	1775.515625	-80.798744
2830.744894	17361.782333	1774.508789	81.760979
2830.744894	17361.782333	1773.502930	66.056412
2830.744894	17361.782333	1772.496094	57.396984
2830.744894	17361.782333	1771.489258	-115.153259
2830.744894	17361.782333	1770.482422	-69.347511
2830.744894	17361.782333	1769.475586	-16.522953
2830.744894	17361.782333	1768.467773	24.331539
2830.744894	17361.782333	1767.460938	29.505432
2830.744894	17361.782333	1766.453125	-24.705404
2830.744894	17361.782333	1765.445313	-69.494171
2830.744894	17361.782333	1764.437500	61.096954
2830.744894	17361.782333	1763.428711	-17.050137
2830.744894	17361.782333	1762.420898	13.770906
2830.744894	17361.782333	1761.412109	65.818123
2830.744894	17361.782333	1760.403320	198.309418
2830.744894	17361.782333	1759.393555	141.168427
2830.744894	17361.782333	1758.384766	22.393213
2830.744894	17361.782333	1757.375000	97.729996
2830.744894	17361.782333	1756.366211	-68.509804
2830.744894	17361.782333	1755.356445	-52.528519
2830.744894	17361.782333	1754.345703	27.249754
2830.744894	17361.782333	1753.335938	-11.382565
2830.744894	17361.782333	1752.325195	70.549973
2830.744894	17361.782333	1751.315430	62.496895
2830.744894	17361.782333	1750.304688	47.262447
2830.744894	17361.782333	1749.292969	24.849846
2830.744894	17361.782333	1748.282227	141.822418
2830.744894	17361.782333	1747.270508	-69.832901
2830.744894	17361.782333	1746.259766	46.940228
2830.744894	17361.782333	1745.248047	85.619652
2830.744894	17361.782333	1744.235352	-43.501804
2830.744894	17361.782333	1743.223633	35.151802
2830.744894	17361.782333	1742.211914	-32.692608
2830.744894	17361.782333	1741.199219	-3.820143
2830.744894	17361.782333	1740.186523	-55.288311
2830.744894	17361.782333	1739.173828	-21.875248
2830.744894	17361.782333	1738.160156	96.365181
2830.744894	17361.782333	1737.147461	16.344444
2830.744894	17361.782333	1736.133789	65.970192
2830.744894	17361.782333	1735.120117	-106.146637
2830.744894	17361.782333	1734.106445	11.677314
2830.744894	17361.782333	1733.091797	4.446932
2830.744894	17361.782333	1732.078125	-16.998688
2830.744894	17361.782333	1731.063477	-83.291687
2830.744894	17361.782333	1730.048828	55.293602
2830.744894	17361.782333	1729.034180	-65.324539
2830.744894	17361.782333	1728.019531	2.395240
2830.744894	17361.782333	1727.003906	-10.045003
2830.744894	17361.782333	1725.988281	-196.744919
2830.744894	17361.782333	1724.972656	-155.181198
2830.744894	17361.782333	1723.957031	60.397533
2830.744894	17361.782333	1722.941406	-48.825714
2830.744894	17361.782333	1721.924805	-153.391678
2830.744894	17361.782333	1720.909180	-95.736275
2830.744894	17361.782333	1719.892578	25.289036
2830.744894	17361.782333	1718.875977	-44.215073
2830.744894	17361.782333	1717.858398	-149.032745
2830.744894	17361.782333	1716.841797	-30.657846
2830.744894	17361.782333	1715.824219	101.681152
2830.744894	17361.782333	1714.806641	-73.808762
2830.744894	17361.782333	1713.789063	-42.651505
2830.744894	17361.782333	1712.770508	-168.903976
2830.744894	17361.782333	1711.752930	49.903633
2830.744894	17361.782333	1710.734375	90.167191
2830.744894	17361.782333	1709.715820	10.661483
2830.744894	17361.782333	1708.697266	-5.543585
2830.744894	17361.782333	1707.678711	-33.547043
2830.744894	17361.782333	1706.659180	-5.336333
2830.744894	17361.782333	1705.640625	8.727738
2830.744894	17361.782333	1704.621094	27.392799
2830.744894	17361.782333	1703.600586	-82.944733
2830.744894	17361.782333	1702.581055	-33.950401
2830.744894	17361.782333	1701.561523	150.846283
2830.744894	17361.782333	1700.541016	134.033218
2830.744894	17361.782333	1699.520508	117.155052
2830.744894	17361.782333	1698.500000	-33.261181
2830.744894	17361.782333	1697.478516	-19.813278
2830.744894	17361.782333	1696.458008	91.879471
2830.744894	17361.782333	1695.436523	48.992317
2830.744894	17361.782333	1694.415039	137.085419
2830.744894	17361.782333	1693.393555	-48.632515
2830.744894	17361.782333	1692.372070	-7.467367
2830.744894	17361.782333	1691.349609	17.238123
2830.744894	17361.782333	1690.327148	-18.920465
2830.744894	17361.782333	1689.304688	5.647476
2830.744894	17361.782333	1688.282227	-100.737938
2830.744894	17361.782333	1687.259766	40.545158
2830.744894	17361.782333	1686.236328	102.270020
2830.744894	17361.782333	1685.213867	161.582428
2830.744894	17361.782333	1684.190430	5.949897
2830.744894	17361.782333	1683.166016	-18.936956
2830.744894	17361.782333	1682.142578	2.824346
2830.744894	17361.782333	1681.119141	106.209129
2830.744894	17361.782333	1680.094727	109.144661
2830.744894	17361.782333	1679.070313	137.686218
2830.744894	17361.782333	1678.045898	142.834167
2830.744894	17361.782333	1677.020508	185.230988
2830.744894	17361.782333	1675.996094	297.519073
2830.744894	17361.782333	1674.970703	309.454193
2830.744894	17361.782333	1673.945313	365.618744
2830.744894	17361.782333	1672.919922	363.449677
2830.744894	17361.782333	1671.893555	319.282104
2830.744894	17361.782333	1670.868164	284.408356
2830.744894	17361.782333	1669.841797	396.220520
2830.744894	17361.782333	1668.815430	370.552185
2830.744894	17361.782333	1667.789063	614.914063
2830.744894	17361.782333	1666.761719	742.739807
2830.744894	17361.782333	1665.735352	628.444214
2830.744894	17361.782333	1664.708008	351.260803
2830.744894	17361.782333	1663.680664	504.518494
2830.744894	17361.782333	1662.653320	534.400879
2830.744894	17361.782333	1661.625000	408.412811
2830.744894	17361.782333	1660.597656	412.643219
2830.744894	17361.782333	1659.569336	454.015747
2830.744894	17361.782333	1658.541016	451.175018
2830.744894	17361.782333	1657.512695	520.330994
2830.744894	17361.782333	1656.483398	614.967773
2830.744894	17361.782333	1655.455078	500.492157
2830.744894	17361.782333	1654.425781	511.421173
2830.744894	17361.782333	1653.396484	564.105713
2830.744894	17361.782333	1652.366211	563.332520
2830.744894	17361.782333	1651.336914	634.488159
2830.744894	17361.782333	1650.306641	742.703613
2830.744894	17361.782333	1649.276367	563.157104
2830.744894	17361.782333	1648.246094	583.137756
2830.744894	17361.782333	1647.215820	540.464966
2830.744894	17361.782333	1646.185547	567.343811
2830.744894	17361.782333	1645.154297	559.400757
2830.744894	17361.782333	1644.123047	604.745789
2830.744894	17361.782333	1643.091797	501.736359
2830.744894	17361.782333	1642.060547	653.605957
2830.744894	17361.782333	1641.028320	717.358887
2830.744894	17361.782333	1639.997070	706.961304
2830.744894	17361.782333	1638.964844	647.911072
2830.744894	17361.782333	1637.931641	507.823425
2830.744894	17361.782333	1636.899414	918.679260
2830.744894	17361.782333	1635.867188	748.483826
2830.744894	17361.782333	1634.833984	960.103760
2830.744894	17361.782333	1633.800781	988.872803
2830.744894	17361.782333	1632.767578	830.271545
2830.744894	17361.782333	1631.734375	773.466980
2830.744894	17361.782333	1630.700195	760.590332
2830.744894	17361.782333	1629.666016	652.933472
2830.744894	17361.782333	1628.631836	774.108826
2830.744894	17361.782333	1627.597656	888.295044
2830.744894	17361.782333	1626.563477	699.794128
2830.744894	17361.782333	1625.528320	834.713745
2830.744894	17361.782333	1624.493164	775.594849
2830.744894	17361.782333	1623.458008	788.068298
2830.744894	17361.782333	1622.422852	906.721130
2830.744894	17361.782333	1621.387695	806.069092
2830.744894	17361.782333	1620.351563	733.134949
2830.744894	17361.782333	1619.315430	856.328735
2830.744894	17361.782333	1618.279297	901.050964
2830.744894	17361.782333	1617.243164	862.736267
2830.744894	17361.782333	1616.207031	656.122070
2830.744894	17361.782333	1615.169922	740.045593
2830.744894	17361.782333	1614.132813	948.401245
2830.744894	17361.782333	1613.095703	746.505554
2830.744894	17361.782333	1612.058594	823.468933
2830.744894	17361.782333	1611.020508	911.918701
2830.744894	17361.782333	1609.983398	1018.778198
2830.744894	17361.782333	1608.945313	1021.979858
2830.744894	17361.782333	1607.907227	1082.744995
2830.744894	17361.782333	1606.868164	883.400330
2830.744894	17361.782333	1605.830078	1040.847534
2830.744894	17361.782333	1604.791016	1064.792603
2830.744894	17361.782333	1603.751953	1215.261475
2830.744894	17361.782333	1602.712891	1101.203491
2830.744894	17361.782333	1601.673828	1136.670532
2830.744894	17361.782333	1600.633789	1176.731445
2830.744894	17361.782333	1599.594727	1152.446899
2830.744894	17361.782333	1598.554688	1231.598267
2830.744894	17361.782333	1597.513672	998.251221
2830.744894	17361.782333	1596.473633	1208.385864
2830.744894	17361.782333	1595.433594	1115.294067
2830.744894	17361.782333	1594.392578	1072.772339
2830.744894	17361.782333	1593.351563	1168.043823
2830.744894	17361.782333	1592.310547	1286.259766
2830.744894	17361.782333	1591.268555	1094.630249
2830.744894	17361.782333	1590.227539	928.355652
2830.744894	17361.782333	1589.185547	991.570557
2830.744894	17361.782333	1588.143555	1183.235229
2830.744894	17361.782333	1587.100586	1216.619019
2830.744894	17361.782333	1586.058594	1282.132324
2830.744894	17361.782333	1585.015625	1221.570923
2830.744894	17361.782333	1583.972656	993.766052
2830.744894	17361.782333	1582.929688	1249.565430
2830.744894	17361.782333	1581.886719	1186.864380
2830.744894	17361.782333	1580.843750	1073.837769
2830.744894	17361.782333	1579.799805	1166.986938
2830.744894	17361.782333	1578.755859	1191.453247
2830.744894	17361.782333	1577.711914	1067.158447
2830.744894	17361.782333	1576.666992	1146.638184
2830.744894	17361.782333	1575.623047	1381.739502
2830.744894	17361.782333	1574.578125	1360.552734
2830.744894	17361.782333	1573.533203	1446.925293
2830.744894	17361.782333	1572.488281	1258.884521
2830.744894	17361.782333	1571.443359	968.076782
2830.744894	17361.782333	1570.397461	960.884521
2830.744894	17361.782333	1569.351563	924.031738
2830.744894	17361.782333	1568.305664	900.955994
2830.744894	17361.782333	1567.259766	688.315308
2830.744894	17361.782333	1566.213867	651.693604
2830.744894	17361.782333	1565.166992	576.306580
2830.744894	17361.782333	1564.120117	457.622070
2830.744894	17361.782333	1563.073242	526.231873
2830.744894	17361.782333	1562.026367	311.855530
2830.744894	17361.782333	1560.978516	458.158142
2830.744894	17361.782333	1559.930664	561.113281
2830.744894	17361.782333	1558.883789	654.971436
2830.744894	17361.782333	1557.834961	393.062439
2830.744894	17361.782333	1556.787109	215.691040
2830.744894	17361.782333	1555.739258	412.322205
2830.744894	17361.782333	1554.690430	381.006104
2830.744894	17361.782333	1553.641602	340.649414
2830.744894	17361.782333	1552.592773	585.168945
2830.744894	17361.782333	1551.542969	526.686462
2830.744894	17361.782333	1550.494141	377.203217
2830.744894	17361.782333	1549.444336	414.552643
2830.744894	17361.782333	1548.394531	260.724060
2830.744894	17361.782333	1547.344727	412.024902
2830.744894	17361.782333	1546.293945	353.965729
2830.744894	17361.782333	1545.244141	484.851044
2830.744894	17361.782333	1544.193359	372.347748
2830.744894	17361.782333	1543.142578	196.279816
2830.744894	17361.782333	1542.090820	197.708878
2830.744894	17361.782333	1541.040039	192.397751
2830.744894	17361.782333	1539.988281	137.150650
2830.744894	17361.782333	1538.936523	134.268753
2830.744894	17361.782333	1537.884766	138.280121
2830.744894	17361.782333	1536.833008	131.008682
2830.744894	17361.782333	1535.780273	182.861221
2830.744894	17361.782333	1534.727539	284.728394
2830.744894	17361.782333	1533.674805	123.279854
2830.744894	17361.782333	1532.622070	80.007469
2830.744894	17361.782333	1531.569336	209.305466
2830.744894	17361.782333	1530.515625	254.676651
2830.744894	17361.782333	1529.461914	300.111877
2830.744894	17361.782333	1528.408203	186.848083
2830.744894	17361.782333	1527.354492	164.416214
2830.744894	17361.782333	1526.299805	368.787109
2830.744894	17361.782333	1525.246094	307.962402
2830.744894	17361.782333	1524.191406	369.619568
2830.744894	17361.782333	1523.136719	453.996033
2830.744894	17361.782333	1522.081055	484.051178
2830.744894	17361.782333	1521.026367	577.606323
2830.744894	17361.782333	1519.970703	297.568024
2830.744894	17361.782333	1518.915039	472.798370
2830.744894	17361.782333	1517.859375	498.651398
2830.744894	17361.782333	1516.802734	377.476563
2830.744894	17361.782333	1515.747070	408.044434
2830.744894	17361.782333	1514.690430	556.322021
2830.744894	17361.782333	1513.633789	510.119141
2830.744894	17361.782333	1512.577148	658.500671
2830.744894	17361.782333	1511.519531	558.215027
2830.744894	17361.782333	1510.461914	480.665375
2830.744894	17361.782333	1509.405273	477.825928
2830.744894	17361.782333	1508.346680	260.415710
2830.744894	17361.782333	1507.289063	576.337708
2830.744894	17361.782333	1506.231445	566.984863
2830.744894	17361.782333	1505.172852	406.427277
2830.744894	17361.782333	1504.114258	433.423096
2830.744894	17361.782333	1503.055664	307.009796
2830.744894	17361.782333	1501.996094	469.616180
2830.744894	17361.782333	1500.937500	390.825500
2830.744894	17361.782333	1499.877930	194.849380
2830.744894	17361.782333	1498.818359	220.090958
2830.744894	17361.782333	1497.757813	211.591599
2830.744894	17361.782333	1496.698242	158.107651
2830.744894	17361.782333	1495.637695	339.174683
2830.744894	17361.782333	1494.577148	13.183702
2830.744894	17361.782333	1493.516602	72.731697
2830.744894	17361.782333	1492.456055	94.061188
2830.744894	17361.782333	1491.394531	72.684769
2830.744894	17361.782333	1490.333008	-92.704262
2830.744894	17361.782333	1489.271484	-19.268698
2830.744894	17361.782333	1488.209961	-31.297308
2830.744894	17361.782333	1487.148438	-126.490013
2830.744894	17361.782333	1486.085938	221.733582
2830.744894	17361.782333	1485.023438	-8.248180
2830.744894	17361.782333	1483.960938	25.128403
2830.744894	17361.782333	1482.898438	-20.109079
2830.744894	17361.782333	1481.834961	65.183601
2830.744894	17361.782333	1480.772461	-45.008785
2830.744894	17361.782333	1479.708984	71.928246
2830.744894	17361.782333	1478.644531	15.955151
2830.744894	17361.782333	1477.581055	-12.960526
2830.744894	17361.782333	1476.517578	292.855865
2830.744894	17361.782333	1475.453125	64.317650
2830.744894	17361.782333	1474.388672	29.103828
2830.744894	17361.782333	1473.323242	269.960907
2830.744894	17361.782333	1472.258789	306.758698
2830.744894	17361.782333	1471.193359	301.103455
2830.744894	17361.782333	1470.127930	438.914948
2830.744894	17361.782333	1469.062500	633.169800
2830.744894	17361.782333	1467.997070	428.410187
2830.744894	17361.782333	1466.930664	672.119385
2830.744894	17361.782333	1465.865234	521.794983
2830.744894	17361.782333	1464.798828	481.356750
2830.744894	17361.782333	1463.731445	447.915436
2830.744894	17361.782333	1462.665039	586.251099
2830.744894	17361.782333	1461.597656	667.541992
2830.744894	17361.782333	1460.530273	817.376770
2830.744894	17361.782333	1459.462891	631.574890
2830.744894	17361.782333	1458.395508	564.918518
2830.744894	17361.782333	1457.327148	435.695526
2830.744894	17361.782333	1456.259766	402.759979
2830.744894	17361.782333	1455.191406	431.477722
2830.744894	17361.782333	1454.123047	252.717148
2830.744894	17361.782333	1453.053711	192.655151
2830.744894	17361.782333	1451.985352	356.114594
2830.744894	17361.782333	1450.916016	457.949463
2830.744894	17361.782333	1449.846680	420.564789
2830.744894	17361.782333	1448.776367	372.491364
2830.744894	17361.782333	1447.707031	232.871490
2830.744894	17361.782333	1446.636719	243.665451
2830.744894	17361.782333	1445.566406	279.844177
2830.744894	17361.782333	1444.496094	402.536438
2830.744894	17361.782333	1443.425781	85.646446
2830.744894	17361.782333	1442.354492	77.442863
2830.744894	17361.782333	1441.283203	253.404007
2830.744894	17361.782333	1440.211914	97.090271
2830.744894	17361.782333	1439.140625	-11.407682
2830.744894	17361.782333	1438.069336	37.447090
2830.744894	17361.782333	1436.997070	170.939346
2830.744894	17361.782333	1435.924805	-9.360380
2830.744894	17361.782333	1434.852539	114.703003
2830.744894	17361.782333	1433.780273	1.253299
2830.744894	17361.782333	1432.707031	27.022903
2830.744894	17361.782333	1431.633789	-32.506947
2830.744894	17361.782333	1430.560547	-248.197815
2830.744894	17361.782333	1429.487305	-107.778450
2830.744894	17361.782333	1428.413086	-9.650881
2830.744894	17361.782333	1427.339844	-100.344734
2830.744894	17361.782333	1426.265625	-19.686180
2830.744894	17361.782333	1425.191406	-43.902634
2830.744894	17361.782333	1424.116211	-16.557869
2830.744894	17361.782333	1423.041992	-12.671589
2830.744894	17361.782333	1421.966797	50.345818
2830.744894	17361.782333	1420.891602	-23.217857
2830.744894	17361.782333	1419.816406	-16.555323
2830.744894	17361.782333	1418.740234	114.934151
2830.744894	17361.782333	1417.665039	13.052120
2830.744894	17361.782333	1416.588867	-32.251511
2830.744894	17361.782333	1415.512695	57.360329
2830.744894	17361.782333	1414.435547	266.267029
2830.744894	17361.782333	1413.359375	244.052567
2830.744894	17361.782333	1412.282227	154.177322
2830.744894	17361.782333	1411.205078	53.703541
2830.744894	17361.782333	1410.127930	293.796844
2830.744894	17361.782333	1409.049805	126.798988
2830.744894	17361.782333	1407.972656	117.536102
2830.744894	17361.782333	1406.894531	127.433342
2830.744894	17361.782333	1405.816406	272.294647
2830.744894	17361.782333	1404.737305	-5.337730
2830.744894	17361.782333	1403.659180	139.969025
2830.744894	17361.782333	1402.580078	92.202286
2830.744894	17361.782333	1401.500977	34.790585
2830.744894	17361.782333	1400.421875	143.166077
2830.744894	17361.782333	1399.341797	-4.822898
2830.744894	17361.782333	1398.262695	-57.713230
2830.744894	17361.782333	1397.182617	77.679626
2830.744894	17361.782333	1396.102539	40.868664
2830.744894	17361.782333	1395.021484	46.492592
2830.744894	17361.782333	1393.941406	67.644638
2830.744894	17361.782333	1392.860352	-41.822002
2830.744894	17361.782333	1391.779297	176.107224
2830.744894	17361.782333	1390.698242	-86.987144
2830.744894	17361.782333	1389.616211	187.867966
2830.744894	17361.782333	1388.535156	309.934845
2830.744894	17361.782333	1387.453125	250.106506
2830.744894	17361.782333	1386.371094	334.401978
2830.744894	17361.782333	1385.288086	205.340576
2830.744894	17361.782333	1384.206055	220.955292
2830.744894	17361.782333	1383.123047	390.039276
2830.744894	17361.782333	1382.040039	348.160950
2830.744894	17361.782333	1380.957031	318.601959
2830.744894	17361.782333	1379.873047	359.420074
2830.744894	17361.782333	1378.789063	279.420746
2830.744894	17361.782333	1377.705078	433.306519
2830.744894	17361.782333	1376.621094	448.589417
2830.744894	17361.782333	1375.537109	280.737610
2830.744894	17361.782333	1374.452148	399.481110
2830.744894	17361.782333	1373.367188	182.639572
2830.744894	17361.782333	1372.282227	358.332489
2830.744894	17361.782333	1371.197266	298.790680
2830.744894	17361.782333	1370.112305	397.253693
2830.744894	17361.782333	1369.026367	130.921677
2830.744894	17361.782333	1367.940430	90.599182
2830.744894	17361.782333	1366.854492	228.509201
2830.744894	17361.782333	1365.767578	120.323730
2830.744894	17361.782333	1364.681641	102.103096
2830.744894	17361.782333	1363.594727	90.473259
2830.744894	17361.782333	1362.507813	89.034309
2830.744894	17361.782333	1361.419922	226.301270
2830.744894	17361.782333	1360.333008	224.774338
2830.744894	17361.782333	1359.245117	240.318283
2830.744894	17361.782333	1358.157227	115.464539
2830.744894	17361.782333	1357.069336	256.604980
2830.744894	17361.782333	1355.981445	86.719345
2830.744894	17361.782333	1354.892578	287.640442
2830.744894	17361.782333	1353.803711	46.315445
2830.744894	17361.782333	1352.714844	178.968201
2830.744894	17361.782333	1351.625000	151.216873
2830.744894	17361.782333	1350.536133	151.870895
2830.744894	17361.782333	1349.446289	-81.638329
2830.744894	17361.782333	1348.356445	0.297124
2830.744894	17361.782333	1347.266602	-106.996338
2830.744894	17361.782333	1346.175781	-166.315323
2830.744894	17361.782333	1345.085938	22.609901
2830.744894	17361.782333	1343.995117	17.602945
2830.744894	17361.782333	1342.903320	196.297989
2830.744894	17361.782333	1341.812500	366.777863
2830.744894	17361.782333	1340.720703	241.372406
2830.744894	17361.782333	1339.629883	186.660278
2830.744894	17361.782333	1338.538086	321.122894
2830.744894	17361.782333	1337.445313	479.674713
2830.744894	17361.782333	1336.353516	403.294403
2830.744894	17361.782333	1335.260742	290.518433
2830.744894	17361.782333	1334.167969	330.351349
2830.744894	17361.782333	1333.075195	399.442749
2830.744894	17361.782333	1331.981445	470.143250
2830.744894	17361.782333	1330.888672	589.267883
2830.744894	17361.782333	1329.794922	546.736389
2830.744894	17361.782333	1328.701172	448.573639
2830.744894	17361.782333	1327.606445	552.394043
2830.744894	17361.782333	1326.512695	525.135254
2830.744894	17361.782333	1325.417969	611.390320
2830.744894	17361.782333	1324.323242	736.153503
2830.744894	17361.782333	1323.227539	607.423340
2830.744894	17361.782333	1322.132813	541.352783
2830.744894	17361.782333	1321.037109	685.098816
2830.744894	17361.782333	1319.941406	673.778564
2830.744894	17361.782333	1318.845703	674.188049
2830.744894	17361.782333	1317.750000	498.854797
2830.744894	17361.782333	1316.653320	520.009888
2830.744894	17361.782333	1315.556641	572.786926
2830.744894	17361.782333	1314.459961	510.814911
2830.744894	17361.782333	1313.363281	554.040283
2830.744894	17361.782333	1312.265625	436.866272
2830.744894	17361.782333	1311.167969	403.325531
2830.744894	17361.782333	1310.070313	363.738617
2830.744894	17361.782333	1308.972656	404.193512
2830.744894	17361.782333	1307.874023	358.932404
2830.744894	17361.782333	1306.776367	312.681366
2830.744894	17361.782333	1305.677734	267.227417
2830.744894	17361.782333	1304.579102	234.115738
2830.744894	17361.782333	1303.479492	112.255646
2830.744894	17361.782333	1302.380859	260.037964
2830.744894	17361.782333	1301.281250	311.730469
2830.744894	17361.782333	1300.181641	229.126205
2830.744894	17361.782333	1299.081055	296.613190
2830.744894	17361.782333	1297.981445	198.567291
2830.744894	17361.782333	1296.880859	177.549500
2830.744894	17361.782333	1295.780273	101.887947
2830.744894	17361.782333	1294.679688	289.594513
2830.744894	17361.782333	1293.578125	297.817993
2830.744894	17361.782333	1292.476563	206.924591
2830.744894	17361.782333	1291.375000	244.072601
2830.744894	17361.782333	1290.273438	219.978012
2830.744894	17361.782333	1289.171875	344.469086
2830.744894	17361.782333	1288.069336	224.588379
2830.744894	17361.782333	1286.966797	255.769241
2830.744894	17361.782333	1285.864258	233.737427
2830.744894	17361.782333	1284.761719	286.779205
2830.744894	17361.782333	1283.658203	317.404022
2830.744894	17361.782333	1282.554688	446.966034
2830.744894	17361.782333	1281.451172	470.046478
2830.744894	17361.782333	1280.347656	340.988281
2830.744894	17361.782333	1279.244141	528.031799
2830.744894	17361.782333	1278.139648	405.127960
2830.744894	17361.782333	1277.035156	395.233459
2830.744894	17361.782333	1275.930664	272.646240
2830.744894	17361.782333	1274.825195	399.023376
2830.744894	17361.782333	1273.720703	335.407715
2830.744894	17361.782333	1272.615234	446.393494
2830.744894	17361.782333	1271.508789	394.360748
2830.744894	17361.782333	1270.403320	466.986084
2830.744894	17361.782333	1269.297852	378.531067
2830.744894	17361.782333	1268.191406	481.501434
2830.744894	17361.782333	1267.084961	434.903503
2830.744894	17361.782333	1265.977539	295.872009
2830.744894	17361.782333	1264.871094	327.682983
2830.744894	17361.782333	1263.763672	344.528534
2830.744894	17361.782333	1262.656250	325.315308
2830.744894	17361.782333	1261.548828	292.782745
2830.744894	17361.782333	1260.440430	219.011871
2830.744894	17361.782333	1259.333008	207.873428
2830.744894	17361.782333	1258.224609	282.670929
2830.744894	17361.782333	1257.115234	279.659424
2830.744894	17361.782333	1256.006836	236.077789
2830.744894	17361.782333	1254.897461	317.863342
2830.744894	17361.782333	1253.788086	202.686432
2830.744894	17361.782333	1252.678711	279.843109
2830.744894	17361.782333	1251.569336	209.889252
2830.744894	17361.782333	1250.458984	194.266830
2830.744894	17361.782333	1249.349609	156.009079
2830.744894	17361.782333	1248.239258	68.554367
2830.744894	17361.782333	1247.127930	11.193922
2830.744894	17361.782333	1246.017578	179.686127
2830.744894	17361.782333	1244.906250	2.697368
2830.744894	17361.782333	1243.794922	80.369156
2830.744894	17361.782333	1242.683594	210.221741
2830.744894	17361.782333	1241.571289	125.448059
2830.744894	17361.782333	1240.459961	156.345108
2830.744894	17361.782333	1239.347656	139.776016
2830.744894	17361.782333	1238.234375	94.856743
2830.744894	17361.782333	1237.122070	75.872139
2830.744894	17361.782333	1236.008789	-18.093496
2830.744894	17361.782333	1234.896484	59.618256
2830.744894	17361.782333	1233.782227	114.744270
2830.744894	17361.782333	1232.668945	29.864122
2830.744894	17361.782333	1231.555664	-141.588547
2830.744894	17361.782333	1230.441406	-45.769497
2830.744894	17361.782333	1229.327148	-146.921844
2830.744894	17361.782333	1228.211914	29.334778
2830.744894	17361.782333	1227.097656	-84.999741
2830.744894	17361.782333	1225.982422	9.156809
2830.744894	17361.782333	1224.867188	-64.289207
2830.744894	17361.782333	1223.751953	-79.097260
2830.744894	17361.782333	1222.635742	-119.737122
2830.744894	17361.782333	1221.520508	-133.664795
2830.744894	17361.782333	1220.404297	-153.785980
2830.744894	17361.782333	1219.287109	3.512382
2830.744894	17361.782333	1218.170898	-58.665527
2830.744894	17361.782333	1217.053711	-6.144930
2830.744894	17361.782333	1215.936523	-80.694115
2830.744894	17361.782333	1214.819336	-61.417236
2830.744894	17361.782333	1213.702148	-30.673315
2830.744894	17361.782333	1212.583984	-137.161743
2830.744894	17361.782333	1211.465820	-163.779129
2830.744894	17361.782333	1210.347656	-45.125698
2830.744894	17361.782333	1209.229492	-14.964265
2830.744894	17361.782333	1208.110352	-132.521133
2830.744894	17361.782333	1206.992188	-58.685844
2830.744894	17361.782333	1205.873047	-209.207779
2830.744894	17361.782333	1204.752930	-14.410360
2830.744894	17361.782333	1203.633789	-53.535492
2830.744894	17361.782333	1202.513672	10.835762
2830.744894	17361.782333	1201.393555	62.869041
2830.744894	17361.782333	1200.273438	68.112122
2830.744894	17361.782333	1199.152344	49.968422
2830.744894	17361.782333	1198.032227	176.556671
2830.744894	17361.782333	1196.911133	119.237938
2830.744894	17361.782333	1195.790039	46.051582
2830.744894	17361.782333	1194.667969	135.280304
2830.744894	17361.782333	1193.545898	165.521149
2830.744894	17361.782333	1192.424805	171.240372
2830.744894	17361.782333	1191.301758	211.335892
2830.744894	17361.782333	1190.179688	263.422455
2830.744894	17361.782333	1189.056641	246.122955
2830.744894	17361.782333	1187.933594	65.526337
2830.744894	17361.782333	1186.810547	182.142334
2830.744894	17361.782333	1185.687500	252.039810
2830.744894	17361.782333	1184.563477	128.318649
2830.744894	17361.782333	1183.440430	156.818115
2830.744894	17361.782333	1182.316406	106.773643
2830.744894	17361.782333	1181.191406	133.232986
2830.744894	17361.782333	1180.067383	11.411130
2830.744894	17361.782333	1178.942383	181.902191
2830.744894	17361.782333	1177.817383	98.038063
2830.744894	17361.782333	1176.692383	33.603962
2830.744894	17361.782333	1175.566406	13.170258
2830.744894	17361.782333	1174.440430	-43.991085
2830.744894	17361.782333	1173.314453	224.556046
2830.744894	17361.782333	1172.188477	66.974808
2830.744894	17361.782333	1171.062500	78.944496
2830.744894	17361.782333	1169.935547	117.405922
2830.744894	17361.782333	1168.808594	291.450134
2830.744894	17361.782333	1167.681641	212.668030
2830.744894	17361.782333	1166.553711	357.492554
2830.744894	17361.782333	1165.426758	230.880890
2830.744894	17361.782333	1164.298828	242.831100
2830.744894	17361.782333	1163.170898	231.755692
2830.744894	17361.782333	1162.041992	252.619705
2830.744894	17361.782333	1160.914063	238.083328
2830.744894	17361.782333	1159.785156	379.384521
2830.744894	17361.782333	1158.656250	329.094696
2830.744894	17361.782333	1157.526367	463.522003
2830.744894	17361.782333	1156.397461	445.543762
2830.744894	17361.782333	1155.267578	416.887909
2830.744894	17361.782333	1154.137695	594.865723
2830.744894	17361.782333	1153.006836	469.680817
2830.744894	17361.782333	1151.876953	448.036530
2830.744894	17361.782333	1150.746094	632.843994
2830.744894	17361.782333	1149.615234	675.169250
2830.744894	17361.782333	1148.484375	794.132507
2830.744894	17361.782333	1147.352539	935.238464
2830.744894	17361.782333	1146.220703	957.329529
2830.744894	17361.782333	1145.088867	1060.263428
2830.744894	17361.782333	1143.957031	1253.933350
2830.744894	17361.782333	1142.825195	1197.321533
2830.744894	17361.782333	1141.692383	1205.230713
2830.744894	17361.782333	1140.559570	1244.304932
2830.744894	17361.782333	1139.426758	1217.584351
2830.744894	17361.782333	1138.292969	1046.053955
2830.744894	17361.782333	1137.159180	1020.222839
2830.744894	17361.782333	1136.025391	843.631104
2830.744894	17361.782333	1134.891602	852.606995
2830.744894	17361.782333	1133.757813	679.156738
2830.744894	17361.782333	1132.623047	690.535828
2830.744894	17361.782333	1131.488281	753.863403
2830.744894	17361.782333	1130.353516	648.049316
2830.744894	17361.782333	1129.217773	633.935547
2830.744894	17361.782333	1128.083008	538.283020
2830.744894	17361.782333	1126.947266	455.050140
2830.744894	17361.782333	1125.811523	614.596375
2830.744894	17361.782333	1124.674805	525.962097
2830.744894	17361.782333	1123.539063	396.535736
2830.744894	17361.782333	1122.402344	421.480865
2830.744894	17361.782333	1121.265625	409.478394
2830.744894	17361.782333	1120.127930	514.648743
2830.744894	17361.782333	1118.990234	496.153900
2830.744894	17361.782333	1117.853516	464.908600
2830.744894	17361.782333	1116.714844	451.615173
2830.744894	17361.782333	1115.577148	438.331360
2830.744894	17361.782333	1114.439453	383.262939
2830.744894	17361.782333	1113.300781	373.543671
2830.744894	17361.782333	1112.162109	169.913055
2830.744894	17361.782333	1111.022461	232.003860
2830.744894	17361.782333	1109.883789	225.863388
2830.744894	17361.782333	1108.744141	81.847954
2830.744894	17361.782333	1107.604492	125.703140
2830.744894	17361.782333	1106.463867	333.060059
2830.744894	17361.782333	1105.324219	121.629997
2830.744894	17361.782333	1104.183594	44.564312
2830.744894	17361.782333	1103.042969	206.757751
2830.744894	17361.782333	1101.902344	131.306000
2830.744894	17361.782333	1100.760742	113.454208
2830.744894	17361.782333	1099.619141	192.379028
2830.744894	17361.782333	1098.477539	196.329468
2830.744894	17361.782333	1097.335938	81.612709
2830.744894	17361.782333	1096.193359	201.320389
2830.744894	17361.782333	1095.051758	148.996262
2830.744894	17361.782333	1093.909180	220.568253
2830.744894	17361.782333	1092.765625	328.708099
2830.744894	17361.782333	1091.623047	293.478424
2830.744894	17361.782333	1090.479492	273.404541
2830.744894	17361.782333	1089.335938	227.136673
2830.744894	17361.782333	1088.192383	181.636337
2830.744894	17361.782333	1087.047852	184.845428
2830.744894	17361.782333	1085.903320	206.891434
2830.744894	17361.782333	1084.758789	233.681656
2830.744894	17361.782333	1083.614258	93.652229
2830.744894	17361.782333	1082.469727	269.912598
2830.744894	17361.782333	1081.324219	205.701859
2830.744894	17361.782333	1080.178711	203.121353
2830.744894	17361.782333	1079.033203	252.374832
2830.744894	17361.782333	1077.886719	141.688538
2830.744894	17361.782333	1076.740234	274.457428
2830.744894	17361.782333	1075.593750	273.530792
2830.744894	17361.782333	1074.447266	276.236877
2830.744894	17361.782333	1073.300781	215.412689
2830.744894	17361.782333	1072.153320	232.486954
2830.744894	17361.782333	1071.005859	135.142975
2830.744894	17361.782333	1069.858398	179.007889
2830.744894	17361.782333	1068.709961	197.065887
2830.744894	17361.782333	1067.561523	158.487274
2830.744894	17361.782333	1066.413086	123.608162
2830.744894	17361.782333	1065.264648	165.704590
2830.744894	17361.782333	1064.116211	141.140030
2830.744894	17361.782333	1062.966797	36.448288
2830.744894	17361.782333	1061.817383	-20.721073
2830.744894	17361.782333	1060.667969	225.454895
2830.744894	17361.782333	1059.517578	-52.050179
2830.744894	17361.782333	1058.368164	2.487873
2830.744894	17361.782333	1057.217773	-66.352066
2830.744894	17361.782333	1056.067383	16.958235
2830.744894	17361.782333	1054.916016	152.225266
2830.744894	17361.782333	1053.764648	37.461216
2830.744894	17361.782333	1052.613281	-24.754572
2830.744894	17361.782333	1051.461914	-0.457525
2830.744894	17361.782333	1050.310547	116.856003
2830.744894	17361.782333	1049.158203	36.659779
2830.744894	17361.782333	1048.005859	33.795364
2830.744894	17361.782333	1046.853516	-16.617382
2830.744894	17361.782333	1045.700195	31.838560
2830.744894	17361.782333	1044.547852	41.890888
2830.744894	17361.782333	1043.394531	227.100891
2830.744894	17361.782333	1042.240234	87.098091
2830.744894	17361.782333	1041.086914	66.388290
2830.744894	17361.782333	1039.932617	118.513481
2830.744894	17361.782333	1038.778320	82.349777
2830.744894	17361.782333	1037.624023	45.208969
2830.744894	17361.782333	1036.469727	200.605972
2830.744894	17361.782333	1035.314453	228.707962
2830.744894	17361.782333	1034.159180	166.708099
2830.744894	17361.782333	1033.003906	240.472382
2830.744894	17361.782333	1031.847656	280.302155
2830.744894	17361.782333	1030.692383	148.118057
2830.744894	17361.782333	1029.536133	318.001404
2830.744894	17361.782333	1028.378906	395.966522
2830.744894	17361.782333	1027.222656	461.480682
2830.744894	17361.782333	1026.065430	415.244629
2830.744894	17361.782333	1024.908203	291.943604
2830.744894	17361.782333	1023.750977	352.089600
2830.744894	17361.782333	1022.593750	87.258125
2830.744894	17361.782333	1021.435547	252.878601
2830.744894	17361.782333	1020.277344	212.431839
2830.744894	17361.782333	1019.119141	146.913254
2830.744894	17361.782333	1017.959961	87.363976
2830.744894	17361.782333	1016.800781	63.126755
2830.744894	17361.782333	1015.641602	160.029053
2830.744894	17361.782333	1014.482422	49.705467
2830.744894	17361.782333	1013.323242	89.781815
2830.744894	17361.782333	1012.163086	3.885003
2830.744894	17361.782333	1011.002930	143.402390
2830.744894	17361.782333	1009.842773	-5.634947
2830.744894	17361.782333	1008.681641	-2.112399
2830.744894	17361.782333	1007.520508	42.081135
2830.744894	17361.782333	1006.359375	155.373245
2830.744894	17361.782333	1005.198242	24.153904
2830.744894	17361.782333	1004.037109	154.074829
2830.744894	17361.782333	1002.875000	252.888153
2830.744894	17361.782333	1001.712891	101.030334
2830.744894	17361.782333	1000.550781	83.241974
2830.744894	17361.782333	999.387695	179.457703
2830.744894	17361.782333	998.224609	35.243515
2830.744894	17361.782333	997.061523	117.511375
2830.744894	17361.782333	995.898438	189.142975
2830.744894	17361.782333	994.734375	72.293541
2830.744894	17361.782333	993.571289	49.337234
2830.744894	17361.782333	992.407227	1.220364
2830.744894	17361.782333	991.242188	-117.882988
2830.744894	17361.782333	990.078125	18.834633
2830.744894	17361.782333	988.913086	63.048355
2830.744894	17361.782333	987.748047	11.384016
2830.744894	17361.782333	986.583008	52.640316
2830.744894	17361.782333	985.416992	67.727127
2830.744894	17361.782333	984.250977	141.664413
2830.744894	17361.782333	983.084961	57.248940
2830.744894	17361.782333	981.918945	224.001068
2830.744894	17361.782333	980.751953	-35.011238
2830.744894	17361.782333	979.584961	80.319519
2830.744894	17361.782333	978.417969	131.398483
2830.744894	17361.782333	977.250977	-17.414143
2830.744894	17361.782333	976.083008	-28.433300
2830.744894	17361.782333	974.915039	55.581913
2830.744894	17361.782333	973.747070	74.888687
2830.744894	17361.782333	972.579102	-6.987722
2830.744894	17361.782333	971.410156	99.033127
2830.744894	17361.782333	970.242188	81.630257
2830.744894	17361.782333	969.072266	-10.880123
2830.744894	17361.782333	967.903320	132.479935
2830.744894	17361.782333	966.733398	138.964096
2830.744894	17361.782333	965.563477	163.798340
2830.744894	17361.782333	964.393555	-64.136139
2830.744894	17361.782333	963.223633	59.222542
2830.744894	17361.782333	962.052734	233.251495
2830.744894	17361.782333	960.881836	55.956081
2830.744894	17361.782333	959.710938	130.907944
2830.744894	17361.782333	958.540039	166.147949
2830.744894	17361.782333	957.368164	126.206909
2830.744894	17361.782333	956.196289	132.608856
2830.744894	17361.782333	955.024414	139.514282
2830.744894	17361.782333	953.851563	110.033043
2830.744894	17361.782333	952.679688	128.110962
2830.744894	17361.782333	951.506836	3.357041
2830.744894	17361.782333	950.333984	-80.869156
2830.744894	17361.782333	949.160156	66.921524
2830.744894	17361.782333	947.986328	125.297195
2830.744894	17361.782333	946.812500	9.849967
2830.744894	17361.782333	945.638672	178.225677
2830.744894	17361.782333	944.464844	-2.624652
2830.744894	17361.782333	943.290039	-141.754471
2830.744894	17361.782333	942.115234	169.955688
2830.744894	17361.782333	940.940430	72.750786
2830.744894	17361.782333	939.764648	55.933266
2830.744894	17361.782333	938.588867	62.722744
2830.744894	17361.782333	937.413086	155.371490
2830.744894	17361.782333	936.237305	-15.045493
2830.744894	17361.782333	935.060547	-81.256081
2830.744894	17361.782333	933.883789	-105.763268
2830.744894	17361.782333	932.707031	-18.330420
2830.744894	17361.782333	931.530273	-170.442596
2830.744894	17361.782333	930.352539	-137.789673
2830.744894	17361.782333	929.175781	-73.841614
2830.744894	17361.782333	927.998047	3.094752
2830.744894	17361.782333	926.819336	152.878052
2830.744894	17361.782333	925.641602	-79.955727
2830.744894	17361.782333	924.462891	108.785019
2830.744894	17361.782333	923.284180	21.711195
2830.744894	17361.782333	922.104492	4.880838
2830.744894	17361.782333	920.924805	151.865326
2830.744894	17361.782333	919.746094	154.374298
2830.744894	17361.782333	919.551758	52.207523
2830.744894	17361.782333	918.386719	102.891418
2830.744894	17361.782333	917.220703	101.564842
2830.744894	17361.782333	916.054688	102.821671
2830.744894	17361.782333	914.887695	93.673927
2830.744894	17361.782333	913.721680	113.081688
2830.744894	17361.782333	912.554688	-93.440544
2830.744894	17361.782333	911.387695	9.045384
2830.744894	17361.782333	910.220703	-163.658035
2830.744894	17361.782333	909.052734	-19.704893
2830.744894	17361.782333	907.885742	-158.631577
2830.744894	17361.782333	906.717773	-35.518467
2830.744894	17361.782333	905.548828	-223.685181
2830.744894	17361.782333	904.380859	106.800652
2830.744894	17361.782333	903.211914	-130.601349
2830.744894	17361.782333	902.042969	-93.178528
2830.744894	17361.782333	900.874023	-37.644089
2830.744894	17361.782333	899.704102	85.219376
2830.744894	17361.782333	898.535156	-4.388072
2830.744894	17361.782333	897.365234	-81.020622
2830.744894	17361.782333	896.194336	13.258882
2830.744894	17361.782333	895.024414	-34.893860
2830.744894	17361.782333	893.853516	-62.331470
2830.744894	17361.782333	892.682617	99.130920
2830.744894	17361.782333	891.511719	27.672197
2830.744894	17361.782333	890.340820	-56.701618
2830.744894	17361.782333	889.168945	-55.709293
2830.744894	17361.782333	887.997070	-85.755295
2830.744894	17361.782333	886.825195	0.527239
2830.744894	17361.782333	885.653320	-52.800026
2830.744894	17361.782333	884.480469	-191.386093
2830.744894	17361.782333	883.307617	86.010612
2830.744894	17361.782333	882.134766	58.498116
2830.744894	17361.782333	880.961914	100.711327
2830.744894	17361.782333	879.788086	-97.215118
2830.744894	17361.782333	878.614258	-109.213959
2830.744894	17361.782333	877.440430	0.080646
2830.744894	17361.782333	876.266602	-30.014778
2830.744894	17361.782333	875.091797	79.200760
2830.744894	17361.782333	873.916992	167.728622
2830.744894	17361.782333	872.742188	-171.853943
2830.744894	17361.782333	871.567383	-39.500942
2830.744894	17361.782333	870.391602	-2.582710
2830.744894	17361.782333	869.215820	-6.922586
2830.744894	17361.782333	868.040039	71.181175
2830.744894	17361.782333	866.864258	115.755028
2830.744894	17361.782333	865.687500	3.195175
2830.744894	17361.782333	864.510742	-88.726974
2830.744894	17361.782333	863.333984	-131.705688
2830.744894	17361.782333	862.157227	-74.290710
2830.744894	17361.782333	860.979492	-104.403252
2830.744894	17361.782333	859.802734	-209.127960
2830.744894	17361.782333	858.625000	-180.053452
2830.744894	17361.782333	857.446289	-217.865234
2830.744894	17361.782333	856.268555	-67.966270
2830.744894	17361.782333	855.089844	-105.803162
2830.744894	17361.782333	853.911133	-35.682091
2830.744894	17361.782333	852.731445	-68.386192
2830.744894	17361.782333	851.552734	76.188461
2830.744894	17361.782333	850.373047	-120.937027
2830.744894	17361.782333	849.193359	28.709970
2830.744894	17361.782333	848.013672	78.149483
2830.744894	17361.782333	846.833008	32.579277
2830.744894	17361.782333	845.652344	-33.512867
2830.744894	17361.782333	844.471680	95.432610
2830.744894	17361.782333	843.291016	-1.448553
2830.744894	17361.782333	842.110352	-52.129025
2830.744894	17361.782333	840.928711	81.845757
2830.744894	17361.782333	839.747070	56.793144
2830.744894	17361.782333	838.564453	-9.270789
2830.744894	17361.782333	837.382813	-16.371897
2830.744894	17361.782333	836.200195	32.894989
2830.744894	17361.782333	835.017578	15.524980
2830.744894	17361.782333	833.834961	110.850563
2830.744894	17361.782333	832.651367	244.541046
2830.744894	17361.782333	831.467773	168.228271
2830.744894	17361.782333	830.284180	184.087494
2830.744894	17361.782333	829.100586	261.351074
2830.744894	17361.782333	827.916992	241.345596
2830.744894	17361.782333	826.732422	303.200317
2830.744894	17361.782333	825.547852	196.218430
2830.744894	17361.782333	824.363281	48.358402
2830.744894	17361.782333	823.177734	76.953011
2830.744894	17361.782333	821.992188	102.970566
2830.744894	17361.782333	820.806641	-70.360992
2830.744894	17361.782333	819.621094	-44.343029
2830.744894	17361.782333	818.434570	48.071079
2830.744894	17361.782333	817.249023	76.588104
2830.744894	17361.782333	816.062500	-43.011639
2830.744894	17361.782333	814.875000	-22.163326
2830.744894	17361.782333	813.688477	-95.771484
2830.744894	17361.782333	812.500977	-16.250189
2830.744894	17361.782333	811.313477	-41.374260
2830.744894	17361.782333	810.125977	-107.310806
2830.744894	17361.782333	808.937500	176.151230
2830.744894	17361.782333	807.749023	135.674072
2830.744894	17361.782333	806.560547	85.006104
2830.744894	17361.782333	805.372070	146.487549
2830.744894	17361.782333	804.182617	4.085270
2830.744894	17361.782333	802.994141	-13.439586
2830.744894	17361.782333	801.803711	-23.324820
2830.744894	17361.782333	800.614258	68.642670
2830.744894	17361.782333	799.424805	12.891656
2830.744894	17361.782333	798.234375	234.610138
2830.744894	17361.782333	797.043945	239.904236
2830.744894	17361.782333	795.852539	181.573746
2830.744894	17361.782333	794.662109	275.887726
2830.744894	17361.782333	793.470703	187.028412
2830.744894	17361.782333	792.279297	177.021408
2830.744894	17361.782333	791.087891	189.886566
2830.744894	17361.782333	789.895508	55.310303
2830.744894	17361.782333	788.703125	314.672241
2830.744894	17361.782333	787.510742	190.261749
2830.744894	17361.782333	786.318359	137.015182
2830.744894	17361.782333	785.125000	256.475861
2830.744894	17361.782333	783.931641	233.680649
2830.744894	17361.782333	782.738281	-12.519087
2830.744894	17361.782333	781.544922	10.407738
2830.744894	17361.782333	780.350586	132.276855
2830.744894	17361.782333	779.156250	20.672020
2830.744894	17361.782333	777.961914	-65.536339
2830.744894	17361.782333	776.767578	15.651103
2830.744894	17361.782333	775.572266	114.539268
2830.744894	17361.782333	774.376953	86.623116
2830.744894	17361.782333	773.181641	218.370697
2830.744894	17361.782333	771.986328	-2.162996
2830.744894	17361.782333	770.790039	-25.018311
2830.744894	17361.782333	769.593750	28.104437
2830.744894	17361.782333	768.397461	2.686978
2830.744894	17361.782333	767.201172	88.661240
2830.744894	17361.782333	766.003906	172.052246
2830.744894	17361.782333	764.806641	103.547440
2830.744894	17361.782333	763.609375	105.899048
2830.744894	17361.782333	762.412109	34.871021
2830.744894	17361.782333	761.213867	62.492725
2830.744894	17361.782333	760.015625	62.269028
2830.744894	17361.782333	758.817383	62.027355
2830.744894	17361.782333	757.618164	66.822906
2830.744894	17361.782333	756.419922	0.839567
2830.744894	17361.782333	755.220703	-22.184141
2830.744894	17361.782333	754.021484	45.718140
2830.744894	17361.782333	752.821289	-73.311539
2830.744894	17361.782333	751.621094	67.757660
2830.744894	17361.782333	750.420898	39.612061
2830.744894	17361.782333	749.220703	49.316395
2830.744894	17361.782333	748.020508	18.622412
2830.744894	17361.782333	746.819336	-4.510541
2830.744894	17361.782333	745.618164	158.995834
2830.744894	17361.782333	744.416992	42.495319
2830.744894	17361.782333	743.214844	54.606411
2830.744894	17361.782333	742.012695	240.621323
2830.744894	17361.782333	740.810547	197.198044
2830.744894	17361.782333	739.608398	241.959427
2830.744894	17361.782333	738.406250	251.411621
2830.744894	17361.782333	737.203125	316.248230
2830.744894	17361.782333	736.000000	542.192688
2830.744894	17361.782333	734.795898	679.905334
2830.744894	17361.782333	733.592773	676.582520
2830.744894	17361.782333	732.388672	819.195923
2830.744894	17361.782333	731.184570	689.998413
2830.744894	17361.782333	729.979492	668.996948
2830.744894	17361.782333	728.775391	554.927063
2830.744894	17361.782333	727.570313	579.173889
2830.744894	17361.782333	726.365234	485.233063
2830.744894	17361.782333	725.160156	396.333893
2830.744894	17361.782333	723.954102	425.550598
2830.744894	17361.782333	722.748047	256.257324
2830.744894	17361.782333	721.541992	102.080315
2830.744894	17361.782333	720.334961	261.850647
2830.744894	17361.782333	719.128906	135.304611
2830.744894	17361.782333	717.921875	131.786118
2830.744894	17361.782333	716.714844	143.301178
2830.744894	17361.782333	715.506836	64.455681
2830.744894	17361.782333	714.298828	28.263996
2830.744894	17361.782333	713.090820	222.807037
2830.744894	17361.782333	711.882813	336.999207
2830.744894	17361.782333	710.674805	263.087433
2830.744894	17361.782333	709.465820	219.258057
2830.744894	17361.782333	708.256836	295.708221
2830.744894	17361.782333	707.047852	301.945618
2830.744894	17361.782333	705.837891	207.954865
2830.744894	17361.782333	704.627930	316.835022
2830.744894	17361.782333	703.417969	290.430725
2830.744894	17361.782333	702.208008	326.594330
2830.744894	17361.782333	700.998047	275.114868
2830.744894	17361.782333	699.787109	213.619446
2830.744894	17361.782333	698.576172	187.147171
2830.744894	17361.782333	697.364258	130.642059
2830.744894	17361.782333	696.153320	59.127934
2830.744894	17361.782333	694.941406	77.623222
2830.744894	17361.782333	693.729492	73.584641
2830.744894	17361.782333	692.516602	69.519112
2830.744894	17361.782333	691.304688	120.396942
2830.744894	17361.782333	690.091797	68.801353
2830.744894	17361.782333	688.878906	9.705290
2830.744894	17361.782333	687.665039	20.522816
2830.744894	17361.782333	686.451172	41.293335
2830.744894	17361.782333	685.237305	-45.303501
2830.744894	17361.782333	684.023438	-42.054836
2830.744894	17361.782333	682.809570	55.971920
2830.744894	17361.782333	681.594727	126.489090
2830.744894	17361.782333	680.379883	29.853611
2830.744894	17361.782333	679.165039	62.886757
2830.744894	17361.782333	677.949219	55.989769
2830.744894	17361.782333	676.733398	260.916138
2830.744894	17361.782333	675.517578	86.969620
2830.744894	17361.782333	674.301758	97.422668
2830.744894	17361.782333	673.084961	130.258484
2830.744894	17361.782333	671.869141	150.600098
2830.744894	17361.782333	670.651367	193.310074
2830.744894	17361.782333	669.434570	260.865753
2830.744894	17361.782333	668.216797	318.407776
2830.744894	17361.782333	667.000000	261.441650
2830.744894	17361.782333	665.781250	358.701813
2830.744894	17361.782333	664.563477	95.263069
2830.744894	17361.782333	663.344727	219.810791
2830.744894	17361.782333	662.125977	160.309311
2830.744894	17361.782333	660.907227	195.254303
2830.744894	17361.782333	659.688477	334.525299
2830.744894	17361.782333	658.468750	277.433899
2830.744894	17361.782333	657.249023	294.856659
2830.744894	17361.782333	656.029297	356.944580
2830.744894	17361.782333	654.808594	304.763672
2830.744894	17361.782333	653.587891	274.917114
2830.744894	17361.782333	652.367188	381.557404
2830.744894	17361.782333	651.146484	356.613892
2830.744894	17361.782333	649.924805	284.516296
2830.744894	17361.782333	648.704102	276.909576
2830.744894	17361.782333	647.482422	249.439636
2830.744894	17361.782333	646.259766	192.201279
2830.744894	17361.782333	645.037109	162.225662
2830.744894	17361.782333	643.815430	169.409744
2830.744894	17361.782333	642.591797	79.932640
2830.744894	17361.782333	641.369141	111.847122
2830.744894	17361.782333	640.145508	282.411133
2830.744894	17361.782333	638.921875	81.462608
2830.744894	17361.782333	637.698242	266.761566
2830.744894	17361.782333	636.474609	16.348764
2830.744894	17361.782333	635.250000	40.686497
2830.744894	17361.782333	634.025391	159.000488
2830.744894	17361.782333	632.800781	195.614761
2830.744894	17361.782333	631.575195	34.351406
2830.744894	17361.782333	630.349609	125.318565
2830.744894	17361.782333	629.124023	25.887159
2830.744894	17361.782333	627.898438	190.910522
2830.744894	17361.782333	626.671875	133.462677
2830.744894	17361.782333	625.445313	261.290070
2830.744894	17361.782333	624.218750	70.435966
2830.744894	17361.782333	622.992188	57.427612
2830.744894	17361.782333	621.764648	150.557724
2830.744894	17361.782333	620.537109	4.208085
2830.744894	17361.782333	619.309570	-3.909982
2830.744894	17361.782333	618.081055	86.639778
2830.744894	17361.782333	616.852539	-106.535187
2830.744894	17361.782333	615.624023	124.525970
2830.744894	17361.782333	614.395508	84.252373
2830.744894	17361.782333	613.166992	53.835838
2830.744894	17361.782333	611.937500	129.387878
2830.744894	17361.782333	610.708008	-73.548378
2830.744894	17361.782333	609.477539	-59.628536
2830.744894	17361.782333	608.248047	-3.860421
2830.744894	17361.782333	607.017578	-41.708961
2830.744894	17361.782333	605.787109	9.071683
2830.744894	17361.782333	604.555664	-213.406525
2830.744894	17361.782333	603.325195	-155.261627
2830.744894	17361.782333	602.093750	-121.762337
2830.744894	17361.782333	600.861328	-122.732918
2830.744894	17361.782333	599.629883	77.948906
2830.744894	17361.782333	598.397461	-23.904072
2830.744894	17361.782333	597.165039	-91.311516
2830.744894	17361.782333	595.932617	-210.316360
2830.744894	17361.782333	594.699219	-76.189980
2830.744894	17361.782333	593.465820	33.299500
2830.744894	17361.782333	592.232422	-112.713112
2830.744894	17361.782333	590.999023	-111.334709
2830.744894	17361.782333	589.764648	-178.713608
2830.744894	17361.782333	588.530273	-91.432831
2830.744894	17361.782333	587.295898	-41.010376
2830.744894	17361.782333	586.061523	-0.433000
2830.744894	17361.782333	584.826172	-45.740135
2830.744894	17361.782333	583.590820	-130.276474
2830.744894	17361.782333	582.355469	-40.691360
2830.744894	17361.782333	581.119141	-144.821091
2830.744894	17361.782333	579.882813	-23.423927
2830.744894	17361.782333	578.646484	-71.164307
2830.744894	17361.782333	577.410156	116.302094
2830.744894	17361.782333	576.172852	73.439262
2830.744894	17361.782333	574.935547	35.488499
2830.744894	17361.782333	573.698242	-36.726368
2830.744894	17361.782333	572.460938	40.404148
2830.744894	17361.782333	571.222656	-26.893270
2830.744894	17361.782333	569.984375	50.196423
2830.744894	17361.782333	568.746094	203.086426
2830.744894	17361.782333	567.506836	-45.192387
2830.744894	17361.782333	566.267578	80.753662
2830.744894	17361.782333	565.028320	-15.820919
2830.744894	17361.782333	563.789063	146.729492
2830.744894	17361.782333	562.548828	113.718491
2830.744894	17361.782333	561.309570	168.678879
2830.744894	17361.782333	560.068359	367.729004
2830.744894	17361.782333	558.828125	188.177032
2830.744894	17361.782333	557.586914	113.691063
2830.744894	17361.782333	556.345703	163.735062
2830.744894	17361.782333	555.104492	145.428772
2830.744894	17361.782333	553.863281	239.376770
2830.744894	17361.782333	552.621094	257.665649
2830.744894	17361.782333	551.378906	302.782257
2830.744894	17361.782333	550.136719	230.842896
2830.744894	17361.782333	548.893555	285.712494
2830.744894	17361.782333	547.650391	155.326599
2830.744894	17361.782333	546.407227	151.722870
2830.744894	17361.782333	545.164063	211.476089
2830.744894	17361.782333	543.919922	164.036148
2830.744894	17361.782333	542.675781	177.510895
2830.744894	17361.782333	541.431641	149.600571
2830.744894	17361.782333	540.186523	43.816090
2830.744894	17361.782333	538.941406	-88.681015
2830.744894	17361.782333	537.696289	46.546280
2830.744894	17361.782333	536.451172	106.315842
2830.744894	17361.782333	535.205078	219.580505
2830.744894	17361.782333	533.959961	48.309582
2830.744894	17361.782333	532.712891	-3.750215
2830.744894	17361.782333	531.466797	-143.271942
2830.744894	17361.782333	530.219727	67.213554
2830.744894	17361.782333	528.972656	37.098568
2830.744894	17361.782333	527.725586	84.742867
2830.744894	17361.782333	526.478516	86.242531
2830.744894	17361.782333	525.230469	-96.770401
2830.744894	17361.782333	523.982422	-73.350548
2830.744894	17361.782333	522.734375	5.897927
2830.744894	17361.782333	521.485352	-28.912483
2830.744894	17361.782333	520.236328	89.144455
2830.744894	17361.782333	518.987305	-91.154129
2830.744894	17361.782333	517.737305	82.675339
2830.744894	17361.782333	516.488281	-61.138702
2830.744894	17361.782333	515.238281	61.749512
2830.744894	17361.782333	513.988281	230.648834
2830.744894	17361.782333	512.737305	116.027695
2830.744894	17361.782333	511.486328	42.655792
2830.744894	17361.782333	510.235352	-37.929165
2830.744894	17361.782333	508.984375	-65.190964
2830.744894	17361.782333	507.732422	18.931065
2830.744894	17361.782333	506.480469	-22.811134
2830.744894	17361.782333	505.228516	-79.032310
2830.744894	17361.782333	503.976563	34.132248
2830.744894	17361.782333	502.723633	40.848618
2830.744894	17361.782333	501.470703	4.057036
2830.744894	17361.782333	500.217773	-42.368126
2830.744894	17361.782333	498.963867	12.763578
2830.744894	17361.782333	497.709961	65.475227
2830.744894	17361.782333	496.456055	45.704082
2830.744894	17361.782333	495.202148	21.130520
2830.744894	17361.782333	493.947266	-58.958416
2830.744894	17361.782333	492.692383	-81.046227
2830.744894	17361.782333	491.437500	167.257324
2830.744894	17361.782333	490.181641	17.255302
2830.744894	17361.782333	488.926758	19.350445
2830.744894	17361.782333	487.670898	226.514984
2830.744894	17361.782333	486.414063	-123.536263
2830.744894	17361.782333	485.158203	25.731024
2830.744894	17361.782333	483.901367	-32.383324
2830.744894	17361.782333	482.644531	46.931137
2830.744894	17361.782333	481.386719	34.652050
2830.744894	17361.782333	480.128906	60.940311
2830.744894	17361.782333	478.871094	147.448853
2830.744894	17361.782333	477.613281	106.295845
2830.744894	17361.782333	476.355469	96.471024
2830.744894	17361.782333	475.096680	105.916626
2830.744894	17361.782333	473.837891	-9.780019
2830.744894	17361.782333	472.578125	11.730449
2830.744894	17361.782333	471.319336	163.143631
2830.744894	17361.782333	470.059570	76.388336
2830.744894	17361.782333	468.799805	172.423172
2830.744894	17361.782333	467.539063	116.961014
2830.744894	17361.782333	466.278320	133.629776
2830.744894	17361.782333	465.017578	244.009399
2830.744894	17361.782333	463.756836	-10.845116
2830.744894	17361.782333	462.495117	152.353500
2830.744894	17361.782333	461.233398	44.107880
2830.744894	17361.782333	459.971680	156.789642
2830.744894	17361.782333	458.709961	130.186371
2830.744894	17361.782333	457.447266	187.579178
2830.744894	17361.782333	456.184570	268.926880
2830.744894	17361.782333	454.921875	283.053925
2830.744894	17361.782333	453.658203	198.821198
2830.744894	17361.782333	452.394531	308.830383
2830.744894	17361.782333	451.130859	373.218597
2830.744894	17361.782333	449.867188	358.457428
2830.744894	17361.782333	448.602539	585.698792
2830.744894	17361.782333	447.337891	702.604065
2830.744894	17361.782333	446.073242	563.129944
2830.744894	17361.782333	444.807617	500.309753
2830.744894	17361.782333	443.542969	564.370422
2830.744894	17361.782333	442.276367	563.726807
2830.744894	17361.782333	441.010742	620.474182
2830.744894	17361.782333	439.744141	617.327271
2830.744894	17361.782333	438.478516	571.070313
2830.744894	17361.782333	437.210938	512.813660
2830.744894	17361.782333	435.944336	444.957275
2830.744894	17361.782333	434.676758	496.593414
2830.744894	17361.782333	433.409180	478.825012
2830.744894	17361.782333	432.141602	659.324280
2830.744894	17361.782333	430.873047	507.586700
2830.744894	17361.782333	429.604492	434.654480
2830.744894	17361.782333	428.335938	321.069489
2830.744894	17361.782333	427.067383	472.454590
2830.744894	17361.782333	425.797852	363.494415
2830.744894	17361.782333	424.528320	168.566788
2830.744894	17361.782333	423.258789	76.212120
2830.744894	17361.782333	421.988281	324.900513
2830.744894	17361.782333	420.717773	349.181458
2830.744894	17361.782333	419.447266	380.481628
2830.744894	17361.782333	418.175781	325.817291
2830.744894	17361.782333	416.905273	425.963043
2830.744894	17361.782333	415.633789	487.796448
2830.744894	17361.782333	414.362305	330.281769
2830.744894	17361.782333	413.089844	408.479065
2830.744894	17361.782333	411.817383	496.007233
2830.744894	17361.782333	410.544922	664.277222
2830.744894	17361.782333	409.272461	615.696777
2830.744894	17361.782333	407.999023	614.548523
2830.744894	17361.782333	406.725586	903.479431
2830.744894	17361.782333	405.452148	785.328857
2830.744894	17361.782333	404.177734	857.278748
2830.744894	17361.782333	402.903320	817.235840
2830.744894	17361.782333	401.628906	803.139954
2830.744894	17361.782333	400.354492	819.719971
2830.744894	17361.782333	399.079102	712.493652
2830.744894	17361.782333	397.803711	733.353516
2830.744894	17361.782333	396.528320	846.580322
2830.744894	17361.782333	395.251953	719.657654
2830.744894	17361.782333	393.976563	632.883667
2830.744894	17361.782333	392.700195	754.733948
2830.744894	17361.782333	391.422852	513.160339
2830.744894	17361.782333	390.145508	492.035492
2830.744894	17361.782333	388.869141	408.943817
2830.744894	17361.782333	387.590820	339.783295
2830.744894	17361.782333	386.313477	436.296539
2830.744894	17361.782333	385.035156	314.335938
2830.744894	17361.782333	383.756836	308.202454
2830.744894	17361.782333	382.478516	64.763382
2830.744894	17361.782333	381.199219	228.499481
2830.744894	17361.782333	379.919922	252.040329
2830.744894	17361.782333	378.640625	268.066498
2830.744894	17361.782333	377.360352	420.971069
2830.744894	17361.782333	376.080078	339.064880
2830.744894	17361.782333	374.799805	273.319702
2830.744894	17361.782333	373.519531	299.418945
2830.744894	17361.782333	372.238281	294.281586
2830.744894	17361.782333	370.957031	418.730896
2830.744894	17361.782333	369.675781	299.111511
2830.744894	17361.782333	368.394531	377.593109
2830.744894	17361.782333	367.112305	412.967926
2830.744894	17361.782333	365.830078	400.534637
2830.744894	17361.782333	364.546875	491.478638
2830.744894	17361.782333	363.264648	466.103973
2830.744894	17361.782333	361.981445	494.449554
2830.744894	17361.782333	360.698242	505.657196
2830.744894	17361.782333	359.414063	575.231995
2830.744894	17361.782333	358.129883	417.615387
2830.744894	17361.782333	356.845703	476.455505
2830.744894	17361.782333	355.561523	390.724579
2830.744894	17361.782333	354.276367	309.043518
2830.744894	17361.782333	352.991211	219.618881
2830.744894	17361.782333	351.706055	254.434006
2830.744894	17361.782333	350.420898	191.870300
2830.744894	17361.782333	349.134766	137.977234
2830.744894	17361.782333	347.848633	130.434738
2830.744894	17361.782333	346.561523	51.421627
2830.744894	17361.782333	345.275391	138.808640
2830.744894	17361.782333	343.988281	4.016555
2830.744894	17361.782333	342.700195	186.115036
2830.744894	17361.782333	341.413086	195.500397
2830.744894	17361.782333	340.125000	91.030739
2830.744894	17361.782333	338.836914	-28.439066
2830.744894	17361.782333	337.548828	32.247398
2830.744894	17361.782333	336.259766	-51.503746
2830.744894	17361.782333	334.970703	40.057720
2830.744894	17361.782333	333.681641	-3.392521
2830.744894	17361.782333	332.391602	-97.241997
2830.744894	17361.782333	331.101563	-60.592583
2830.744894	17361.782333	329.811523	17.206173
2830.744894	17361.782333	328.521484	56.275475
2830.744894	17361.782333	327.230469	-178.149887
2830.744894	17361.782333	325.939453	-54.595646
2830.744894	17361.782333	324.648438	16.074627
2830.744894	17361.782333	323.356445	-69.382538
2830.744894	17361.782333	322.064453	40.931664
2830.744894	17361.782333	320.772461	39.695202
2830.744894	17361.782333	319.480469	-96.490601
2830.744894	17361.782333	318.187500	-109.793564
2830.744894	17361.782333	316.894531	-154.942444
2830.744894	17361.782333	315.601563	-30.472689
2830.744894	17361.782333	314.307617	-17.633503
2830.744894	17361.782333	313.013672	12.448444
2830.744894	17361.782333	311.719727	59.729298
2830.744894	17361.782333	310.425781	16.493305
2830.744894	17361.782333	309.130859	175.241379
2830.744894	17361.782333	307.835938	-63.100597
2830.744894	17361.782333	306.541016	68.929657
2830.744894	17361.782333	305.245117	91.586937
2830.744894	17361.782333	303.949219	-18.428053
2830.744894	17361.782333	302.653320	80.225121
2830.744894	17361.782333	301.356445	120.890274
2830.744894	17361.782333	300.060547	-31.847639
2830.744894	17361.782333	298.763672	184.983490
