#X		#Y		#Wave		#Intensity
2821.104468	17353.702833	2000.043945	21.846405
2821.104468	17353.702833	1999.080078	17.291670
2821.104468	17353.702833	1998.116211	16.350529
2821.104468	17353.702833	1997.151367	-36.784527
2821.104468	17353.702833	1996.186523	63.567696
2821.104468	17353.702833	1995.222656	99.326202
2821.104468	17353.702833	1994.256836	21.003292
2821.104468	17353.702833	1993.291992	-5.426131
2821.104468	17353.702833	1992.327148	7.635427
2821.104468	17353.702833	1991.361328	-184.891922
2821.104468	17353.702833	1990.395508	-26.030289
2821.104468	17353.702833	1989.429688	53.469158
2821.104468	17353.702833	1988.463867	-92.312347
2821.104468	17353.702833	1987.497070	-18.003361
2821.104468	17353.702833	1986.531250	-45.228016
2821.104468	17353.702833	1985.564453	60.977386
2821.104468	17353.702833	1984.597656	-82.648293
2821.104468	17353.702833	1983.630859	-43.409969
2821.104468	17353.702833	1982.664063	32.790176
2821.104468	17353.702833	1981.696289	94.047592
2821.104468	17353.702833	1980.728516	-222.768387
2821.104468	17353.702833	1979.761719	-82.619736
2821.104468	17353.702833	1978.792969	32.702816
2821.104468	17353.702833	1977.825195	21.987696
2821.104468	17353.702833	1976.857422	-92.474892
2821.104468	17353.702833	1975.888672	-41.605560
2821.104468	17353.702833	1974.919922	174.506073
2821.104468	17353.702833	1973.951172	-4.270877
2821.104468	17353.702833	1972.982422	11.824723
2821.104468	17353.702833	1972.013672	-14.071066
2821.104468	17353.702833	1971.043945	90.671257
2821.104468	17353.702833	1970.075195	-1.904445
2821.104468	17353.702833	1969.105469	-74.778374
2821.104468	17353.702833	1968.135742	152.980804
2821.104468	17353.702833	1967.165039	75.080269
2821.104468	17353.702833	1966.195313	147.436569
2821.104468	17353.702833	1965.224609	37.459480
2821.104468	17353.702833	1964.253906	48.148643
2821.104468	17353.702833	1963.283203	-12.605582
2821.104468	17353.702833	1962.312500	103.865898
2821.104468	17353.702833	1961.341797	107.045097
2821.104468	17353.702833	1960.370117	-34.992847
2821.104468	17353.702833	1959.399414	91.162849
2821.104468	17353.702833	1958.427734	54.894184
2821.104468	17353.702833	1957.455078	168.633560
2821.104468	17353.702833	1956.483398	29.038832
2821.104468	17353.702833	1955.511719	-24.481232
2821.104468	17353.702833	1954.539063	52.270069
2821.104468	17353.702833	1953.566406	119.142677
2821.104468	17353.702833	1952.593750	129.458939
2821.104468	17353.702833	1951.621094	112.732040
2821.104468	17353.702833	1950.647461	-58.742943
2821.104468	17353.702833	1949.674805	20.313816
2821.104468	17353.702833	1948.701172	72.320480
2821.104468	17353.702833	1947.727539	131.660492
2821.104468	17353.702833	1946.753906	80.523056
2821.104468	17353.702833	1945.780273	105.465530
2821.104468	17353.702833	1944.805664	64.147842
2821.104468	17353.702833	1943.831055	74.350746
2821.104468	17353.702833	1942.856445	1.158794
2821.104468	17353.702833	1941.881836	30.974834
2821.104468	17353.702833	1940.907227	73.034691
2821.104468	17353.702833	1939.932617	73.406174
2821.104468	17353.702833	1938.957031	201.209869
2821.104468	17353.702833	1937.981445	132.946518
2821.104468	17353.702833	1937.005859	-6.334751
2821.104468	17353.702833	1936.030273	89.569443
2821.104468	17353.702833	1935.054688	-15.366554
2821.104468	17353.702833	1934.078125	-22.327528
2821.104468	17353.702833	1933.101563	-4.803660
2821.104468	17353.702833	1932.125000	120.405838
2821.104468	17353.702833	1931.148438	-30.942621
2821.104468	17353.702833	1930.171875	-37.882206
2821.104468	17353.702833	1929.194336	31.013464
2821.104468	17353.702833	1928.217773	24.073708
2821.104468	17353.702833	1927.240234	-85.557755
2821.104468	17353.702833	1926.262695	39.553425
2821.104468	17353.702833	1925.284180	5.744162
2821.104468	17353.702833	1924.306641	-59.815590
2821.104468	17353.702833	1923.328125	35.918690
2821.104468	17353.702833	1922.350586	-41.823074
2821.104468	17353.702833	1921.372070	-143.954895
2821.104468	17353.702833	1920.392578	-128.824692
2821.104468	17353.702833	1919.414063	-164.964401
2821.104468	17353.702833	1918.434570	60.113773
2821.104468	17353.702833	1917.456055	41.052135
2821.104468	17353.702833	1916.476563	-19.479403
2821.104468	17353.702833	1915.497070	66.404259
2821.104468	17353.702833	1914.516602	-3.850822
2821.104468	17353.702833	1913.537109	99.085457
2821.104468	17353.702833	1912.556641	-34.532063
2821.104468	17353.702833	1911.576172	48.882751
2821.104468	17353.702833	1910.595703	-45.660408
2821.104468	17353.702833	1909.615234	6.060030
2821.104468	17353.702833	1908.633789	60.204380
2821.104468	17353.702833	1907.653320	163.058548
2821.104468	17353.702833	1906.671875	15.009186
2821.104468	17353.702833	1905.690430	-33.134632
2821.104468	17353.702833	1904.708984	-132.383362
2821.104468	17353.702833	1903.727539	-95.268990
2821.104468	17353.702833	1902.745117	-87.368584
2821.104468	17353.702833	1901.762695	-33.231079
2821.104468	17353.702833	1900.780273	-1.004223
2821.104468	17353.702833	1899.797852	-44.189800
2821.104468	17353.702833	1898.815430	-167.610886
2821.104468	17353.702833	1897.832031	-13.784585
2821.104468	17353.702833	1896.849609	135.126923
2821.104468	17353.702833	1895.866211	-78.179764
2821.104468	17353.702833	1894.882813	-28.942686
2821.104468	17353.702833	1893.898438	-8.877718
2821.104468	17353.702833	1892.915039	-27.685736
2821.104468	17353.702833	1891.930664	-92.632553
2821.104468	17353.702833	1890.947266	61.000351
2821.104468	17353.702833	1889.962891	-40.354130
2821.104468	17353.702833	1888.977539	6.404595
2821.104468	17353.702833	1887.993164	-46.359993
2821.104468	17353.702833	1887.007813	-89.399590
2821.104468	17353.702833	1886.023438	-11.118328
2821.104468	17353.702833	1885.038086	-59.001816
2821.104468	17353.702833	1884.051758	67.744324
2821.104468	17353.702833	1883.066406	61.080666
2821.104468	17353.702833	1882.081055	93.205269
2821.104468	17353.702833	1881.094727	35.632584
2821.104468	17353.702833	1880.108398	-9.806339
2821.104468	17353.702833	1879.122070	-62.501259
2821.104468	17353.702833	1878.135742	25.321138
2821.104468	17353.702833	1877.148438	142.168411
2821.104468	17353.702833	1876.162109	91.878555
2821.104468	17353.702833	1875.174805	-38.296886
2821.104468	17353.702833	1874.187500	17.958961
2821.104468	17353.702833	1873.199219	-177.515854
2821.104468	17353.702833	1872.211914	-77.717262
2821.104468	17353.702833	1871.223633	-74.737595
2821.104468	17353.702833	1870.236328	95.130371
2821.104468	17353.702833	1869.248047	15.829429
2821.104468	17353.702833	1868.258789	6.665505
2821.104468	17353.702833	1867.270508	72.435204
2821.104468	17353.702833	1866.282227	-122.871651
2821.104468	17353.702833	1865.292969	-45.047005
2821.104468	17353.702833	1864.303711	52.061970
2821.104468	17353.702833	1863.314453	-58.627449
2821.104468	17353.702833	1862.324219	84.304626
2821.104468	17353.702833	1861.334961	-45.700043
2821.104468	17353.702833	1860.344727	22.298143
2821.104468	17353.702833	1859.354492	-64.233467
2821.104468	17353.702833	1858.364258	-34.908382
2821.104468	17353.702833	1857.374023	199.485565
2821.104468	17353.702833	1856.383789	-140.400970
2821.104468	17353.702833	1855.392578	45.641300
2821.104468	17353.702833	1854.401367	12.138412
2821.104468	17353.702833	1853.410156	46.136513
2821.104468	17353.702833	1852.418945	39.117294
2821.104468	17353.702833	1851.426758	3.152760
2821.104468	17353.702833	1850.435547	53.929714
2821.104468	17353.702833	1849.443359	102.251068
2821.104468	17353.702833	1848.451172	73.444725
2821.104468	17353.702833	1847.458984	8.495806
2821.104468	17353.702833	1846.466797	63.941185
2821.104468	17353.702833	1845.473633	172.300949
2821.104468	17353.702833	1844.480469	80.805473
2821.104468	17353.702833	1843.487305	133.709885
2821.104468	17353.702833	1842.494141	-44.425987
2821.104468	17353.702833	1841.500977	99.836113
2821.104468	17353.702833	1840.506836	58.806656
2821.104468	17353.702833	1839.513672	159.643768
2821.104468	17353.702833	1838.519531	5.548205
2821.104468	17353.702833	1837.525391	38.978569
2821.104468	17353.702833	1836.530273	-14.163471
2821.104468	17353.702833	1835.536133	38.410854
2821.104468	17353.702833	1834.541016	-55.627262
2821.104468	17353.702833	1833.545898	-0.738005
2821.104468	17353.702833	1832.550781	-56.382999
2821.104468	17353.702833	1831.555664	-18.399845
2821.104468	17353.702833	1830.560547	-6.878570
2821.104468	17353.702833	1829.564453	-173.022720
2821.104468	17353.702833	1828.568359	160.015350
2821.104468	17353.702833	1827.572266	96.991791
2821.104468	17353.702833	1826.576172	77.130089
2821.104468	17353.702833	1825.580078	-72.283806
2821.104468	17353.702833	1824.583008	-32.244617
2821.104468	17353.702833	1823.585938	180.358688
2821.104468	17353.702833	1822.588867	28.477638
2821.104468	17353.702833	1821.591797	1.233657
2821.104468	17353.702833	1820.594727	93.763824
2821.104468	17353.702833	1819.596680	6.528783
2821.104468	17353.702833	1818.599609	17.488663
2821.104468	17353.702833	1817.601563	76.289940
2821.104468	17353.702833	1816.603516	111.076721
2821.104468	17353.702833	1815.604492	186.495529
2821.104468	17353.702833	1814.606445	53.604534
2821.104468	17353.702833	1813.607422	21.218330
2821.104468	17353.702833	1812.608398	103.636513
2821.104468	17353.702833	1811.609375	37.659298
2821.104468	17353.702833	1810.610352	36.229984
2821.104468	17353.702833	1809.610352	-10.687779
2821.104468	17353.702833	1808.611328	102.542953
2821.104468	17353.702833	1807.611328	41.180557
2821.104468	17353.702833	1806.611328	-132.537537
2821.104468	17353.702833	1805.610352	59.332619
2821.104468	17353.702833	1804.610352	-21.264948
2821.104468	17353.702833	1803.609375	-39.790020
2821.104468	17353.702833	1802.608398	89.694305
2821.104468	17353.702833	1801.607422	87.753944
2821.104468	17353.702833	1800.606445	102.466072
2821.104468	17353.702833	1799.605469	38.353180
2821.104468	17353.702833	1798.603516	93.514648
2821.104468	17353.702833	1797.601563	57.935543
2821.104468	17353.702833	1796.599609	189.283890
2821.104468	17353.702833	1795.597656	31.949394
2821.104468	17353.702833	1794.595703	10.527357
2821.104468	17353.702833	1793.592773	139.240448
2821.104468	17353.702833	1792.589844	120.062836
2821.104468	17353.702833	1791.587891	48.405453
2821.104468	17353.702833	1790.583984	2.914826
2821.104468	17353.702833	1789.581055	12.172205
2821.104468	17353.702833	1788.577148	-128.690994
2821.104468	17353.702833	1787.574219	59.057003
2821.104468	17353.702833	1786.570313	-36.653782
2821.104468	17353.702833	1785.566406	191.339294
2821.104468	17353.702833	1784.561523	55.047508
2821.104468	17353.702833	1783.557617	113.863319
2821.104468	17353.702833	1782.552734	67.909172
2821.104468	17353.702833	1781.547852	86.128754
2821.104468	17353.702833	1780.542969	25.796196
2821.104468	17353.702833	1779.538086	1.085073
2821.104468	17353.702833	1778.532227	192.640137
2821.104468	17353.702833	1777.527344	-27.122879
2821.104468	17353.702833	1776.521484	45.413383
2821.104468	17353.702833	1775.515625	103.598808
2821.104468	17353.702833	1774.508789	-37.845890
2821.104468	17353.702833	1773.502930	51.071743
2821.104468	17353.702833	1772.496094	-64.326813
2821.104468	17353.702833	1771.489258	69.527382
2821.104468	17353.702833	1770.482422	37.107780
2821.104468	17353.702833	1769.475586	-0.114579
2821.104468	17353.702833	1768.467773	-54.006702
2821.104468	17353.702833	1767.460938	-65.241814
2821.104468	17353.702833	1766.453125	-29.111435
2821.104468	17353.702833	1765.445313	-49.977829
2821.104468	17353.702833	1764.437500	-30.600380
2821.104468	17353.702833	1763.428711	-39.751637
2821.104468	17353.702833	1762.420898	-27.634386
2821.104468	17353.702833	1761.412109	-3.750232
2821.104468	17353.702833	1760.403320	-129.199814
2821.104468	17353.702833	1759.393555	-77.027901
2821.104468	17353.702833	1758.384766	-41.519199
2821.104468	17353.702833	1757.375000	-10.835966
2821.104468	17353.702833	1756.366211	-93.860306
2821.104468	17353.702833	1755.356445	-46.753231
2821.104468	17353.702833	1754.345703	-129.893372
2821.104468	17353.702833	1753.335938	82.677956
2821.104468	17353.702833	1752.325195	11.230013
2821.104468	17353.702833	1751.315430	-57.891048
2821.104468	17353.702833	1750.304688	-63.218433
2821.104468	17353.702833	1749.292969	-70.985687
2821.104468	17353.702833	1748.282227	-17.358433
2821.104468	17353.702833	1747.270508	31.444696
2821.104468	17353.702833	1746.259766	-184.470154
2821.104468	17353.702833	1745.248047	-93.274010
2821.104468	17353.702833	1744.235352	-39.980633
2821.104468	17353.702833	1743.223633	-111.929245
2821.104468	17353.702833	1742.211914	-28.094543
2821.104468	17353.702833	1741.199219	-156.819626
2821.104468	17353.702833	1740.186523	-40.115227
2821.104468	17353.702833	1739.173828	-15.552954
2821.104468	17353.702833	1738.160156	27.796381
2821.104468	17353.702833	1737.147461	9.738441
2821.104468	17353.702833	1736.133789	41.134323
2821.104468	17353.702833	1735.120117	157.331100
2821.104468	17353.702833	1734.106445	30.600948
2821.104468	17353.702833	1733.091797	153.679443
2821.104468	17353.702833	1732.078125	-86.252541
2821.104468	17353.702833	1731.063477	175.668915
2821.104468	17353.702833	1730.048828	34.613514
2821.104468	17353.702833	1729.034180	58.403793
2821.104468	17353.702833	1728.019531	140.983887
2821.104468	17353.702833	1727.003906	6.865395
2821.104468	17353.702833	1725.988281	155.185623
2821.104468	17353.702833	1724.972656	129.233917
2821.104468	17353.702833	1723.957031	72.636116
2821.104468	17353.702833	1722.941406	124.205513
2821.104468	17353.702833	1721.924805	178.032578
2821.104468	17353.702833	1720.909180	64.819687
2821.104468	17353.702833	1719.892578	191.388000
2821.104468	17353.702833	1718.875977	75.724899
2821.104468	17353.702833	1717.858398	115.144783
2821.104468	17353.702833	1716.841797	123.945747
2821.104468	17353.702833	1715.824219	69.239044
2821.104468	17353.702833	1714.806641	-30.139986
2821.104468	17353.702833	1713.789063	326.044403
2821.104468	17353.702833	1712.770508	118.511658
2821.104468	17353.702833	1711.752930	141.058517
2821.104468	17353.702833	1710.734375	41.478355
2821.104468	17353.702833	1709.715820	101.441772
2821.104468	17353.702833	1708.697266	208.242706
2821.104468	17353.702833	1707.678711	214.075958
2821.104468	17353.702833	1706.659180	269.086914
2821.104468	17353.702833	1705.640625	377.954437
2821.104468	17353.702833	1704.621094	285.096741
2821.104468	17353.702833	1703.600586	135.952179
2821.104468	17353.702833	1702.581055	225.845428
2821.104468	17353.702833	1701.561523	285.186005
2821.104468	17353.702833	1700.541016	23.506733
2821.104468	17353.702833	1699.520508	192.815796
2821.104468	17353.702833	1698.500000	296.435974
2821.104468	17353.702833	1697.478516	233.724243
2821.104468	17353.702833	1696.458008	229.508392
2821.104468	17353.702833	1695.436523	138.636932
2821.104468	17353.702833	1694.415039	323.847351
2821.104468	17353.702833	1693.393555	202.469803
2821.104468	17353.702833	1692.372070	293.928741
2821.104468	17353.702833	1691.349609	436.736115
2821.104468	17353.702833	1690.327148	310.559265
2821.104468	17353.702833	1689.304688	397.099579
2821.104468	17353.702833	1688.282227	392.405457
2821.104468	17353.702833	1687.259766	361.957092
2821.104468	17353.702833	1686.236328	625.828186
2821.104468	17353.702833	1685.213867	464.440552
2821.104468	17353.702833	1684.190430	403.475677
2821.104468	17353.702833	1683.166016	225.729004
2821.104468	17353.702833	1682.142578	342.154297
2821.104468	17353.702833	1681.119141	369.794525
2821.104468	17353.702833	1680.094727	376.364349
2821.104468	17353.702833	1679.070313	443.545898
2821.104468	17353.702833	1678.045898	505.990234
2821.104468	17353.702833	1677.020508	384.110229
2821.104468	17353.702833	1675.996094	376.499268
2821.104468	17353.702833	1674.970703	511.046753
2821.104468	17353.702833	1673.945313	507.977997
2821.104468	17353.702833	1672.919922	663.336182
2821.104468	17353.702833	1671.893555	727.713684
2821.104468	17353.702833	1670.868164	656.923096
2821.104468	17353.702833	1669.841797	667.626831
2821.104468	17353.702833	1668.815430	610.756592
2821.104468	17353.702833	1667.789063	737.794434
2821.104468	17353.702833	1666.761719	662.222351
2821.104468	17353.702833	1665.735352	777.489502
2821.104468	17353.702833	1664.708008	790.283386
2821.104468	17353.702833	1663.680664	726.266724
2821.104468	17353.702833	1662.653320	641.306641
2821.104468	17353.702833	1661.625000	772.602051
2821.104468	17353.702833	1660.597656	801.523865
2821.104468	17353.702833	1659.569336	839.688110
2821.104468	17353.702833	1658.541016	840.619019
2821.104468	17353.702833	1657.512695	827.577209
2821.104468	17353.702833	1656.483398	763.386475
2821.104468	17353.702833	1655.455078	617.905457
2821.104468	17353.702833	1654.425781	602.491028
2821.104468	17353.702833	1653.396484	809.954712
2821.104468	17353.702833	1652.366211	940.691711
2821.104468	17353.702833	1651.336914	915.857483
2821.104468	17353.702833	1650.306641	830.662415
2821.104468	17353.702833	1649.276367	954.281433
2821.104468	17353.702833	1648.246094	938.651855
2821.104468	17353.702833	1647.215820	953.153442
2821.104468	17353.702833	1646.185547	1002.408142
2821.104468	17353.702833	1645.154297	954.243591
2821.104468	17353.702833	1644.123047	994.154236
2821.104468	17353.702833	1643.091797	983.047058
2821.104468	17353.702833	1642.060547	1171.181763
2821.104468	17353.702833	1641.028320	1199.376221
2821.104468	17353.702833	1639.997070	1322.510986
2821.104468	17353.702833	1638.964844	1396.942627
2821.104468	17353.702833	1637.931641	1286.107422
2821.104468	17353.702833	1636.899414	1353.543335
2821.104468	17353.702833	1635.867188	1279.769287
2821.104468	17353.702833	1634.833984	1238.394165
2821.104468	17353.702833	1633.800781	1303.435913
2821.104468	17353.702833	1632.767578	1511.840576
2821.104468	17353.702833	1631.734375	1613.781250
2821.104468	17353.702833	1630.700195	1528.389893
2821.104468	17353.702833	1629.666016	1544.730469
2821.104468	17353.702833	1628.631836	1385.414307
2821.104468	17353.702833	1627.597656	1540.401123
2821.104468	17353.702833	1626.563477	1480.473145
2821.104468	17353.702833	1625.528320	1658.457031
2821.104468	17353.702833	1624.493164	1640.075806
2821.104468	17353.702833	1623.458008	1506.256104
2821.104468	17353.702833	1622.422852	1591.785034
2821.104468	17353.702833	1621.387695	1681.894775
2821.104468	17353.702833	1620.351563	1831.952271
2821.104468	17353.702833	1619.315430	1921.969482
2821.104468	17353.702833	1618.279297	1903.541016
2821.104468	17353.702833	1617.243164	1956.613281
2821.104468	17353.702833	1616.207031	2235.628418
2821.104468	17353.702833	1615.169922	2023.504883
2821.104468	17353.702833	1614.132813	2078.828125
2821.104468	17353.702833	1613.095703	2009.700562
2821.104468	17353.702833	1612.058594	2166.389648
2821.104468	17353.702833	1611.020508	2230.875488
2821.104468	17353.702833	1609.983398	2088.084717
2821.104468	17353.702833	1608.945313	2355.204590
2821.104468	17353.702833	1607.907227	2032.888062
2821.104468	17353.702833	1606.868164	1977.691406
2821.104468	17353.702833	1605.830078	2203.289063
2821.104468	17353.702833	1604.791016	1733.965210
2821.104468	17353.702833	1603.751953	1849.122681
2821.104468	17353.702833	1602.712891	1761.861084
2821.104468	17353.702833	1601.673828	1899.993652
2821.104468	17353.702833	1600.633789	1644.951782
2821.104468	17353.702833	1599.594727	1610.697754
2821.104468	17353.702833	1598.554688	1677.579834
2821.104468	17353.702833	1597.513672	1792.695679
2821.104468	17353.702833	1596.473633	1831.990601
2821.104468	17353.702833	1595.433594	1829.949951
2821.104468	17353.702833	1594.392578	1860.070557
2821.104468	17353.702833	1593.351563	1729.493164
2821.104468	17353.702833	1592.310547	1640.307373
2821.104468	17353.702833	1591.268555	1645.264282
2821.104468	17353.702833	1590.227539	1629.604858
2821.104468	17353.702833	1589.185547	1900.724609
2821.104468	17353.702833	1588.143555	1825.432129
2821.104468	17353.702833	1587.100586	1812.102417
2821.104468	17353.702833	1586.058594	1840.087646
2821.104468	17353.702833	1585.015625	1613.639893
2821.104468	17353.702833	1583.972656	2017.560913
2821.104468	17353.702833	1582.929688	1908.090576
2821.104468	17353.702833	1581.886719	1998.006348
2821.104468	17353.702833	1580.843750	1833.679077
2821.104468	17353.702833	1579.799805	1880.121826
2821.104468	17353.702833	1578.755859	1915.134888
2821.104468	17353.702833	1577.711914	2055.471191
2821.104468	17353.702833	1576.666992	1875.365234
2821.104468	17353.702833	1575.623047	1862.419556
2821.104468	17353.702833	1574.578125	1881.536621
2821.104468	17353.702833	1573.533203	1914.410034
2821.104468	17353.702833	1572.488281	1768.936157
2821.104468	17353.702833	1571.443359	1893.359863
2821.104468	17353.702833	1570.397461	1894.324463
2821.104468	17353.702833	1569.351563	1977.611328
2821.104468	17353.702833	1568.305664	1880.389282
2821.104468	17353.702833	1567.259766	1803.813477
2821.104468	17353.702833	1566.213867	1766.144287
2821.104468	17353.702833	1565.166992	1721.675903
2821.104468	17353.702833	1564.120117	1674.990967
2821.104468	17353.702833	1563.073242	1676.312012
2821.104468	17353.702833	1562.026367	1695.941650
2821.104468	17353.702833	1560.978516	1747.552734
2821.104468	17353.702833	1559.930664	1600.703613
2821.104468	17353.702833	1558.883789	1650.145630
2821.104468	17353.702833	1557.834961	1394.000854
2821.104468	17353.702833	1556.787109	1418.479858
2821.104468	17353.702833	1555.739258	1408.808350
2821.104468	17353.702833	1554.690430	1323.971191
2821.104468	17353.702833	1553.641602	1389.625854
2821.104468	17353.702833	1552.592773	1482.651001
2821.104468	17353.702833	1551.542969	1284.117432
2821.104468	17353.702833	1550.494141	1281.591064
2821.104468	17353.702833	1549.444336	1511.371948
2821.104468	17353.702833	1548.394531	1381.425781
2821.104468	17353.702833	1547.344727	1308.494629
2821.104468	17353.702833	1546.293945	1269.780518
2821.104468	17353.702833	1545.244141	1117.392334
2821.104468	17353.702833	1544.193359	1142.550903
2821.104468	17353.702833	1543.142578	1256.462891
2821.104468	17353.702833	1542.090820	1477.259033
2821.104468	17353.702833	1541.040039	1425.231689
2821.104468	17353.702833	1539.988281	1511.933838
2821.104468	17353.702833	1538.936523	1462.318115
2821.104468	17353.702833	1537.884766	1399.157593
2821.104468	17353.702833	1536.833008	1624.587769
2821.104468	17353.702833	1535.780273	1622.871704
2821.104468	17353.702833	1534.727539	1423.673706
2821.104468	17353.702833	1533.674805	1469.815430
2821.104468	17353.702833	1532.622070	1413.868164
2821.104468	17353.702833	1531.569336	1221.851807
2821.104468	17353.702833	1530.515625	1315.864014
2821.104468	17353.702833	1529.461914	1167.183594
2821.104468	17353.702833	1528.408203	939.254700
2821.104468	17353.702833	1527.354492	994.941162
2821.104468	17353.702833	1526.299805	939.583801
2821.104468	17353.702833	1525.246094	793.664001
2821.104468	17353.702833	1524.191406	820.107971
2821.104468	17353.702833	1523.136719	839.821289
2821.104468	17353.702833	1522.081055	759.922363
2821.104468	17353.702833	1521.026367	720.910461
2821.104468	17353.702833	1519.970703	711.424377
2821.104468	17353.702833	1518.915039	557.125122
2821.104468	17353.702833	1517.859375	719.868652
2821.104468	17353.702833	1516.802734	640.468262
2821.104468	17353.702833	1515.747070	676.585327
2821.104468	17353.702833	1514.690430	678.830139
2821.104468	17353.702833	1513.633789	785.200256
2821.104468	17353.702833	1512.577148	638.342590
2821.104468	17353.702833	1511.519531	708.667419
2821.104468	17353.702833	1510.461914	546.223633
2821.104468	17353.702833	1509.405273	768.135193
2821.104468	17353.702833	1508.346680	506.490540
2821.104468	17353.702833	1507.289063	464.175812
2821.104468	17353.702833	1506.231445	406.154053
2821.104468	17353.702833	1505.172852	192.421875
2821.104468	17353.702833	1504.114258	443.960388
2821.104468	17353.702833	1503.055664	228.226044
2821.104468	17353.702833	1501.996094	319.593658
2821.104468	17353.702833	1500.937500	343.328766
2821.104468	17353.702833	1499.877930	91.912964
2821.104468	17353.702833	1498.818359	221.869812
2821.104468	17353.702833	1497.757813	180.476746
2821.104468	17353.702833	1496.698242	157.233932
2821.104468	17353.702833	1495.637695	201.713486
2821.104468	17353.702833	1494.577148	77.239357
2821.104468	17353.702833	1493.516602	-47.091370
2821.104468	17353.702833	1492.456055	-38.362312
2821.104468	17353.702833	1491.394531	159.652695
2821.104468	17353.702833	1490.333008	42.414921
2821.104468	17353.702833	1489.271484	-117.460037
2821.104468	17353.702833	1488.209961	168.529129
2821.104468	17353.702833	1487.148438	78.653282
2821.104468	17353.702833	1486.085938	76.661453
2821.104468	17353.702833	1485.023438	205.248795
2821.104468	17353.702833	1483.960938	59.475182
2821.104468	17353.702833	1482.898438	-77.149300
2821.104468	17353.702833	1481.834961	40.434292
2821.104468	17353.702833	1480.772461	74.902985
2821.104468	17353.702833	1479.708984	-238.897049
2821.104468	17353.702833	1478.644531	-62.635155
2821.104468	17353.702833	1477.581055	-3.181783
2821.104468	17353.702833	1476.517578	-116.565727
2821.104468	17353.702833	1475.453125	23.876963
2821.104468	17353.702833	1474.388672	99.272072
2821.104468	17353.702833	1473.323242	289.181183
2821.104468	17353.702833	1472.258789	10.221148
2821.104468	17353.702833	1471.193359	61.211292
2821.104468	17353.702833	1470.127930	208.652954
2821.104468	17353.702833	1469.062500	374.073700
2821.104468	17353.702833	1467.997070	277.321320
2821.104468	17353.702833	1466.930664	415.821228
2821.104468	17353.702833	1465.865234	478.526031
2821.104468	17353.702833	1464.798828	433.566650
2821.104468	17353.702833	1463.731445	628.153503
2821.104468	17353.702833	1462.665039	764.518799
2821.104468	17353.702833	1461.597656	733.681763
2821.104468	17353.702833	1460.530273	709.538391
2821.104468	17353.702833	1459.462891	745.233215
2821.104468	17353.702833	1458.395508	618.526123
2821.104468	17353.702833	1457.327148	876.661743
2821.104468	17353.702833	1456.259766	852.138611
2821.104468	17353.702833	1455.191406	862.243652
2821.104468	17353.702833	1454.123047	865.135864
2821.104468	17353.702833	1453.053711	808.087463
2821.104468	17353.702833	1451.985352	893.511230
2821.104468	17353.702833	1450.916016	986.282837
2821.104468	17353.702833	1449.846680	807.075317
2821.104468	17353.702833	1448.776367	827.320618
2821.104468	17353.702833	1447.707031	746.262634
2821.104468	17353.702833	1446.636719	805.008240
2821.104468	17353.702833	1445.566406	777.903931
2821.104468	17353.702833	1444.496094	735.302307
2821.104468	17353.702833	1443.425781	883.317627
2821.104468	17353.702833	1442.354492	782.276672
2821.104468	17353.702833	1441.283203	795.090149
2821.104468	17353.702833	1440.211914	848.098755
2821.104468	17353.702833	1439.140625	801.791687
2821.104468	17353.702833	1438.069336	928.893616
2821.104468	17353.702833	1436.997070	684.127197
2821.104468	17353.702833	1435.924805	763.628235
2821.104468	17353.702833	1434.852539	836.805725
2821.104468	17353.702833	1433.780273	686.659607
2821.104468	17353.702833	1432.707031	619.508789
2821.104468	17353.702833	1431.633789	758.203308
2821.104468	17353.702833	1430.560547	669.723511
2821.104468	17353.702833	1429.487305	572.867126
2821.104468	17353.702833	1428.413086	575.709290
2821.104468	17353.702833	1427.339844	452.671783
2821.104468	17353.702833	1426.265625	417.496765
2821.104468	17353.702833	1425.191406	282.102020
2821.104468	17353.702833	1424.116211	365.170410
2821.104468	17353.702833	1423.041992	243.412048
2821.104468	17353.702833	1421.966797	420.742645
2821.104468	17353.702833	1420.891602	222.862762
2821.104468	17353.702833	1419.816406	321.458801
2821.104468	17353.702833	1418.740234	333.432739
2821.104468	17353.702833	1417.665039	417.709503
2821.104468	17353.702833	1416.588867	280.223297
2821.104468	17353.702833	1415.512695	353.389099
2821.104468	17353.702833	1414.435547	391.920776
2821.104468	17353.702833	1413.359375	297.898682
2821.104468	17353.702833	1412.282227	383.553711
2821.104468	17353.702833	1411.205078	451.383331
2821.104468	17353.702833	1410.127930	410.536713
2821.104468	17353.702833	1409.049805	382.404968
2821.104468	17353.702833	1407.972656	302.364319
2821.104468	17353.702833	1406.894531	428.700256
2821.104468	17353.702833	1405.816406	407.720337
2821.104468	17353.702833	1404.737305	523.894104
2821.104468	17353.702833	1403.659180	638.347046
2821.104468	17353.702833	1402.580078	602.426819
2821.104468	17353.702833	1401.500977	533.486572
2821.104468	17353.702833	1400.421875	764.571777
2821.104468	17353.702833	1399.341797	613.976685
2821.104468	17353.702833	1398.262695	808.948853
2821.104468	17353.702833	1397.182617	817.481384
2821.104468	17353.702833	1396.102539	861.897583
2821.104468	17353.702833	1395.021484	980.274109
2821.104468	17353.702833	1393.941406	969.425232
2821.104468	17353.702833	1392.860352	972.192383
2821.104468	17353.702833	1391.779297	1026.218750
2821.104468	17353.702833	1390.698242	836.712952
2821.104468	17353.702833	1389.616211	814.076355
2821.104468	17353.702833	1388.535156	886.272583
2821.104468	17353.702833	1387.453125	918.484802
2821.104468	17353.702833	1386.371094	842.026550
2821.104468	17353.702833	1385.288086	839.830872
2821.104468	17353.702833	1384.206055	668.609680
2821.104468	17353.702833	1383.123047	820.810486
2821.104468	17353.702833	1382.040039	708.278687
2821.104468	17353.702833	1380.957031	606.779419
2821.104468	17353.702833	1379.873047	648.681641
2821.104468	17353.702833	1378.789063	602.942810
2821.104468	17353.702833	1377.705078	560.639587
2821.104468	17353.702833	1376.621094	556.271484
2821.104468	17353.702833	1375.537109	570.874146
2821.104468	17353.702833	1374.452148	648.925171
2821.104468	17353.702833	1373.367188	593.500793
2821.104468	17353.702833	1372.282227	588.375916
2821.104468	17353.702833	1371.197266	483.450287
2821.104468	17353.702833	1370.112305	513.201050
2821.104468	17353.702833	1369.026367	451.094452
2821.104468	17353.702833	1367.940430	461.408386
2821.104468	17353.702833	1366.854492	638.943054
2821.104468	17353.702833	1365.767578	478.594788
2821.104468	17353.702833	1364.681641	476.188538
2821.104468	17353.702833	1363.594727	469.213806
2821.104468	17353.702833	1362.507813	425.991882
2821.104468	17353.702833	1361.419922	461.157623
2821.104468	17353.702833	1360.333008	604.527649
2821.104468	17353.702833	1359.245117	700.693481
2821.104468	17353.702833	1358.157227	619.108948
2821.104468	17353.702833	1357.069336	762.619263
2821.104468	17353.702833	1355.981445	702.649475
2821.104468	17353.702833	1354.892578	766.892517
2821.104468	17353.702833	1353.803711	873.454224
2821.104468	17353.702833	1352.714844	1025.846680
2821.104468	17353.702833	1351.625000	938.105713
2821.104468	17353.702833	1350.536133	813.847351
2821.104468	17353.702833	1349.446289	821.642883
2821.104468	17353.702833	1348.356445	858.582153
2821.104468	17353.702833	1347.266602	698.578674
2821.104468	17353.702833	1346.175781	869.581665
2821.104468	17353.702833	1345.085938	905.306885
2821.104468	17353.702833	1343.995117	867.774658
2821.104468	17353.702833	1342.903320	882.562683
2821.104468	17353.702833	1341.812500	849.528931
2821.104468	17353.702833	1340.720703	828.322998
2821.104468	17353.702833	1339.629883	794.670715
2821.104468	17353.702833	1338.538086	741.600830
2821.104468	17353.702833	1337.445313	647.691040
2821.104468	17353.702833	1336.353516	685.025208
2821.104468	17353.702833	1335.260742	683.919495
2821.104468	17353.702833	1334.167969	568.645508
2821.104468	17353.702833	1333.075195	464.569672
2821.104468	17353.702833	1331.981445	612.347168
2821.104468	17353.702833	1330.888672	482.485901
2821.104468	17353.702833	1329.794922	724.506897
2821.104468	17353.702833	1328.701172	551.885498
2821.104468	17353.702833	1327.606445	536.628479
2821.104468	17353.702833	1326.512695	547.925110
2821.104468	17353.702833	1325.417969	345.106293
2821.104468	17353.702833	1324.323242	513.029907
2821.104468	17353.702833	1323.227539	513.697205
2821.104468	17353.702833	1322.132813	670.606506
2821.104468	17353.702833	1321.037109	787.928955
2821.104468	17353.702833	1319.941406	453.178528
2821.104468	17353.702833	1318.845703	463.631714
2821.104468	17353.702833	1317.750000	686.752686
2821.104468	17353.702833	1316.653320	451.236298
2821.104468	17353.702833	1315.556641	463.848175
2821.104468	17353.702833	1314.459961	438.333649
2821.104468	17353.702833	1313.363281	611.937988
2821.104468	17353.702833	1312.265625	545.322205
2821.104468	17353.702833	1311.167969	523.153015
2821.104468	17353.702833	1310.070313	522.326111
2821.104468	17353.702833	1308.972656	527.323059
2821.104468	17353.702833	1307.874023	454.289490
2821.104468	17353.702833	1306.776367	554.249390
2821.104468	17353.702833	1305.677734	420.825714
2821.104468	17353.702833	1304.579102	362.855713
2821.104468	17353.702833	1303.479492	240.931381
2821.104468	17353.702833	1302.380859	346.413330
2821.104468	17353.702833	1301.281250	366.673859
2821.104468	17353.702833	1300.181641	328.011932
2821.104468	17353.702833	1299.081055	254.838089
2821.104468	17353.702833	1297.981445	454.866089
2821.104468	17353.702833	1296.880859	564.029114
2821.104468	17353.702833	1295.780273	513.661072
2821.104468	17353.702833	1294.679688	574.217346
2821.104468	17353.702833	1293.578125	539.131958
2821.104468	17353.702833	1292.476563	657.182190
2821.104468	17353.702833	1291.375000	601.992249
2821.104468	17353.702833	1290.273438	550.011475
2821.104468	17353.702833	1289.171875	551.265442
2821.104468	17353.702833	1288.069336	686.117188
2821.104468	17353.702833	1286.966797	529.606445
2821.104468	17353.702833	1285.864258	565.217773
2821.104468	17353.702833	1284.761719	468.140717
2821.104468	17353.702833	1283.658203	489.226776
2821.104468	17353.702833	1282.554688	599.534058
2821.104468	17353.702833	1281.451172	488.259033
2821.104468	17353.702833	1280.347656	331.923340
2821.104468	17353.702833	1279.244141	273.986145
2821.104468	17353.702833	1278.139648	346.046082
2821.104468	17353.702833	1277.035156	140.356430
2821.104468	17353.702833	1275.930664	156.604874
2821.104468	17353.702833	1274.825195	150.824707
2821.104468	17353.702833	1273.720703	200.231110
2821.104468	17353.702833	1272.615234	33.309467
2821.104468	17353.702833	1271.508789	125.636192
2821.104468	17353.702833	1270.403320	123.746628
2821.104468	17353.702833	1269.297852	107.064735
2821.104468	17353.702833	1268.191406	99.395447
2821.104468	17353.702833	1267.084961	4.403444
2821.104468	17353.702833	1265.977539	111.539688
2821.104468	17353.702833	1264.871094	-17.763720
2821.104468	17353.702833	1263.763672	153.141571
2821.104468	17353.702833	1262.656250	123.297607
2821.104468	17353.702833	1261.548828	61.506317
2821.104468	17353.702833	1260.440430	-85.076164
2821.104468	17353.702833	1259.333008	42.069477
2821.104468	17353.702833	1258.224609	50.745586
2821.104468	17353.702833	1257.115234	-12.736091
2821.104468	17353.702833	1256.006836	-81.669319
2821.104468	17353.702833	1254.897461	-116.264839
2821.104468	17353.702833	1253.788086	-6.863058
2821.104468	17353.702833	1252.678711	-174.101974
2821.104468	17353.702833	1251.569336	51.183128
2821.104468	17353.702833	1250.458984	-33.274811
2821.104468	17353.702833	1249.349609	-15.552907
2821.104468	17353.702833	1248.239258	-40.635185
2821.104468	17353.702833	1247.127930	-40.374454
2821.104468	17353.702833	1246.017578	7.396747
2821.104468	17353.702833	1244.906250	83.817993
2821.104468	17353.702833	1243.794922	75.795372
2821.104468	17353.702833	1242.683594	-34.916039
2821.104468	17353.702833	1241.571289	56.597431
2821.104468	17353.702833	1240.459961	203.156509
2821.104468	17353.702833	1239.347656	212.441360
2821.104468	17353.702833	1238.234375	170.245667
2821.104468	17353.702833	1237.122070	194.393539
2821.104468	17353.702833	1236.008789	206.655045
2821.104468	17353.702833	1234.896484	233.090622
2821.104468	17353.702833	1233.782227	238.245621
2821.104468	17353.702833	1232.668945	54.884705
2821.104468	17353.702833	1231.555664	286.561218
2821.104468	17353.702833	1230.441406	197.797760
2821.104468	17353.702833	1229.327148	96.067772
2821.104468	17353.702833	1228.211914	186.375809
2821.104468	17353.702833	1227.097656	70.851662
2821.104468	17353.702833	1225.982422	207.064240
2821.104468	17353.702833	1224.867188	157.574890
2821.104468	17353.702833	1223.751953	179.818939
2821.104468	17353.702833	1222.635742	173.526962
2821.104468	17353.702833	1221.520508	347.553925
2821.104468	17353.702833	1220.404297	442.412079
2821.104468	17353.702833	1219.287109	549.129944
2821.104468	17353.702833	1218.170898	550.657776
2821.104468	17353.702833	1217.053711	450.877411
2821.104468	17353.702833	1215.936523	349.377075
2821.104468	17353.702833	1214.819336	303.402222
2821.104468	17353.702833	1213.702148	202.512665
2821.104468	17353.702833	1212.583984	36.247063
2821.104468	17353.702833	1211.465820	83.998955
2821.104468	17353.702833	1210.347656	10.054744
2821.104468	17353.702833	1209.229492	-83.346497
2821.104468	17353.702833	1208.110352	-17.668598
2821.104468	17353.702833	1206.992188	-87.251579
2821.104468	17353.702833	1205.873047	97.778358
2821.104468	17353.702833	1204.752930	112.985924
2821.104468	17353.702833	1203.633789	136.854935
2821.104468	17353.702833	1202.513672	272.587250
2821.104468	17353.702833	1201.393555	239.042358
2821.104468	17353.702833	1200.273438	289.283569
2821.104468	17353.702833	1199.152344	260.318665
2821.104468	17353.702833	1198.032227	244.887024
2821.104468	17353.702833	1196.911133	520.049194
2821.104468	17353.702833	1195.790039	273.822540
2821.104468	17353.702833	1194.667969	449.434937
2821.104468	17353.702833	1193.545898	423.373047
2821.104468	17353.702833	1192.424805	406.103546
2821.104468	17353.702833	1191.301758	416.403564
2821.104468	17353.702833	1190.179688	292.124664
2821.104468	17353.702833	1189.056641	281.941864
2821.104468	17353.702833	1187.933594	128.726700
2821.104468	17353.702833	1186.810547	85.898026
2821.104468	17353.702833	1185.687500	-84.416336
2821.104468	17353.702833	1184.563477	-33.295765
2821.104468	17353.702833	1183.440430	-59.396240
2821.104468	17353.702833	1182.316406	13.311534
2821.104468	17353.702833	1181.191406	-56.171627
2821.104468	17353.702833	1180.067383	-71.962936
2821.104468	17353.702833	1178.942383	48.063416
2821.104468	17353.702833	1177.817383	-72.051331
2821.104468	17353.702833	1176.692383	-119.619728
2821.104468	17353.702833	1175.566406	7.391450
2821.104468	17353.702833	1174.440430	48.675880
2821.104468	17353.702833	1173.314453	-27.728388
2821.104468	17353.702833	1172.188477	6.766018
2821.104468	17353.702833	1171.062500	67.021866
2821.104468	17353.702833	1169.935547	29.609863
2821.104468	17353.702833	1168.808594	67.162819
2821.104468	17353.702833	1167.681641	94.285233
2821.104468	17353.702833	1166.553711	182.728378
2821.104468	17353.702833	1165.426758	13.918862
2821.104468	17353.702833	1164.298828	65.379738
2821.104468	17353.702833	1163.170898	51.985725
2821.104468	17353.702833	1162.041992	-55.601372
2821.104468	17353.702833	1160.914063	37.274361
2821.104468	17353.702833	1159.785156	70.963356
2821.104468	17353.702833	1158.656250	92.045570
2821.104468	17353.702833	1157.526367	-35.684490
2821.104468	17353.702833	1156.397461	-103.705368
2821.104468	17353.702833	1155.267578	-26.283596
2821.104468	17353.702833	1154.137695	-15.632506
2821.104468	17353.702833	1153.006836	91.113091
2821.104468	17353.702833	1151.876953	142.829453
2821.104468	17353.702833	1150.746094	276.480255
2821.104468	17353.702833	1149.615234	250.063766
2821.104468	17353.702833	1148.484375	329.525879
2821.104468	17353.702833	1147.352539	210.434250
2821.104468	17353.702833	1146.220703	62.145214
2821.104468	17353.702833	1145.088867	-55.770824
2821.104468	17353.702833	1143.957031	-133.936279
2821.104468	17353.702833	1142.825195	14.750042
2821.104468	17353.702833	1141.692383	-31.605295
2821.104468	17353.702833	1140.559570	-146.426514
2821.104468	17353.702833	1139.426758	-124.754478
2821.104468	17353.702833	1138.292969	-30.173656
2821.104468	17353.702833	1137.159180	-187.321014
2821.104468	17353.702833	1136.025391	-239.660736
2821.104468	17353.702833	1134.891602	-101.887955
2821.104468	17353.702833	1133.757813	-194.955109
2821.104468	17353.702833	1132.623047	-230.463470
2821.104468	17353.702833	1131.488281	-43.692329
2821.104468	17353.702833	1130.353516	0.169072
2821.104468	17353.702833	1129.217773	60.833820
2821.104468	17353.702833	1128.083008	42.183956
2821.104468	17353.702833	1126.947266	38.945713
2821.104468	17353.702833	1125.811523	-10.848930
2821.104468	17353.702833	1124.674805	13.616486
2821.104468	17353.702833	1123.539063	-26.192116
2821.104468	17353.702833	1122.402344	100.471664
2821.104468	17353.702833	1121.265625	-94.450798
2821.104468	17353.702833	1120.127930	-125.688118
2821.104468	17353.702833	1118.990234	-15.321295
2821.104468	17353.702833	1117.853516	-114.103958
2821.104468	17353.702833	1116.714844	88.566277
2821.104468	17353.702833	1115.577148	-2.266881
2821.104468	17353.702833	1114.439453	36.945709
2821.104468	17353.702833	1113.300781	157.771576
2821.104468	17353.702833	1112.162109	29.716972
2821.104468	17353.702833	1111.022461	5.724334
2821.104468	17353.702833	1109.883789	-69.975060
2821.104468	17353.702833	1108.744141	-55.012787
2821.104468	17353.702833	1107.604492	97.128845
2821.104468	17353.702833	1106.463867	40.356956
2821.104468	17353.702833	1105.324219	91.598061
2821.104468	17353.702833	1104.183594	2.799807
2821.104468	17353.702833	1103.042969	15.383920
2821.104468	17353.702833	1101.902344	13.759955
2821.104468	17353.702833	1100.760742	22.764032
2821.104468	17353.702833	1099.619141	89.553871
2821.104468	17353.702833	1098.477539	70.529297
2821.104468	17353.702833	1097.335938	116.251732
2821.104468	17353.702833	1096.193359	131.085953
2821.104468	17353.702833	1095.051758	146.975479
2821.104468	17353.702833	1093.909180	92.372078
2821.104468	17353.702833	1092.765625	103.792122
2821.104468	17353.702833	1091.623047	154.728317
2821.104468	17353.702833	1090.479492	105.883560
2821.104468	17353.702833	1089.335938	178.971268
2821.104468	17353.702833	1088.192383	48.831242
2821.104468	17353.702833	1087.047852	98.413849
2821.104468	17353.702833	1085.903320	68.148964
2821.104468	17353.702833	1084.758789	243.817337
2821.104468	17353.702833	1083.614258	-6.561032
2821.104468	17353.702833	1082.469727	8.500205
2821.104468	17353.702833	1081.324219	-26.392073
2821.104468	17353.702833	1080.178711	-31.690529
2821.104468	17353.702833	1079.033203	92.861694
2821.104468	17353.702833	1077.886719	170.934830
2821.104468	17353.702833	1076.740234	-75.876259
2821.104468	17353.702833	1075.593750	99.538345
2821.104468	17353.702833	1074.447266	26.907675
2821.104468	17353.702833	1073.300781	83.951035
2821.104468	17353.702833	1072.153320	225.054260
2821.104468	17353.702833	1071.005859	250.303696
2821.104468	17353.702833	1069.858398	263.779999
2821.104468	17353.702833	1068.709961	385.392303
2821.104468	17353.702833	1067.561523	390.540100
2821.104468	17353.702833	1066.413086	304.219147
2821.104468	17353.702833	1065.264648	312.082306
2821.104468	17353.702833	1064.116211	277.726379
2821.104468	17353.702833	1062.966797	388.510986
2821.104468	17353.702833	1061.817383	317.993164
2821.104468	17353.702833	1060.667969	259.483521
2821.104468	17353.702833	1059.517578	220.023727
2821.104468	17353.702833	1058.368164	198.901459
2821.104468	17353.702833	1057.217773	294.423920
2821.104468	17353.702833	1056.067383	170.007278
2821.104468	17353.702833	1054.916016	180.440536
2821.104468	17353.702833	1053.764648	141.411942
2821.104468	17353.702833	1052.613281	221.762970
2821.104468	17353.702833	1051.461914	105.295052
2821.104468	17353.702833	1050.310547	184.662155
2821.104468	17353.702833	1049.158203	110.937271
2821.104468	17353.702833	1048.005859	183.890457
2821.104468	17353.702833	1046.853516	305.130280
2821.104468	17353.702833	1045.700195	246.684692
2821.104468	17353.702833	1044.547852	80.493950
2821.104468	17353.702833	1043.394531	191.272873
2821.104468	17353.702833	1042.240234	275.890686
2821.104468	17353.702833	1041.086914	279.566742
2821.104468	17353.702833	1039.932617	286.926727
2821.104468	17353.702833	1038.778320	169.489685
2821.104468	17353.702833	1037.624023	242.259689
2821.104468	17353.702833	1036.469727	301.283386
2821.104468	17353.702833	1035.314453	246.143051
2821.104468	17353.702833	1034.159180	325.055603
2821.104468	17353.702833	1033.003906	405.319153
2821.104468	17353.702833	1031.847656	445.833221
2821.104468	17353.702833	1030.692383	519.858582
2821.104468	17353.702833	1029.536133	455.635834
2821.104468	17353.702833	1028.378906	449.359009
2821.104468	17353.702833	1027.222656	317.396515
2821.104468	17353.702833	1026.065430	270.783691
2821.104468	17353.702833	1024.908203	286.733490
2821.104468	17353.702833	1023.750977	250.843353
2821.104468	17353.702833	1022.593750	231.681931
2821.104468	17353.702833	1021.435547	216.619568
2821.104468	17353.702833	1020.277344	149.307907
2821.104468	17353.702833	1019.119141	212.406403
2821.104468	17353.702833	1017.959961	4.330714
2821.104468	17353.702833	1016.800781	120.318535
2821.104468	17353.702833	1015.641602	146.480530
2821.104468	17353.702833	1014.482422	13.965929
2821.104468	17353.702833	1013.323242	-47.833355
2821.104468	17353.702833	1012.163086	22.175886
2821.104468	17353.702833	1011.002930	-30.436892
2821.104468	17353.702833	1009.842773	19.723660
2821.104468	17353.702833	1008.681641	105.024071
2821.104468	17353.702833	1007.520508	46.765858
2821.104468	17353.702833	1006.359375	112.328758
2821.104468	17353.702833	1005.198242	57.045631
2821.104468	17353.702833	1004.037109	78.570610
2821.104468	17353.702833	1002.875000	68.242714
2821.104468	17353.702833	1001.712891	14.023830
2821.104468	17353.702833	1000.550781	46.294678
2821.104468	17353.702833	999.387695	104.414673
2821.104468	17353.702833	998.224609	-104.843628
2821.104468	17353.702833	997.061523	115.025505
2821.104468	17353.702833	995.898438	33.463833
2821.104468	17353.702833	994.734375	-60.342709
2821.104468	17353.702833	993.571289	-59.434383
2821.104468	17353.702833	992.407227	-19.339609
2821.104468	17353.702833	991.242188	28.561989
2821.104468	17353.702833	990.078125	46.317284
2821.104468	17353.702833	988.913086	72.485046
2821.104468	17353.702833	987.748047	21.823544
2821.104468	17353.702833	986.583008	-113.835312
2821.104468	17353.702833	985.416992	-86.721375
2821.104468	17353.702833	984.250977	-183.790634
2821.104468	17353.702833	983.084961	-87.349335
2821.104468	17353.702833	981.918945	-24.291653
2821.104468	17353.702833	980.751953	-49.664936
2821.104468	17353.702833	979.584961	-114.574455
2821.104468	17353.702833	978.417969	-24.214151
2821.104468	17353.702833	977.250977	-84.521149
2821.104468	17353.702833	976.083008	45.432171
2821.104468	17353.702833	974.915039	45.695953
2821.104468	17353.702833	973.747070	35.745190
2821.104468	17353.702833	972.579102	58.784863
2821.104468	17353.702833	971.410156	-76.560760
2821.104468	17353.702833	970.242188	-160.163589
2821.104468	17353.702833	969.072266	-102.675125
2821.104468	17353.702833	967.903320	-46.212624
2821.104468	17353.702833	966.733398	178.861572
2821.104468	17353.702833	965.563477	117.065636
2821.104468	17353.702833	964.393555	112.569382
2821.104468	17353.702833	963.223633	147.951340
2821.104468	17353.702833	962.052734	100.922935
2821.104468	17353.702833	960.881836	154.130890
2821.104468	17353.702833	959.710938	164.791397
2821.104468	17353.702833	958.540039	230.230560
2821.104468	17353.702833	957.368164	348.175323
2821.104468	17353.702833	956.196289	300.551758
2821.104468	17353.702833	955.024414	155.838348
2821.104468	17353.702833	953.851563	192.467026
2821.104468	17353.702833	952.679688	199.934387
2821.104468	17353.702833	951.506836	283.449615
2821.104468	17353.702833	950.333984	179.602554
2821.104468	17353.702833	949.160156	176.497421
2821.104468	17353.702833	947.986328	159.811478
2821.104468	17353.702833	946.812500	134.446457
2821.104468	17353.702833	945.638672	181.159103
2821.104468	17353.702833	944.464844	174.854568
2821.104468	17353.702833	943.290039	184.516861
2821.104468	17353.702833	942.115234	138.130463
2821.104468	17353.702833	940.940430	118.837845
2821.104468	17353.702833	939.764648	-10.171993
2821.104468	17353.702833	938.588867	96.898003
2821.104468	17353.702833	937.413086	-13.412723
2821.104468	17353.702833	936.237305	130.594437
2821.104468	17353.702833	935.060547	123.455055
2821.104468	17353.702833	933.883789	153.766586
2821.104468	17353.702833	932.707031	186.017654
2821.104468	17353.702833	931.530273	178.923477
2821.104468	17353.702833	930.352539	192.428238
2821.104468	17353.702833	929.175781	185.359955
2821.104468	17353.702833	927.998047	192.689133
2821.104468	17353.702833	926.819336	-4.705018
2821.104468	17353.702833	925.641602	178.322983
2821.104468	17353.702833	924.462891	115.304596
2821.104468	17353.702833	923.284180	75.016586
2821.104468	17353.702833	922.104492	131.838058
2821.104468	17353.702833	920.924805	180.350525
2821.104468	17353.702833	919.746094	182.511017
2821.104468	17353.702833	919.551758	233.307709
2821.104468	17353.702833	918.386719	230.089508
2821.104468	17353.702833	917.220703	202.081665
2821.104468	17353.702833	916.054688	248.373566
2821.104468	17353.702833	914.887695	154.302170
2821.104468	17353.702833	913.721680	138.652924
2821.104468	17353.702833	912.554688	-35.842419
2821.104468	17353.702833	911.387695	92.887466
2821.104468	17353.702833	910.220703	-36.198135
2821.104468	17353.702833	909.052734	34.724495
2821.104468	17353.702833	907.885742	-75.778809
2821.104468	17353.702833	906.717773	3.333597
2821.104468	17353.702833	905.548828	-18.554743
2821.104468	17353.702833	904.380859	-38.391106
2821.104468	17353.702833	903.211914	40.620949
2821.104468	17353.702833	902.042969	35.165142
2821.104468	17353.702833	900.874023	-3.240191
2821.104468	17353.702833	899.704102	96.255386
2821.104468	17353.702833	898.535156	-24.486214
2821.104468	17353.702833	897.365234	-25.864988
2821.104468	17353.702833	896.194336	59.135880
2821.104468	17353.702833	895.024414	92.674744
2821.104468	17353.702833	893.853516	72.729462
2821.104468	17353.702833	892.682617	1.387625
2821.104468	17353.702833	891.511719	82.150940
2821.104468	17353.702833	890.340820	160.813568
2821.104468	17353.702833	889.168945	155.202866
2821.104468	17353.702833	887.997070	198.877655
2821.104468	17353.702833	886.825195	277.433838
2821.104468	17353.702833	885.653320	72.610397
2821.104468	17353.702833	884.480469	112.136490
2821.104468	17353.702833	883.307617	98.274551
2821.104468	17353.702833	882.134766	98.770393
2821.104468	17353.702833	880.961914	119.770203
2821.104468	17353.702833	879.788086	71.015755
2821.104468	17353.702833	878.614258	112.499016
2821.104468	17353.702833	877.440430	63.745060
2821.104468	17353.702833	876.266602	72.395172
2821.104468	17353.702833	875.091797	68.736488
2821.104468	17353.702833	873.916992	171.615967
2821.104468	17353.702833	872.742188	94.170975
2821.104468	17353.702833	871.567383	86.385056
2821.104468	17353.702833	870.391602	49.925659
2821.104468	17353.702833	869.215820	121.978134
2821.104468	17353.702833	868.040039	183.757462
2821.104468	17353.702833	866.864258	22.439062
2821.104468	17353.702833	865.687500	45.321678
2821.104468	17353.702833	864.510742	-9.547021
2821.104468	17353.702833	863.333984	-9.181577
2821.104468	17353.702833	862.157227	72.965477
2821.104468	17353.702833	860.979492	-14.609890
2821.104468	17353.702833	859.802734	-32.665443
2821.104468	17353.702833	858.625000	-38.459366
2821.104468	17353.702833	857.446289	-162.758209
2821.104468	17353.702833	856.268555	-172.625366
2821.104468	17353.702833	855.089844	-106.931870
2821.104468	17353.702833	853.911133	-29.022631
2821.104468	17353.702833	852.731445	48.847248
2821.104468	17353.702833	851.552734	-112.120461
2821.104468	17353.702833	850.373047	-85.295898
2821.104468	17353.702833	849.193359	-11.566937
2821.104468	17353.702833	848.013672	5.011286
2821.104468	17353.702833	846.833008	-66.115227
2821.104468	17353.702833	845.652344	-12.847031
2821.104468	17353.702833	844.471680	20.005829
2821.104468	17353.702833	843.291016	48.761723
2821.104468	17353.702833	842.110352	-26.422607
2821.104468	17353.702833	840.928711	41.023289
2821.104468	17353.702833	839.747070	98.249153
2821.104468	17353.702833	838.564453	-31.903112
2821.104468	17353.702833	837.382813	-45.960636
2821.104468	17353.702833	836.200195	-88.516953
2821.104468	17353.702833	835.017578	58.203175
2821.104468	17353.702833	833.834961	-53.553719
2821.104468	17353.702833	832.651367	-87.968735
2821.104468	17353.702833	831.467773	-22.717810
2821.104468	17353.702833	830.284180	16.063253
2821.104468	17353.702833	829.100586	-48.865356
2821.104468	17353.702833	827.916992	-34.503704
2821.104468	17353.702833	826.732422	-135.990967
2821.104468	17353.702833	825.547852	-22.075846
2821.104468	17353.702833	824.363281	51.156624
2821.104468	17353.702833	823.177734	-17.815596
2821.104468	17353.702833	821.992188	-109.103981
2821.104468	17353.702833	820.806641	-90.737938
2821.104468	17353.702833	819.621094	-70.359177
2821.104468	17353.702833	818.434570	-1.294468
2821.104468	17353.702833	817.249023	29.183088
2821.104468	17353.702833	816.062500	90.065559
2821.104468	17353.702833	814.875000	-21.466560
2821.104468	17353.702833	813.688477	-9.280073
2821.104468	17353.702833	812.500977	-128.874695
2821.104468	17353.702833	811.313477	-25.486382
2821.104468	17353.702833	810.125977	-74.126541
2821.104468	17353.702833	808.937500	-167.326645
2821.104468	17353.702833	807.749023	-9.336826
2821.104468	17353.702833	806.560547	89.849579
2821.104468	17353.702833	805.372070	-21.581573
2821.104468	17353.702833	804.182617	-31.764364
2821.104468	17353.702833	802.994141	-23.741282
2821.104468	17353.702833	801.803711	-82.503571
2821.104468	17353.702833	800.614258	61.044594
2821.104468	17353.702833	799.424805	-7.849069
2821.104468	17353.702833	798.234375	52.692039
2821.104468	17353.702833	797.043945	-66.738434
2821.104468	17353.702833	795.852539	24.084709
2821.104468	17353.702833	794.662109	124.961357
2821.104468	17353.702833	793.470703	-22.735527
2821.104468	17353.702833	792.279297	-49.180832
2821.104468	17353.702833	791.087891	-77.648735
2821.104468	17353.702833	789.895508	61.476994
2821.104468	17353.702833	788.703125	55.176762
2821.104468	17353.702833	787.510742	184.096298
2821.104468	17353.702833	786.318359	117.205070
2821.104468	17353.702833	785.125000	108.835533
2821.104468	17353.702833	783.931641	189.207870
2821.104468	17353.702833	782.738281	340.115753
2821.104468	17353.702833	781.544922	39.295208
2821.104468	17353.702833	780.350586	121.600121
2821.104468	17353.702833	779.156250	22.463106
2821.104468	17353.702833	777.961914	-24.258713
2821.104468	17353.702833	776.767578	-42.774139
2821.104468	17353.702833	775.572266	71.638306
2821.104468	17353.702833	774.376953	280.632965
2821.104468	17353.702833	773.181641	205.638214
2821.104468	17353.702833	771.986328	380.261169
2821.104468	17353.702833	770.790039	375.678284
2821.104468	17353.702833	769.593750	453.574249
2821.104468	17353.702833	768.397461	515.324707
2821.104468	17353.702833	767.201172	464.398010
2821.104468	17353.702833	766.003906	359.179108
2821.104468	17353.702833	764.806641	272.077301
2821.104468	17353.702833	763.609375	259.361298
2821.104468	17353.702833	762.412109	296.869080
2821.104468	17353.702833	761.213867	247.944977
2821.104468	17353.702833	760.015625	229.150192
2821.104468	17353.702833	758.817383	166.156723
2821.104468	17353.702833	757.618164	171.436737
2821.104468	17353.702833	756.419922	194.758194
2821.104468	17353.702833	755.220703	189.947571
2821.104468	17353.702833	754.021484	32.607170
2821.104468	17353.702833	752.821289	45.839924
2821.104468	17353.702833	751.621094	55.030399
2821.104468	17353.702833	750.420898	132.375977
2821.104468	17353.702833	749.220703	135.478333
2821.104468	17353.702833	748.020508	54.360989
2821.104468	17353.702833	746.819336	263.854309
2821.104468	17353.702833	745.618164	262.840515
2821.104468	17353.702833	744.416992	229.746490
2821.104468	17353.702833	743.214844	306.798462
2821.104468	17353.702833	742.012695	333.727356
2821.104468	17353.702833	740.810547	350.606537
2821.104468	17353.702833	739.608398	455.522034
2821.104468	17353.702833	738.406250	376.250793
2821.104468	17353.702833	737.203125	343.001373
2821.104468	17353.702833	736.000000	669.808044
2821.104468	17353.702833	734.795898	654.449585
2821.104468	17353.702833	733.592773	873.016113
2821.104468	17353.702833	732.388672	941.523682
2821.104468	17353.702833	731.184570	934.018250
2821.104468	17353.702833	729.979492	790.598511
2821.104468	17353.702833	728.775391	721.127563
2821.104468	17353.702833	727.570313	681.614990
2821.104468	17353.702833	726.365234	610.131775
2821.104468	17353.702833	725.160156	340.976868
2821.104468	17353.702833	723.954102	475.137360
2821.104468	17353.702833	722.748047	283.889984
2821.104468	17353.702833	721.541992	256.309570
2821.104468	17353.702833	720.334961	176.834732
2821.104468	17353.702833	719.128906	133.259827
2821.104468	17353.702833	717.921875	123.566063
2821.104468	17353.702833	716.714844	18.141150
2821.104468	17353.702833	715.506836	183.811356
2821.104468	17353.702833	714.298828	-51.195248
2821.104468	17353.702833	713.090820	196.035538
2821.104468	17353.702833	711.882813	-36.960041
2821.104468	17353.702833	710.674805	98.554939
2821.104468	17353.702833	709.465820	150.342148
2821.104468	17353.702833	708.256836	46.785114
2821.104468	17353.702833	707.047852	148.240906
2821.104468	17353.702833	705.837891	78.475983
2821.104468	17353.702833	704.627930	177.810516
2821.104468	17353.702833	703.417969	187.551254
2821.104468	17353.702833	702.208008	320.546021
2821.104468	17353.702833	700.998047	258.590393
2821.104468	17353.702833	699.787109	379.501892
2821.104468	17353.702833	698.576172	202.200989
2821.104468	17353.702833	697.364258	166.010117
2821.104468	17353.702833	696.153320	268.855194
2821.104468	17353.702833	694.941406	151.143555
2821.104468	17353.702833	693.729492	200.243057
2821.104468	17353.702833	692.516602	267.144440
2821.104468	17353.702833	691.304688	282.365265
2821.104468	17353.702833	690.091797	216.166611
2821.104468	17353.702833	688.878906	197.569321
2821.104468	17353.702833	687.665039	270.183167
2821.104468	17353.702833	686.451172	326.853302
2821.104468	17353.702833	685.237305	373.538940
2821.104468	17353.702833	684.023438	386.456085
2821.104468	17353.702833	682.809570	252.649933
2821.104468	17353.702833	681.594727	261.527893
2821.104468	17353.702833	680.379883	268.372925
2821.104468	17353.702833	679.165039	277.147583
2821.104468	17353.702833	677.949219	87.832054
2821.104468	17353.702833	676.733398	126.242043
2821.104468	17353.702833	675.517578	204.177139
2821.104468	17353.702833	674.301758	165.262634
2821.104468	17353.702833	673.084961	132.249023
2821.104468	17353.702833	671.869141	79.419319
2821.104468	17353.702833	670.651367	18.646950
2821.104468	17353.702833	669.434570	116.046898
2821.104468	17353.702833	668.216797	159.974243
2821.104468	17353.702833	667.000000	114.887123
2821.104468	17353.702833	665.781250	279.241058
2821.104468	17353.702833	664.563477	180.698425
2821.104468	17353.702833	663.344727	313.260986
2821.104468	17353.702833	662.125977	260.072174
2821.104468	17353.702833	660.907227	220.675842
2821.104468	17353.702833	659.688477	218.753036
2821.104468	17353.702833	658.468750	268.093445
2821.104468	17353.702833	657.249023	244.349503
2821.104468	17353.702833	656.029297	208.726730
2821.104468	17353.702833	654.808594	261.824799
2821.104468	17353.702833	653.587891	338.512573
2821.104468	17353.702833	652.367188	314.563965
2821.104468	17353.702833	651.146484	355.622009
2821.104468	17353.702833	649.924805	461.644165
2821.104468	17353.702833	648.704102	350.832184
2821.104468	17353.702833	647.482422	468.525238
2821.104468	17353.702833	646.259766	385.221802
2821.104468	17353.702833	645.037109	398.387817
2821.104468	17353.702833	643.815430	387.874146
2821.104468	17353.702833	642.591797	294.639618
2821.104468	17353.702833	641.369141	244.687943
2821.104468	17353.702833	640.145508	379.642120
2821.104468	17353.702833	638.921875	425.970825
2821.104468	17353.702833	637.698242	159.536469
2821.104468	17353.702833	636.474609	184.159485
2821.104468	17353.702833	635.250000	336.492798
2821.104468	17353.702833	634.025391	376.684448
2821.104468	17353.702833	632.800781	190.838181
2821.104468	17353.702833	631.575195	315.411957
2821.104468	17353.702833	630.349609	180.618500
2821.104468	17353.702833	629.124023	314.857422
2821.104468	17353.702833	627.898438	231.063965
2821.104468	17353.702833	626.671875	274.838165
2821.104468	17353.702833	625.445313	275.369019
2821.104468	17353.702833	624.218750	317.052277
2821.104468	17353.702833	622.992188	250.778336
2821.104468	17353.702833	621.764648	239.393234
2821.104468	17353.702833	620.537109	147.570526
2821.104468	17353.702833	619.309570	341.951630
2821.104468	17353.702833	618.081055	338.241882
2821.104468	17353.702833	616.852539	126.774170
2821.104468	17353.702833	615.624023	134.769562
2821.104468	17353.702833	614.395508	177.969650
2821.104468	17353.702833	613.166992	207.395844
2821.104468	17353.702833	611.937500	142.780685
2821.104468	17353.702833	610.708008	82.060852
2821.104468	17353.702833	609.477539	93.726677
2821.104468	17353.702833	608.248047	40.776337
2821.104468	17353.702833	607.017578	11.274046
2821.104468	17353.702833	605.787109	-31.952219
2821.104468	17353.702833	604.555664	16.694254
2821.104468	17353.702833	603.325195	-102.847107
2821.104468	17353.702833	602.093750	-11.294033
2821.104468	17353.702833	600.861328	-146.506912
2821.104468	17353.702833	599.629883	-84.375656
2821.104468	17353.702833	598.397461	51.908215
2821.104468	17353.702833	597.165039	-44.301094
2821.104468	17353.702833	595.932617	-42.886757
2821.104468	17353.702833	594.699219	-39.565666
2821.104468	17353.702833	593.465820	-77.270103
2821.104468	17353.702833	592.232422	-17.436903
2821.104468	17353.702833	590.999023	-53.256798
2821.104468	17353.702833	589.764648	14.266650
2821.104468	17353.702833	588.530273	7.624678
2821.104468	17353.702833	587.295898	-28.293806
2821.104468	17353.702833	586.061523	42.969944
2821.104468	17353.702833	584.826172	71.291222
2821.104468	17353.702833	583.590820	68.393860
2821.104468	17353.702833	582.355469	166.754242
2821.104468	17353.702833	581.119141	97.551804
2821.104468	17353.702833	579.882813	34.188263
2821.104468	17353.702833	578.646484	44.792850
2821.104468	17353.702833	577.410156	90.395226
2821.104468	17353.702833	576.172852	205.993179
2821.104468	17353.702833	574.935547	-7.260964
2821.104468	17353.702833	573.698242	96.581924
2821.104468	17353.702833	572.460938	-15.494828
2821.104468	17353.702833	571.222656	92.136429
2821.104468	17353.702833	569.984375	85.014877
2821.104468	17353.702833	568.746094	145.888519
2821.104468	17353.702833	567.506836	140.649185
2821.104468	17353.702833	566.267578	119.849800
2821.104468	17353.702833	565.028320	73.790184
2821.104468	17353.702833	563.789063	218.013794
2821.104468	17353.702833	562.548828	204.909500
2821.104468	17353.702833	561.309570	1.594660
2821.104468	17353.702833	560.068359	163.140121
2821.104468	17353.702833	558.828125	256.704132
2821.104468	17353.702833	557.586914	165.945770
2821.104468	17353.702833	556.345703	65.516312
2821.104468	17353.702833	555.104492	131.849930
2821.104468	17353.702833	553.863281	159.376419
2821.104468	17353.702833	552.621094	10.522249
2821.104468	17353.702833	551.378906	8.973462
2821.104468	17353.702833	550.136719	55.843952
2821.104468	17353.702833	548.893555	207.263824
2821.104468	17353.702833	547.650391	72.041718
2821.104468	17353.702833	546.407227	194.342331
2821.104468	17353.702833	545.164063	101.750771
2821.104468	17353.702833	543.919922	-174.638947
2821.104468	17353.702833	542.675781	1.790424
2821.104468	17353.702833	541.431641	100.774422
2821.104468	17353.702833	540.186523	37.272297
2821.104468	17353.702833	538.941406	37.600060
2821.104468	17353.702833	537.696289	-29.723553
2821.104468	17353.702833	536.451172	42.128311
2821.104468	17353.702833	535.205078	23.139347
2821.104468	17353.702833	533.959961	71.779259
2821.104468	17353.702833	532.712891	6.448006
2821.104468	17353.702833	531.466797	31.910563
2821.104468	17353.702833	530.219727	111.419830
2821.104468	17353.702833	528.972656	113.702919
2821.104468	17353.702833	527.725586	9.865485
2821.104468	17353.702833	526.478516	16.052254
2821.104468	17353.702833	525.230469	139.904221
2821.104468	17353.702833	523.982422	7.239287
2821.104468	17353.702833	522.734375	-57.872570
2821.104468	17353.702833	521.485352	-70.898209
2821.104468	17353.702833	520.236328	45.220417
2821.104468	17353.702833	518.987305	91.945869
2821.104468	17353.702833	517.737305	123.257118
2821.104468	17353.702833	516.488281	25.543852
2821.104468	17353.702833	515.238281	20.316097
2821.104468	17353.702833	513.988281	5.489686
2821.104468	17353.702833	512.737305	-157.510574
2821.104468	17353.702833	511.486328	58.668098
2821.104468	17353.702833	510.235352	-31.112402
2821.104468	17353.702833	508.984375	-109.285118
2821.104468	17353.702833	507.732422	-148.938385
2821.104468	17353.702833	506.480469	-271.216644
2821.104468	17353.702833	505.228516	-324.210724
2821.104468	17353.702833	503.976563	-129.237030
2821.104468	17353.702833	502.723633	-266.717834
2821.104468	17353.702833	501.470703	-89.064865
2821.104468	17353.702833	500.217773	-141.920303
2821.104468	17353.702833	498.963867	-41.108238
2821.104468	17353.702833	497.709961	-78.523483
2821.104468	17353.702833	496.456055	-4.563160
2821.104468	17353.702833	495.202148	-139.756744
2821.104468	17353.702833	493.947266	-88.762321
2821.104468	17353.702833	492.692383	-18.568182
2821.104468	17353.702833	491.437500	-103.694138
2821.104468	17353.702833	490.181641	-67.957939
2821.104468	17353.702833	488.926758	-76.277748
2821.104468	17353.702833	487.670898	-97.969444
2821.104468	17353.702833	486.414063	83.485687
2821.104468	17353.702833	485.158203	-66.487579
2821.104468	17353.702833	483.901367	99.651413
2821.104468	17353.702833	482.644531	28.331739
2821.104468	17353.702833	481.386719	73.861122
2821.104468	17353.702833	480.128906	58.171417
2821.104468	17353.702833	478.871094	73.151581
2821.104468	17353.702833	477.613281	-3.657628
2821.104468	17353.702833	476.355469	-19.179850
2821.104468	17353.702833	475.096680	147.017090
2821.104468	17353.702833	473.837891	-9.919128
2821.104468	17353.702833	472.578125	106.597450
2821.104468	17353.702833	471.319336	32.008259
2821.104468	17353.702833	470.059570	33.921581
2821.104468	17353.702833	468.799805	66.445175
2821.104468	17353.702833	467.539063	-4.131992
2821.104468	17353.702833	466.278320	-15.439695
2821.104468	17353.702833	465.017578	24.846884
2821.104468	17353.702833	463.756836	-13.090093
2821.104468	17353.702833	462.495117	-66.233284
2821.104468	17353.702833	461.233398	23.773903
2821.104468	17353.702833	459.971680	68.010376
2821.104468	17353.702833	458.709961	62.690693
2821.104468	17353.702833	457.447266	76.478493
2821.104468	17353.702833	456.184570	67.429115
2821.104468	17353.702833	454.921875	-25.426250
2821.104468	17353.702833	453.658203	-41.992989
2821.104468	17353.702833	452.394531	76.733070
2821.104468	17353.702833	451.130859	-48.327515
2821.104468	17353.702833	449.867188	104.694931
2821.104468	17353.702833	448.602539	-37.382122
2821.104468	17353.702833	447.337891	-32.815773
2821.104468	17353.702833	446.073242	30.767721
2821.104468	17353.702833	444.807617	-50.233353
2821.104468	17353.702833	443.542969	5.774782
2821.104468	17353.702833	442.276367	2.829865
2821.104468	17353.702833	441.010742	102.575401
2821.104468	17353.702833	439.744141	82.548203
2821.104468	17353.702833	438.478516	100.557213
2821.104468	17353.702833	437.210938	72.970940
2821.104468	17353.702833	435.944336	-43.865704
2821.104468	17353.702833	434.676758	86.241402
2821.104468	17353.702833	433.409180	-24.836092
2821.104468	17353.702833	432.141602	57.764870
2821.104468	17353.702833	430.873047	28.352886
2821.104468	17353.702833	429.604492	181.109192
2821.104468	17353.702833	428.335938	248.424713
2821.104468	17353.702833	427.067383	131.725861
2821.104468	17353.702833	425.797852	3.683842
2821.104468	17353.702833	424.528320	118.345970
2821.104468	17353.702833	423.258789	177.968719
2821.104468	17353.702833	421.988281	57.509842
2821.104468	17353.702833	420.717773	225.051315
2821.104468	17353.702833	419.447266	150.027771
2821.104468	17353.702833	418.175781	84.461769
2821.104468	17353.702833	416.905273	179.816925
2821.104468	17353.702833	415.633789	299.683960
2821.104468	17353.702833	414.362305	92.031189
2821.104468	17353.702833	413.089844	18.743984
2821.104468	17353.702833	411.817383	13.521793
2821.104468	17353.702833	410.544922	-16.361320
2821.104468	17353.702833	409.272461	12.304534
2821.104468	17353.702833	407.999023	-70.673531
2821.104468	17353.702833	406.725586	97.670349
2821.104468	17353.702833	405.452148	-72.413612
2821.104468	17353.702833	404.177734	-10.157814
2821.104468	17353.702833	402.903320	74.618919
2821.104468	17353.702833	401.628906	106.356506
2821.104468	17353.702833	400.354492	0.119619
2821.104468	17353.702833	399.079102	-106.217628
2821.104468	17353.702833	397.803711	93.068726
2821.104468	17353.702833	396.528320	-15.440833
2821.104468	17353.702833	395.251953	47.584633
2821.104468	17353.702833	393.976563	-38.585114
2821.104468	17353.702833	392.700195	76.845734
2821.104468	17353.702833	391.422852	60.061554
2821.104468	17353.702833	390.145508	-28.546200
2821.104468	17353.702833	388.869141	-113.562798
2821.104468	17353.702833	387.590820	-53.720478
2821.104468	17353.702833	386.313477	9.624957
2821.104468	17353.702833	385.035156	-8.291119
2821.104468	17353.702833	383.756836	78.964958
2821.104468	17353.702833	382.478516	-7.267444
2821.104468	17353.702833	381.199219	62.436359
2821.104468	17353.702833	379.919922	7.626794
2821.104468	17353.702833	378.640625	-6.093662
2821.104468	17353.702833	377.360352	-20.147818
2821.104468	17353.702833	376.080078	40.666683
2821.104468	17353.702833	374.799805	-86.890579
2821.104468	17353.702833	373.519531	-58.775719
2821.104468	17353.702833	372.238281	85.426636
2821.104468	17353.702833	370.957031	60.082909
2821.104468	17353.702833	369.675781	17.421829
2821.104468	17353.702833	368.394531	-21.904934
2821.104468	17353.702833	367.112305	-99.229576
2821.104468	17353.702833	365.830078	-23.083540
2821.104468	17353.702833	364.546875	-86.340195
2821.104468	17353.702833	363.264648	-58.138885
2821.104468	17353.702833	361.981445	-28.615303
2821.104468	17353.702833	360.698242	110.990753
2821.104468	17353.702833	359.414063	-100.658463
2821.104468	17353.702833	358.129883	-54.121758
2821.104468	17353.702833	356.845703	-2.593779
2821.104468	17353.702833	355.561523	22.047230
2821.104468	17353.702833	354.276367	32.897190
2821.104468	17353.702833	352.991211	28.081690
2821.104468	17353.702833	351.706055	11.334247
2821.104468	17353.702833	350.420898	46.289242
2821.104468	17353.702833	349.134766	-20.603731
2821.104468	17353.702833	347.848633	39.006920
2821.104468	17353.702833	346.561523	-18.215698
2821.104468	17353.702833	345.275391	-122.979530
2821.104468	17353.702833	343.988281	59.421780
2821.104468	17353.702833	342.700195	7.144671
2821.104468	17353.702833	341.413086	71.766968
2821.104468	17353.702833	340.125000	-12.227005
2821.104468	17353.702833	338.836914	3.749900
2821.104468	17353.702833	337.548828	39.277973
2821.104468	17353.702833	336.259766	36.396717
2821.104468	17353.702833	334.970703	-100.104347
2821.104468	17353.702833	333.681641	89.058220
2821.104468	17353.702833	332.391602	10.108960
2821.104468	17353.702833	331.101563	-25.171068
2821.104468	17353.702833	329.811523	-108.254845
2821.104468	17353.702833	328.521484	-69.417282
2821.104468	17353.702833	327.230469	7.285376
2821.104468	17353.702833	325.939453	-55.292419
2821.104468	17353.702833	324.648438	-78.158203
2821.104468	17353.702833	323.356445	69.039658
2821.104468	17353.702833	322.064453	43.368649
2821.104468	17353.702833	320.772461	221.170029
2821.104468	17353.702833	319.480469	64.066544
2821.104468	17353.702833	318.187500	-126.171356
2821.104468	17353.702833	316.894531	33.936485
2821.104468	17353.702833	315.601563	-10.483258
2821.104468	17353.702833	314.307617	-2.605166
2821.104468	17353.702833	313.013672	-128.497452
2821.104468	17353.702833	311.719727	-6.845052
2821.104468	17353.702833	310.425781	40.459248
2821.104468	17353.702833	309.130859	134.210678
2821.104468	17353.702833	307.835938	151.703400
2821.104468	17353.702833	306.541016	-33.419952
2821.104468	17353.702833	305.245117	30.326529
2821.104468	17353.702833	303.949219	142.174896
2821.104468	17353.702833	302.653320	112.627258
2821.104468	17353.702833	301.356445	223.874893
2821.104468	17353.702833	300.060547	336.663116
2821.104468	17353.702833	298.763672	183.593369
