#X		#Y		#Wave		#Intensity
2846.707128	17458.657167	2000.043945	-69.046844
2846.707128	17458.657167	1999.080078	-113.729660
2846.707128	17458.657167	1998.116211	4.991369
2846.707128	17458.657167	1997.151367	192.411591
2846.707128	17458.657167	1996.186523	-108.979256
2846.707128	17458.657167	1995.222656	-81.409973
2846.707128	17458.657167	1994.256836	-148.544205
2846.707128	17458.657167	1993.291992	-104.803642
2846.707128	17458.657167	1992.327148	89.392731
2846.707128	17458.657167	1991.361328	-63.567223
2846.707128	17458.657167	1990.395508	179.001801
2846.707128	17458.657167	1989.429688	-83.814331
2846.707128	17458.657167	1988.463867	51.303204
2846.707128	17458.657167	1987.497070	119.124489
2846.707128	17458.657167	1986.531250	211.197647
2846.707128	17458.657167	1985.564453	67.908211
2846.707128	17458.657167	1984.597656	82.477341
2846.707128	17458.657167	1983.630859	64.508087
2846.707128	17458.657167	1982.664063	51.105106
2846.707128	17458.657167	1981.696289	10.161700
2846.707128	17458.657167	1980.728516	-107.702301
2846.707128	17458.657167	1979.761719	18.655476
2846.707128	17458.657167	1978.792969	40.927944
2846.707128	17458.657167	1977.825195	156.699600
2846.707128	17458.657167	1976.857422	128.956039
2846.707128	17458.657167	1975.888672	204.597382
2846.707128	17458.657167	1974.919922	77.595009
2846.707128	17458.657167	1973.951172	165.020218
2846.707128	17458.657167	1972.982422	27.697872
2846.707128	17458.657167	1972.013672	-25.958595
2846.707128	17458.657167	1971.043945	43.469574
2846.707128	17458.657167	1970.075195	250.715683
2846.707128	17458.657167	1969.105469	70.701378
2846.707128	17458.657167	1968.135742	23.638893
2846.707128	17458.657167	1967.165039	232.661835
2846.707128	17458.657167	1966.195313	160.600586
2846.707128	17458.657167	1965.224609	169.683746
2846.707128	17458.657167	1964.253906	-77.494995
2846.707128	17458.657167	1963.283203	17.509329
2846.707128	17458.657167	1962.312500	129.576004
2846.707128	17458.657167	1961.341797	17.508844
2846.707128	17458.657167	1960.370117	72.695381
2846.707128	17458.657167	1959.399414	61.328419
2846.707128	17458.657167	1958.427734	42.485332
2846.707128	17458.657167	1957.455078	65.364143
2846.707128	17458.657167	1956.483398	211.097916
2846.707128	17458.657167	1955.511719	39.561043
2846.707128	17458.657167	1954.539063	194.929108
2846.707128	17458.657167	1953.566406	192.893951
2846.707128	17458.657167	1952.593750	-35.247723
2846.707128	17458.657167	1951.621094	11.786920
2846.707128	17458.657167	1950.647461	39.108883
2846.707128	17458.657167	1949.674805	194.081940
2846.707128	17458.657167	1948.701172	236.022018
2846.707128	17458.657167	1947.727539	7.892408
2846.707128	17458.657167	1946.753906	167.612549
2846.707128	17458.657167	1945.780273	86.776474
2846.707128	17458.657167	1944.805664	121.268234
2846.707128	17458.657167	1943.831055	40.451775
2846.707128	17458.657167	1942.856445	62.668594
2846.707128	17458.657167	1941.881836	45.647690
2846.707128	17458.657167	1940.907227	129.155945
2846.707128	17458.657167	1939.932617	146.463013
2846.707128	17458.657167	1938.957031	200.536789
2846.707128	17458.657167	1937.981445	-78.622162
2846.707128	17458.657167	1937.005859	-31.835567
2846.707128	17458.657167	1936.030273	61.495586
2846.707128	17458.657167	1935.054688	-107.206612
2846.707128	17458.657167	1934.078125	-23.632175
2846.707128	17458.657167	1933.101563	59.946022
2846.707128	17458.657167	1932.125000	43.182983
2846.707128	17458.657167	1931.148438	-71.414879
2846.707128	17458.657167	1930.171875	-39.134270
2846.707128	17458.657167	1929.194336	71.452385
2846.707128	17458.657167	1928.217773	-45.400059
2846.707128	17458.657167	1927.240234	50.570305
2846.707128	17458.657167	1926.262695	-39.246651
2846.707128	17458.657167	1925.284180	66.563599
2846.707128	17458.657167	1924.306641	143.063538
2846.707128	17458.657167	1923.328125	-12.532890
2846.707128	17458.657167	1922.350586	-121.599251
2846.707128	17458.657167	1921.372070	-123.099358
2846.707128	17458.657167	1920.392578	17.092958
2846.707128	17458.657167	1919.414063	-74.653419
2846.707128	17458.657167	1918.434570	238.916428
2846.707128	17458.657167	1917.456055	47.215851
2846.707128	17458.657167	1916.476563	75.265396
2846.707128	17458.657167	1915.497070	-72.297043
2846.707128	17458.657167	1914.516602	46.139664
2846.707128	17458.657167	1913.537109	6.070914
2846.707128	17458.657167	1912.556641	68.490990
2846.707128	17458.657167	1911.576172	-120.156265
2846.707128	17458.657167	1910.595703	-116.111176
2846.707128	17458.657167	1909.615234	-146.123947
2846.707128	17458.657167	1908.633789	-219.921539
2846.707128	17458.657167	1907.653320	-45.147614
2846.707128	17458.657167	1906.671875	-6.774485
2846.707128	17458.657167	1905.690430	124.181786
2846.707128	17458.657167	1904.708984	-15.105624
2846.707128	17458.657167	1903.727539	-56.910866
2846.707128	17458.657167	1902.745117	-25.628067
2846.707128	17458.657167	1901.762695	-35.665451
2846.707128	17458.657167	1900.780273	197.648865
2846.707128	17458.657167	1899.797852	175.522858
2846.707128	17458.657167	1898.815430	90.227859
2846.707128	17458.657167	1897.832031	-264.883240
2846.707128	17458.657167	1896.849609	-92.260941
2846.707128	17458.657167	1895.866211	-2.295069
2846.707128	17458.657167	1894.882813	-28.961157
2846.707128	17458.657167	1893.898438	53.768406
2846.707128	17458.657167	1892.915039	68.495239
2846.707128	17458.657167	1891.930664	158.555222
2846.707128	17458.657167	1890.947266	-8.781401
2846.707128	17458.657167	1889.962891	37.643604
2846.707128	17458.657167	1888.977539	-17.862753
2846.707128	17458.657167	1887.993164	-189.804062
2846.707128	17458.657167	1887.007813	96.974075
2846.707128	17458.657167	1886.023438	-94.261658
2846.707128	17458.657167	1885.038086	-91.340210
2846.707128	17458.657167	1884.051758	-136.892319
2846.707128	17458.657167	1883.066406	52.801472
2846.707128	17458.657167	1882.081055	-113.917000
2846.707128	17458.657167	1881.094727	-72.098396
2846.707128	17458.657167	1880.108398	20.619276
2846.707128	17458.657167	1879.122070	-104.738762
2846.707128	17458.657167	1878.135742	-263.946167
2846.707128	17458.657167	1877.148438	-91.260674
2846.707128	17458.657167	1876.162109	54.737755
2846.707128	17458.657167	1875.174805	55.428337
2846.707128	17458.657167	1874.187500	-120.578217
2846.707128	17458.657167	1873.199219	56.838184
2846.707128	17458.657167	1872.211914	43.033936
2846.707128	17458.657167	1871.223633	72.784698
2846.707128	17458.657167	1870.236328	109.782722
2846.707128	17458.657167	1869.248047	-61.215874
2846.707128	17458.657167	1868.258789	-41.136364
2846.707128	17458.657167	1867.270508	80.462479
2846.707128	17458.657167	1866.282227	-46.946835
2846.707128	17458.657167	1865.292969	-75.238525
2846.707128	17458.657167	1864.303711	7.607060
2846.707128	17458.657167	1863.314453	-192.226028
2846.707128	17458.657167	1862.324219	30.658390
2846.707128	17458.657167	1861.334961	91.648888
2846.707128	17458.657167	1860.344727	39.121376
2846.707128	17458.657167	1859.354492	95.209785
2846.707128	17458.657167	1858.364258	-58.716347
2846.707128	17458.657167	1857.374023	-17.167360
2846.707128	17458.657167	1856.383789	-113.179970
2846.707128	17458.657167	1855.392578	-98.240067
2846.707128	17458.657167	1854.401367	-51.992889
2846.707128	17458.657167	1853.410156	56.884212
2846.707128	17458.657167	1852.418945	189.782242
2846.707128	17458.657167	1851.426758	141.817703
2846.707128	17458.657167	1850.435547	91.412041
2846.707128	17458.657167	1849.443359	86.749962
2846.707128	17458.657167	1848.451172	48.311462
2846.707128	17458.657167	1847.458984	94.125259
2846.707128	17458.657167	1846.466797	98.926155
2846.707128	17458.657167	1845.473633	84.402573
2846.707128	17458.657167	1844.480469	122.775009
2846.707128	17458.657167	1843.487305	81.648376
2846.707128	17458.657167	1842.494141	30.842449
2846.707128	17458.657167	1841.500977	165.221954
2846.707128	17458.657167	1840.506836	251.370529
2846.707128	17458.657167	1839.513672	212.360489
2846.707128	17458.657167	1838.519531	240.606689
2846.707128	17458.657167	1837.525391	23.563519
2846.707128	17458.657167	1836.530273	186.258728
2846.707128	17458.657167	1835.536133	307.954742
2846.707128	17458.657167	1834.541016	-65.404861
2846.707128	17458.657167	1833.545898	92.140549
2846.707128	17458.657167	1832.550781	105.436295
2846.707128	17458.657167	1831.555664	20.181213
2846.707128	17458.657167	1830.560547	270.959930
2846.707128	17458.657167	1829.564453	94.292770
2846.707128	17458.657167	1828.568359	-27.215473
2846.707128	17458.657167	1827.572266	-76.803383
2846.707128	17458.657167	1826.576172	-76.105026
2846.707128	17458.657167	1825.580078	171.523880
2846.707128	17458.657167	1824.583008	13.680423
2846.707128	17458.657167	1823.585938	186.643814
2846.707128	17458.657167	1822.588867	143.685333
2846.707128	17458.657167	1821.591797	165.332199
2846.707128	17458.657167	1820.594727	88.605728
2846.707128	17458.657167	1819.596680	292.082062
2846.707128	17458.657167	1818.599609	104.925919
2846.707128	17458.657167	1817.601563	-8.050268
2846.707128	17458.657167	1816.603516	106.351654
2846.707128	17458.657167	1815.604492	-47.546501
2846.707128	17458.657167	1814.606445	286.753143
2846.707128	17458.657167	1813.607422	151.752502
2846.707128	17458.657167	1812.608398	9.485354
2846.707128	17458.657167	1811.609375	221.167603
2846.707128	17458.657167	1810.610352	152.800369
2846.707128	17458.657167	1809.610352	184.741928
2846.707128	17458.657167	1808.611328	314.551514
2846.707128	17458.657167	1807.611328	123.856583
2846.707128	17458.657167	1806.611328	-16.728081
2846.707128	17458.657167	1805.610352	303.740326
2846.707128	17458.657167	1804.610352	-95.139648
2846.707128	17458.657167	1803.609375	38.610001
2846.707128	17458.657167	1802.608398	169.763947
2846.707128	17458.657167	1801.607422	138.351913
2846.707128	17458.657167	1800.606445	147.374329
2846.707128	17458.657167	1799.605469	72.695969
2846.707128	17458.657167	1798.603516	215.027298
2846.707128	17458.657167	1797.601563	87.543365
2846.707128	17458.657167	1796.599609	303.432251
2846.707128	17458.657167	1795.597656	185.184784
2846.707128	17458.657167	1794.595703	205.112167
2846.707128	17458.657167	1793.592773	72.278786
2846.707128	17458.657167	1792.589844	-43.990963
2846.707128	17458.657167	1791.587891	42.178818
2846.707128	17458.657167	1790.583984	-33.891186
2846.707128	17458.657167	1789.581055	-88.661644
2846.707128	17458.657167	1788.577148	170.793304
2846.707128	17458.657167	1787.574219	103.743240
2846.707128	17458.657167	1786.570313	262.712067
2846.707128	17458.657167	1785.566406	383.352753
2846.707128	17458.657167	1784.561523	101.549728
2846.707128	17458.657167	1783.557617	102.836807
2846.707128	17458.657167	1782.552734	-131.592468
2846.707128	17458.657167	1781.547852	42.998714
2846.707128	17458.657167	1780.542969	93.675957
2846.707128	17458.657167	1779.538086	72.816422
2846.707128	17458.657167	1778.532227	-162.182632
2846.707128	17458.657167	1777.527344	32.925865
2846.707128	17458.657167	1776.521484	21.022034
2846.707128	17458.657167	1775.515625	27.938692
2846.707128	17458.657167	1774.508789	72.660416
2846.707128	17458.657167	1773.502930	26.933914
2846.707128	17458.657167	1772.496094	-7.104188
2846.707128	17458.657167	1771.489258	79.755768
2846.707128	17458.657167	1770.482422	137.905930
2846.707128	17458.657167	1769.475586	-8.251791
2846.707128	17458.657167	1768.467773	63.730194
2846.707128	17458.657167	1767.460938	40.611725
2846.707128	17458.657167	1766.453125	-264.951050
2846.707128	17458.657167	1765.445313	26.991114
2846.707128	17458.657167	1764.437500	155.032730
2846.707128	17458.657167	1763.428711	48.143074
2846.707128	17458.657167	1762.420898	166.259811
2846.707128	17458.657167	1761.412109	42.427052
2846.707128	17458.657167	1760.403320	62.960403
2846.707128	17458.657167	1759.393555	-56.474182
2846.707128	17458.657167	1758.384766	41.826244
2846.707128	17458.657167	1757.375000	52.272636
2846.707128	17458.657167	1756.366211	60.162502
2846.707128	17458.657167	1755.356445	143.578979
2846.707128	17458.657167	1754.345703	-177.904160
2846.707128	17458.657167	1753.335938	92.041145
2846.707128	17458.657167	1752.325195	54.155205
2846.707128	17458.657167	1751.315430	4.276621
2846.707128	17458.657167	1750.304688	122.091347
2846.707128	17458.657167	1749.292969	142.719238
2846.707128	17458.657167	1748.282227	-51.940292
2846.707128	17458.657167	1747.270508	-116.757988
2846.707128	17458.657167	1746.259766	-23.424465
2846.707128	17458.657167	1745.248047	1.152749
2846.707128	17458.657167	1744.235352	16.062452
2846.707128	17458.657167	1743.223633	73.292953
2846.707128	17458.657167	1742.211914	42.948643
2846.707128	17458.657167	1741.199219	205.971115
2846.707128	17458.657167	1740.186523	47.763344
2846.707128	17458.657167	1739.173828	-75.182808
2846.707128	17458.657167	1738.160156	117.840408
2846.707128	17458.657167	1737.147461	46.434029
2846.707128	17458.657167	1736.133789	83.328186
2846.707128	17458.657167	1735.120117	72.859550
2846.707128	17458.657167	1734.106445	-3.803109
2846.707128	17458.657167	1733.091797	-144.281860
2846.707128	17458.657167	1732.078125	-16.237413
2846.707128	17458.657167	1731.063477	26.733568
2846.707128	17458.657167	1730.048828	-64.768509
2846.707128	17458.657167	1729.034180	-19.823744
2846.707128	17458.657167	1728.019531	57.883312
2846.707128	17458.657167	1727.003906	-43.566158
2846.707128	17458.657167	1725.988281	-131.038712
2846.707128	17458.657167	1724.972656	-6.859449
2846.707128	17458.657167	1723.957031	-127.611229
2846.707128	17458.657167	1722.941406	-319.072205
2846.707128	17458.657167	1721.924805	-157.860153
2846.707128	17458.657167	1720.909180	101.895660
2846.707128	17458.657167	1719.892578	185.021927
2846.707128	17458.657167	1718.875977	21.122223
2846.707128	17458.657167	1717.858398	14.550913
2846.707128	17458.657167	1716.841797	-177.801331
2846.707128	17458.657167	1715.824219	-36.674397
2846.707128	17458.657167	1714.806641	29.063368
2846.707128	17458.657167	1713.789063	-86.221397
2846.707128	17458.657167	1712.770508	120.015457
2846.707128	17458.657167	1711.752930	140.573532
2846.707128	17458.657167	1710.734375	-15.092208
2846.707128	17458.657167	1709.715820	91.954536
2846.707128	17458.657167	1708.697266	43.949650
2846.707128	17458.657167	1707.678711	94.319496
2846.707128	17458.657167	1706.659180	-24.371035
2846.707128	17458.657167	1705.640625	-93.913170
2846.707128	17458.657167	1704.621094	-62.801811
2846.707128	17458.657167	1703.600586	-97.511337
2846.707128	17458.657167	1702.581055	-151.087906
2846.707128	17458.657167	1701.561523	130.250992
2846.707128	17458.657167	1700.541016	263.726776
2846.707128	17458.657167	1699.520508	204.947388
2846.707128	17458.657167	1698.500000	117.942886
2846.707128	17458.657167	1697.478516	-121.377159
2846.707128	17458.657167	1696.458008	182.326645
2846.707128	17458.657167	1695.436523	190.868668
2846.707128	17458.657167	1694.415039	236.702332
2846.707128	17458.657167	1693.393555	282.378296
2846.707128	17458.657167	1692.372070	213.289124
2846.707128	17458.657167	1691.349609	469.118134
2846.707128	17458.657167	1690.327148	236.059570
2846.707128	17458.657167	1689.304688	447.102692
2846.707128	17458.657167	1688.282227	419.543427
2846.707128	17458.657167	1687.259766	546.087769
2846.707128	17458.657167	1686.236328	670.095520
2846.707128	17458.657167	1685.213867	679.499573
2846.707128	17458.657167	1684.190430	646.715515
2846.707128	17458.657167	1683.166016	711.863220
2846.707128	17458.657167	1682.142578	823.580566
2846.707128	17458.657167	1681.119141	1063.506348
2846.707128	17458.657167	1680.094727	1144.518311
2846.707128	17458.657167	1679.070313	1232.383301
2846.707128	17458.657167	1678.045898	1289.779297
2846.707128	17458.657167	1677.020508	1235.071045
2846.707128	17458.657167	1675.996094	1483.430908
2846.707128	17458.657167	1674.970703	1621.992310
2846.707128	17458.657167	1673.945313	1681.146973
2846.707128	17458.657167	1672.919922	2066.436035
2846.707128	17458.657167	1671.893555	2034.387207
2846.707128	17458.657167	1670.868164	2209.606934
2846.707128	17458.657167	1669.841797	2219.274414
2846.707128	17458.657167	1668.815430	2240.488037
2846.707128	17458.657167	1667.789063	2438.543701
2846.707128	17458.657167	1666.761719	2457.175293
2846.707128	17458.657167	1665.735352	2459.447510
2846.707128	17458.657167	1664.708008	2468.589355
2846.707128	17458.657167	1663.680664	2645.145264
2846.707128	17458.657167	1662.653320	2800.618896
2846.707128	17458.657167	1661.625000	2653.618652
2846.707128	17458.657167	1660.597656	2576.377686
2846.707128	17458.657167	1659.569336	2626.917725
2846.707128	17458.657167	1658.541016	2763.362061
2846.707128	17458.657167	1657.512695	2625.490234
2846.707128	17458.657167	1656.483398	2657.176025
2846.707128	17458.657167	1655.455078	2352.010498
2846.707128	17458.657167	1654.425781	2260.529297
2846.707128	17458.657167	1653.396484	2117.942383
2846.707128	17458.657167	1652.366211	1947.471313
2846.707128	17458.657167	1651.336914	2118.223145
2846.707128	17458.657167	1650.306641	2049.815674
2846.707128	17458.657167	1649.276367	2055.626953
2846.707128	17458.657167	1648.246094	1966.285400
2846.707128	17458.657167	1647.215820	1900.126343
2846.707128	17458.657167	1646.185547	1850.181396
2846.707128	17458.657167	1645.154297	2045.927246
2846.707128	17458.657167	1644.123047	2016.730103
2846.707128	17458.657167	1643.091797	1762.723022
2846.707128	17458.657167	1642.060547	1895.711548
2846.707128	17458.657167	1641.028320	2137.465820
2846.707128	17458.657167	1639.997070	2223.950439
2846.707128	17458.657167	1638.964844	2060.266357
2846.707128	17458.657167	1637.931641	2459.176514
2846.707128	17458.657167	1636.899414	2737.572754
2846.707128	17458.657167	1635.867188	2416.455566
2846.707128	17458.657167	1634.833984	2664.613037
2846.707128	17458.657167	1633.800781	2711.402832
2846.707128	17458.657167	1632.767578	2836.799805
2846.707128	17458.657167	1631.734375	2950.578125
2846.707128	17458.657167	1630.700195	3004.168213
2846.707128	17458.657167	1629.666016	2919.042969
2846.707128	17458.657167	1628.631836	2880.169678
2846.707128	17458.657167	1627.597656	2908.324463
2846.707128	17458.657167	1626.563477	2689.280762
2846.707128	17458.657167	1625.528320	2876.817383
2846.707128	17458.657167	1624.493164	3092.002441
2846.707128	17458.657167	1623.458008	3025.436035
2846.707128	17458.657167	1622.422852	3115.880615
2846.707128	17458.657167	1621.387695	2825.492920
2846.707128	17458.657167	1620.351563	2888.260010
2846.707128	17458.657167	1619.315430	2718.010254
2846.707128	17458.657167	1618.279297	2993.027344
2846.707128	17458.657167	1617.243164	2958.938477
2846.707128	17458.657167	1616.207031	3222.330322
2846.707128	17458.657167	1615.169922	2711.051514
2846.707128	17458.657167	1614.132813	2764.687988
2846.707128	17458.657167	1613.095703	3187.039063
2846.707128	17458.657167	1612.058594	2934.214355
2846.707128	17458.657167	1611.020508	3229.730957
2846.707128	17458.657167	1609.983398	3195.868652
2846.707128	17458.657167	1608.945313	3286.377930
2846.707128	17458.657167	1607.907227	3588.696045
2846.707128	17458.657167	1606.868164	3251.054443
2846.707128	17458.657167	1605.830078	3314.037842
2846.707128	17458.657167	1604.791016	3363.220703
2846.707128	17458.657167	1603.751953	3350.333252
2846.707128	17458.657167	1602.712891	3645.697754
2846.707128	17458.657167	1601.673828	3494.916260
2846.707128	17458.657167	1600.633789	3348.832520
2846.707128	17458.657167	1599.594727	3464.932373
2846.707128	17458.657167	1598.554688	3291.470703
2846.707128	17458.657167	1597.513672	3233.005371
2846.707128	17458.657167	1596.473633	3372.222168
2846.707128	17458.657167	1595.433594	3270.303223
2846.707128	17458.657167	1594.392578	3154.699707
2846.707128	17458.657167	1593.351563	3259.623047
2846.707128	17458.657167	1592.310547	3190.140137
2846.707128	17458.657167	1591.268555	3168.938965
2846.707128	17458.657167	1590.227539	3200.632324
2846.707128	17458.657167	1589.185547	3342.494873
2846.707128	17458.657167	1588.143555	3044.022705
2846.707128	17458.657167	1587.100586	3121.814209
2846.707128	17458.657167	1586.058594	3295.991455
2846.707128	17458.657167	1585.015625	3277.624268
2846.707128	17458.657167	1583.972656	3245.616699
2846.707128	17458.657167	1582.929688	3167.898438
2846.707128	17458.657167	1581.886719	3459.153564
2846.707128	17458.657167	1580.843750	3308.342773
2846.707128	17458.657167	1579.799805	3519.500977
2846.707128	17458.657167	1578.755859	3165.166016
2846.707128	17458.657167	1577.711914	3516.133301
2846.707128	17458.657167	1576.666992	3381.857666
2846.707128	17458.657167	1575.623047	3112.772949
2846.707128	17458.657167	1574.578125	3026.912598
2846.707128	17458.657167	1573.533203	3117.335205
2846.707128	17458.657167	1572.488281	3251.296631
2846.707128	17458.657167	1571.443359	2987.494141
2846.707128	17458.657167	1570.397461	2927.356201
2846.707128	17458.657167	1569.351563	2750.808350
2846.707128	17458.657167	1568.305664	2962.930420
2846.707128	17458.657167	1567.259766	2784.431152
2846.707128	17458.657167	1566.213867	2727.201660
2846.707128	17458.657167	1565.166992	2560.490723
2846.707128	17458.657167	1564.120117	2455.637207
2846.707128	17458.657167	1563.073242	2444.564941
2846.707128	17458.657167	1562.026367	2175.732666
2846.707128	17458.657167	1560.978516	2169.554443
2846.707128	17458.657167	1559.930664	1976.446045
2846.707128	17458.657167	1558.883789	1952.383911
2846.707128	17458.657167	1557.834961	1828.095093
2846.707128	17458.657167	1556.787109	1820.318726
2846.707128	17458.657167	1555.739258	1719.234741
2846.707128	17458.657167	1554.690430	1561.347534
2846.707128	17458.657167	1553.641602	1750.060547
2846.707128	17458.657167	1552.592773	1726.974976
2846.707128	17458.657167	1551.542969	1770.099854
2846.707128	17458.657167	1550.494141	1699.522095
2846.707128	17458.657167	1549.444336	1417.357422
2846.707128	17458.657167	1548.394531	1433.703735
2846.707128	17458.657167	1547.344727	1436.556763
2846.707128	17458.657167	1546.293945	1535.138916
2846.707128	17458.657167	1545.244141	1520.117554
2846.707128	17458.657167	1544.193359	1493.883423
2846.707128	17458.657167	1543.142578	1602.021851
2846.707128	17458.657167	1542.090820	1389.662109
2846.707128	17458.657167	1541.040039	1429.934692
2846.707128	17458.657167	1539.988281	1506.725952
2846.707128	17458.657167	1538.936523	1235.970093
2846.707128	17458.657167	1537.884766	1469.910522
2846.707128	17458.657167	1536.833008	1313.224487
2846.707128	17458.657167	1535.780273	1220.364502
2846.707128	17458.657167	1534.727539	1500.131104
2846.707128	17458.657167	1533.674805	1121.595703
2846.707128	17458.657167	1532.622070	906.830139
2846.707128	17458.657167	1531.569336	1100.835449
2846.707128	17458.657167	1530.515625	1022.668701
2846.707128	17458.657167	1529.461914	949.265991
2846.707128	17458.657167	1528.408203	921.452759
2846.707128	17458.657167	1527.354492	875.708557
2846.707128	17458.657167	1526.299805	1009.272827
2846.707128	17458.657167	1525.246094	1000.199890
2846.707128	17458.657167	1524.191406	687.641052
2846.707128	17458.657167	1523.136719	332.357361
2846.707128	17458.657167	1522.081055	797.467773
2846.707128	17458.657167	1521.026367	637.501404
2846.707128	17458.657167	1519.970703	541.195251
2846.707128	17458.657167	1518.915039	694.178528
2846.707128	17458.657167	1517.859375	457.977631
2846.707128	17458.657167	1516.802734	299.015045
2846.707128	17458.657167	1515.747070	181.069870
2846.707128	17458.657167	1514.690430	411.755890
2846.707128	17458.657167	1513.633789	316.869202
2846.707128	17458.657167	1512.577148	290.074768
2846.707128	17458.657167	1511.519531	376.540161
2846.707128	17458.657167	1510.461914	110.560768
2846.707128	17458.657167	1509.405273	430.255432
2846.707128	17458.657167	1508.346680	135.423248
2846.707128	17458.657167	1507.289063	-16.735323
2846.707128	17458.657167	1506.231445	242.461273
2846.707128	17458.657167	1505.172852	181.101669
2846.707128	17458.657167	1504.114258	153.856873
2846.707128	17458.657167	1503.055664	390.952118
2846.707128	17458.657167	1501.996094	-3.753821
2846.707128	17458.657167	1500.937500	364.601776
2846.707128	17458.657167	1499.877930	119.403931
2846.707128	17458.657167	1498.818359	-28.480326
2846.707128	17458.657167	1497.757813	-110.691460
2846.707128	17458.657167	1496.698242	-37.061890
2846.707128	17458.657167	1495.637695	-30.867121
2846.707128	17458.657167	1494.577148	160.360535
2846.707128	17458.657167	1493.516602	-141.722198
2846.707128	17458.657167	1492.456055	-10.911777
2846.707128	17458.657167	1491.394531	-62.372913
2846.707128	17458.657167	1490.333008	-228.427933
2846.707128	17458.657167	1489.271484	319.534851
2846.707128	17458.657167	1488.209961	-14.892416
2846.707128	17458.657167	1487.148438	-128.393005
2846.707128	17458.657167	1486.085938	127.398643
2846.707128	17458.657167	1485.023438	81.867981
2846.707128	17458.657167	1483.960938	16.347294
2846.707128	17458.657167	1482.898438	-12.930771
2846.707128	17458.657167	1481.834961	70.450935
2846.707128	17458.657167	1480.772461	1.182377
2846.707128	17458.657167	1479.708984	-16.124838
2846.707128	17458.657167	1478.644531	38.703926
2846.707128	17458.657167	1477.581055	201.568176
2846.707128	17458.657167	1476.517578	189.412720
2846.707128	17458.657167	1475.453125	262.884430
2846.707128	17458.657167	1474.388672	291.501099
2846.707128	17458.657167	1473.323242	181.294708
2846.707128	17458.657167	1472.258789	491.072601
2846.707128	17458.657167	1471.193359	482.225189
2846.707128	17458.657167	1470.127930	478.153961
2846.707128	17458.657167	1469.062500	485.593323
2846.707128	17458.657167	1467.997070	437.082184
2846.707128	17458.657167	1466.930664	400.349091
2846.707128	17458.657167	1465.865234	621.399780
2846.707128	17458.657167	1464.798828	902.691589
2846.707128	17458.657167	1463.731445	595.619568
2846.707128	17458.657167	1462.665039	1174.496582
2846.707128	17458.657167	1461.597656	1127.742310
2846.707128	17458.657167	1460.530273	1308.925781
2846.707128	17458.657167	1459.462891	1145.980591
2846.707128	17458.657167	1458.395508	1244.570435
2846.707128	17458.657167	1457.327148	1272.257690
2846.707128	17458.657167	1456.259766	1323.102539
2846.707128	17458.657167	1455.191406	1272.446777
2846.707128	17458.657167	1454.123047	1492.239380
2846.707128	17458.657167	1453.053711	1122.410522
2846.707128	17458.657167	1451.985352	1286.200073
2846.707128	17458.657167	1450.916016	1104.668701
2846.707128	17458.657167	1449.846680	1207.021851
2846.707128	17458.657167	1448.776367	862.557922
2846.707128	17458.657167	1447.707031	912.825378
2846.707128	17458.657167	1446.636719	670.663879
2846.707128	17458.657167	1445.566406	981.520142
2846.707128	17458.657167	1444.496094	1256.655273
2846.707128	17458.657167	1443.425781	839.525879
2846.707128	17458.657167	1442.354492	642.831787
2846.707128	17458.657167	1441.283203	532.380127
2846.707128	17458.657167	1440.211914	896.568787
2846.707128	17458.657167	1439.140625	702.363831
2846.707128	17458.657167	1438.069336	847.198242
2846.707128	17458.657167	1436.997070	567.229980
2846.707128	17458.657167	1435.924805	573.247375
2846.707128	17458.657167	1434.852539	598.009460
2846.707128	17458.657167	1433.780273	801.347595
2846.707128	17458.657167	1432.707031	576.756409
2846.707128	17458.657167	1431.633789	383.154205
2846.707128	17458.657167	1430.560547	484.348755
2846.707128	17458.657167	1429.487305	268.323639
2846.707128	17458.657167	1428.413086	272.562531
2846.707128	17458.657167	1427.339844	107.072380
2846.707128	17458.657167	1426.265625	213.491425
2846.707128	17458.657167	1425.191406	129.043274
2846.707128	17458.657167	1424.116211	295.880310
2846.707128	17458.657167	1423.041992	203.062439
2846.707128	17458.657167	1421.966797	161.629868
2846.707128	17458.657167	1420.891602	26.985022
2846.707128	17458.657167	1419.816406	-167.017624
2846.707128	17458.657167	1418.740234	125.808464
2846.707128	17458.657167	1417.665039	66.050346
2846.707128	17458.657167	1416.588867	201.562698
2846.707128	17458.657167	1415.512695	105.037834
2846.707128	17458.657167	1414.435547	108.539963
2846.707128	17458.657167	1413.359375	12.515805
2846.707128	17458.657167	1412.282227	159.159454
2846.707128	17458.657167	1411.205078	526.465088
2846.707128	17458.657167	1410.127930	644.013672
2846.707128	17458.657167	1409.049805	450.723724
2846.707128	17458.657167	1407.972656	359.047852
2846.707128	17458.657167	1406.894531	542.236633
2846.707128	17458.657167	1405.816406	687.236389
2846.707128	17458.657167	1404.737305	413.327698
2846.707128	17458.657167	1403.659180	490.053314
2846.707128	17458.657167	1402.580078	455.427063
2846.707128	17458.657167	1401.500977	375.224457
2846.707128	17458.657167	1400.421875	591.967712
2846.707128	17458.657167	1399.341797	471.383575
2846.707128	17458.657167	1398.262695	432.731628
2846.707128	17458.657167	1397.182617	185.029434
2846.707128	17458.657167	1396.102539	593.182373
2846.707128	17458.657167	1395.021484	410.986237
2846.707128	17458.657167	1393.941406	390.622955
2846.707128	17458.657167	1392.860352	316.195435
2846.707128	17458.657167	1391.779297	355.834808
2846.707128	17458.657167	1390.698242	547.487000
2846.707128	17458.657167	1389.616211	576.563904
2846.707128	17458.657167	1388.535156	698.470154
2846.707128	17458.657167	1387.453125	871.558472
2846.707128	17458.657167	1386.371094	683.283203
2846.707128	17458.657167	1385.288086	760.748291
2846.707128	17458.657167	1384.206055	667.648071
2846.707128	17458.657167	1383.123047	462.992706
2846.707128	17458.657167	1382.040039	824.454651
2846.707128	17458.657167	1380.957031	978.751221
2846.707128	17458.657167	1379.873047	751.545654
2846.707128	17458.657167	1378.789063	963.861511
2846.707128	17458.657167	1377.705078	772.626953
2846.707128	17458.657167	1376.621094	870.006470
2846.707128	17458.657167	1375.537109	946.098083
2846.707128	17458.657167	1374.452148	1121.919434
2846.707128	17458.657167	1373.367188	1107.084961
2846.707128	17458.657167	1372.282227	1192.333252
2846.707128	17458.657167	1371.197266	1164.418701
2846.707128	17458.657167	1370.112305	1222.019409
2846.707128	17458.657167	1369.026367	1345.221802
2846.707128	17458.657167	1367.940430	1184.727661
2846.707128	17458.657167	1366.854492	1291.650513
2846.707128	17458.657167	1365.767578	1198.163330
2846.707128	17458.657167	1364.681641	1257.813965
2846.707128	17458.657167	1363.594727	1190.018311
2846.707128	17458.657167	1362.507813	1158.178467
2846.707128	17458.657167	1361.419922	1552.565308
2846.707128	17458.657167	1360.333008	1539.401611
2846.707128	17458.657167	1359.245117	1441.311279
2846.707128	17458.657167	1358.157227	1566.432129
2846.707128	17458.657167	1357.069336	1685.387329
2846.707128	17458.657167	1355.981445	1833.175293
2846.707128	17458.657167	1354.892578	1829.571777
2846.707128	17458.657167	1353.803711	2019.456177
2846.707128	17458.657167	1352.714844	2325.998535
2846.707128	17458.657167	1351.625000	2274.234863
2846.707128	17458.657167	1350.536133	2272.264160
2846.707128	17458.657167	1349.446289	2279.870850
2846.707128	17458.657167	1348.356445	2254.974609
2846.707128	17458.657167	1347.266602	2236.038818
2846.707128	17458.657167	1346.175781	2382.115234
2846.707128	17458.657167	1345.085938	2145.797852
2846.707128	17458.657167	1343.995117	2367.312012
2846.707128	17458.657167	1342.903320	2350.847412
2846.707128	17458.657167	1341.812500	2512.112793
2846.707128	17458.657167	1340.720703	2403.124756
2846.707128	17458.657167	1339.629883	2243.469971
2846.707128	17458.657167	1338.538086	2298.220947
2846.707128	17458.657167	1337.445313	2505.463867
2846.707128	17458.657167	1336.353516	2366.298340
2846.707128	17458.657167	1335.260742	2482.578613
2846.707128	17458.657167	1334.167969	2375.773438
2846.707128	17458.657167	1333.075195	2343.457031
2846.707128	17458.657167	1331.981445	2417.116699
2846.707128	17458.657167	1330.888672	2249.884521
2846.707128	17458.657167	1329.794922	2240.999756
2846.707128	17458.657167	1328.701172	2233.938965
2846.707128	17458.657167	1327.606445	2012.954834
2846.707128	17458.657167	1326.512695	2244.993408
2846.707128	17458.657167	1325.417969	2190.259766
2846.707128	17458.657167	1324.323242	2146.267090
2846.707128	17458.657167	1323.227539	2132.023926
2846.707128	17458.657167	1322.132813	1836.026733
2846.707128	17458.657167	1321.037109	1670.555420
2846.707128	17458.657167	1319.941406	1925.444702
2846.707128	17458.657167	1318.845703	1725.466431
2846.707128	17458.657167	1317.750000	1748.606934
2846.707128	17458.657167	1316.653320	1663.758789
2846.707128	17458.657167	1315.556641	1580.487061
2846.707128	17458.657167	1314.459961	1200.196167
2846.707128	17458.657167	1313.363281	1280.386230
2846.707128	17458.657167	1312.265625	1360.795776
2846.707128	17458.657167	1311.167969	1125.007202
2846.707128	17458.657167	1310.070313	1302.481567
2846.707128	17458.657167	1308.972656	1165.635010
2846.707128	17458.657167	1307.874023	1088.469849
2846.707128	17458.657167	1306.776367	1187.355225
2846.707128	17458.657167	1305.677734	1214.334717
2846.707128	17458.657167	1304.579102	1428.046753
2846.707128	17458.657167	1303.479492	1143.709106
2846.707128	17458.657167	1302.380859	1295.555298
2846.707128	17458.657167	1301.281250	1127.244629
2846.707128	17458.657167	1300.181641	1054.972290
2846.707128	17458.657167	1299.081055	912.440308
2846.707128	17458.657167	1297.981445	1095.315430
2846.707128	17458.657167	1296.880859	1041.308472
2846.707128	17458.657167	1295.780273	1110.410889
2846.707128	17458.657167	1294.679688	1260.750122
2846.707128	17458.657167	1293.578125	1062.036011
2846.707128	17458.657167	1292.476563	878.772034
2846.707128	17458.657167	1291.375000	959.459351
2846.707128	17458.657167	1290.273438	1035.949829
2846.707128	17458.657167	1289.171875	1047.295288
2846.707128	17458.657167	1288.069336	990.859497
2846.707128	17458.657167	1286.966797	1162.985474
2846.707128	17458.657167	1285.864258	1014.119629
2846.707128	17458.657167	1284.761719	1086.062134
2846.707128	17458.657167	1283.658203	1136.707886
2846.707128	17458.657167	1282.554688	946.026917
2846.707128	17458.657167	1281.451172	1092.648193
2846.707128	17458.657167	1280.347656	960.127869
2846.707128	17458.657167	1279.244141	830.507019
2846.707128	17458.657167	1278.139648	949.260132
2846.707128	17458.657167	1277.035156	989.110657
2846.707128	17458.657167	1275.930664	823.455505
2846.707128	17458.657167	1274.825195	794.294434
2846.707128	17458.657167	1273.720703	809.419861
2846.707128	17458.657167	1272.615234	835.444275
2846.707128	17458.657167	1271.508789	939.657166
2846.707128	17458.657167	1270.403320	890.114563
2846.707128	17458.657167	1269.297852	1045.055664
2846.707128	17458.657167	1268.191406	852.154053
2846.707128	17458.657167	1267.084961	685.700684
2846.707128	17458.657167	1265.977539	1042.687622
2846.707128	17458.657167	1264.871094	876.833984
2846.707128	17458.657167	1263.763672	708.980103
2846.707128	17458.657167	1262.656250	673.020325
2846.707128	17458.657167	1261.548828	605.906250
2846.707128	17458.657167	1260.440430	639.888794
2846.707128	17458.657167	1259.333008	584.185242
2846.707128	17458.657167	1258.224609	592.494141
2846.707128	17458.657167	1257.115234	689.182251
2846.707128	17458.657167	1256.006836	769.816406
2846.707128	17458.657167	1254.897461	863.902893
2846.707128	17458.657167	1253.788086	812.166321
2846.707128	17458.657167	1252.678711	780.802490
2846.707128	17458.657167	1251.569336	827.131226
2846.707128	17458.657167	1250.458984	866.707214
2846.707128	17458.657167	1249.349609	931.854248
2846.707128	17458.657167	1248.239258	912.300232
2846.707128	17458.657167	1247.127930	741.196106
2846.707128	17458.657167	1246.017578	665.416687
2846.707128	17458.657167	1244.906250	591.710205
2846.707128	17458.657167	1243.794922	693.989990
2846.707128	17458.657167	1242.683594	602.790894
2846.707128	17458.657167	1241.571289	601.269836
2846.707128	17458.657167	1240.459961	616.596008
2846.707128	17458.657167	1239.347656	511.666840
2846.707128	17458.657167	1238.234375	535.499573
2846.707128	17458.657167	1237.122070	451.426422
2846.707128	17458.657167	1236.008789	420.054840
2846.707128	17458.657167	1234.896484	402.952576
2846.707128	17458.657167	1233.782227	396.878387
2846.707128	17458.657167	1232.668945	292.583679
2846.707128	17458.657167	1231.555664	330.012543
2846.707128	17458.657167	1230.441406	423.487946
2846.707128	17458.657167	1229.327148	346.211731
2846.707128	17458.657167	1228.211914	257.365143
2846.707128	17458.657167	1227.097656	222.588806
2846.707128	17458.657167	1225.982422	245.762100
2846.707128	17458.657167	1224.867188	215.901505
2846.707128	17458.657167	1223.751953	243.420898
2846.707128	17458.657167	1222.635742	207.372482
2846.707128	17458.657167	1221.520508	140.649307
2846.707128	17458.657167	1220.404297	93.020973
2846.707128	17458.657167	1219.287109	96.976471
2846.707128	17458.657167	1218.170898	-59.857483
2846.707128	17458.657167	1217.053711	-27.293514
2846.707128	17458.657167	1215.936523	74.085724
2846.707128	17458.657167	1214.819336	-29.093904
2846.707128	17458.657167	1213.702148	-9.809037
2846.707128	17458.657167	1212.583984	-110.360313
2846.707128	17458.657167	1211.465820	-34.525467
2846.707128	17458.657167	1210.347656	-17.827000
2846.707128	17458.657167	1209.229492	49.592472
2846.707128	17458.657167	1208.110352	-59.061985
2846.707128	17458.657167	1206.992188	32.050373
2846.707128	17458.657167	1205.873047	-53.788269
2846.707128	17458.657167	1204.752930	98.180733
2846.707128	17458.657167	1203.633789	86.509438
2846.707128	17458.657167	1202.513672	-65.350349
2846.707128	17458.657167	1201.393555	113.021515
2846.707128	17458.657167	1200.273438	-151.881729
2846.707128	17458.657167	1199.152344	75.999115
2846.707128	17458.657167	1198.032227	102.082977
2846.707128	17458.657167	1196.911133	126.277199
2846.707128	17458.657167	1195.790039	7.571610
2846.707128	17458.657167	1194.667969	-157.735519
2846.707128	17458.657167	1193.545898	-18.942286
2846.707128	17458.657167	1192.424805	-26.572077
2846.707128	17458.657167	1191.301758	-1.789366
2846.707128	17458.657167	1190.179688	26.775778
2846.707128	17458.657167	1189.056641	171.227142
2846.707128	17458.657167	1187.933594	17.593197
2846.707128	17458.657167	1186.810547	93.307793
2846.707128	17458.657167	1185.687500	-26.258711
2846.707128	17458.657167	1184.563477	-166.876892
2846.707128	17458.657167	1183.440430	69.316452
2846.707128	17458.657167	1182.316406	48.186092
2846.707128	17458.657167	1181.191406	136.184265
2846.707128	17458.657167	1180.067383	55.769402
2846.707128	17458.657167	1178.942383	13.852728
2846.707128	17458.657167	1177.817383	-4.651744
2846.707128	17458.657167	1176.692383	76.836433
2846.707128	17458.657167	1175.566406	16.930954
2846.707128	17458.657167	1174.440430	18.646683
2846.707128	17458.657167	1173.314453	46.813126
2846.707128	17458.657167	1172.188477	106.746140
2846.707128	17458.657167	1171.062500	120.790878
2846.707128	17458.657167	1169.935547	82.998253
2846.707128	17458.657167	1168.808594	-116.617424
2846.707128	17458.657167	1167.681641	5.615225
2846.707128	17458.657167	1166.553711	35.730305
2846.707128	17458.657167	1165.426758	-98.501068
2846.707128	17458.657167	1164.298828	17.910622
2846.707128	17458.657167	1163.170898	-228.392883
2846.707128	17458.657167	1162.041992	109.178902
2846.707128	17458.657167	1160.914063	95.196602
2846.707128	17458.657167	1159.785156	-1.969005
2846.707128	17458.657167	1158.656250	7.707988
2846.707128	17458.657167	1157.526367	-18.767176
2846.707128	17458.657167	1156.397461	-56.902256
2846.707128	17458.657167	1155.267578	-45.388592
2846.707128	17458.657167	1154.137695	-44.145222
2846.707128	17458.657167	1153.006836	36.933422
2846.707128	17458.657167	1151.876953	132.017044
2846.707128	17458.657167	1150.746094	223.359985
2846.707128	17458.657167	1149.615234	149.961578
2846.707128	17458.657167	1148.484375	89.141861
2846.707128	17458.657167	1147.352539	168.481644
2846.707128	17458.657167	1146.220703	-19.704037
2846.707128	17458.657167	1145.088867	-54.704460
2846.707128	17458.657167	1143.957031	-129.961243
2846.707128	17458.657167	1142.825195	-25.234325
2846.707128	17458.657167	1141.692383	-40.342701
2846.707128	17458.657167	1140.559570	-24.604620
2846.707128	17458.657167	1139.426758	-67.674530
2846.707128	17458.657167	1138.292969	-106.160683
2846.707128	17458.657167	1137.159180	-259.439636
2846.707128	17458.657167	1136.025391	-71.705841
2846.707128	17458.657167	1134.891602	-23.698645
2846.707128	17458.657167	1133.757813	-34.718922
2846.707128	17458.657167	1132.623047	-155.137009
2846.707128	17458.657167	1131.488281	-148.796738
2846.707128	17458.657167	1130.353516	34.665115
2846.707128	17458.657167	1129.217773	-174.050705
2846.707128	17458.657167	1128.083008	-40.867332
2846.707128	17458.657167	1126.947266	-96.939972
2846.707128	17458.657167	1125.811523	59.783554
2846.707128	17458.657167	1124.674805	-214.125244
2846.707128	17458.657167	1123.539063	-48.064308
2846.707128	17458.657167	1122.402344	-249.977600
2846.707128	17458.657167	1121.265625	-245.537140
2846.707128	17458.657167	1120.127930	40.125149
2846.707128	17458.657167	1118.990234	-51.185024
2846.707128	17458.657167	1117.853516	-36.072754
2846.707128	17458.657167	1116.714844	38.598877
2846.707128	17458.657167	1115.577148	-5.629100
2846.707128	17458.657167	1114.439453	-41.206078
2846.707128	17458.657167	1113.300781	-54.022202
2846.707128	17458.657167	1112.162109	-4.093469
2846.707128	17458.657167	1111.022461	182.487671
2846.707128	17458.657167	1109.883789	201.954376
2846.707128	17458.657167	1108.744141	-42.739807
2846.707128	17458.657167	1107.604492	34.838737
2846.707128	17458.657167	1106.463867	-41.723049
2846.707128	17458.657167	1105.324219	280.963013
2846.707128	17458.657167	1104.183594	129.728729
2846.707128	17458.657167	1103.042969	82.664352
2846.707128	17458.657167	1101.902344	60.488895
2846.707128	17458.657167	1100.760742	70.013527
2846.707128	17458.657167	1099.619141	160.291672
2846.707128	17458.657167	1098.477539	12.916389
2846.707128	17458.657167	1097.335938	88.648697
2846.707128	17458.657167	1096.193359	-83.630203
2846.707128	17458.657167	1095.051758	-1.206314
2846.707128	17458.657167	1093.909180	39.449013
2846.707128	17458.657167	1092.765625	86.422768
2846.707128	17458.657167	1091.623047	95.411880
2846.707128	17458.657167	1090.479492	173.163300
2846.707128	17458.657167	1089.335938	8.633622
2846.707128	17458.657167	1088.192383	87.174774
2846.707128	17458.657167	1087.047852	77.956436
2846.707128	17458.657167	1085.903320	167.759720
2846.707128	17458.657167	1084.758789	-62.938446
2846.707128	17458.657167	1083.614258	179.807663
2846.707128	17458.657167	1082.469727	94.884193
2846.707128	17458.657167	1081.324219	-35.631325
2846.707128	17458.657167	1080.178711	26.157883
2846.707128	17458.657167	1079.033203	-68.772163
2846.707128	17458.657167	1077.886719	105.505455
2846.707128	17458.657167	1076.740234	28.710058
2846.707128	17458.657167	1075.593750	145.559860
2846.707128	17458.657167	1074.447266	228.498688
2846.707128	17458.657167	1073.300781	318.784821
2846.707128	17458.657167	1072.153320	225.222778
2846.707128	17458.657167	1071.005859	159.472717
2846.707128	17458.657167	1069.858398	188.906204
2846.707128	17458.657167	1068.709961	180.939865
2846.707128	17458.657167	1067.561523	192.477280
2846.707128	17458.657167	1066.413086	179.700592
2846.707128	17458.657167	1065.264648	229.588821
2846.707128	17458.657167	1064.116211	72.155205
2846.707128	17458.657167	1062.966797	256.275970
2846.707128	17458.657167	1061.817383	89.237915
2846.707128	17458.657167	1060.667969	273.170471
2846.707128	17458.657167	1059.517578	369.295380
2846.707128	17458.657167	1058.368164	260.843628
2846.707128	17458.657167	1057.217773	49.666218
2846.707128	17458.657167	1056.067383	61.439060
2846.707128	17458.657167	1054.916016	57.884590
2846.707128	17458.657167	1053.764648	217.395615
2846.707128	17458.657167	1052.613281	23.743223
2846.707128	17458.657167	1051.461914	141.574478
2846.707128	17458.657167	1050.310547	45.970036
2846.707128	17458.657167	1049.158203	279.218445
2846.707128	17458.657167	1048.005859	324.091797
2846.707128	17458.657167	1046.853516	244.414902
2846.707128	17458.657167	1045.700195	129.970261
2846.707128	17458.657167	1044.547852	231.861603
2846.707128	17458.657167	1043.394531	249.319305
2846.707128	17458.657167	1042.240234	149.936539
2846.707128	17458.657167	1041.086914	135.267639
2846.707128	17458.657167	1039.932617	84.663696
2846.707128	17458.657167	1038.778320	242.085815
2846.707128	17458.657167	1037.624023	308.180115
2846.707128	17458.657167	1036.469727	218.325180
2846.707128	17458.657167	1035.314453	268.024628
2846.707128	17458.657167	1034.159180	533.807190
2846.707128	17458.657167	1033.003906	650.437256
2846.707128	17458.657167	1031.847656	608.062744
2846.707128	17458.657167	1030.692383	676.258728
2846.707128	17458.657167	1029.536133	674.482544
2846.707128	17458.657167	1028.378906	679.774719
2846.707128	17458.657167	1027.222656	509.344452
2846.707128	17458.657167	1026.065430	446.602875
2846.707128	17458.657167	1024.908203	400.892700
2846.707128	17458.657167	1023.750977	297.555420
2846.707128	17458.657167	1022.593750	327.338715
2846.707128	17458.657167	1021.435547	395.794434
2846.707128	17458.657167	1020.277344	120.218636
2846.707128	17458.657167	1019.119141	220.768204
2846.707128	17458.657167	1017.959961	205.247726
2846.707128	17458.657167	1016.800781	292.509094
2846.707128	17458.657167	1015.641602	308.290253
2846.707128	17458.657167	1014.482422	272.029388
2846.707128	17458.657167	1013.323242	388.453705
2846.707128	17458.657167	1012.163086	325.734680
2846.707128	17458.657167	1011.002930	212.031113
2846.707128	17458.657167	1009.842773	446.475525
2846.707128	17458.657167	1008.681641	383.941376
2846.707128	17458.657167	1007.520508	263.642303
2846.707128	17458.657167	1006.359375	411.293854
2846.707128	17458.657167	1005.198242	356.916138
2846.707128	17458.657167	1004.037109	623.241272
2846.707128	17458.657167	1002.875000	611.559509
2846.707128	17458.657167	1001.712891	484.364960
2846.707128	17458.657167	1000.550781	504.559692
2846.707128	17458.657167	999.387695	400.444458
2846.707128	17458.657167	998.224609	387.806610
2846.707128	17458.657167	997.061523	196.364471
2846.707128	17458.657167	995.898438	212.711472
2846.707128	17458.657167	994.734375	60.651207
2846.707128	17458.657167	993.571289	49.323444
2846.707128	17458.657167	992.407227	233.450882
2846.707128	17458.657167	991.242188	186.883636
2846.707128	17458.657167	990.078125	114.599617
2846.707128	17458.657167	988.913086	130.366180
2846.707128	17458.657167	987.748047	-9.205811
2846.707128	17458.657167	986.583008	56.226044
2846.707128	17458.657167	985.416992	110.361465
2846.707128	17458.657167	984.250977	-44.631950
2846.707128	17458.657167	983.084961	7.420224
2846.707128	17458.657167	981.918945	245.827164
2846.707128	17458.657167	980.751953	61.874359
2846.707128	17458.657167	979.584961	-152.271423
2846.707128	17458.657167	978.417969	-57.084225
2846.707128	17458.657167	977.250977	-54.306641
2846.707128	17458.657167	976.083008	-92.538109
2846.707128	17458.657167	974.915039	-27.995531
2846.707128	17458.657167	973.747070	107.938835
2846.707128	17458.657167	972.579102	133.772369
2846.707128	17458.657167	971.410156	129.166229
2846.707128	17458.657167	970.242188	-75.107536
2846.707128	17458.657167	969.072266	101.703827
2846.707128	17458.657167	967.903320	121.650383
2846.707128	17458.657167	966.733398	181.070297
2846.707128	17458.657167	965.563477	187.355301
2846.707128	17458.657167	964.393555	410.407257
2846.707128	17458.657167	963.223633	160.925873
2846.707128	17458.657167	962.052734	442.057373
2846.707128	17458.657167	960.881836	442.695526
2846.707128	17458.657167	959.710938	380.880859
2846.707128	17458.657167	958.540039	436.273956
2846.707128	17458.657167	957.368164	376.078552
2846.707128	17458.657167	956.196289	448.054688
2846.707128	17458.657167	955.024414	273.245819
2846.707128	17458.657167	953.851563	435.208984
2846.707128	17458.657167	952.679688	346.035431
2846.707128	17458.657167	951.506836	279.523438
2846.707128	17458.657167	950.333984	335.358948
2846.707128	17458.657167	949.160156	335.324493
2846.707128	17458.657167	947.986328	412.766235
2846.707128	17458.657167	946.812500	284.106445
2846.707128	17458.657167	945.638672	285.908051
2846.707128	17458.657167	944.464844	247.626450
2846.707128	17458.657167	943.290039	324.893646
2846.707128	17458.657167	942.115234	676.565674
2846.707128	17458.657167	940.940430	599.571594
2846.707128	17458.657167	939.764648	787.082336
2846.707128	17458.657167	938.588867	964.509644
2846.707128	17458.657167	937.413086	979.831421
2846.707128	17458.657167	936.237305	748.742249
2846.707128	17458.657167	935.060547	729.822144
2846.707128	17458.657167	933.883789	728.872559
2846.707128	17458.657167	932.707031	603.765869
2846.707128	17458.657167	931.530273	586.849060
2846.707128	17458.657167	930.352539	513.818176
2846.707128	17458.657167	929.175781	310.776001
2846.707128	17458.657167	927.998047	285.779449
2846.707128	17458.657167	926.819336	148.844315
2846.707128	17458.657167	925.641602	237.873260
2846.707128	17458.657167	924.462891	290.871307
2846.707128	17458.657167	923.284180	62.002266
2846.707128	17458.657167	922.104492	164.937637
2846.707128	17458.657167	920.924805	82.001427
2846.707128	17458.657167	919.746094	87.118317
2846.707128	17458.657167	919.551758	189.690475
2846.707128	17458.657167	918.386719	214.525772
2846.707128	17458.657167	917.220703	19.687212
2846.707128	17458.657167	916.054688	42.512531
2846.707128	17458.657167	914.887695	-4.548656
2846.707128	17458.657167	913.721680	94.060890
2846.707128	17458.657167	912.554688	-30.844746
2846.707128	17458.657167	911.387695	151.472595
2846.707128	17458.657167	910.220703	74.428047
2846.707128	17458.657167	909.052734	-26.528902
2846.707128	17458.657167	907.885742	165.581985
2846.707128	17458.657167	906.717773	-23.091475
2846.707128	17458.657167	905.548828	-48.301205
2846.707128	17458.657167	904.380859	-73.524895
2846.707128	17458.657167	903.211914	20.760145
2846.707128	17458.657167	902.042969	31.342924
2846.707128	17458.657167	900.874023	81.722504
2846.707128	17458.657167	899.704102	-25.199728
2846.707128	17458.657167	898.535156	9.208059
2846.707128	17458.657167	897.365234	-213.109802
2846.707128	17458.657167	896.194336	95.837852
2846.707128	17458.657167	895.024414	24.720989
2846.707128	17458.657167	893.853516	-115.986885
2846.707128	17458.657167	892.682617	-101.572861
2846.707128	17458.657167	891.511719	-67.306519
2846.707128	17458.657167	890.340820	-52.950607
2846.707128	17458.657167	889.168945	-133.994598
2846.707128	17458.657167	887.997070	-105.761681
2846.707128	17458.657167	886.825195	-119.272453
2846.707128	17458.657167	885.653320	-7.691061
2846.707128	17458.657167	884.480469	-96.700455
2846.707128	17458.657167	883.307617	8.836172
2846.707128	17458.657167	882.134766	221.478271
2846.707128	17458.657167	880.961914	241.544067
2846.707128	17458.657167	879.788086	15.590731
2846.707128	17458.657167	878.614258	136.802963
2846.707128	17458.657167	877.440430	99.303658
2846.707128	17458.657167	876.266602	-9.575335
2846.707128	17458.657167	875.091797	10.412511
2846.707128	17458.657167	873.916992	87.841568
2846.707128	17458.657167	872.742188	125.588593
2846.707128	17458.657167	871.567383	155.373108
2846.707128	17458.657167	870.391602	38.563599
2846.707128	17458.657167	869.215820	111.874115
2846.707128	17458.657167	868.040039	230.663803
2846.707128	17458.657167	866.864258	117.798637
2846.707128	17458.657167	865.687500	147.441879
2846.707128	17458.657167	864.510742	2.936573
2846.707128	17458.657167	863.333984	-86.146278
2846.707128	17458.657167	862.157227	0.799499
2846.707128	17458.657167	860.979492	52.096237
2846.707128	17458.657167	859.802734	-27.134020
2846.707128	17458.657167	858.625000	-31.247351
2846.707128	17458.657167	857.446289	97.016609
2846.707128	17458.657167	856.268555	-84.986580
2846.707128	17458.657167	855.089844	45.157341
2846.707128	17458.657167	853.911133	121.897964
2846.707128	17458.657167	852.731445	-10.712140
2846.707128	17458.657167	851.552734	-141.325073
2846.707128	17458.657167	850.373047	-13.359795
2846.707128	17458.657167	849.193359	-23.604940
2846.707128	17458.657167	848.013672	-158.164398
2846.707128	17458.657167	846.833008	-91.505280
2846.707128	17458.657167	845.652344	-42.652504
2846.707128	17458.657167	844.471680	-141.724625
2846.707128	17458.657167	843.291016	-124.482788
2846.707128	17458.657167	842.110352	-69.833656
2846.707128	17458.657167	840.928711	-52.675167
2846.707128	17458.657167	839.747070	-37.525314
2846.707128	17458.657167	838.564453	-264.674683
2846.707128	17458.657167	837.382813	10.381382
2846.707128	17458.657167	836.200195	31.317951
2846.707128	17458.657167	835.017578	-4.872137
2846.707128	17458.657167	833.834961	110.453239
2846.707128	17458.657167	832.651367	137.157608
2846.707128	17458.657167	831.467773	266.107880
2846.707128	17458.657167	830.284180	88.152245
2846.707128	17458.657167	829.100586	216.986496
2846.707128	17458.657167	827.916992	76.393356
2846.707128	17458.657167	826.732422	14.445141
2846.707128	17458.657167	825.547852	-23.934444
2846.707128	17458.657167	824.363281	-91.807426
2846.707128	17458.657167	823.177734	26.922815
2846.707128	17458.657167	821.992188	23.800179
2846.707128	17458.657167	820.806641	-69.683670
2846.707128	17458.657167	819.621094	-8.083932
2846.707128	17458.657167	818.434570	-164.410583
2846.707128	17458.657167	817.249023	-55.804482
2846.707128	17458.657167	816.062500	-2.216718
2846.707128	17458.657167	814.875000	-178.189941
2846.707128	17458.657167	813.688477	55.735802
2846.707128	17458.657167	812.500977	16.984169
2846.707128	17458.657167	811.313477	148.749710
2846.707128	17458.657167	810.125977	72.666649
2846.707128	17458.657167	808.937500	16.166088
2846.707128	17458.657167	807.749023	4.700497
2846.707128	17458.657167	806.560547	55.868923
2846.707128	17458.657167	805.372070	26.680571
2846.707128	17458.657167	804.182617	-41.701202
2846.707128	17458.657167	802.994141	81.726204
2846.707128	17458.657167	801.803711	177.657974
2846.707128	17458.657167	800.614258	230.450516
2846.707128	17458.657167	799.424805	67.983932
2846.707128	17458.657167	798.234375	93.294426
2846.707128	17458.657167	797.043945	216.314285
2846.707128	17458.657167	795.852539	-16.584446
2846.707128	17458.657167	794.662109	-30.522617
2846.707128	17458.657167	793.470703	49.294182
2846.707128	17458.657167	792.279297	334.174408
2846.707128	17458.657167	791.087891	253.593033
2846.707128	17458.657167	789.895508	305.794952
2846.707128	17458.657167	788.703125	197.804565
2846.707128	17458.657167	787.510742	-35.139465
2846.707128	17458.657167	786.318359	1.303108
2846.707128	17458.657167	785.125000	133.291992
2846.707128	17458.657167	783.931641	-35.285912
2846.707128	17458.657167	782.738281	-14.647004
2846.707128	17458.657167	781.544922	97.582169
2846.707128	17458.657167	780.350586	90.767174
2846.707128	17458.657167	779.156250	177.464050
2846.707128	17458.657167	777.961914	182.205444
2846.707128	17458.657167	776.767578	169.345261
2846.707128	17458.657167	775.572266	185.649292
2846.707128	17458.657167	774.376953	153.189407
2846.707128	17458.657167	773.181641	179.098831
2846.707128	17458.657167	771.986328	261.392639
2846.707128	17458.657167	770.790039	246.261185
2846.707128	17458.657167	769.593750	328.375244
2846.707128	17458.657167	768.397461	278.077972
2846.707128	17458.657167	767.201172	404.758484
2846.707128	17458.657167	766.003906	280.424377
2846.707128	17458.657167	764.806641	403.026855
2846.707128	17458.657167	763.609375	404.972626
2846.707128	17458.657167	762.412109	393.242615
2846.707128	17458.657167	761.213867	466.951599
2846.707128	17458.657167	760.015625	596.902588
2846.707128	17458.657167	758.817383	338.229889
2846.707128	17458.657167	757.618164	351.484619
2846.707128	17458.657167	756.419922	219.034637
2846.707128	17458.657167	755.220703	435.995361
2846.707128	17458.657167	754.021484	377.188690
2846.707128	17458.657167	752.821289	345.498596
2846.707128	17458.657167	751.621094	278.824249
2846.707128	17458.657167	750.420898	409.948425
2846.707128	17458.657167	749.220703	337.319855
2846.707128	17458.657167	748.020508	384.853149
2846.707128	17458.657167	746.819336	511.765961
2846.707128	17458.657167	745.618164	520.327942
2846.707128	17458.657167	744.416992	379.609039
2846.707128	17458.657167	743.214844	384.163574
2846.707128	17458.657167	742.012695	561.013428
2846.707128	17458.657167	740.810547	683.491150
2846.707128	17458.657167	739.608398	757.437317
2846.707128	17458.657167	738.406250	1032.576050
2846.707128	17458.657167	737.203125	1371.380371
2846.707128	17458.657167	736.000000	1719.636353
2846.707128	17458.657167	734.795898	1916.779663
2846.707128	17458.657167	733.592773	2272.347900
2846.707128	17458.657167	732.388672	2235.163818
2846.707128	17458.657167	731.184570	2252.042236
2846.707128	17458.657167	729.979492	2220.509766
2846.707128	17458.657167	728.775391	1730.933105
2846.707128	17458.657167	727.570313	1450.129150
2846.707128	17458.657167	726.365234	1360.584717
2846.707128	17458.657167	725.160156	1137.742920
2846.707128	17458.657167	723.954102	1098.329956
2846.707128	17458.657167	722.748047	850.369995
2846.707128	17458.657167	721.541992	696.996582
2846.707128	17458.657167	720.334961	775.145935
2846.707128	17458.657167	719.128906	571.523132
2846.707128	17458.657167	717.921875	634.064148
2846.707128	17458.657167	716.714844	519.085449
2846.707128	17458.657167	715.506836	365.507385
2846.707128	17458.657167	714.298828	238.892563
2846.707128	17458.657167	713.090820	314.592499
2846.707128	17458.657167	711.882813	399.808228
2846.707128	17458.657167	710.674805	365.468414
2846.707128	17458.657167	709.465820	423.497986
2846.707128	17458.657167	708.256836	219.545029
2846.707128	17458.657167	707.047852	267.780365
2846.707128	17458.657167	705.837891	471.806580
2846.707128	17458.657167	704.627930	358.148865
2846.707128	17458.657167	703.417969	192.506516
2846.707128	17458.657167	702.208008	415.392242
2846.707128	17458.657167	700.998047	245.785568
2846.707128	17458.657167	699.787109	399.171600
2846.707128	17458.657167	698.576172	306.352386
2846.707128	17458.657167	697.364258	472.935944
2846.707128	17458.657167	696.153320	410.708435
2846.707128	17458.657167	694.941406	359.943420
2846.707128	17458.657167	693.729492	303.349487
2846.707128	17458.657167	692.516602	310.057953
2846.707128	17458.657167	691.304688	562.422974
2846.707128	17458.657167	690.091797	436.456818
2846.707128	17458.657167	688.878906	485.091156
2846.707128	17458.657167	687.665039	644.896545
2846.707128	17458.657167	686.451172	562.847717
2846.707128	17458.657167	685.237305	549.790710
2846.707128	17458.657167	684.023438	456.119324
2846.707128	17458.657167	682.809570	642.290039
2846.707128	17458.657167	681.594727	676.878845
2846.707128	17458.657167	680.379883	627.052551
2846.707128	17458.657167	679.165039	692.113159
2846.707128	17458.657167	677.949219	534.867188
2846.707128	17458.657167	676.733398	718.477600
2846.707128	17458.657167	675.517578	532.404785
2846.707128	17458.657167	674.301758	710.028198
2846.707128	17458.657167	673.084961	812.850342
2846.707128	17458.657167	671.869141	850.495422
2846.707128	17458.657167	670.651367	997.073547
2846.707128	17458.657167	669.434570	925.477600
2846.707128	17458.657167	668.216797	1373.942627
2846.707128	17458.657167	667.000000	1231.398804
2846.707128	17458.657167	665.781250	1113.671631
2846.707128	17458.657167	664.563477	1068.538574
2846.707128	17458.657167	663.344727	773.053406
2846.707128	17458.657167	662.125977	722.117493
2846.707128	17458.657167	660.907227	764.704163
2846.707128	17458.657167	659.688477	818.652954
2846.707128	17458.657167	658.468750	517.426880
2846.707128	17458.657167	657.249023	678.126892
2846.707128	17458.657167	656.029297	707.021240
2846.707128	17458.657167	654.808594	857.919556
2846.707128	17458.657167	653.587891	741.650513
2846.707128	17458.657167	652.367188	644.426758
2846.707128	17458.657167	651.146484	638.686768
2846.707128	17458.657167	649.924805	577.594360
2846.707128	17458.657167	648.704102	613.656372
2846.707128	17458.657167	647.482422	582.940063
2846.707128	17458.657167	646.259766	1005.539917
2846.707128	17458.657167	645.037109	776.539978
2846.707128	17458.657167	643.815430	819.867249
2846.707128	17458.657167	642.591797	1009.687073
2846.707128	17458.657167	641.369141	936.707275
2846.707128	17458.657167	640.145508	1198.604004
2846.707128	17458.657167	638.921875	1249.147095
2846.707128	17458.657167	637.698242	1347.159180
2846.707128	17458.657167	636.474609	1161.713379
2846.707128	17458.657167	635.250000	1200.635498
2846.707128	17458.657167	634.025391	960.047424
2846.707128	17458.657167	632.800781	818.330994
2846.707128	17458.657167	631.575195	798.219299
2846.707128	17458.657167	630.349609	669.776489
2846.707128	17458.657167	629.124023	662.890686
2846.707128	17458.657167	627.898438	572.402832
2846.707128	17458.657167	626.671875	605.298767
2846.707128	17458.657167	625.445313	579.288574
2846.707128	17458.657167	624.218750	600.683044
2846.707128	17458.657167	622.992188	382.961151
2846.707128	17458.657167	621.764648	210.804794
2846.707128	17458.657167	620.537109	368.665497
2846.707128	17458.657167	619.309570	327.325928
2846.707128	17458.657167	618.081055	450.879120
2846.707128	17458.657167	616.852539	214.235718
2846.707128	17458.657167	615.624023	426.739960
2846.707128	17458.657167	614.395508	218.540710
2846.707128	17458.657167	613.166992	374.056427
2846.707128	17458.657167	611.937500	302.222961
2846.707128	17458.657167	610.708008	111.110298
2846.707128	17458.657167	609.477539	374.328094
2846.707128	17458.657167	608.248047	228.637192
2846.707128	17458.657167	607.017578	196.495575
2846.707128	17458.657167	605.787109	260.814270
2846.707128	17458.657167	604.555664	88.664787
2846.707128	17458.657167	603.325195	84.858002
2846.707128	17458.657167	602.093750	90.474854
2846.707128	17458.657167	600.861328	-100.505562
2846.707128	17458.657167	599.629883	-70.327896
2846.707128	17458.657167	598.397461	48.606316
2846.707128	17458.657167	597.165039	175.028610
2846.707128	17458.657167	595.932617	-127.295700
2846.707128	17458.657167	594.699219	-57.566551
2846.707128	17458.657167	593.465820	81.963264
2846.707128	17458.657167	592.232422	-22.029770
2846.707128	17458.657167	590.999023	107.981438
2846.707128	17458.657167	589.764648	73.802803
2846.707128	17458.657167	588.530273	11.343713
2846.707128	17458.657167	587.295898	-2.065988
2846.707128	17458.657167	586.061523	-4.159937
2846.707128	17458.657167	584.826172	25.781889
2846.707128	17458.657167	583.590820	36.869099
2846.707128	17458.657167	582.355469	-14.218841
2846.707128	17458.657167	581.119141	-14.427883
2846.707128	17458.657167	579.882813	-22.163071
2846.707128	17458.657167	578.646484	-35.533989
2846.707128	17458.657167	577.410156	94.175949
2846.707128	17458.657167	576.172852	29.986671
2846.707128	17458.657167	574.935547	73.091728
2846.707128	17458.657167	573.698242	99.263374
2846.707128	17458.657167	572.460938	134.845154
2846.707128	17458.657167	571.222656	61.360966
2846.707128	17458.657167	569.984375	-6.431257
2846.707128	17458.657167	568.746094	-130.560043
2846.707128	17458.657167	567.506836	209.547379
2846.707128	17458.657167	566.267578	-4.713428
2846.707128	17458.657167	565.028320	-51.675694
2846.707128	17458.657167	563.789063	141.797058
2846.707128	17458.657167	562.548828	40.428074
2846.707128	17458.657167	561.309570	166.283783
2846.707128	17458.657167	560.068359	23.724962
2846.707128	17458.657167	558.828125	-122.482758
2846.707128	17458.657167	557.586914	12.803782
2846.707128	17458.657167	556.345703	-63.869751
2846.707128	17458.657167	555.104492	35.800030
2846.707128	17458.657167	553.863281	-48.258499
2846.707128	17458.657167	552.621094	-85.384407
2846.707128	17458.657167	551.378906	66.827141
2846.707128	17458.657167	550.136719	7.305432
2846.707128	17458.657167	548.893555	13.414603
2846.707128	17458.657167	547.650391	184.377670
2846.707128	17458.657167	546.407227	-34.135914
2846.707128	17458.657167	545.164063	118.152695
2846.707128	17458.657167	543.919922	130.056915
2846.707128	17458.657167	542.675781	-61.946579
2846.707128	17458.657167	541.431641	90.417030
2846.707128	17458.657167	540.186523	162.342117
2846.707128	17458.657167	538.941406	389.507233
2846.707128	17458.657167	537.696289	225.895172
2846.707128	17458.657167	536.451172	258.682953
2846.707128	17458.657167	535.205078	181.257446
2846.707128	17458.657167	533.959961	-26.848549
2846.707128	17458.657167	532.712891	103.296532
2846.707128	17458.657167	531.466797	-181.142822
2846.707128	17458.657167	530.219727	169.447769
2846.707128	17458.657167	528.972656	-56.875935
2846.707128	17458.657167	527.725586	65.982796
2846.707128	17458.657167	526.478516	37.719257
2846.707128	17458.657167	525.230469	181.170639
2846.707128	17458.657167	523.982422	235.108109
2846.707128	17458.657167	522.734375	143.645782
2846.707128	17458.657167	521.485352	147.377731
2846.707128	17458.657167	520.236328	106.451744
2846.707128	17458.657167	518.987305	108.484695
2846.707128	17458.657167	517.737305	108.728882
2846.707128	17458.657167	516.488281	51.311440
2846.707128	17458.657167	515.238281	172.784149
2846.707128	17458.657167	513.988281	392.969971
2846.707128	17458.657167	512.737305	458.628113
2846.707128	17458.657167	511.486328	327.054840
2846.707128	17458.657167	510.235352	236.559021
2846.707128	17458.657167	508.984375	183.391800
2846.707128	17458.657167	507.732422	26.166836
2846.707128	17458.657167	506.480469	86.663307
2846.707128	17458.657167	505.228516	-21.967459
2846.707128	17458.657167	503.976563	-150.915039
2846.707128	17458.657167	502.723633	12.036709
2846.707128	17458.657167	501.470703	-179.872650
2846.707128	17458.657167	500.217773	-131.989197
2846.707128	17458.657167	498.963867	18.096542
2846.707128	17458.657167	497.709961	-171.591187
2846.707128	17458.657167	496.456055	-168.053024
2846.707128	17458.657167	495.202148	-246.098267
2846.707128	17458.657167	493.947266	-30.852715
2846.707128	17458.657167	492.692383	61.937714
2846.707128	17458.657167	491.437500	-212.481903
2846.707128	17458.657167	490.181641	19.537951
2846.707128	17458.657167	488.926758	-24.707451
2846.707128	17458.657167	487.670898	34.938301
2846.707128	17458.657167	486.414063	39.033527
2846.707128	17458.657167	485.158203	-66.113487
2846.707128	17458.657167	483.901367	19.647816
2846.707128	17458.657167	482.644531	-66.794090
2846.707128	17458.657167	481.386719	-110.549858
2846.707128	17458.657167	480.128906	30.898516
2846.707128	17458.657167	478.871094	39.090889
2846.707128	17458.657167	477.613281	147.260361
2846.707128	17458.657167	476.355469	-40.556374
2846.707128	17458.657167	475.096680	191.617538
2846.707128	17458.657167	473.837891	116.778671
2846.707128	17458.657167	472.578125	171.434967
2846.707128	17458.657167	471.319336	224.269150
2846.707128	17458.657167	470.059570	160.698044
2846.707128	17458.657167	468.799805	-26.593046
2846.707128	17458.657167	467.539063	7.895546
2846.707128	17458.657167	466.278320	149.518677
2846.707128	17458.657167	465.017578	263.415253
2846.707128	17458.657167	463.756836	214.840225
2846.707128	17458.657167	462.495117	201.373810
2846.707128	17458.657167	461.233398	158.409164
2846.707128	17458.657167	459.971680	146.838455
2846.707128	17458.657167	458.709961	87.329086
2846.707128	17458.657167	457.447266	38.911781
2846.707128	17458.657167	456.184570	88.227982
2846.707128	17458.657167	454.921875	301.564667
2846.707128	17458.657167	453.658203	354.471558
2846.707128	17458.657167	452.394531	197.304352
2846.707128	17458.657167	451.130859	182.021378
2846.707128	17458.657167	449.867188	192.500656
2846.707128	17458.657167	448.602539	298.684601
2846.707128	17458.657167	447.337891	298.016113
2846.707128	17458.657167	446.073242	313.866760
2846.707128	17458.657167	444.807617	270.774902
2846.707128	17458.657167	443.542969	203.731750
2846.707128	17458.657167	442.276367	331.605255
2846.707128	17458.657167	441.010742	639.559143
2846.707128	17458.657167	439.744141	235.821167
2846.707128	17458.657167	438.478516	403.804871
2846.707128	17458.657167	437.210938	459.516266
2846.707128	17458.657167	435.944336	417.730255
2846.707128	17458.657167	434.676758	394.214081
2846.707128	17458.657167	433.409180	335.694855
2846.707128	17458.657167	432.141602	444.151031
2846.707128	17458.657167	430.873047	304.605011
2846.707128	17458.657167	429.604492	333.814575
2846.707128	17458.657167	428.335938	304.137360
2846.707128	17458.657167	427.067383	342.179779
2846.707128	17458.657167	425.797852	180.110031
2846.707128	17458.657167	424.528320	390.156128
2846.707128	17458.657167	423.258789	312.087677
2846.707128	17458.657167	421.988281	444.617584
2846.707128	17458.657167	420.717773	778.440186
2846.707128	17458.657167	419.447266	510.961945
2846.707128	17458.657167	418.175781	490.625824
2846.707128	17458.657167	416.905273	374.818695
2846.707128	17458.657167	415.633789	355.822205
2846.707128	17458.657167	414.362305	473.836914
2846.707128	17458.657167	413.089844	587.837952
2846.707128	17458.657167	411.817383	498.382019
2846.707128	17458.657167	410.544922	613.521973
2846.707128	17458.657167	409.272461	534.408997
2846.707128	17458.657167	407.999023	546.396606
2846.707128	17458.657167	406.725586	519.620361
2846.707128	17458.657167	405.452148	338.944336
2846.707128	17458.657167	404.177734	326.053253
2846.707128	17458.657167	402.903320	475.348053
2846.707128	17458.657167	401.628906	467.065765
2846.707128	17458.657167	400.354492	564.254517
2846.707128	17458.657167	399.079102	564.163635
2846.707128	17458.657167	397.803711	612.874695
2846.707128	17458.657167	396.528320	401.924011
2846.707128	17458.657167	395.251953	467.865265
2846.707128	17458.657167	393.976563	347.189331
2846.707128	17458.657167	392.700195	490.443085
2846.707128	17458.657167	391.422852	459.829010
2846.707128	17458.657167	390.145508	381.236206
2846.707128	17458.657167	388.869141	464.281708
2846.707128	17458.657167	387.590820	333.437439
2846.707128	17458.657167	386.313477	389.647888
2846.707128	17458.657167	385.035156	299.431580
2846.707128	17458.657167	383.756836	465.311615
2846.707128	17458.657167	382.478516	302.692963
2846.707128	17458.657167	381.199219	301.380310
2846.707128	17458.657167	379.919922	399.386322
2846.707128	17458.657167	378.640625	485.641998
2846.707128	17458.657167	377.360352	625.594360
2846.707128	17458.657167	376.080078	548.231995
2846.707128	17458.657167	374.799805	504.581238
2846.707128	17458.657167	373.519531	91.042976
2846.707128	17458.657167	372.238281	361.909302
2846.707128	17458.657167	370.957031	271.943939
2846.707128	17458.657167	369.675781	224.644897
2846.707128	17458.657167	368.394531	89.187584
2846.707128	17458.657167	367.112305	34.449963
2846.707128	17458.657167	365.830078	171.115570
2846.707128	17458.657167	364.546875	204.968903
2846.707128	17458.657167	363.264648	67.139832
2846.707128	17458.657167	361.981445	124.137871
2846.707128	17458.657167	360.698242	18.501194
2846.707128	17458.657167	359.414063	2.347572
2846.707128	17458.657167	358.129883	-114.759781
2846.707128	17458.657167	356.845703	-21.006653
2846.707128	17458.657167	355.561523	-80.831291
2846.707128	17458.657167	354.276367	93.543022
2846.707128	17458.657167	352.991211	21.916388
2846.707128	17458.657167	351.706055	79.309792
2846.707128	17458.657167	350.420898	13.918480
2846.707128	17458.657167	349.134766	8.589736
2846.707128	17458.657167	347.848633	-27.212406
2846.707128	17458.657167	346.561523	56.644863
2846.707128	17458.657167	345.275391	61.119106
2846.707128	17458.657167	343.988281	47.642353
2846.707128	17458.657167	342.700195	112.024628
2846.707128	17458.657167	341.413086	151.207474
2846.707128	17458.657167	340.125000	71.089149
2846.707128	17458.657167	338.836914	7.284149
2846.707128	17458.657167	337.548828	-7.737130
2846.707128	17458.657167	336.259766	-22.870964
2846.707128	17458.657167	334.970703	182.214005
2846.707128	17458.657167	333.681641	114.411003
2846.707128	17458.657167	332.391602	-18.604536
2846.707128	17458.657167	331.101563	14.226558
2846.707128	17458.657167	329.811523	-205.865631
2846.707128	17458.657167	328.521484	26.596357
2846.707128	17458.657167	327.230469	-140.086395
2846.707128	17458.657167	325.939453	-150.258560
2846.707128	17458.657167	324.648438	-56.352974
2846.707128	17458.657167	323.356445	15.279590
2846.707128	17458.657167	322.064453	30.426174
2846.707128	17458.657167	320.772461	43.123436
2846.707128	17458.657167	319.480469	-65.561424
2846.707128	17458.657167	318.187500	-66.968010
2846.707128	17458.657167	316.894531	-171.801193
2846.707128	17458.657167	315.601563	-93.839798
2846.707128	17458.657167	314.307617	20.889601
2846.707128	17458.657167	313.013672	-27.334946
2846.707128	17458.657167	311.719727	-74.765282
2846.707128	17458.657167	310.425781	-4.560247
2846.707128	17458.657167	309.130859	-199.931931
2846.707128	17458.657167	307.835938	38.617661
2846.707128	17458.657167	306.541016	-51.308105
2846.707128	17458.657167	305.245117	40.670952
2846.707128	17458.657167	303.949219	140.203430
2846.707128	17458.657167	302.653320	195.132431
2846.707128	17458.657167	301.356445	190.958191
2846.707128	17458.657167	300.060547	510.262329
2846.707128	17458.657167	298.763672	436.379547
