#X		#Y		#Wave		#Intensity
2811.223032	17362.516833	2000.043945	-52.783501
2811.223032	17362.516833	1999.080078	-89.175705
2811.223032	17362.516833	1998.116211	-9.263823
2811.223032	17362.516833	1997.151367	-113.159492
2811.223032	17362.516833	1996.186523	-180.239090
2811.223032	17362.516833	1995.222656	-133.720490
2811.223032	17362.516833	1994.256836	269.089050
2811.223032	17362.516833	1993.291992	59.747013
2811.223032	17362.516833	1992.327148	55.644321
2811.223032	17362.516833	1991.361328	-89.868774
2811.223032	17362.516833	1990.395508	-12.892789
2811.223032	17362.516833	1989.429688	219.652130
2811.223032	17362.516833	1988.463867	-25.659365
2811.223032	17362.516833	1987.497070	70.203308
2811.223032	17362.516833	1986.531250	178.130127
2811.223032	17362.516833	1985.564453	-97.487671
2811.223032	17362.516833	1984.597656	49.500511
2811.223032	17362.516833	1983.630859	38.016613
2811.223032	17362.516833	1982.664063	26.318253
2811.223032	17362.516833	1981.696289	9.477925
2811.223032	17362.516833	1980.728516	269.125671
2811.223032	17362.516833	1979.761719	-2.540575
2811.223032	17362.516833	1978.792969	108.481880
2811.223032	17362.516833	1977.825195	85.966034
2811.223032	17362.516833	1976.857422	1.585307
2811.223032	17362.516833	1975.888672	57.765167
2811.223032	17362.516833	1974.919922	-100.900795
2811.223032	17362.516833	1973.951172	51.216869
2811.223032	17362.516833	1972.982422	180.951492
2811.223032	17362.516833	1972.013672	-17.490778
2811.223032	17362.516833	1971.043945	-8.845412
2811.223032	17362.516833	1970.075195	98.304100
2811.223032	17362.516833	1969.105469	74.679787
2811.223032	17362.516833	1968.135742	41.116806
2811.223032	17362.516833	1967.165039	-36.867592
2811.223032	17362.516833	1966.195313	-11.434137
2811.223032	17362.516833	1965.224609	139.534180
2811.223032	17362.516833	1964.253906	-14.976550
2811.223032	17362.516833	1963.283203	145.661789
2811.223032	17362.516833	1962.312500	200.335907
2811.223032	17362.516833	1961.341797	156.496796
2811.223032	17362.516833	1960.370117	117.552498
2811.223032	17362.516833	1959.399414	66.286125
2811.223032	17362.516833	1958.427734	-127.662003
2811.223032	17362.516833	1957.455078	103.905365
2811.223032	17362.516833	1956.483398	79.639153
2811.223032	17362.516833	1955.511719	3.738467
2811.223032	17362.516833	1954.539063	109.743980
2811.223032	17362.516833	1953.566406	78.079742
2811.223032	17362.516833	1952.593750	277.388550
2811.223032	17362.516833	1951.621094	31.976068
2811.223032	17362.516833	1950.647461	152.625519
2811.223032	17362.516833	1949.674805	236.401840
2811.223032	17362.516833	1948.701172	253.867340
2811.223032	17362.516833	1947.727539	106.867996
2811.223032	17362.516833	1946.753906	109.656029
2811.223032	17362.516833	1945.780273	65.838974
2811.223032	17362.516833	1944.805664	193.801773
2811.223032	17362.516833	1943.831055	123.051926
2811.223032	17362.516833	1942.856445	13.118404
2811.223032	17362.516833	1941.881836	50.378708
2811.223032	17362.516833	1940.907227	87.659416
2811.223032	17362.516833	1939.932617	-12.301897
2811.223032	17362.516833	1938.957031	-6.808363
2811.223032	17362.516833	1937.981445	123.684616
2811.223032	17362.516833	1937.005859	-42.250778
2811.223032	17362.516833	1936.030273	-53.773949
2811.223032	17362.516833	1935.054688	93.927269
2811.223032	17362.516833	1934.078125	99.613831
2811.223032	17362.516833	1933.101563	-34.185116
2811.223032	17362.516833	1932.125000	-148.306168
2811.223032	17362.516833	1931.148438	99.828018
2811.223032	17362.516833	1930.171875	-77.783440
2811.223032	17362.516833	1929.194336	126.320313
2811.223032	17362.516833	1928.217773	-36.449520
2811.223032	17362.516833	1927.240234	108.993690
2811.223032	17362.516833	1926.262695	-73.158897
2811.223032	17362.516833	1925.284180	-203.855774
2811.223032	17362.516833	1924.306641	-104.728554
2811.223032	17362.516833	1923.328125	33.514534
2811.223032	17362.516833	1922.350586	-9.015365
2811.223032	17362.516833	1921.372070	-0.177805
2811.223032	17362.516833	1920.392578	-69.429520
2811.223032	17362.516833	1919.414063	68.933784
2811.223032	17362.516833	1918.434570	29.103439
2811.223032	17362.516833	1917.456055	-137.569199
2811.223032	17362.516833	1916.476563	-282.159332
2811.223032	17362.516833	1915.497070	-226.579880
2811.223032	17362.516833	1914.516602	-22.165400
2811.223032	17362.516833	1913.537109	-127.503746
2811.223032	17362.516833	1912.556641	18.407185
2811.223032	17362.516833	1911.576172	-55.093132
2811.223032	17362.516833	1910.595703	42.110882
2811.223032	17362.516833	1909.615234	-138.485367
2811.223032	17362.516833	1908.633789	97.691711
2811.223032	17362.516833	1907.653320	46.371559
2811.223032	17362.516833	1906.671875	-21.923931
2811.223032	17362.516833	1905.690430	-180.245636
2811.223032	17362.516833	1904.708984	160.662292
2811.223032	17362.516833	1903.727539	-119.248093
2811.223032	17362.516833	1902.745117	-58.269432
2811.223032	17362.516833	1901.762695	-123.800690
2811.223032	17362.516833	1900.780273	-123.573547
2811.223032	17362.516833	1899.797852	-84.383209
2811.223032	17362.516833	1898.815430	-164.331558
2811.223032	17362.516833	1897.832031	-108.039421
2811.223032	17362.516833	1896.849609	-190.302414
2811.223032	17362.516833	1895.866211	-17.274933
2811.223032	17362.516833	1894.882813	41.505726
2811.223032	17362.516833	1893.898438	-45.479713
2811.223032	17362.516833	1892.915039	-1.220694
2811.223032	17362.516833	1891.930664	181.501556
2811.223032	17362.516833	1890.947266	-99.634651
2811.223032	17362.516833	1889.962891	-91.711250
2811.223032	17362.516833	1888.977539	-61.913471
2811.223032	17362.516833	1887.993164	18.865450
2811.223032	17362.516833	1887.007813	-126.028641
2811.223032	17362.516833	1886.023438	63.953228
2811.223032	17362.516833	1885.038086	88.944061
2811.223032	17362.516833	1884.051758	26.641272
2811.223032	17362.516833	1883.066406	95.311409
2811.223032	17362.516833	1882.081055	163.972153
2811.223032	17362.516833	1881.094727	162.332642
2811.223032	17362.516833	1880.108398	63.769745
2811.223032	17362.516833	1879.122070	151.819565
2811.223032	17362.516833	1878.135742	41.200809
2811.223032	17362.516833	1877.148438	0.870608
2811.223032	17362.516833	1876.162109	-165.364761
2811.223032	17362.516833	1875.174805	-55.526581
2811.223032	17362.516833	1874.187500	-124.859253
2811.223032	17362.516833	1873.199219	142.242722
2811.223032	17362.516833	1872.211914	5.140237
2811.223032	17362.516833	1871.223633	30.177172
2811.223032	17362.516833	1870.236328	-276.187927
2811.223032	17362.516833	1869.248047	-67.329941
2811.223032	17362.516833	1868.258789	-153.547974
2811.223032	17362.516833	1867.270508	-63.275963
2811.223032	17362.516833	1866.282227	-178.502304
2811.223032	17362.516833	1865.292969	242.775772
2811.223032	17362.516833	1864.303711	-111.697884
2811.223032	17362.516833	1863.314453	101.616554
2811.223032	17362.516833	1862.324219	-20.884691
2811.223032	17362.516833	1861.334961	-44.367805
2811.223032	17362.516833	1860.344727	-130.640747
2811.223032	17362.516833	1859.354492	70.333420
2811.223032	17362.516833	1858.364258	138.460693
2811.223032	17362.516833	1857.374023	-46.833355
2811.223032	17362.516833	1856.383789	52.576035
2811.223032	17362.516833	1855.392578	-21.756954
2811.223032	17362.516833	1854.401367	-180.511047
2811.223032	17362.516833	1853.410156	5.539100
2811.223032	17362.516833	1852.418945	145.668686
2811.223032	17362.516833	1851.426758	25.393604
2811.223032	17362.516833	1850.435547	6.319065
2811.223032	17362.516833	1849.443359	146.214355
2811.223032	17362.516833	1848.451172	16.206711
2811.223032	17362.516833	1847.458984	136.664108
2811.223032	17362.516833	1846.466797	83.641083
2811.223032	17362.516833	1845.473633	189.472534
2811.223032	17362.516833	1844.480469	90.599472
2811.223032	17362.516833	1843.487305	92.771729
2811.223032	17362.516833	1842.494141	-59.119232
2811.223032	17362.516833	1841.500977	224.404984
2811.223032	17362.516833	1840.506836	185.447571
2811.223032	17362.516833	1839.513672	-74.813499
2811.223032	17362.516833	1838.519531	95.323349
2811.223032	17362.516833	1837.525391	-25.554844
2811.223032	17362.516833	1836.530273	271.728088
2811.223032	17362.516833	1835.536133	145.888901
2811.223032	17362.516833	1834.541016	219.421539
2811.223032	17362.516833	1833.545898	50.227879
2811.223032	17362.516833	1832.550781	236.447571
2811.223032	17362.516833	1831.555664	242.416550
2811.223032	17362.516833	1830.560547	116.248169
2811.223032	17362.516833	1829.564453	254.061432
2811.223032	17362.516833	1828.568359	125.344666
2811.223032	17362.516833	1827.572266	-144.986008
2811.223032	17362.516833	1826.576172	90.851746
2811.223032	17362.516833	1825.580078	125.026016
2811.223032	17362.516833	1824.583008	127.907372
2811.223032	17362.516833	1823.585938	324.881226
2811.223032	17362.516833	1822.588867	123.752441
2811.223032	17362.516833	1821.591797	11.262452
2811.223032	17362.516833	1820.594727	83.209343
2811.223032	17362.516833	1819.596680	205.323578
2811.223032	17362.516833	1818.599609	130.860718
2811.223032	17362.516833	1817.601563	226.340958
2811.223032	17362.516833	1816.603516	225.888885
2811.223032	17362.516833	1815.604492	76.888893
2811.223032	17362.516833	1814.606445	396.945221
2811.223032	17362.516833	1813.607422	166.357483
2811.223032	17362.516833	1812.608398	139.098480
2811.223032	17362.516833	1811.609375	42.348347
2811.223032	17362.516833	1810.610352	-123.854347
2811.223032	17362.516833	1809.610352	180.944489
2811.223032	17362.516833	1808.611328	88.627083
2811.223032	17362.516833	1807.611328	249.581558
2811.223032	17362.516833	1806.611328	23.180052
2811.223032	17362.516833	1805.610352	202.925079
2811.223032	17362.516833	1804.610352	136.401184
2811.223032	17362.516833	1803.609375	-52.054264
2811.223032	17362.516833	1802.608398	86.582863
2811.223032	17362.516833	1801.607422	-51.938667
2811.223032	17362.516833	1800.606445	103.067413
2811.223032	17362.516833	1799.605469	66.931938
2811.223032	17362.516833	1798.603516	87.930069
2811.223032	17362.516833	1797.601563	89.685432
2811.223032	17362.516833	1796.599609	72.206665
2811.223032	17362.516833	1795.597656	90.356949
2811.223032	17362.516833	1794.595703	-151.557144
2811.223032	17362.516833	1793.592773	40.350258
2811.223032	17362.516833	1792.589844	315.455597
2811.223032	17362.516833	1791.587891	97.003128
2811.223032	17362.516833	1790.583984	278.753326
2811.223032	17362.516833	1789.581055	260.176270
2811.223032	17362.516833	1788.577148	-56.274487
2811.223032	17362.516833	1787.574219	89.209740
2811.223032	17362.516833	1786.570313	-55.988358
2811.223032	17362.516833	1785.566406	-32.286026
2811.223032	17362.516833	1784.561523	91.196640
2811.223032	17362.516833	1783.557617	50.290180
2811.223032	17362.516833	1782.552734	-81.173645
2811.223032	17362.516833	1781.547852	-8.195314
2811.223032	17362.516833	1780.542969	-63.829197
2811.223032	17362.516833	1779.538086	-45.900131
2811.223032	17362.516833	1778.532227	112.104805
2811.223032	17362.516833	1777.527344	10.819006
2811.223032	17362.516833	1776.521484	-83.473389
2811.223032	17362.516833	1775.515625	-54.354752
2811.223032	17362.516833	1774.508789	114.727348
2811.223032	17362.516833	1773.502930	57.957527
2811.223032	17362.516833	1772.496094	93.639252
2811.223032	17362.516833	1771.489258	186.112778
2811.223032	17362.516833	1770.482422	-77.664207
2811.223032	17362.516833	1769.475586	-30.627598
2811.223032	17362.516833	1768.467773	194.164871
2811.223032	17362.516833	1767.460938	55.748562
2811.223032	17362.516833	1766.453125	114.064827
2811.223032	17362.516833	1765.445313	34.645519
2811.223032	17362.516833	1764.437500	61.772686
2811.223032	17362.516833	1763.428711	328.124237
2811.223032	17362.516833	1762.420898	65.694382
2811.223032	17362.516833	1761.412109	80.420013
2811.223032	17362.516833	1760.403320	232.374008
2811.223032	17362.516833	1759.393555	97.476875
2811.223032	17362.516833	1758.384766	241.913742
2811.223032	17362.516833	1757.375000	-73.235199
2811.223032	17362.516833	1756.366211	73.195396
2811.223032	17362.516833	1755.356445	-17.300810
2811.223032	17362.516833	1754.345703	55.333424
2811.223032	17362.516833	1753.335938	-23.646639
2811.223032	17362.516833	1752.325195	294.621887
2811.223032	17362.516833	1751.315430	-120.563011
2811.223032	17362.516833	1750.304688	-117.239449
2811.223032	17362.516833	1749.292969	169.594299
2811.223032	17362.516833	1748.282227	77.960899
2811.223032	17362.516833	1747.270508	40.532291
2811.223032	17362.516833	1746.259766	31.307459
2811.223032	17362.516833	1745.248047	-34.796185
2811.223032	17362.516833	1744.235352	-193.175217
2811.223032	17362.516833	1743.223633	104.104996
2811.223032	17362.516833	1742.211914	82.362541
2811.223032	17362.516833	1741.199219	-17.455206
2811.223032	17362.516833	1740.186523	73.759743
2811.223032	17362.516833	1739.173828	-7.486230
2811.223032	17362.516833	1738.160156	-22.829157
2811.223032	17362.516833	1737.147461	190.473343
2811.223032	17362.516833	1736.133789	-44.565346
2811.223032	17362.516833	1735.120117	-213.666382
2811.223032	17362.516833	1734.106445	-295.649414
2811.223032	17362.516833	1733.091797	-52.524185
2811.223032	17362.516833	1732.078125	-2.880582
2811.223032	17362.516833	1731.063477	-35.900036
2811.223032	17362.516833	1730.048828	-229.254929
2811.223032	17362.516833	1729.034180	-149.505981
2811.223032	17362.516833	1728.019531	-190.043991
2811.223032	17362.516833	1727.003906	56.473064
2811.223032	17362.516833	1725.988281	-12.679216
2811.223032	17362.516833	1724.972656	-300.830017
2811.223032	17362.516833	1723.957031	-92.573143
2811.223032	17362.516833	1722.941406	-93.925232
2811.223032	17362.516833	1721.924805	15.088875
2811.223032	17362.516833	1720.909180	-0.715689
2811.223032	17362.516833	1719.892578	220.772461
2811.223032	17362.516833	1718.875977	68.262756
2811.223032	17362.516833	1717.858398	127.155670
2811.223032	17362.516833	1716.841797	-157.178696
2811.223032	17362.516833	1715.824219	-100.928871
2811.223032	17362.516833	1714.806641	138.355499
2811.223032	17362.516833	1713.789063	74.450974
2811.223032	17362.516833	1712.770508	47.967350
2811.223032	17362.516833	1711.752930	37.791897
2811.223032	17362.516833	1710.734375	215.216232
2811.223032	17362.516833	1709.715820	312.638794
2811.223032	17362.516833	1708.697266	172.913391
2811.223032	17362.516833	1707.678711	37.786404
2811.223032	17362.516833	1706.659180	78.441177
2811.223032	17362.516833	1705.640625	-115.528198
2811.223032	17362.516833	1704.621094	-0.129437
2811.223032	17362.516833	1703.600586	-142.763916
2811.223032	17362.516833	1702.581055	-18.314257
2811.223032	17362.516833	1701.561523	-8.859951
2811.223032	17362.516833	1700.541016	-15.963415
2811.223032	17362.516833	1699.520508	-44.280354
2811.223032	17362.516833	1698.500000	107.584244
2811.223032	17362.516833	1697.478516	-12.341537
2811.223032	17362.516833	1696.458008	-29.343966
2811.223032	17362.516833	1695.436523	-114.358627
2811.223032	17362.516833	1694.415039	-16.962400
2811.223032	17362.516833	1693.393555	176.182190
2811.223032	17362.516833	1692.372070	74.417526
2811.223032	17362.516833	1691.349609	283.567017
2811.223032	17362.516833	1690.327148	209.607025
2811.223032	17362.516833	1689.304688	105.164192
2811.223032	17362.516833	1688.282227	-141.927856
2811.223032	17362.516833	1687.259766	120.357918
2811.223032	17362.516833	1686.236328	225.874725
2811.223032	17362.516833	1685.213867	284.537170
2811.223032	17362.516833	1684.190430	343.043182
2811.223032	17362.516833	1683.166016	195.920486
2811.223032	17362.516833	1682.142578	450.288483
2811.223032	17362.516833	1681.119141	347.344940
2811.223032	17362.516833	1680.094727	335.320526
2811.223032	17362.516833	1679.070313	131.879501
2811.223032	17362.516833	1678.045898	406.605652
2811.223032	17362.516833	1677.020508	424.558472
2811.223032	17362.516833	1675.996094	533.361511
2811.223032	17362.516833	1674.970703	681.634888
2811.223032	17362.516833	1673.945313	347.263031
2811.223032	17362.516833	1672.919922	632.812317
2811.223032	17362.516833	1671.893555	873.867188
2811.223032	17362.516833	1670.868164	658.171265
2811.223032	17362.516833	1669.841797	770.843933
2811.223032	17362.516833	1668.815430	846.124634
2811.223032	17362.516833	1667.789063	860.757324
2811.223032	17362.516833	1666.761719	845.015869
2811.223032	17362.516833	1665.735352	801.289978
2811.223032	17362.516833	1664.708008	1032.042114
2811.223032	17362.516833	1663.680664	829.918457
2811.223032	17362.516833	1662.653320	1041.808594
2811.223032	17362.516833	1661.625000	1111.664673
2811.223032	17362.516833	1660.597656	1023.339111
2811.223032	17362.516833	1659.569336	1132.540894
2811.223032	17362.516833	1658.541016	797.722046
2811.223032	17362.516833	1657.512695	1122.885620
2811.223032	17362.516833	1656.483398	1099.351685
2811.223032	17362.516833	1655.455078	755.238831
2811.223032	17362.516833	1654.425781	833.837524
2811.223032	17362.516833	1653.396484	726.594421
2811.223032	17362.516833	1652.366211	800.382019
2811.223032	17362.516833	1651.336914	920.523743
2811.223032	17362.516833	1650.306641	982.529175
2811.223032	17362.516833	1649.276367	863.489868
2811.223032	17362.516833	1648.246094	1090.069824
2811.223032	17362.516833	1647.215820	894.421509
2811.223032	17362.516833	1646.185547	960.817383
2811.223032	17362.516833	1645.154297	948.297913
2811.223032	17362.516833	1644.123047	1206.926270
2811.223032	17362.516833	1643.091797	1032.060913
2811.223032	17362.516833	1642.060547	1005.507813
2811.223032	17362.516833	1641.028320	1050.715088
2811.223032	17362.516833	1639.997070	1179.269775
2811.223032	17362.516833	1638.964844	1583.272583
2811.223032	17362.516833	1637.931641	1431.430664
2811.223032	17362.516833	1636.899414	1256.494141
2811.223032	17362.516833	1635.867188	1363.935547
2811.223032	17362.516833	1634.833984	1781.334229
2811.223032	17362.516833	1633.800781	1668.791870
2811.223032	17362.516833	1632.767578	1850.009766
2811.223032	17362.516833	1631.734375	1746.706787
2811.223032	17362.516833	1630.700195	2064.186523
2811.223032	17362.516833	1629.666016	1967.761841
2811.223032	17362.516833	1628.631836	1866.736450
2811.223032	17362.516833	1627.597656	2156.241455
2811.223032	17362.516833	1626.563477	2253.876221
2811.223032	17362.516833	1625.528320	2254.435303
2811.223032	17362.516833	1624.493164	2509.011230
2811.223032	17362.516833	1623.458008	2357.125732
2811.223032	17362.516833	1622.422852	2516.935059
2811.223032	17362.516833	1621.387695	2565.898438
2811.223032	17362.516833	1620.351563	2607.903564
2811.223032	17362.516833	1619.315430	2709.879395
2811.223032	17362.516833	1618.279297	2855.648193
2811.223032	17362.516833	1617.243164	2752.303955
2811.223032	17362.516833	1616.207031	2494.528076
2811.223032	17362.516833	1615.169922	2730.171875
2811.223032	17362.516833	1614.132813	2885.069824
2811.223032	17362.516833	1613.095703	2878.618652
2811.223032	17362.516833	1612.058594	2888.316650
2811.223032	17362.516833	1611.020508	2789.747070
2811.223032	17362.516833	1609.983398	2942.290283
2811.223032	17362.516833	1608.945313	3097.081543
2811.223032	17362.516833	1607.907227	3159.754639
2811.223032	17362.516833	1606.868164	3031.371582
2811.223032	17362.516833	1605.830078	3174.636719
2811.223032	17362.516833	1604.791016	3209.720947
2811.223032	17362.516833	1603.751953	3166.616699
2811.223032	17362.516833	1602.712891	3316.756104
2811.223032	17362.516833	1601.673828	3487.572510
2811.223032	17362.516833	1600.633789	3600.866455
2811.223032	17362.516833	1599.594727	3259.072266
2811.223032	17362.516833	1598.554688	3475.870850
2811.223032	17362.516833	1597.513672	3308.903320
2811.223032	17362.516833	1596.473633	3594.620850
2811.223032	17362.516833	1595.433594	3393.367432
2811.223032	17362.516833	1594.392578	3607.855469
2811.223032	17362.516833	1593.351563	3266.719971
2811.223032	17362.516833	1592.310547	3228.767578
2811.223032	17362.516833	1591.268555	3397.414551
2811.223032	17362.516833	1590.227539	3274.676025
2811.223032	17362.516833	1589.185547	2578.515381
2811.223032	17362.516833	1588.143555	2949.217285
2811.223032	17362.516833	1587.100586	2877.241455
2811.223032	17362.516833	1586.058594	2674.701660
2811.223032	17362.516833	1585.015625	2919.279053
2811.223032	17362.516833	1583.972656	2668.804932
2811.223032	17362.516833	1582.929688	2583.480225
2811.223032	17362.516833	1581.886719	2686.121338
2811.223032	17362.516833	1580.843750	2701.763184
2811.223032	17362.516833	1579.799805	2673.949463
2811.223032	17362.516833	1578.755859	2540.907959
2811.223032	17362.516833	1577.711914	2499.568359
2811.223032	17362.516833	1576.666992	2616.228027
2811.223032	17362.516833	1575.623047	2659.728760
2811.223032	17362.516833	1574.578125	2893.166016
2811.223032	17362.516833	1573.533203	2671.425781
2811.223032	17362.516833	1572.488281	2459.015137
2811.223032	17362.516833	1571.443359	2701.779541
2811.223032	17362.516833	1570.397461	2249.590088
2811.223032	17362.516833	1569.351563	2389.630127
2811.223032	17362.516833	1568.305664	2349.192383
2811.223032	17362.516833	1567.259766	2329.435059
2811.223032	17362.516833	1566.213867	2138.476563
2811.223032	17362.516833	1565.166992	2130.377930
2811.223032	17362.516833	1564.120117	2268.520996
2811.223032	17362.516833	1563.073242	2114.513428
2811.223032	17362.516833	1562.026367	2316.733398
2811.223032	17362.516833	1560.978516	1982.708740
2811.223032	17362.516833	1559.930664	2390.417236
2811.223032	17362.516833	1558.883789	2373.823730
2811.223032	17362.516833	1557.834961	2295.742188
2811.223032	17362.516833	1556.787109	2135.742920
2811.223032	17362.516833	1555.739258	2390.834229
2811.223032	17362.516833	1554.690430	2331.392334
2811.223032	17362.516833	1553.641602	2224.241699
2811.223032	17362.516833	1552.592773	2210.672852
2811.223032	17362.516833	1551.542969	2192.661865
2811.223032	17362.516833	1550.494141	2190.747559
2811.223032	17362.516833	1549.444336	2218.546387
2811.223032	17362.516833	1548.394531	2444.528809
2811.223032	17362.516833	1547.344727	2281.338623
2811.223032	17362.516833	1546.293945	2332.243408
2811.223032	17362.516833	1545.244141	2469.741943
2811.223032	17362.516833	1544.193359	2413.949707
2811.223032	17362.516833	1543.142578	2349.221191
2811.223032	17362.516833	1542.090820	2614.354004
2811.223032	17362.516833	1541.040039	2286.177002
2811.223032	17362.516833	1539.988281	2169.643311
2811.223032	17362.516833	1538.936523	2196.469727
2811.223032	17362.516833	1537.884766	1907.612671
2811.223032	17362.516833	1536.833008	1932.503174
2811.223032	17362.516833	1535.780273	1753.109375
2811.223032	17362.516833	1534.727539	1726.077026
2811.223032	17362.516833	1533.674805	1721.909424
2811.223032	17362.516833	1532.622070	1524.959229
2811.223032	17362.516833	1531.569336	1559.719849
2811.223032	17362.516833	1530.515625	1585.533081
2811.223032	17362.516833	1529.461914	1432.280518
2811.223032	17362.516833	1528.408203	1397.183838
2811.223032	17362.516833	1527.354492	1507.388672
2811.223032	17362.516833	1526.299805	1164.264771
2811.223032	17362.516833	1525.246094	1460.663940
2811.223032	17362.516833	1524.191406	1077.217285
2811.223032	17362.516833	1523.136719	1038.488892
2811.223032	17362.516833	1522.081055	1024.845093
2811.223032	17362.516833	1521.026367	1047.626587
2811.223032	17362.516833	1519.970703	1115.842529
2811.223032	17362.516833	1518.915039	1177.407959
2811.223032	17362.516833	1517.859375	1211.956543
2811.223032	17362.516833	1516.802734	1002.230469
2811.223032	17362.516833	1515.747070	871.967102
2811.223032	17362.516833	1514.690430	787.159668
2811.223032	17362.516833	1513.633789	779.458496
2811.223032	17362.516833	1512.577148	823.948425
2811.223032	17362.516833	1511.519531	909.278564
2811.223032	17362.516833	1510.461914	972.147461
2811.223032	17362.516833	1509.405273	858.901428
2811.223032	17362.516833	1508.346680	806.864197
2811.223032	17362.516833	1507.289063	980.947876
2811.223032	17362.516833	1506.231445	766.655518
2811.223032	17362.516833	1505.172852	640.687927
2811.223032	17362.516833	1504.114258	677.510071
2811.223032	17362.516833	1503.055664	827.366821
2811.223032	17362.516833	1501.996094	776.476990
2811.223032	17362.516833	1500.937500	558.828918
2811.223032	17362.516833	1499.877930	506.125427
2811.223032	17362.516833	1498.818359	340.855957
2811.223032	17362.516833	1497.757813	281.814240
2811.223032	17362.516833	1496.698242	313.180359
2811.223032	17362.516833	1495.637695	146.346054
2811.223032	17362.516833	1494.577148	367.405457
2811.223032	17362.516833	1493.516602	-4.041299
2811.223032	17362.516833	1492.456055	-34.976139
2811.223032	17362.516833	1491.394531	-31.928560
2811.223032	17362.516833	1490.333008	115.431099
2811.223032	17362.516833	1489.271484	170.615005
2811.223032	17362.516833	1488.209961	135.928268
2811.223032	17362.516833	1487.148438	-119.107170
2811.223032	17362.516833	1486.085938	-45.336437
2811.223032	17362.516833	1485.023438	-74.885933
2811.223032	17362.516833	1483.960938	-205.444763
2811.223032	17362.516833	1482.898438	-108.625854
2811.223032	17362.516833	1481.834961	-0.414258
2811.223032	17362.516833	1480.772461	200.112442
2811.223032	17362.516833	1479.708984	92.882393
2811.223032	17362.516833	1478.644531	51.009716
2811.223032	17362.516833	1477.581055	337.362915
2811.223032	17362.516833	1476.517578	289.148651
2811.223032	17362.516833	1475.453125	454.439484
2811.223032	17362.516833	1474.388672	103.585487
2811.223032	17362.516833	1473.323242	390.341248
2811.223032	17362.516833	1472.258789	338.538147
2811.223032	17362.516833	1471.193359	522.361145
2811.223032	17362.516833	1470.127930	719.856628
2811.223032	17362.516833	1469.062500	361.302185
2811.223032	17362.516833	1467.997070	507.752502
2811.223032	17362.516833	1466.930664	591.152649
2811.223032	17362.516833	1465.865234	795.982117
2811.223032	17362.516833	1464.798828	492.402435
2811.223032	17362.516833	1463.731445	706.162354
2811.223032	17362.516833	1462.665039	651.657959
2811.223032	17362.516833	1461.597656	517.161499
2811.223032	17362.516833	1460.530273	731.313232
2811.223032	17362.516833	1459.462891	802.812378
2811.223032	17362.516833	1458.395508	568.258484
2811.223032	17362.516833	1457.327148	635.859741
2811.223032	17362.516833	1456.259766	664.373413
2811.223032	17362.516833	1455.191406	748.812012
2811.223032	17362.516833	1454.123047	711.129028
2811.223032	17362.516833	1453.053711	772.019836
2811.223032	17362.516833	1451.985352	872.281006
2811.223032	17362.516833	1450.916016	810.123779
2811.223032	17362.516833	1449.846680	792.743103
2811.223032	17362.516833	1448.776367	840.434570
2811.223032	17362.516833	1447.707031	861.891602
2811.223032	17362.516833	1446.636719	979.957764
2811.223032	17362.516833	1445.566406	934.329102
2811.223032	17362.516833	1444.496094	840.325684
2811.223032	17362.516833	1443.425781	593.982239
2811.223032	17362.516833	1442.354492	732.070129
2811.223032	17362.516833	1441.283203	507.384094
2811.223032	17362.516833	1440.211914	489.627014
2811.223032	17362.516833	1439.140625	450.448853
2811.223032	17362.516833	1438.069336	598.198792
2811.223032	17362.516833	1436.997070	384.027832
2811.223032	17362.516833	1435.924805	291.624359
2811.223032	17362.516833	1434.852539	447.181305
2811.223032	17362.516833	1433.780273	405.373993
2811.223032	17362.516833	1432.707031	269.094238
2811.223032	17362.516833	1431.633789	235.142944
2811.223032	17362.516833	1430.560547	287.421967
2811.223032	17362.516833	1429.487305	70.530411
2811.223032	17362.516833	1428.413086	142.782608
2811.223032	17362.516833	1427.339844	18.868698
2811.223032	17362.516833	1426.265625	208.976685
2811.223032	17362.516833	1425.191406	262.646545
2811.223032	17362.516833	1424.116211	311.290955
2811.223032	17362.516833	1423.041992	168.635651
2811.223032	17362.516833	1421.966797	254.403214
2811.223032	17362.516833	1420.891602	469.500031
2811.223032	17362.516833	1419.816406	291.525055
2811.223032	17362.516833	1418.740234	498.592957
2811.223032	17362.516833	1417.665039	415.722504
2811.223032	17362.516833	1416.588867	561.139954
2811.223032	17362.516833	1415.512695	733.983154
2811.223032	17362.516833	1414.435547	483.291260
2811.223032	17362.516833	1413.359375	647.960449
2811.223032	17362.516833	1412.282227	388.612946
2811.223032	17362.516833	1411.205078	484.329102
2811.223032	17362.516833	1410.127930	647.272217
2811.223032	17362.516833	1409.049805	674.066162
2811.223032	17362.516833	1407.972656	579.406250
2811.223032	17362.516833	1406.894531	818.800964
2811.223032	17362.516833	1405.816406	690.868896
2811.223032	17362.516833	1404.737305	762.425903
2811.223032	17362.516833	1403.659180	909.001892
2811.223032	17362.516833	1402.580078	845.663208
2811.223032	17362.516833	1401.500977	675.201660
2811.223032	17362.516833	1400.421875	908.905212
2811.223032	17362.516833	1399.341797	1033.082886
2811.223032	17362.516833	1398.262695	1194.194336
2811.223032	17362.516833	1397.182617	980.668945
2811.223032	17362.516833	1396.102539	1017.690125
2811.223032	17362.516833	1395.021484	1113.778198
2811.223032	17362.516833	1393.941406	1070.717651
2811.223032	17362.516833	1392.860352	979.700989
2811.223032	17362.516833	1391.779297	873.801331
2811.223032	17362.516833	1390.698242	1175.287354
2811.223032	17362.516833	1389.616211	911.496460
2811.223032	17362.516833	1388.535156	1055.772217
2811.223032	17362.516833	1387.453125	1093.677490
2811.223032	17362.516833	1386.371094	1298.944946
2811.223032	17362.516833	1385.288086	1246.676270
2811.223032	17362.516833	1384.206055	1175.045898
2811.223032	17362.516833	1383.123047	1149.943848
2811.223032	17362.516833	1382.040039	1184.041870
2811.223032	17362.516833	1380.957031	1111.740967
2811.223032	17362.516833	1379.873047	1281.010742
2811.223032	17362.516833	1378.789063	1174.114136
2811.223032	17362.516833	1377.705078	1049.450317
2811.223032	17362.516833	1376.621094	1131.137207
2811.223032	17362.516833	1375.537109	1308.064209
2811.223032	17362.516833	1374.452148	1290.692017
2811.223032	17362.516833	1373.367188	1319.229858
2811.223032	17362.516833	1372.282227	1302.906982
2811.223032	17362.516833	1371.197266	1141.243652
2811.223032	17362.516833	1370.112305	1004.117432
2811.223032	17362.516833	1369.026367	1236.950684
2811.223032	17362.516833	1367.940430	935.397034
2811.223032	17362.516833	1366.854492	914.986572
2811.223032	17362.516833	1365.767578	1038.376221
2811.223032	17362.516833	1364.681641	1131.078613
2811.223032	17362.516833	1363.594727	1152.901001
2811.223032	17362.516833	1362.507813	1084.996582
2811.223032	17362.516833	1361.419922	1106.391846
2811.223032	17362.516833	1360.333008	1160.633545
2811.223032	17362.516833	1359.245117	1111.537720
2811.223032	17362.516833	1358.157227	1280.538330
2811.223032	17362.516833	1357.069336	1087.108643
2811.223032	17362.516833	1355.981445	947.669067
2811.223032	17362.516833	1354.892578	1119.436401
2811.223032	17362.516833	1353.803711	1132.418091
2811.223032	17362.516833	1352.714844	1327.423462
2811.223032	17362.516833	1351.625000	1425.112671
2811.223032	17362.516833	1350.536133	1121.551758
2811.223032	17362.516833	1349.446289	1383.084351
2811.223032	17362.516833	1348.356445	1293.071045
2811.223032	17362.516833	1347.266602	1194.150757
2811.223032	17362.516833	1346.175781	1353.814697
2811.223032	17362.516833	1345.085938	1290.930420
2811.223032	17362.516833	1343.995117	1515.117920
2811.223032	17362.516833	1342.903320	1184.397583
2811.223032	17362.516833	1341.812500	1520.273193
2811.223032	17362.516833	1340.720703	1631.093994
2811.223032	17362.516833	1339.629883	1599.495972
2811.223032	17362.516833	1338.538086	1811.709473
2811.223032	17362.516833	1337.445313	1756.659424
2811.223032	17362.516833	1336.353516	1816.090454
2811.223032	17362.516833	1335.260742	1859.895752
2811.223032	17362.516833	1334.167969	1899.520264
2811.223032	17362.516833	1333.075195	1803.400024
2811.223032	17362.516833	1331.981445	1864.394409
2811.223032	17362.516833	1330.888672	1631.858643
2811.223032	17362.516833	1329.794922	1950.481567
2811.223032	17362.516833	1328.701172	1616.155029
2811.223032	17362.516833	1327.606445	1881.637207
2811.223032	17362.516833	1326.512695	1593.458130
2811.223032	17362.516833	1325.417969	1728.598511
2811.223032	17362.516833	1324.323242	1909.989014
2811.223032	17362.516833	1323.227539	1680.038208
2811.223032	17362.516833	1322.132813	1615.340088
2811.223032	17362.516833	1321.037109	1588.227783
2811.223032	17362.516833	1319.941406	1692.285522
2811.223032	17362.516833	1318.845703	1612.560547
2811.223032	17362.516833	1317.750000	1479.551514
2811.223032	17362.516833	1316.653320	1479.812256
2811.223032	17362.516833	1315.556641	1452.555664
2811.223032	17362.516833	1314.459961	1284.567383
2811.223032	17362.516833	1313.363281	1193.459229
2811.223032	17362.516833	1312.265625	1434.605591
2811.223032	17362.516833	1311.167969	1404.039429
2811.223032	17362.516833	1310.070313	1143.966309
2811.223032	17362.516833	1308.972656	1452.009644
2811.223032	17362.516833	1307.874023	1403.225952
2811.223032	17362.516833	1306.776367	1350.757690
2811.223032	17362.516833	1305.677734	1349.285767
2811.223032	17362.516833	1304.579102	1188.977417
2811.223032	17362.516833	1303.479492	1457.908691
2811.223032	17362.516833	1302.380859	1604.768555
2811.223032	17362.516833	1301.281250	1451.054688
2811.223032	17362.516833	1300.181641	1484.313110
2811.223032	17362.516833	1299.081055	1452.750854
2811.223032	17362.516833	1297.981445	1361.132813
2811.223032	17362.516833	1296.880859	1214.859253
2811.223032	17362.516833	1295.780273	1192.290405
2811.223032	17362.516833	1294.679688	1081.741089
2811.223032	17362.516833	1293.578125	1125.967896
2811.223032	17362.516833	1292.476563	1174.439819
2811.223032	17362.516833	1291.375000	1121.495483
2811.223032	17362.516833	1290.273438	1060.061035
2811.223032	17362.516833	1289.171875	885.558960
2811.223032	17362.516833	1288.069336	1029.228271
2811.223032	17362.516833	1286.966797	792.239075
2811.223032	17362.516833	1285.864258	843.437683
2811.223032	17362.516833	1284.761719	717.949524
2811.223032	17362.516833	1283.658203	626.107727
2811.223032	17362.516833	1282.554688	750.624268
2811.223032	17362.516833	1281.451172	719.638306
2811.223032	17362.516833	1280.347656	652.329041
2811.223032	17362.516833	1279.244141	792.024231
2811.223032	17362.516833	1278.139648	412.088226
2811.223032	17362.516833	1277.035156	739.693909
2811.223032	17362.516833	1275.930664	735.779236
2811.223032	17362.516833	1274.825195	668.380737
2811.223032	17362.516833	1273.720703	484.701447
2811.223032	17362.516833	1272.615234	537.510193
2811.223032	17362.516833	1271.508789	627.654114
2811.223032	17362.516833	1270.403320	766.009216
2811.223032	17362.516833	1269.297852	911.605164
2811.223032	17362.516833	1268.191406	656.307617
2811.223032	17362.516833	1267.084961	641.616333
2811.223032	17362.516833	1265.977539	632.237854
2811.223032	17362.516833	1264.871094	733.499023
2811.223032	17362.516833	1263.763672	756.620117
2811.223032	17362.516833	1262.656250	871.718018
2811.223032	17362.516833	1261.548828	770.157471
2811.223032	17362.516833	1260.440430	899.111023
2811.223032	17362.516833	1259.333008	979.481567
2811.223032	17362.516833	1258.224609	985.336243
2811.223032	17362.516833	1257.115234	1146.757690
2811.223032	17362.516833	1256.006836	1329.456299
2811.223032	17362.516833	1254.897461	1251.900757
2811.223032	17362.516833	1253.788086	1162.140259
2811.223032	17362.516833	1252.678711	1035.664917
2811.223032	17362.516833	1251.569336	1035.411743
2811.223032	17362.516833	1250.458984	1093.586670
2811.223032	17362.516833	1249.349609	862.157898
2811.223032	17362.516833	1248.239258	948.718018
2811.223032	17362.516833	1247.127930	743.495361
2811.223032	17362.516833	1246.017578	933.067444
2811.223032	17362.516833	1244.906250	738.126587
2811.223032	17362.516833	1243.794922	775.214478
2811.223032	17362.516833	1242.683594	636.808289
2811.223032	17362.516833	1241.571289	446.458649
2811.223032	17362.516833	1240.459961	313.923889
2811.223032	17362.516833	1239.347656	413.802582
2811.223032	17362.516833	1238.234375	239.527069
2811.223032	17362.516833	1237.122070	124.698540
2811.223032	17362.516833	1236.008789	212.514130
2811.223032	17362.516833	1234.896484	230.795822
2811.223032	17362.516833	1233.782227	34.809044
2811.223032	17362.516833	1232.668945	148.110229
2811.223032	17362.516833	1231.555664	54.210884
2811.223032	17362.516833	1230.441406	86.257271
2811.223032	17362.516833	1229.327148	171.835159
2811.223032	17362.516833	1228.211914	64.338814
2811.223032	17362.516833	1227.097656	267.149109
2811.223032	17362.516833	1225.982422	143.535187
2811.223032	17362.516833	1224.867188	16.368114
2811.223032	17362.516833	1223.751953	45.246384
2811.223032	17362.516833	1222.635742	206.435287
2811.223032	17362.516833	1221.520508	108.165550
2811.223032	17362.516833	1220.404297	70.390747
2811.223032	17362.516833	1219.287109	-122.493805
2811.223032	17362.516833	1218.170898	190.131485
2811.223032	17362.516833	1217.053711	-25.179365
2811.223032	17362.516833	1215.936523	102.638298
2811.223032	17362.516833	1214.819336	-49.144104
2811.223032	17362.516833	1213.702148	-54.085213
2811.223032	17362.516833	1212.583984	-14.310536
2811.223032	17362.516833	1211.465820	191.924423
2811.223032	17362.516833	1210.347656	71.979042
2811.223032	17362.516833	1209.229492	62.855225
2811.223032	17362.516833	1208.110352	42.862934
2811.223032	17362.516833	1206.992188	135.598068
2811.223032	17362.516833	1205.873047	14.847483
2811.223032	17362.516833	1204.752930	-28.992420
2811.223032	17362.516833	1203.633789	-109.063774
2811.223032	17362.516833	1202.513672	-7.251781
2811.223032	17362.516833	1201.393555	-33.694351
2811.223032	17362.516833	1200.273438	-9.106259
2811.223032	17362.516833	1199.152344	-209.878967
2811.223032	17362.516833	1198.032227	-81.255722
2811.223032	17362.516833	1196.911133	-143.227554
2811.223032	17362.516833	1195.790039	-185.673309
2811.223032	17362.516833	1194.667969	-88.399658
2811.223032	17362.516833	1193.545898	-53.337078
2811.223032	17362.516833	1192.424805	21.635866
2811.223032	17362.516833	1191.301758	21.952276
2811.223032	17362.516833	1190.179688	-143.209305
2811.223032	17362.516833	1189.056641	-7.969400
2811.223032	17362.516833	1187.933594	16.761305
2811.223032	17362.516833	1186.810547	-71.179108
2811.223032	17362.516833	1185.687500	53.191021
2811.223032	17362.516833	1184.563477	103.350822
2811.223032	17362.516833	1183.440430	64.089699
2811.223032	17362.516833	1182.316406	68.793419
2811.223032	17362.516833	1181.191406	36.661293
2811.223032	17362.516833	1180.067383	-16.126314
2811.223032	17362.516833	1178.942383	144.647141
2811.223032	17362.516833	1177.817383	1.352771
2811.223032	17362.516833	1176.692383	120.098305
2811.223032	17362.516833	1175.566406	-39.112083
2811.223032	17362.516833	1174.440430	-7.569177
2811.223032	17362.516833	1173.314453	67.955864
2811.223032	17362.516833	1172.188477	245.816895
2811.223032	17362.516833	1171.062500	413.847290
2811.223032	17362.516833	1169.935547	305.588074
2811.223032	17362.516833	1168.808594	316.075958
2811.223032	17362.516833	1167.681641	368.795715
2811.223032	17362.516833	1166.553711	435.848785
2811.223032	17362.516833	1165.426758	287.129089
2811.223032	17362.516833	1164.298828	359.620392
2811.223032	17362.516833	1163.170898	254.743515
2811.223032	17362.516833	1162.041992	216.600677
2811.223032	17362.516833	1160.914063	218.679138
2811.223032	17362.516833	1159.785156	385.759033
2811.223032	17362.516833	1158.656250	317.614044
2811.223032	17362.516833	1157.526367	184.140152
2811.223032	17362.516833	1156.397461	200.907166
2811.223032	17362.516833	1155.267578	200.620544
2811.223032	17362.516833	1154.137695	192.640213
2811.223032	17362.516833	1153.006836	182.479095
2811.223032	17362.516833	1151.876953	122.484962
2811.223032	17362.516833	1150.746094	114.875450
2811.223032	17362.516833	1149.615234	-66.044861
2811.223032	17362.516833	1148.484375	28.584961
2811.223032	17362.516833	1147.352539	147.271698
2811.223032	17362.516833	1146.220703	78.378746
2811.223032	17362.516833	1145.088867	-43.869656
2811.223032	17362.516833	1143.957031	-49.291237
2811.223032	17362.516833	1142.825195	-148.978149
2811.223032	17362.516833	1141.692383	-314.767639
2811.223032	17362.516833	1140.559570	-335.461945
2811.223032	17362.516833	1139.426758	-305.996918
2811.223032	17362.516833	1138.292969	-281.866211
2811.223032	17362.516833	1137.159180	-361.122803
2811.223032	17362.516833	1136.025391	-243.674194
2811.223032	17362.516833	1134.891602	-165.126129
2811.223032	17362.516833	1133.757813	-99.768906
2811.223032	17362.516833	1132.623047	-297.875793
2811.223032	17362.516833	1131.488281	-186.387054
2811.223032	17362.516833	1130.353516	-82.566544
2811.223032	17362.516833	1129.217773	-39.545193
2811.223032	17362.516833	1128.083008	34.641224
2811.223032	17362.516833	1126.947266	23.054321
2811.223032	17362.516833	1125.811523	-103.690056
2811.223032	17362.516833	1124.674805	-137.936920
2811.223032	17362.516833	1123.539063	13.391845
2811.223032	17362.516833	1122.402344	-83.414169
2811.223032	17362.516833	1121.265625	-6.014171
2811.223032	17362.516833	1120.127930	60.489738
2811.223032	17362.516833	1118.990234	13.314495
2811.223032	17362.516833	1117.853516	82.509377
2811.223032	17362.516833	1116.714844	281.375336
2811.223032	17362.516833	1115.577148	88.583908
2811.223032	17362.516833	1114.439453	59.103176
2811.223032	17362.516833	1113.300781	170.161713
2811.223032	17362.516833	1112.162109	59.475029
2811.223032	17362.516833	1111.022461	199.420959
2811.223032	17362.516833	1109.883789	21.539492
2811.223032	17362.516833	1108.744141	206.516006
2811.223032	17362.516833	1107.604492	149.467728
2811.223032	17362.516833	1106.463867	309.875732
2811.223032	17362.516833	1105.324219	266.094116
2811.223032	17362.516833	1104.183594	247.771591
2811.223032	17362.516833	1103.042969	81.222969
2811.223032	17362.516833	1101.902344	374.613281
2811.223032	17362.516833	1100.760742	332.368652
2811.223032	17362.516833	1099.619141	294.784607
2811.223032	17362.516833	1098.477539	265.572113
2811.223032	17362.516833	1097.335938	431.767395
2811.223032	17362.516833	1096.193359	205.522827
2811.223032	17362.516833	1095.051758	356.566986
2811.223032	17362.516833	1093.909180	251.139145
2811.223032	17362.516833	1092.765625	249.648300
2811.223032	17362.516833	1091.623047	273.763977
2811.223032	17362.516833	1090.479492	247.741547
2811.223032	17362.516833	1089.335938	149.072617
2811.223032	17362.516833	1088.192383	241.735855
2811.223032	17362.516833	1087.047852	137.882126
2811.223032	17362.516833	1085.903320	194.759155
2811.223032	17362.516833	1084.758789	355.847534
2811.223032	17362.516833	1083.614258	330.513702
2811.223032	17362.516833	1082.469727	283.695282
2811.223032	17362.516833	1081.324219	321.416901
2811.223032	17362.516833	1080.178711	493.936432
2811.223032	17362.516833	1079.033203	398.777466
2811.223032	17362.516833	1077.886719	415.337524
2811.223032	17362.516833	1076.740234	460.254547
2811.223032	17362.516833	1075.593750	417.743622
2811.223032	17362.516833	1074.447266	488.389923
2811.223032	17362.516833	1073.300781	490.073608
2811.223032	17362.516833	1072.153320	351.243561
2811.223032	17362.516833	1071.005859	233.005920
2811.223032	17362.516833	1069.858398	246.875610
2811.223032	17362.516833	1068.709961	196.779831
2811.223032	17362.516833	1067.561523	38.939243
2811.223032	17362.516833	1066.413086	176.496719
2811.223032	17362.516833	1065.264648	219.244537
2811.223032	17362.516833	1064.116211	28.408585
2811.223032	17362.516833	1062.966797	141.833710
2811.223032	17362.516833	1061.817383	140.513428
2811.223032	17362.516833	1060.667969	115.821091
2811.223032	17362.516833	1059.517578	125.054504
2811.223032	17362.516833	1058.368164	83.449066
2811.223032	17362.516833	1057.217773	147.729858
2811.223032	17362.516833	1056.067383	57.389793
2811.223032	17362.516833	1054.916016	-1.544095
2811.223032	17362.516833	1053.764648	20.779655
2811.223032	17362.516833	1052.613281	52.128983
2811.223032	17362.516833	1051.461914	-44.991844
2811.223032	17362.516833	1050.310547	-83.858826
2811.223032	17362.516833	1049.158203	-166.035080
2811.223032	17362.516833	1048.005859	-127.019363
2811.223032	17362.516833	1046.853516	44.228741
2811.223032	17362.516833	1045.700195	-0.372625
2811.223032	17362.516833	1044.547852	32.203678
2811.223032	17362.516833	1043.394531	51.746609
2811.223032	17362.516833	1042.240234	84.593277
2811.223032	17362.516833	1041.086914	33.926514
2811.223032	17362.516833	1039.932617	61.828835
2811.223032	17362.516833	1038.778320	-91.124702
2811.223032	17362.516833	1037.624023	172.697174
2811.223032	17362.516833	1036.469727	215.721649
2811.223032	17362.516833	1035.314453	71.823372
2811.223032	17362.516833	1034.159180	-0.157708
2811.223032	17362.516833	1033.003906	-0.373489
2811.223032	17362.516833	1031.847656	80.977242
2811.223032	17362.516833	1030.692383	146.718124
2811.223032	17362.516833	1029.536133	37.824139
2811.223032	17362.516833	1028.378906	145.919571
2811.223032	17362.516833	1027.222656	55.445641
2811.223032	17362.516833	1026.065430	179.815430
2811.223032	17362.516833	1024.908203	179.304993
2811.223032	17362.516833	1023.750977	0.775128
2811.223032	17362.516833	1022.593750	-38.057865
2811.223032	17362.516833	1021.435547	-55.370831
2811.223032	17362.516833	1020.277344	-21.657011
2811.223032	17362.516833	1019.119141	-0.227457
2811.223032	17362.516833	1017.959961	100.534775
2811.223032	17362.516833	1016.800781	-135.186615
2811.223032	17362.516833	1015.641602	148.203568
2811.223032	17362.516833	1014.482422	-132.047119
2811.223032	17362.516833	1013.323242	35.874310
2811.223032	17362.516833	1012.163086	-49.782669
2811.223032	17362.516833	1011.002930	-190.608475
2811.223032	17362.516833	1009.842773	-3.935648
2811.223032	17362.516833	1008.681641	4.419727
2811.223032	17362.516833	1007.520508	17.924028
2811.223032	17362.516833	1006.359375	-204.949600
2811.223032	17362.516833	1005.198242	-28.262190
2811.223032	17362.516833	1004.037109	28.336357
2811.223032	17362.516833	1002.875000	223.710342
2811.223032	17362.516833	1001.712891	325.390869
2811.223032	17362.516833	1000.550781	314.580566
2811.223032	17362.516833	999.387695	206.949280
2811.223032	17362.516833	998.224609	147.390549
2811.223032	17362.516833	997.061523	58.655853
2811.223032	17362.516833	995.898438	-43.865646
2811.223032	17362.516833	994.734375	-4.332461
2811.223032	17362.516833	993.571289	110.252571
2811.223032	17362.516833	992.407227	211.471298
2811.223032	17362.516833	991.242188	126.360184
2811.223032	17362.516833	990.078125	245.319031
2811.223032	17362.516833	988.913086	23.533901
2811.223032	17362.516833	987.748047	125.044296
2811.223032	17362.516833	986.583008	331.705200
2811.223032	17362.516833	985.416992	97.302055
2811.223032	17362.516833	984.250977	132.101074
2811.223032	17362.516833	983.084961	344.380096
2811.223032	17362.516833	981.918945	292.799713
2811.223032	17362.516833	980.751953	232.004623
2811.223032	17362.516833	979.584961	39.168396
2811.223032	17362.516833	978.417969	37.533714
2811.223032	17362.516833	977.250977	191.902802
2811.223032	17362.516833	976.083008	147.353699
2811.223032	17362.516833	974.915039	150.081680
2811.223032	17362.516833	973.747070	228.592117
2811.223032	17362.516833	972.579102	125.313171
2811.223032	17362.516833	971.410156	178.842255
2811.223032	17362.516833	970.242188	210.906815
2811.223032	17362.516833	969.072266	214.162247
2811.223032	17362.516833	967.903320	199.077118
2811.223032	17362.516833	966.733398	304.520325
2811.223032	17362.516833	965.563477	131.211899
2811.223032	17362.516833	964.393555	66.356377
2811.223032	17362.516833	963.223633	332.823334
2811.223032	17362.516833	962.052734	283.318207
2811.223032	17362.516833	960.881836	256.464478
2811.223032	17362.516833	959.710938	305.690338
2811.223032	17362.516833	958.540039	382.067444
2811.223032	17362.516833	957.368164	235.416367
2811.223032	17362.516833	956.196289	328.451508
2811.223032	17362.516833	955.024414	85.860786
2811.223032	17362.516833	953.851563	223.119873
2811.223032	17362.516833	952.679688	39.997379
2811.223032	17362.516833	951.506836	-60.274578
2811.223032	17362.516833	950.333984	-48.394482
2811.223032	17362.516833	949.160156	-13.129992
2811.223032	17362.516833	947.986328	38.363434
2811.223032	17362.516833	946.812500	138.715088
2811.223032	17362.516833	945.638672	34.342323
2811.223032	17362.516833	944.464844	-41.543530
2811.223032	17362.516833	943.290039	28.797493
2811.223032	17362.516833	942.115234	-74.045792
2811.223032	17362.516833	940.940430	7.173078
2811.223032	17362.516833	939.764648	36.810158
2811.223032	17362.516833	938.588867	114.432877
2811.223032	17362.516833	937.413086	213.096268
2811.223032	17362.516833	936.237305	113.962769
2811.223032	17362.516833	935.060547	80.126587
2811.223032	17362.516833	933.883789	78.894508
2811.223032	17362.516833	932.707031	-158.527084
2811.223032	17362.516833	931.530273	104.931435
2811.223032	17362.516833	930.352539	5.806525
2811.223032	17362.516833	929.175781	196.103348
2811.223032	17362.516833	927.998047	171.597549
2811.223032	17362.516833	926.819336	200.820572
2811.223032	17362.516833	925.641602	256.790466
2811.223032	17362.516833	924.462891	178.526779
2811.223032	17362.516833	923.284180	42.754532
2811.223032	17362.516833	922.104492	129.291138
2811.223032	17362.516833	920.924805	62.498344
2811.223032	17362.516833	919.746094	66.906952
2811.223032	17362.516833	919.551758	126.668785
2811.223032	17362.516833	918.386719	260.857513
2811.223032	17362.516833	917.220703	211.157593
2811.223032	17362.516833	916.054688	31.277500
2811.223032	17362.516833	914.887695	188.282516
2811.223032	17362.516833	913.721680	184.455811
2811.223032	17362.516833	912.554688	75.384697
2811.223032	17362.516833	911.387695	6.492595
2811.223032	17362.516833	910.220703	-3.120686
2811.223032	17362.516833	909.052734	201.376556
2811.223032	17362.516833	907.885742	-75.947121
2811.223032	17362.516833	906.717773	11.841003
2811.223032	17362.516833	905.548828	97.657028
2811.223032	17362.516833	904.380859	61.140934
2811.223032	17362.516833	903.211914	-23.137035
2811.223032	17362.516833	902.042969	-183.792358
2811.223032	17362.516833	900.874023	174.887009
2811.223032	17362.516833	899.704102	155.451279
2811.223032	17362.516833	898.535156	233.319931
2811.223032	17362.516833	897.365234	242.440872
2811.223032	17362.516833	896.194336	245.809219
2811.223032	17362.516833	895.024414	127.079979
2811.223032	17362.516833	893.853516	181.897141
2811.223032	17362.516833	892.682617	204.252792
2811.223032	17362.516833	891.511719	239.912643
2811.223032	17362.516833	890.340820	275.528137
2811.223032	17362.516833	889.168945	263.471466
2811.223032	17362.516833	887.997070	373.304108
2811.223032	17362.516833	886.825195	-46.393822
2811.223032	17362.516833	885.653320	91.961739
2811.223032	17362.516833	884.480469	30.341455
2811.223032	17362.516833	883.307617	-54.122787
2811.223032	17362.516833	882.134766	-96.716118
2811.223032	17362.516833	880.961914	-181.177780
2811.223032	17362.516833	879.788086	-183.837021
2811.223032	17362.516833	878.614258	-97.140022
2811.223032	17362.516833	877.440430	-143.605331
2811.223032	17362.516833	876.266602	-230.002502
2811.223032	17362.516833	875.091797	-120.625748
2811.223032	17362.516833	873.916992	-45.526642
2811.223032	17362.516833	872.742188	18.113140
2811.223032	17362.516833	871.567383	-216.518936
2811.223032	17362.516833	870.391602	-31.385201
2811.223032	17362.516833	869.215820	-95.084999
2811.223032	17362.516833	868.040039	-272.686737
2811.223032	17362.516833	866.864258	-148.476654
2811.223032	17362.516833	865.687500	-126.811691
2811.223032	17362.516833	864.510742	-222.806763
2811.223032	17362.516833	863.333984	-182.226624
2811.223032	17362.516833	862.157227	-124.626038
2811.223032	17362.516833	860.979492	40.992371
2811.223032	17362.516833	859.802734	-138.483688
2811.223032	17362.516833	858.625000	55.437675
2811.223032	17362.516833	857.446289	-33.074780
2811.223032	17362.516833	856.268555	-117.794357
2811.223032	17362.516833	855.089844	-22.576000
2811.223032	17362.516833	853.911133	-46.726841
2811.223032	17362.516833	852.731445	-203.423553
2811.223032	17362.516833	851.552734	-231.374786
2811.223032	17362.516833	850.373047	-195.001160
2811.223032	17362.516833	849.193359	-141.644882
2811.223032	17362.516833	848.013672	-27.808088
2811.223032	17362.516833	846.833008	-8.613894
2811.223032	17362.516833	845.652344	114.540871
2811.223032	17362.516833	844.471680	-204.770752
2811.223032	17362.516833	843.291016	-6.087050
2811.223032	17362.516833	842.110352	-56.963890
2811.223032	17362.516833	840.928711	175.551605
2811.223032	17362.516833	839.747070	143.482620
2811.223032	17362.516833	838.564453	-28.359615
2811.223032	17362.516833	837.382813	147.259186
2811.223032	17362.516833	836.200195	7.510432
2811.223032	17362.516833	835.017578	75.400833
2811.223032	17362.516833	833.834961	196.063919
2811.223032	17362.516833	832.651367	-130.489090
2811.223032	17362.516833	831.467773	-136.279755
2811.223032	17362.516833	830.284180	123.802025
2811.223032	17362.516833	829.100586	-100.826065
2811.223032	17362.516833	827.916992	-50.175053
2811.223032	17362.516833	826.732422	24.920427
2811.223032	17362.516833	825.547852	47.187943
2811.223032	17362.516833	824.363281	-137.822983
2811.223032	17362.516833	823.177734	-47.797714
2811.223032	17362.516833	821.992188	106.178925
2811.223032	17362.516833	820.806641	92.489426
2811.223032	17362.516833	819.621094	44.883484
2811.223032	17362.516833	818.434570	362.364075
2811.223032	17362.516833	817.249023	137.773880
2811.223032	17362.516833	816.062500	251.855453
2811.223032	17362.516833	814.875000	268.047821
2811.223032	17362.516833	813.688477	86.747551
2811.223032	17362.516833	812.500977	-111.437775
2811.223032	17362.516833	811.313477	-162.969711
2811.223032	17362.516833	810.125977	-88.611290
2811.223032	17362.516833	808.937500	158.531784
2811.223032	17362.516833	807.749023	144.419907
2811.223032	17362.516833	806.560547	25.099619
2811.223032	17362.516833	805.372070	101.065666
2811.223032	17362.516833	804.182617	242.664337
2811.223032	17362.516833	802.994141	78.220497
2811.223032	17362.516833	801.803711	88.320480
2811.223032	17362.516833	800.614258	135.892853
2811.223032	17362.516833	799.424805	44.594372
2811.223032	17362.516833	798.234375	50.808258
2811.223032	17362.516833	797.043945	62.599697
2811.223032	17362.516833	795.852539	106.207283
2811.223032	17362.516833	794.662109	241.586243
2811.223032	17362.516833	793.470703	240.074463
2811.223032	17362.516833	792.279297	414.617157
2811.223032	17362.516833	791.087891	392.370148
2811.223032	17362.516833	789.895508	383.192993
2811.223032	17362.516833	788.703125	224.189133
2811.223032	17362.516833	787.510742	252.389496
2811.223032	17362.516833	786.318359	278.656952
2811.223032	17362.516833	785.125000	166.402557
2811.223032	17362.516833	783.931641	185.093292
2811.223032	17362.516833	782.738281	183.152588
2811.223032	17362.516833	781.544922	100.752907
2811.223032	17362.516833	780.350586	192.204559
2811.223032	17362.516833	779.156250	158.331116
2811.223032	17362.516833	777.961914	-8.264283
2811.223032	17362.516833	776.767578	116.625954
2811.223032	17362.516833	775.572266	332.942841
2811.223032	17362.516833	774.376953	104.622429
2811.223032	17362.516833	773.181641	182.567642
2811.223032	17362.516833	771.986328	320.164825
2811.223032	17362.516833	770.790039	388.590118
2811.223032	17362.516833	769.593750	270.325684
2811.223032	17362.516833	768.397461	329.292023
2811.223032	17362.516833	767.201172	274.394989
2811.223032	17362.516833	766.003906	256.760803
2811.223032	17362.516833	764.806641	239.076828
2811.223032	17362.516833	763.609375	267.945251
2811.223032	17362.516833	762.412109	235.239685
2811.223032	17362.516833	761.213867	265.842041
2811.223032	17362.516833	760.015625	63.502399
2811.223032	17362.516833	758.817383	297.029938
2811.223032	17362.516833	757.618164	146.788849
2811.223032	17362.516833	756.419922	-27.653481
2811.223032	17362.516833	755.220703	6.393509
2811.223032	17362.516833	754.021484	-43.381355
2811.223032	17362.516833	752.821289	70.537270
2811.223032	17362.516833	751.621094	-163.519104
2811.223032	17362.516833	750.420898	-75.785202
2811.223032	17362.516833	749.220703	168.044296
2811.223032	17362.516833	748.020508	-159.029007
2811.223032	17362.516833	746.819336	144.066681
2811.223032	17362.516833	745.618164	84.601570
2811.223032	17362.516833	744.416992	56.681808
2811.223032	17362.516833	743.214844	-1.013564
2811.223032	17362.516833	742.012695	-8.606714
2811.223032	17362.516833	740.810547	232.542679
2811.223032	17362.516833	739.608398	430.828827
2811.223032	17362.516833	738.406250	471.208496
2811.223032	17362.516833	737.203125	444.700348
2811.223032	17362.516833	736.000000	670.445129
2811.223032	17362.516833	734.795898	985.057190
2811.223032	17362.516833	733.592773	1275.364746
2811.223032	17362.516833	732.388672	1635.935303
2811.223032	17362.516833	731.184570	1518.041992
2811.223032	17362.516833	729.979492	1492.791870
2811.223032	17362.516833	728.775391	1252.550659
2811.223032	17362.516833	727.570313	1247.605469
2811.223032	17362.516833	726.365234	844.389587
2811.223032	17362.516833	725.160156	876.426147
2811.223032	17362.516833	723.954102	686.218750
2811.223032	17362.516833	722.748047	692.219299
2811.223032	17362.516833	721.541992	853.593750
2811.223032	17362.516833	720.334961	522.683289
2811.223032	17362.516833	719.128906	478.557739
2811.223032	17362.516833	717.921875	343.757172
2811.223032	17362.516833	716.714844	299.543549
2811.223032	17362.516833	715.506836	177.631927
2811.223032	17362.516833	714.298828	111.145699
2811.223032	17362.516833	713.090820	101.899200
2811.223032	17362.516833	711.882813	63.025120
2811.223032	17362.516833	710.674805	171.860260
2811.223032	17362.516833	709.465820	511.410492
2811.223032	17362.516833	708.256836	304.241943
2811.223032	17362.516833	707.047852	425.659180
2811.223032	17362.516833	705.837891	297.803741
2811.223032	17362.516833	704.627930	136.716461
2811.223032	17362.516833	703.417969	64.171776
2811.223032	17362.516833	702.208008	288.526093
2811.223032	17362.516833	700.998047	112.570389
2811.223032	17362.516833	699.787109	-32.046261
2811.223032	17362.516833	698.576172	304.399048
2811.223032	17362.516833	697.364258	-54.113697
2811.223032	17362.516833	696.153320	232.302200
2811.223032	17362.516833	694.941406	190.638947
2811.223032	17362.516833	693.729492	292.567932
2811.223032	17362.516833	692.516602	276.535828
2811.223032	17362.516833	691.304688	521.845825
2811.223032	17362.516833	690.091797	494.582489
2811.223032	17362.516833	688.878906	531.660645
2811.223032	17362.516833	687.665039	564.967285
2811.223032	17362.516833	686.451172	524.612671
2811.223032	17362.516833	685.237305	574.310791
2811.223032	17362.516833	684.023438	484.183960
2811.223032	17362.516833	682.809570	419.756714
2811.223032	17362.516833	681.594727	704.458679
2811.223032	17362.516833	680.379883	573.716064
2811.223032	17362.516833	679.165039	610.124695
2811.223032	17362.516833	677.949219	633.583923
2811.223032	17362.516833	676.733398	488.028748
2811.223032	17362.516833	675.517578	452.612793
2811.223032	17362.516833	674.301758	563.977051
2811.223032	17362.516833	673.084961	381.606415
2811.223032	17362.516833	671.869141	404.731964
2811.223032	17362.516833	670.651367	504.807037
2811.223032	17362.516833	669.434570	338.857483
2811.223032	17362.516833	668.216797	326.918274
2811.223032	17362.516833	667.000000	417.575348
2811.223032	17362.516833	665.781250	313.842102
2811.223032	17362.516833	664.563477	406.152222
2811.223032	17362.516833	663.344727	483.693695
2811.223032	17362.516833	662.125977	606.922974
2811.223032	17362.516833	660.907227	433.376587
2811.223032	17362.516833	659.688477	461.226959
2811.223032	17362.516833	658.468750	501.805298
2811.223032	17362.516833	657.249023	602.690430
2811.223032	17362.516833	656.029297	547.946411
2811.223032	17362.516833	654.808594	522.422852
2811.223032	17362.516833	653.587891	515.132385
2811.223032	17362.516833	652.367188	626.633240
2811.223032	17362.516833	651.146484	582.632996
2811.223032	17362.516833	649.924805	576.963684
2811.223032	17362.516833	648.704102	593.167175
2811.223032	17362.516833	647.482422	369.964447
2811.223032	17362.516833	646.259766	457.305237
2811.223032	17362.516833	645.037109	425.846191
2811.223032	17362.516833	643.815430	239.151352
2811.223032	17362.516833	642.591797	393.816467
2811.223032	17362.516833	641.369141	415.135895
2811.223032	17362.516833	640.145508	478.347748
2811.223032	17362.516833	638.921875	466.680267
2811.223032	17362.516833	637.698242	369.238678
2811.223032	17362.516833	636.474609	426.777710
2811.223032	17362.516833	635.250000	620.963013
2811.223032	17362.516833	634.025391	787.670532
2811.223032	17362.516833	632.800781	638.989929
2811.223032	17362.516833	631.575195	592.341675
2811.223032	17362.516833	630.349609	418.151642
2811.223032	17362.516833	629.124023	619.143494
2811.223032	17362.516833	627.898438	716.215454
2811.223032	17362.516833	626.671875	552.872925
2811.223032	17362.516833	625.445313	509.670959
2811.223032	17362.516833	624.218750	593.812622
2811.223032	17362.516833	622.992188	566.897522
2811.223032	17362.516833	621.764648	632.702454
2811.223032	17362.516833	620.537109	616.603882
2811.223032	17362.516833	619.309570	549.559814
2811.223032	17362.516833	618.081055	520.667419
2811.223032	17362.516833	616.852539	468.118622
2811.223032	17362.516833	615.624023	173.899948
2811.223032	17362.516833	614.395508	257.605194
2811.223032	17362.516833	613.166992	103.320435
2811.223032	17362.516833	611.937500	77.975616
2811.223032	17362.516833	610.708008	103.433960
2811.223032	17362.516833	609.477539	38.089275
2811.223032	17362.516833	608.248047	-49.030190
2811.223032	17362.516833	607.017578	-87.170151
2811.223032	17362.516833	605.787109	34.291550
2811.223032	17362.516833	604.555664	50.482082
2811.223032	17362.516833	603.325195	115.595955
2811.223032	17362.516833	602.093750	-51.377331
2811.223032	17362.516833	600.861328	73.464760
2811.223032	17362.516833	599.629883	-13.759294
2811.223032	17362.516833	598.397461	226.906738
2811.223032	17362.516833	597.165039	139.630173
2811.223032	17362.516833	595.932617	7.098792
2811.223032	17362.516833	594.699219	75.546188
2811.223032	17362.516833	593.465820	136.703232
2811.223032	17362.516833	592.232422	51.238209
2811.223032	17362.516833	590.999023	-36.017487
2811.223032	17362.516833	589.764648	57.622845
2811.223032	17362.516833	588.530273	-29.636198
2811.223032	17362.516833	587.295898	-60.822578
2811.223032	17362.516833	586.061523	18.259380
2811.223032	17362.516833	584.826172	-101.511223
2811.223032	17362.516833	583.590820	15.461868
2811.223032	17362.516833	582.355469	-21.176424
2811.223032	17362.516833	581.119141	-173.405396
2811.223032	17362.516833	579.882813	-238.900223
2811.223032	17362.516833	578.646484	-116.614609
2811.223032	17362.516833	577.410156	-160.440735
2811.223032	17362.516833	576.172852	10.487864
2811.223032	17362.516833	574.935547	161.497955
2811.223032	17362.516833	573.698242	110.416122
2811.223032	17362.516833	572.460938	-30.812855
2811.223032	17362.516833	571.222656	75.033936
2811.223032	17362.516833	569.984375	-167.074158
2811.223032	17362.516833	568.746094	37.892597
2811.223032	17362.516833	567.506836	122.046799
2811.223032	17362.516833	566.267578	123.305038
2811.223032	17362.516833	565.028320	77.743935
2811.223032	17362.516833	563.789063	-20.006226
2811.223032	17362.516833	562.548828	-63.697041
2811.223032	17362.516833	561.309570	15.050008
2811.223032	17362.516833	560.068359	176.547638
2811.223032	17362.516833	558.828125	46.530846
2811.223032	17362.516833	557.586914	-146.376999
2811.223032	17362.516833	556.345703	7.916329
2811.223032	17362.516833	555.104492	52.484489
2811.223032	17362.516833	553.863281	-113.268829
2811.223032	17362.516833	552.621094	260.249603
2811.223032	17362.516833	551.378906	-81.528221
2811.223032	17362.516833	550.136719	63.721268
2811.223032	17362.516833	548.893555	-15.585399
2811.223032	17362.516833	547.650391	12.917241
2811.223032	17362.516833	546.407227	43.235367
2811.223032	17362.516833	545.164063	32.288227
2811.223032	17362.516833	543.919922	62.649628
2811.223032	17362.516833	542.675781	231.186813
2811.223032	17362.516833	541.431641	240.038727
2811.223032	17362.516833	540.186523	370.871979
2811.223032	17362.516833	538.941406	354.659180
2811.223032	17362.516833	537.696289	295.468842
2811.223032	17362.516833	536.451172	376.143921
2811.223032	17362.516833	535.205078	8.845280
2811.223032	17362.516833	533.959961	297.449982
2811.223032	17362.516833	532.712891	9.219524
2811.223032	17362.516833	531.466797	183.176788
2811.223032	17362.516833	530.219727	126.144325
2811.223032	17362.516833	528.972656	-38.213379
2811.223032	17362.516833	527.725586	-9.175629
2811.223032	17362.516833	526.478516	12.742900
2811.223032	17362.516833	525.230469	95.518578
2811.223032	17362.516833	523.982422	-34.514496
2811.223032	17362.516833	522.734375	-193.047852
2811.223032	17362.516833	521.485352	-158.396103
2811.223032	17362.516833	520.236328	-64.722450
2811.223032	17362.516833	518.987305	30.752165
2811.223032	17362.516833	517.737305	-141.741928
2811.223032	17362.516833	516.488281	-256.941620
2811.223032	17362.516833	515.238281	-41.676048
2811.223032	17362.516833	513.988281	-12.122508
2811.223032	17362.516833	512.737305	106.720833
2811.223032	17362.516833	511.486328	-2.856730
2811.223032	17362.516833	510.235352	-98.053986
2811.223032	17362.516833	508.984375	-23.684038
2811.223032	17362.516833	507.732422	-295.282166
2811.223032	17362.516833	506.480469	-53.176624
2811.223032	17362.516833	505.228516	46.270458
2811.223032	17362.516833	503.976563	-21.801096
2811.223032	17362.516833	502.723633	195.322449
2811.223032	17362.516833	501.470703	91.736191
2811.223032	17362.516833	500.217773	-56.272785
2811.223032	17362.516833	498.963867	109.255325
2811.223032	17362.516833	497.709961	66.468979
2811.223032	17362.516833	496.456055	235.582809
2811.223032	17362.516833	495.202148	182.232269
2811.223032	17362.516833	493.947266	-22.275276
2811.223032	17362.516833	492.692383	116.686691
2811.223032	17362.516833	491.437500	-36.021996
2811.223032	17362.516833	490.181641	138.560272
2811.223032	17362.516833	488.926758	69.583687
2811.223032	17362.516833	487.670898	189.088150
2811.223032	17362.516833	486.414063	-55.679966
2811.223032	17362.516833	485.158203	-48.009460
2811.223032	17362.516833	483.901367	55.622978
2811.223032	17362.516833	482.644531	49.166035
2811.223032	17362.516833	481.386719	174.141586
2811.223032	17362.516833	480.128906	50.611313
2811.223032	17362.516833	478.871094	173.860962
2811.223032	17362.516833	477.613281	70.002335
2811.223032	17362.516833	476.355469	202.161789
2811.223032	17362.516833	475.096680	-11.525811
2811.223032	17362.516833	473.837891	94.085472
2811.223032	17362.516833	472.578125	-153.084488
2811.223032	17362.516833	471.319336	-29.681986
2811.223032	17362.516833	470.059570	107.878593
2811.223032	17362.516833	468.799805	-192.165634
2811.223032	17362.516833	467.539063	-51.020107
2811.223032	17362.516833	466.278320	-53.340591
2811.223032	17362.516833	465.017578	-87.497841
2811.223032	17362.516833	463.756836	-57.892029
2811.223032	17362.516833	462.495117	51.355934
2811.223032	17362.516833	461.233398	-76.506996
2811.223032	17362.516833	459.971680	-124.696823
2811.223032	17362.516833	458.709961	-75.581062
2811.223032	17362.516833	457.447266	-144.946121
2811.223032	17362.516833	456.184570	-118.813286
2811.223032	17362.516833	454.921875	-37.900074
2811.223032	17362.516833	453.658203	7.635553
2811.223032	17362.516833	452.394531	92.013077
2811.223032	17362.516833	451.130859	58.007671
2811.223032	17362.516833	449.867188	115.829872
2811.223032	17362.516833	448.602539	196.557419
2811.223032	17362.516833	447.337891	-14.011740
2811.223032	17362.516833	446.073242	-32.161686
2811.223032	17362.516833	444.807617	108.450363
2811.223032	17362.516833	443.542969	121.964615
2811.223032	17362.516833	442.276367	105.443306
2811.223032	17362.516833	441.010742	164.702072
2811.223032	17362.516833	439.744141	163.944244
2811.223032	17362.516833	438.478516	119.070274
2811.223032	17362.516833	437.210938	197.486923
2811.223032	17362.516833	435.944336	251.138443
2811.223032	17362.516833	434.676758	204.292465
2811.223032	17362.516833	433.409180	271.839935
2811.223032	17362.516833	432.141602	281.170532
2811.223032	17362.516833	430.873047	209.429047
2811.223032	17362.516833	429.604492	183.365387
2811.223032	17362.516833	428.335938	178.311920
2811.223032	17362.516833	427.067383	206.560760
2811.223032	17362.516833	425.797852	183.664673
2811.223032	17362.516833	424.528320	257.342743
2811.223032	17362.516833	423.258789	79.471306
2811.223032	17362.516833	421.988281	261.797455
2811.223032	17362.516833	420.717773	180.318146
2811.223032	17362.516833	419.447266	212.887558
2811.223032	17362.516833	418.175781	252.279938
2811.223032	17362.516833	416.905273	36.857849
2811.223032	17362.516833	415.633789	-50.522728
2811.223032	17362.516833	414.362305	26.908979
2811.223032	17362.516833	413.089844	137.418701
2811.223032	17362.516833	411.817383	214.313110
2811.223032	17362.516833	410.544922	12.037321
2811.223032	17362.516833	409.272461	111.222740
2811.223032	17362.516833	407.999023	113.659607
2811.223032	17362.516833	406.725586	-220.740372
2811.223032	17362.516833	405.452148	-75.098625
2811.223032	17362.516833	404.177734	127.988777
2811.223032	17362.516833	402.903320	-72.233719
2811.223032	17362.516833	401.628906	135.369370
2811.223032	17362.516833	400.354492	79.889297
2811.223032	17362.516833	399.079102	141.357574
2811.223032	17362.516833	397.803711	-84.612465
2811.223032	17362.516833	396.528320	-64.141502
2811.223032	17362.516833	395.251953	97.616547
2811.223032	17362.516833	393.976563	90.983871
2811.223032	17362.516833	392.700195	185.337051
2811.223032	17362.516833	391.422852	107.853889
2811.223032	17362.516833	390.145508	59.653255
2811.223032	17362.516833	388.869141	86.149048
2811.223032	17362.516833	387.590820	42.224560
2811.223032	17362.516833	386.313477	58.952145
2811.223032	17362.516833	385.035156	-162.387878
2811.223032	17362.516833	383.756836	-64.656151
2811.223032	17362.516833	382.478516	-204.949875
2811.223032	17362.516833	381.199219	109.736801
2811.223032	17362.516833	379.919922	-63.153931
2811.223032	17362.516833	378.640625	250.127167
2811.223032	17362.516833	377.360352	253.891937
2811.223032	17362.516833	376.080078	113.994774
2811.223032	17362.516833	374.799805	-80.578018
2811.223032	17362.516833	373.519531	109.428993
2811.223032	17362.516833	372.238281	-229.418381
2811.223032	17362.516833	370.957031	47.885010
2811.223032	17362.516833	369.675781	146.615723
2811.223032	17362.516833	368.394531	59.901493
2811.223032	17362.516833	367.112305	-17.174562
2811.223032	17362.516833	365.830078	-225.624390
2811.223032	17362.516833	364.546875	-90.288033
2811.223032	17362.516833	363.264648	54.547707
2811.223032	17362.516833	361.981445	80.079689
2811.223032	17362.516833	360.698242	417.706787
2811.223032	17362.516833	359.414063	60.383026
2811.223032	17362.516833	358.129883	-0.514803
2811.223032	17362.516833	356.845703	7.101544
2811.223032	17362.516833	355.561523	50.142086
2811.223032	17362.516833	354.276367	-85.162125
2811.223032	17362.516833	352.991211	-98.207733
2811.223032	17362.516833	351.706055	-155.813843
2811.223032	17362.516833	350.420898	170.859131
2811.223032	17362.516833	349.134766	70.869560
2811.223032	17362.516833	347.848633	-124.036362
2811.223032	17362.516833	346.561523	111.862709
2811.223032	17362.516833	345.275391	-85.555176
2811.223032	17362.516833	343.988281	40.049980
2811.223032	17362.516833	342.700195	146.846252
2811.223032	17362.516833	341.413086	117.001129
2811.223032	17362.516833	340.125000	19.823206
2811.223032	17362.516833	338.836914	85.818222
2811.223032	17362.516833	337.548828	-10.851903
2811.223032	17362.516833	336.259766	-57.117836
2811.223032	17362.516833	334.970703	37.035397
2811.223032	17362.516833	333.681641	-93.822990
2811.223032	17362.516833	332.391602	-80.946655
2811.223032	17362.516833	331.101563	-2.301450
2811.223032	17362.516833	329.811523	33.030479
2811.223032	17362.516833	328.521484	12.927281
2811.223032	17362.516833	327.230469	-41.911747
2811.223032	17362.516833	325.939453	164.199417
2811.223032	17362.516833	324.648438	171.232574
2811.223032	17362.516833	323.356445	-46.706303
2811.223032	17362.516833	322.064453	-55.763138
2811.223032	17362.516833	320.772461	100.690933
2811.223032	17362.516833	319.480469	-130.177841
2811.223032	17362.516833	318.187500	-26.442541
2811.223032	17362.516833	316.894531	-137.298691
2811.223032	17362.516833	315.601563	-20.799078
2811.223032	17362.516833	314.307617	-136.222336
2811.223032	17362.516833	313.013672	-131.455765
2811.223032	17362.516833	311.719727	-111.843513
2811.223032	17362.516833	310.425781	77.754890
2811.223032	17362.516833	309.130859	187.108032
2811.223032	17362.516833	307.835938	21.502399
2811.223032	17362.516833	306.541016	60.156105
2811.223032	17362.516833	305.245117	-110.711578
2811.223032	17362.516833	303.949219	-13.784653
2811.223032	17362.516833	302.653320	88.925957
2811.223032	17362.516833	301.356445	286.810425
2811.223032	17362.516833	300.060547	406.049164
2811.223032	17362.516833	298.763672	374.172607
