#X		#Y		#Wave		#Intensity
2829.539840	17369.127333	2000.043945	-33.629303
2829.539840	17369.127333	1999.080078	-4.193247
2829.539840	17369.127333	1998.116211	8.573887
2829.539840	17369.127333	1997.151367	-130.114395
2829.539840	17369.127333	1996.186523	-18.784857
2829.539840	17369.127333	1995.222656	-73.750366
2829.539840	17369.127333	1994.256836	12.227525
2829.539840	17369.127333	1993.291992	115.245140
2829.539840	17369.127333	1992.327148	99.134727
2829.539840	17369.127333	1991.361328	216.465607
2829.539840	17369.127333	1990.395508	105.823547
2829.539840	17369.127333	1989.429688	-113.881119
2829.539840	17369.127333	1988.463867	99.230515
2829.539840	17369.127333	1987.497070	-26.824009
2829.539840	17369.127333	1986.531250	5.237809
2829.539840	17369.127333	1985.564453	-14.833497
2829.539840	17369.127333	1984.597656	-87.005402
2829.539840	17369.127333	1983.630859	-1.145336
2829.539840	17369.127333	1982.664063	37.548561
2829.539840	17369.127333	1981.696289	-131.489716
2829.539840	17369.127333	1980.728516	-65.949615
2829.539840	17369.127333	1979.761719	33.980480
2829.539840	17369.127333	1978.792969	-39.137554
2829.539840	17369.127333	1977.825195	-8.683524
2829.539840	17369.127333	1976.857422	204.284836
2829.539840	17369.127333	1975.888672	140.614807
2829.539840	17369.127333	1974.919922	-4.596701
2829.539840	17369.127333	1973.951172	296.669708
2829.539840	17369.127333	1972.982422	-18.969986
2829.539840	17369.127333	1972.013672	143.836853
2829.539840	17369.127333	1971.043945	32.769798
2829.539840	17369.127333	1970.075195	200.214081
2829.539840	17369.127333	1969.105469	-24.419243
2829.539840	17369.127333	1968.135742	-17.416079
2829.539840	17369.127333	1967.165039	6.737236
2829.539840	17369.127333	1966.195313	109.620155
2829.539840	17369.127333	1965.224609	-6.830673
2829.539840	17369.127333	1964.253906	51.519722
2829.539840	17369.127333	1963.283203	60.527351
2829.539840	17369.127333	1962.312500	52.223415
2829.539840	17369.127333	1961.341797	127.531586
2829.539840	17369.127333	1960.370117	57.559902
2829.539840	17369.127333	1959.399414	-9.990709
2829.539840	17369.127333	1958.427734	79.850716
2829.539840	17369.127333	1957.455078	-34.526428
2829.539840	17369.127333	1956.483398	-11.218014
2829.539840	17369.127333	1955.511719	61.198807
2829.539840	17369.127333	1954.539063	20.471777
2829.539840	17369.127333	1953.566406	129.623718
2829.539840	17369.127333	1952.593750	135.494400
2829.539840	17369.127333	1951.621094	136.408890
2829.539840	17369.127333	1950.647461	83.249626
2829.539840	17369.127333	1949.674805	-28.861965
2829.539840	17369.127333	1948.701172	65.275620
2829.539840	17369.127333	1947.727539	39.063339
2829.539840	17369.127333	1946.753906	12.832150
2829.539840	17369.127333	1945.780273	-111.569984
2829.539840	17369.127333	1944.805664	109.982864
2829.539840	17369.127333	1943.831055	46.887070
2829.539840	17369.127333	1942.856445	-84.874886
2829.539840	17369.127333	1941.881836	50.668186
2829.539840	17369.127333	1940.907227	193.499588
2829.539840	17369.127333	1939.932617	-28.956030
2829.539840	17369.127333	1938.957031	-18.526415
2829.539840	17369.127333	1937.981445	-5.661732
2829.539840	17369.127333	1937.005859	-78.552299
2829.539840	17369.127333	1936.030273	198.827805
2829.539840	17369.127333	1935.054688	18.162130
2829.539840	17369.127333	1934.078125	53.017593
2829.539840	17369.127333	1933.101563	-134.905884
2829.539840	17369.127333	1932.125000	68.835800
2829.539840	17369.127333	1931.148438	-145.941727
2829.539840	17369.127333	1930.171875	47.938446
2829.539840	17369.127333	1929.194336	102.318275
2829.539840	17369.127333	1928.217773	-26.744324
2829.539840	17369.127333	1927.240234	37.414391
2829.539840	17369.127333	1926.262695	201.788345
2829.539840	17369.127333	1925.284180	-61.646420
2829.539840	17369.127333	1924.306641	70.924583
2829.539840	17369.127333	1923.328125	-31.113413
2829.539840	17369.127333	1922.350586	-15.845468
2829.539840	17369.127333	1921.372070	4.308874
2829.539840	17369.127333	1920.392578	-65.891518
2829.539840	17369.127333	1919.414063	29.969090
2829.539840	17369.127333	1918.434570	116.037933
2829.539840	17369.127333	1917.456055	187.440582
2829.539840	17369.127333	1916.476563	-36.438011
2829.539840	17369.127333	1915.497070	44.744595
2829.539840	17369.127333	1914.516602	-88.750885
2829.539840	17369.127333	1913.537109	46.085602
2829.539840	17369.127333	1912.556641	-87.338600
2829.539840	17369.127333	1911.576172	88.912949
2829.539840	17369.127333	1910.595703	-151.697266
2829.539840	17369.127333	1909.615234	-14.469972
2829.539840	17369.127333	1908.633789	-30.786245
2829.539840	17369.127333	1907.653320	89.336250
2829.539840	17369.127333	1906.671875	168.018616
2829.539840	17369.127333	1905.690430	25.079300
2829.539840	17369.127333	1904.708984	115.939072
2829.539840	17369.127333	1903.727539	68.021072
2829.539840	17369.127333	1902.745117	76.108658
2829.539840	17369.127333	1901.762695	1.468809
2829.539840	17369.127333	1900.780273	-119.358704
2829.539840	17369.127333	1899.797852	71.222969
2829.539840	17369.127333	1898.815430	132.845810
2829.539840	17369.127333	1897.832031	21.814022
2829.539840	17369.127333	1896.849609	-40.545925
2829.539840	17369.127333	1895.866211	-17.802523
2829.539840	17369.127333	1894.882813	-80.116783
2829.539840	17369.127333	1893.898438	-139.971191
2829.539840	17369.127333	1892.915039	47.989819
2829.539840	17369.127333	1891.930664	63.439426
2829.539840	17369.127333	1890.947266	-32.816677
2829.539840	17369.127333	1889.962891	-7.636117
2829.539840	17369.127333	1888.977539	-174.230423
2829.539840	17369.127333	1887.993164	-180.576721
2829.539840	17369.127333	1887.007813	12.059120
2829.539840	17369.127333	1886.023438	-18.575457
2829.539840	17369.127333	1885.038086	-68.602798
2829.539840	17369.127333	1884.051758	-7.051945
2829.539840	17369.127333	1883.066406	-161.325912
2829.539840	17369.127333	1882.081055	-87.660362
2829.539840	17369.127333	1881.094727	41.724182
2829.539840	17369.127333	1880.108398	91.086235
2829.539840	17369.127333	1879.122070	184.039246
2829.539840	17369.127333	1878.135742	131.605331
2829.539840	17369.127333	1877.148438	168.800217
2829.539840	17369.127333	1876.162109	7.408299
2829.539840	17369.127333	1875.174805	42.179089
2829.539840	17369.127333	1874.187500	-36.840885
2829.539840	17369.127333	1873.199219	2.749760
2829.539840	17369.127333	1872.211914	-100.448677
2829.539840	17369.127333	1871.223633	-0.398687
2829.539840	17369.127333	1870.236328	36.713421
2829.539840	17369.127333	1869.248047	66.544235
2829.539840	17369.127333	1868.258789	35.902340
2829.539840	17369.127333	1867.270508	-156.712982
2829.539840	17369.127333	1866.282227	73.707443
2829.539840	17369.127333	1865.292969	62.368526
2829.539840	17369.127333	1864.303711	142.829483
2829.539840	17369.127333	1863.314453	-73.884308
2829.539840	17369.127333	1862.324219	35.516949
2829.539840	17369.127333	1861.334961	-16.931187
2829.539840	17369.127333	1860.344727	-25.923550
2829.539840	17369.127333	1859.354492	-10.795891
2829.539840	17369.127333	1858.364258	-53.619049
2829.539840	17369.127333	1857.374023	-4.758307
2829.539840	17369.127333	1856.383789	3.046544
2829.539840	17369.127333	1855.392578	203.784821
2829.539840	17369.127333	1854.401367	-0.725831
2829.539840	17369.127333	1853.410156	14.224996
2829.539840	17369.127333	1852.418945	91.818390
2829.539840	17369.127333	1851.426758	58.481045
2829.539840	17369.127333	1850.435547	275.741699
2829.539840	17369.127333	1849.443359	-90.167351
2829.539840	17369.127333	1848.451172	61.933060
2829.539840	17369.127333	1847.458984	168.181534
2829.539840	17369.127333	1846.466797	38.374889
2829.539840	17369.127333	1845.473633	204.702316
2829.539840	17369.127333	1844.480469	180.772278
2829.539840	17369.127333	1843.487305	-105.507553
2829.539840	17369.127333	1842.494141	36.574684
2829.539840	17369.127333	1841.500977	10.163955
2829.539840	17369.127333	1840.506836	-138.947220
2829.539840	17369.127333	1839.513672	19.768250
2829.539840	17369.127333	1838.519531	82.204979
2829.539840	17369.127333	1837.525391	60.437565
2829.539840	17369.127333	1836.530273	60.261284
2829.539840	17369.127333	1835.536133	120.113754
2829.539840	17369.127333	1834.541016	81.390228
2829.539840	17369.127333	1833.545898	-34.234413
2829.539840	17369.127333	1832.550781	25.452225
2829.539840	17369.127333	1831.555664	317.978455
2829.539840	17369.127333	1830.560547	-85.866165
2829.539840	17369.127333	1829.564453	-4.759794
2829.539840	17369.127333	1828.568359	148.255432
2829.539840	17369.127333	1827.572266	-111.531891
2829.539840	17369.127333	1826.576172	53.328465
2829.539840	17369.127333	1825.580078	158.108032
2829.539840	17369.127333	1824.583008	90.131813
2829.539840	17369.127333	1823.585938	101.240814
2829.539840	17369.127333	1822.588867	193.786652
2829.539840	17369.127333	1821.591797	-8.551412
2829.539840	17369.127333	1820.594727	31.140295
2829.539840	17369.127333	1819.596680	-125.699203
2829.539840	17369.127333	1818.599609	28.846205
2829.539840	17369.127333	1817.601563	104.236961
2829.539840	17369.127333	1816.603516	55.024971
2829.539840	17369.127333	1815.604492	206.852661
2829.539840	17369.127333	1814.606445	186.227036
2829.539840	17369.127333	1813.607422	55.459618
2829.539840	17369.127333	1812.608398	206.995193
2829.539840	17369.127333	1811.609375	95.269958
2829.539840	17369.127333	1810.610352	91.141052
2829.539840	17369.127333	1809.610352	91.721741
2829.539840	17369.127333	1808.611328	58.761108
2829.539840	17369.127333	1807.611328	166.765259
2829.539840	17369.127333	1806.611328	-28.859142
2829.539840	17369.127333	1805.610352	86.136703
2829.539840	17369.127333	1804.610352	-25.935495
2829.539840	17369.127333	1803.609375	79.309219
2829.539840	17369.127333	1802.608398	-56.757286
2829.539840	17369.127333	1801.607422	-145.098587
2829.539840	17369.127333	1800.606445	-109.353035
2829.539840	17369.127333	1799.605469	167.356155
2829.539840	17369.127333	1798.603516	21.510729
2829.539840	17369.127333	1797.601563	-21.771896
2829.539840	17369.127333	1796.599609	147.176620
2829.539840	17369.127333	1795.597656	268.281433
2829.539840	17369.127333	1794.595703	26.820324
2829.539840	17369.127333	1793.592773	47.603294
2829.539840	17369.127333	1792.589844	-48.499817
2829.539840	17369.127333	1791.587891	-185.159866
2829.539840	17369.127333	1790.583984	99.865982
2829.539840	17369.127333	1789.581055	51.195175
2829.539840	17369.127333	1788.577148	-33.274300
2829.539840	17369.127333	1787.574219	270.355621
2829.539840	17369.127333	1786.570313	69.040268
2829.539840	17369.127333	1785.566406	41.481651
2829.539840	17369.127333	1784.561523	-50.418026
2829.539840	17369.127333	1783.557617	-147.126663
2829.539840	17369.127333	1782.552734	-8.368754
2829.539840	17369.127333	1781.547852	-76.689934
2829.539840	17369.127333	1780.542969	-118.916748
2829.539840	17369.127333	1779.538086	50.395271
2829.539840	17369.127333	1778.532227	55.517033
2829.539840	17369.127333	1777.527344	-84.432793
2829.539840	17369.127333	1776.521484	67.861359
2829.539840	17369.127333	1775.515625	-79.355484
2829.539840	17369.127333	1774.508789	-41.331730
2829.539840	17369.127333	1773.502930	55.963673
2829.539840	17369.127333	1772.496094	74.764587
2829.539840	17369.127333	1771.489258	-86.965759
2829.539840	17369.127333	1770.482422	-65.960022
2829.539840	17369.127333	1769.475586	42.750347
2829.539840	17369.127333	1768.467773	30.309555
2829.539840	17369.127333	1767.460938	79.464172
2829.539840	17369.127333	1766.453125	-115.798523
2829.539840	17369.127333	1765.445313	-52.604023
2829.539840	17369.127333	1764.437500	-115.187332
2829.539840	17369.127333	1763.428711	2.305849
2829.539840	17369.127333	1762.420898	-3.575677
2829.539840	17369.127333	1761.412109	47.311302
2829.539840	17369.127333	1760.403320	5.687999
2829.539840	17369.127333	1759.393555	-17.074505
2829.539840	17369.127333	1758.384766	0.341940
2829.539840	17369.127333	1757.375000	-10.764840
2829.539840	17369.127333	1756.366211	103.509636
2829.539840	17369.127333	1755.356445	-26.148468
2829.539840	17369.127333	1754.345703	-11.511858
2829.539840	17369.127333	1753.335938	-112.901535
2829.539840	17369.127333	1752.325195	43.482918
2829.539840	17369.127333	1751.315430	176.067963
2829.539840	17369.127333	1750.304688	-8.359015
2829.539840	17369.127333	1749.292969	45.959633
2829.539840	17369.127333	1748.282227	97.803986
2829.539840	17369.127333	1747.270508	180.246582
2829.539840	17369.127333	1746.259766	132.614761
2829.539840	17369.127333	1745.248047	195.927032
2829.539840	17369.127333	1744.235352	103.225296
2829.539840	17369.127333	1743.223633	-8.420335
2829.539840	17369.127333	1742.211914	-16.236450
2829.539840	17369.127333	1741.199219	-69.004677
2829.539840	17369.127333	1740.186523	40.999290
2829.539840	17369.127333	1739.173828	-9.591482
2829.539840	17369.127333	1738.160156	-15.441646
2829.539840	17369.127333	1737.147461	42.309132
2829.539840	17369.127333	1736.133789	123.517731
2829.539840	17369.127333	1735.120117	23.045696
2829.539840	17369.127333	1734.106445	-197.709183
2829.539840	17369.127333	1733.091797	71.761894
2829.539840	17369.127333	1732.078125	13.492105
2829.539840	17369.127333	1731.063477	94.148071
2829.539840	17369.127333	1730.048828	118.145546
2829.539840	17369.127333	1729.034180	205.630447
2829.539840	17369.127333	1728.019531	154.061203
2829.539840	17369.127333	1727.003906	-76.512772
2829.539840	17369.127333	1725.988281	38.918415
2829.539840	17369.127333	1724.972656	-5.814686
2829.539840	17369.127333	1723.957031	-180.030930
2829.539840	17369.127333	1722.941406	160.914688
2829.539840	17369.127333	1721.924805	162.942352
2829.539840	17369.127333	1720.909180	-23.234091
2829.539840	17369.127333	1719.892578	100.905785
2829.539840	17369.127333	1718.875977	180.247559
2829.539840	17369.127333	1717.858398	5.638862
2829.539840	17369.127333	1716.841797	-37.395187
2829.539840	17369.127333	1715.824219	88.638863
2829.539840	17369.127333	1714.806641	-6.253881
2829.539840	17369.127333	1713.789063	-138.770065
2829.539840	17369.127333	1712.770508	144.253998
2829.539840	17369.127333	1711.752930	215.820847
2829.539840	17369.127333	1710.734375	38.477928
2829.539840	17369.127333	1709.715820	72.311836
2829.539840	17369.127333	1708.697266	-53.487289
2829.539840	17369.127333	1707.678711	34.136906
2829.539840	17369.127333	1706.659180	20.789145
2829.539840	17369.127333	1705.640625	199.649719
2829.539840	17369.127333	1704.621094	115.782784
2829.539840	17369.127333	1703.600586	282.652740
2829.539840	17369.127333	1702.581055	60.378826
2829.539840	17369.127333	1701.561523	238.764893
2829.539840	17369.127333	1700.541016	187.422150
2829.539840	17369.127333	1699.520508	189.891205
2829.539840	17369.127333	1698.500000	201.648422
2829.539840	17369.127333	1697.478516	316.327332
2829.539840	17369.127333	1696.458008	208.527512
2829.539840	17369.127333	1695.436523	271.524933
2829.539840	17369.127333	1694.415039	460.776550
2829.539840	17369.127333	1693.393555	205.395554
2829.539840	17369.127333	1692.372070	204.988281
2829.539840	17369.127333	1691.349609	517.855835
2829.539840	17369.127333	1690.327148	351.232941
2829.539840	17369.127333	1689.304688	154.216171
2829.539840	17369.127333	1688.282227	403.602295
2829.539840	17369.127333	1687.259766	241.565094
2829.539840	17369.127333	1686.236328	479.010956
2829.539840	17369.127333	1685.213867	578.498962
2829.539840	17369.127333	1684.190430	336.909271
2829.539840	17369.127333	1683.166016	464.251465
2829.539840	17369.127333	1682.142578	334.703156
2829.539840	17369.127333	1681.119141	487.558411
2829.539840	17369.127333	1680.094727	588.942017
2829.539840	17369.127333	1679.070313	398.587402
2829.539840	17369.127333	1678.045898	572.141174
2829.539840	17369.127333	1677.020508	570.641052
2829.539840	17369.127333	1675.996094	622.728271
2829.539840	17369.127333	1674.970703	695.706909
2829.539840	17369.127333	1673.945313	491.228699
2829.539840	17369.127333	1672.919922	634.007568
2829.539840	17369.127333	1671.893555	762.683655
2829.539840	17369.127333	1670.868164	749.171204
2829.539840	17369.127333	1669.841797	395.554993
2829.539840	17369.127333	1668.815430	568.291809
2829.539840	17369.127333	1667.789063	626.832947
2829.539840	17369.127333	1666.761719	529.331970
2829.539840	17369.127333	1665.735352	618.017029
2829.539840	17369.127333	1664.708008	627.495117
2829.539840	17369.127333	1663.680664	555.502441
2829.539840	17369.127333	1662.653320	795.165161
2829.539840	17369.127333	1661.625000	874.222717
2829.539840	17369.127333	1660.597656	897.420105
2829.539840	17369.127333	1659.569336	778.754761
2829.539840	17369.127333	1658.541016	711.226746
2829.539840	17369.127333	1657.512695	639.038330
2829.539840	17369.127333	1656.483398	775.916138
2829.539840	17369.127333	1655.455078	668.827393
2829.539840	17369.127333	1654.425781	845.055176
2829.539840	17369.127333	1653.396484	756.485474
2829.539840	17369.127333	1652.366211	783.975769
2829.539840	17369.127333	1651.336914	758.053955
2829.539840	17369.127333	1650.306641	697.290100
2829.539840	17369.127333	1649.276367	768.763733
2829.539840	17369.127333	1648.246094	816.985718
2829.539840	17369.127333	1647.215820	895.310852
2829.539840	17369.127333	1646.185547	1003.722717
2829.539840	17369.127333	1645.154297	808.358887
2829.539840	17369.127333	1644.123047	921.318481
2829.539840	17369.127333	1643.091797	1133.859497
2829.539840	17369.127333	1642.060547	836.570251
2829.539840	17369.127333	1641.028320	1016.558716
2829.539840	17369.127333	1639.997070	1131.623047
2829.539840	17369.127333	1638.964844	1153.986938
2829.539840	17369.127333	1637.931641	1014.252502
2829.539840	17369.127333	1636.899414	1031.969482
2829.539840	17369.127333	1635.867188	1260.260864
2829.539840	17369.127333	1634.833984	1076.582275
2829.539840	17369.127333	1633.800781	1297.797852
2829.539840	17369.127333	1632.767578	1257.559204
2829.539840	17369.127333	1631.734375	1335.262207
2829.539840	17369.127333	1630.700195	1417.536255
2829.539840	17369.127333	1629.666016	1125.301147
2829.539840	17369.127333	1628.631836	1182.148926
2829.539840	17369.127333	1627.597656	1273.630737
2829.539840	17369.127333	1626.563477	1231.081665
2829.539840	17369.127333	1625.528320	1391.791626
2829.539840	17369.127333	1624.493164	1370.003418
2829.539840	17369.127333	1623.458008	1495.989990
2829.539840	17369.127333	1622.422852	1584.995483
2829.539840	17369.127333	1621.387695	1560.878784
2829.539840	17369.127333	1620.351563	1384.466675
2829.539840	17369.127333	1619.315430	1468.825562
2829.539840	17369.127333	1618.279297	1710.009155
2829.539840	17369.127333	1617.243164	1778.143799
2829.539840	17369.127333	1616.207031	1744.808838
2829.539840	17369.127333	1615.169922	1746.062866
2829.539840	17369.127333	1614.132813	1562.942505
2829.539840	17369.127333	1613.095703	1596.517456
2829.539840	17369.127333	1612.058594	1738.377808
2829.539840	17369.127333	1611.020508	1730.458130
2829.539840	17369.127333	1609.983398	1651.178101
2829.539840	17369.127333	1608.945313	1624.893066
2829.539840	17369.127333	1607.907227	1504.248901
2829.539840	17369.127333	1606.868164	1583.905029
2829.539840	17369.127333	1605.830078	1493.275024
2829.539840	17369.127333	1604.791016	1584.450684
2829.539840	17369.127333	1603.751953	1551.396362
2829.539840	17369.127333	1602.712891	1727.669800
2829.539840	17369.127333	1601.673828	1630.269287
2829.539840	17369.127333	1600.633789	1657.065186
2829.539840	17369.127333	1599.594727	1743.655518
2829.539840	17369.127333	1598.554688	1696.939941
2829.539840	17369.127333	1597.513672	1544.569092
2829.539840	17369.127333	1596.473633	1989.573242
2829.539840	17369.127333	1595.433594	1890.109253
2829.539840	17369.127333	1594.392578	2047.892090
2829.539840	17369.127333	1593.351563	1934.738403
2829.539840	17369.127333	1592.310547	1936.437378
2829.539840	17369.127333	1591.268555	2218.144775
2829.539840	17369.127333	1590.227539	2109.730469
2829.539840	17369.127333	1589.185547	1900.448364
2829.539840	17369.127333	1588.143555	1943.586182
2829.539840	17369.127333	1587.100586	1899.598877
2829.539840	17369.127333	1586.058594	2050.565674
2829.539840	17369.127333	1585.015625	1974.573730
2829.539840	17369.127333	1583.972656	2272.223389
2829.539840	17369.127333	1582.929688	2244.431885
2829.539840	17369.127333	1581.886719	2028.846680
2829.539840	17369.127333	1580.843750	2053.894775
2829.539840	17369.127333	1579.799805	2115.612549
2829.539840	17369.127333	1578.755859	1703.419922
2829.539840	17369.127333	1577.711914	1950.708008
2829.539840	17369.127333	1576.666992	1982.807861
2829.539840	17369.127333	1575.623047	1868.518433
2829.539840	17369.127333	1574.578125	1720.002197
2829.539840	17369.127333	1573.533203	1850.656738
2829.539840	17369.127333	1572.488281	1727.477173
2829.539840	17369.127333	1571.443359	1974.808350
2829.539840	17369.127333	1570.397461	1632.310181
2829.539840	17369.127333	1569.351563	1591.700928
2829.539840	17369.127333	1568.305664	1482.618652
2829.539840	17369.127333	1567.259766	1608.962646
2829.539840	17369.127333	1566.213867	1554.873779
2829.539840	17369.127333	1565.166992	1370.688843
2829.539840	17369.127333	1564.120117	1750.618042
2829.539840	17369.127333	1563.073242	1653.354980
2829.539840	17369.127333	1562.026367	1535.660400
2829.539840	17369.127333	1560.978516	1367.869507
2829.539840	17369.127333	1559.930664	1476.279053
2829.539840	17369.127333	1558.883789	1313.287354
2829.539840	17369.127333	1557.834961	1332.861206
2829.539840	17369.127333	1556.787109	1286.390137
2829.539840	17369.127333	1555.739258	1201.261475
2829.539840	17369.127333	1554.690430	1211.962036
2829.539840	17369.127333	1553.641602	1142.979492
2829.539840	17369.127333	1552.592773	987.528931
2829.539840	17369.127333	1551.542969	1233.121704
2829.539840	17369.127333	1550.494141	1253.242798
2829.539840	17369.127333	1549.444336	1057.113403
2829.539840	17369.127333	1548.394531	1280.034424
2829.539840	17369.127333	1547.344727	993.103638
2829.539840	17369.127333	1546.293945	1027.231323
2829.539840	17369.127333	1545.244141	1266.214722
2829.539840	17369.127333	1544.193359	886.443298
2829.539840	17369.127333	1543.142578	952.680115
2829.539840	17369.127333	1542.090820	1028.066528
2829.539840	17369.127333	1541.040039	1183.095215
2829.539840	17369.127333	1539.988281	819.906250
2829.539840	17369.127333	1538.936523	906.915894
2829.539840	17369.127333	1537.884766	937.183472
2829.539840	17369.127333	1536.833008	858.495972
2829.539840	17369.127333	1535.780273	852.604553
2829.539840	17369.127333	1534.727539	901.310669
2829.539840	17369.127333	1533.674805	1025.015625
2829.539840	17369.127333	1532.622070	812.834412
2829.539840	17369.127333	1531.569336	898.128174
2829.539840	17369.127333	1530.515625	765.660156
2829.539840	17369.127333	1529.461914	1048.482422
2829.539840	17369.127333	1528.408203	836.859253
2829.539840	17369.127333	1527.354492	750.142151
2829.539840	17369.127333	1526.299805	876.667908
2829.539840	17369.127333	1525.246094	663.250488
2829.539840	17369.127333	1524.191406	803.552185
2829.539840	17369.127333	1523.136719	773.969055
2829.539840	17369.127333	1522.081055	517.960388
2829.539840	17369.127333	1521.026367	565.667480
2829.539840	17369.127333	1519.970703	520.614685
2829.539840	17369.127333	1518.915039	380.599945
2829.539840	17369.127333	1517.859375	813.435486
2829.539840	17369.127333	1516.802734	560.476563
2829.539840	17369.127333	1515.747070	264.746155
2829.539840	17369.127333	1514.690430	188.674881
2829.539840	17369.127333	1513.633789	440.705688
2829.539840	17369.127333	1512.577148	204.302078
2829.539840	17369.127333	1511.519531	386.364655
2829.539840	17369.127333	1510.461914	283.655365
2829.539840	17369.127333	1509.405273	201.449326
2829.539840	17369.127333	1508.346680	209.761337
2829.539840	17369.127333	1507.289063	349.221283
2829.539840	17369.127333	1506.231445	299.019012
2829.539840	17369.127333	1505.172852	206.042114
2829.539840	17369.127333	1504.114258	363.833008
2829.539840	17369.127333	1503.055664	-47.159557
2829.539840	17369.127333	1501.996094	-94.520348
2829.539840	17369.127333	1500.937500	120.007744
2829.539840	17369.127333	1499.877930	-76.017715
2829.539840	17369.127333	1498.818359	70.993919
2829.539840	17369.127333	1497.757813	24.130148
2829.539840	17369.127333	1496.698242	126.218407
2829.539840	17369.127333	1495.637695	-15.064681
2829.539840	17369.127333	1494.577148	-43.481533
2829.539840	17369.127333	1493.516602	191.870605
2829.539840	17369.127333	1492.456055	159.169891
2829.539840	17369.127333	1491.394531	59.030815
2829.539840	17369.127333	1490.333008	139.212936
2829.539840	17369.127333	1489.271484	-221.800003
2829.539840	17369.127333	1488.209961	-130.083786
2829.539840	17369.127333	1487.148438	22.488859
2829.539840	17369.127333	1486.085938	-97.140816
2829.539840	17369.127333	1485.023438	-88.362381
2829.539840	17369.127333	1483.960938	-162.679428
2829.539840	17369.127333	1482.898438	-16.455904
2829.539840	17369.127333	1481.834961	-90.501122
2829.539840	17369.127333	1480.772461	114.354301
2829.539840	17369.127333	1479.708984	-195.383423
2829.539840	17369.127333	1478.644531	54.597839
2829.539840	17369.127333	1477.581055	304.621002
2829.539840	17369.127333	1476.517578	399.672852
2829.539840	17369.127333	1475.453125	113.138130
2829.539840	17369.127333	1474.388672	237.742126
2829.539840	17369.127333	1473.323242	321.924500
2829.539840	17369.127333	1472.258789	365.846680
2829.539840	17369.127333	1471.193359	360.443573
2829.539840	17369.127333	1470.127930	613.184998
2829.539840	17369.127333	1469.062500	511.581909
2829.539840	17369.127333	1467.997070	625.428345
2829.539840	17369.127333	1466.930664	555.792603
2829.539840	17369.127333	1465.865234	611.321838
2829.539840	17369.127333	1464.798828	548.773621
2829.539840	17369.127333	1463.731445	667.738220
2829.539840	17369.127333	1462.665039	455.105316
2829.539840	17369.127333	1461.597656	386.492493
2829.539840	17369.127333	1460.530273	379.540283
2829.539840	17369.127333	1459.462891	461.137451
2829.539840	17369.127333	1458.395508	549.220459
2829.539840	17369.127333	1457.327148	418.066711
2829.539840	17369.127333	1456.259766	439.603210
2829.539840	17369.127333	1455.191406	456.715607
2829.539840	17369.127333	1454.123047	533.010498
2829.539840	17369.127333	1453.053711	658.460876
2829.539840	17369.127333	1451.985352	357.358978
2829.539840	17369.127333	1450.916016	615.245728
2829.539840	17369.127333	1449.846680	572.184204
2829.539840	17369.127333	1448.776367	513.820679
2829.539840	17369.127333	1447.707031	415.626068
2829.539840	17369.127333	1446.636719	663.088501
2829.539840	17369.127333	1445.566406	683.153320
2829.539840	17369.127333	1444.496094	517.010803
2829.539840	17369.127333	1443.425781	624.827759
2829.539840	17369.127333	1442.354492	534.287476
2829.539840	17369.127333	1441.283203	726.352173
2829.539840	17369.127333	1440.211914	767.740417
2829.539840	17369.127333	1439.140625	472.340729
2829.539840	17369.127333	1438.069336	407.759399
2829.539840	17369.127333	1436.997070	612.960449
2829.539840	17369.127333	1435.924805	593.960083
2829.539840	17369.127333	1434.852539	633.398804
2829.539840	17369.127333	1433.780273	633.225586
2829.539840	17369.127333	1432.707031	356.859009
2829.539840	17369.127333	1431.633789	443.102844
2829.539840	17369.127333	1430.560547	428.826019
2829.539840	17369.127333	1429.487305	313.531189
2829.539840	17369.127333	1428.413086	301.446930
2829.539840	17369.127333	1427.339844	219.057724
2829.539840	17369.127333	1426.265625	167.452972
2829.539840	17369.127333	1425.191406	73.481583
2829.539840	17369.127333	1424.116211	129.443893
2829.539840	17369.127333	1423.041992	103.874138
2829.539840	17369.127333	1421.966797	242.526703
2829.539840	17369.127333	1420.891602	41.498039
2829.539840	17369.127333	1419.816406	-45.874332
2829.539840	17369.127333	1418.740234	67.445816
2829.539840	17369.127333	1417.665039	17.912346
2829.539840	17369.127333	1416.588867	31.023970
2829.539840	17369.127333	1415.512695	-153.653793
2829.539840	17369.127333	1414.435547	62.699905
2829.539840	17369.127333	1413.359375	23.494953
2829.539840	17369.127333	1412.282227	49.304222
2829.539840	17369.127333	1411.205078	53.961269
2829.539840	17369.127333	1410.127930	44.685364
2829.539840	17369.127333	1409.049805	4.331082
2829.539840	17369.127333	1407.972656	269.339325
2829.539840	17369.127333	1406.894531	169.165909
2829.539840	17369.127333	1405.816406	8.504119
2829.539840	17369.127333	1404.737305	181.368134
2829.539840	17369.127333	1403.659180	86.018204
2829.539840	17369.127333	1402.580078	189.070206
2829.539840	17369.127333	1401.500977	274.875122
2829.539840	17369.127333	1400.421875	50.011513
2829.539840	17369.127333	1399.341797	-33.861397
2829.539840	17369.127333	1398.262695	107.999832
2829.539840	17369.127333	1397.182617	187.636002
2829.539840	17369.127333	1396.102539	343.737305
2829.539840	17369.127333	1395.021484	376.443909
2829.539840	17369.127333	1393.941406	303.418152
2829.539840	17369.127333	1392.860352	412.579681
2829.539840	17369.127333	1391.779297	412.580139
2829.539840	17369.127333	1390.698242	346.164948
2829.539840	17369.127333	1389.616211	450.778473
2829.539840	17369.127333	1388.535156	444.492126
2829.539840	17369.127333	1387.453125	410.317352
2829.539840	17369.127333	1386.371094	355.954071
2829.539840	17369.127333	1385.288086	451.348938
2829.539840	17369.127333	1384.206055	489.155487
2829.539840	17369.127333	1383.123047	579.147766
2829.539840	17369.127333	1382.040039	452.007538
2829.539840	17369.127333	1380.957031	538.457764
2829.539840	17369.127333	1379.873047	615.252258
2829.539840	17369.127333	1378.789063	328.114471
2829.539840	17369.127333	1377.705078	483.929443
2829.539840	17369.127333	1376.621094	380.309692
2829.539840	17369.127333	1375.537109	287.691010
2829.539840	17369.127333	1374.452148	454.227081
2829.539840	17369.127333	1373.367188	566.848816
2829.539840	17369.127333	1372.282227	634.310425
2829.539840	17369.127333	1371.197266	479.810181
2829.539840	17369.127333	1370.112305	561.156067
2829.539840	17369.127333	1369.026367	675.938599
2829.539840	17369.127333	1367.940430	494.538452
2829.539840	17369.127333	1366.854492	534.498779
2829.539840	17369.127333	1365.767578	543.624329
2829.539840	17369.127333	1364.681641	640.386230
2829.539840	17369.127333	1363.594727	622.169312
2829.539840	17369.127333	1362.507813	554.882996
2829.539840	17369.127333	1361.419922	607.619507
2829.539840	17369.127333	1360.333008	660.495605
2829.539840	17369.127333	1359.245117	782.640137
2829.539840	17369.127333	1358.157227	621.213989
2829.539840	17369.127333	1357.069336	636.031738
2829.539840	17369.127333	1355.981445	704.328796
2829.539840	17369.127333	1354.892578	519.074890
2829.539840	17369.127333	1353.803711	724.628845
2829.539840	17369.127333	1352.714844	516.882385
2829.539840	17369.127333	1351.625000	916.322876
2829.539840	17369.127333	1350.536133	570.045105
2829.539840	17369.127333	1349.446289	650.142151
2829.539840	17369.127333	1348.356445	582.545654
2829.539840	17369.127333	1347.266602	523.890381
2829.539840	17369.127333	1346.175781	661.063721
2829.539840	17369.127333	1345.085938	593.028503
2829.539840	17369.127333	1343.995117	762.168823
2829.539840	17369.127333	1342.903320	751.663635
2829.539840	17369.127333	1341.812500	829.292725
2829.539840	17369.127333	1340.720703	725.022583
2829.539840	17369.127333	1339.629883	691.652344
2829.539840	17369.127333	1338.538086	966.344971
2829.539840	17369.127333	1337.445313	1028.573364
2829.539840	17369.127333	1336.353516	923.019958
2829.539840	17369.127333	1335.260742	965.918518
2829.539840	17369.127333	1334.167969	948.319702
2829.539840	17369.127333	1333.075195	939.860168
2829.539840	17369.127333	1331.981445	1039.182007
2829.539840	17369.127333	1330.888672	688.540283
2829.539840	17369.127333	1329.794922	925.730774
2829.539840	17369.127333	1328.701172	864.186646
2829.539840	17369.127333	1327.606445	975.958496
2829.539840	17369.127333	1326.512695	1129.361206
2829.539840	17369.127333	1325.417969	1019.844482
2829.539840	17369.127333	1324.323242	1238.925293
2829.539840	17369.127333	1323.227539	1055.410156
2829.539840	17369.127333	1322.132813	1163.652466
2829.539840	17369.127333	1321.037109	1003.804871
2829.539840	17369.127333	1319.941406	956.124023
2829.539840	17369.127333	1318.845703	1014.171326
2829.539840	17369.127333	1317.750000	1177.353149
2829.539840	17369.127333	1316.653320	1072.020264
2829.539840	17369.127333	1315.556641	981.095215
2829.539840	17369.127333	1314.459961	983.760559
2829.539840	17369.127333	1313.363281	968.808350
2829.539840	17369.127333	1312.265625	853.324951
2829.539840	17369.127333	1311.167969	935.181885
2829.539840	17369.127333	1310.070313	843.372253
2829.539840	17369.127333	1308.972656	570.106995
2829.539840	17369.127333	1307.874023	834.670959
2829.539840	17369.127333	1306.776367	533.022461
2829.539840	17369.127333	1305.677734	462.960938
2829.539840	17369.127333	1304.579102	548.831299
2829.539840	17369.127333	1303.479492	497.529907
2829.539840	17369.127333	1302.380859	394.550812
2829.539840	17369.127333	1301.281250	281.423370
2829.539840	17369.127333	1300.181641	447.218750
2829.539840	17369.127333	1299.081055	575.816956
2829.539840	17369.127333	1297.981445	394.039795
2829.539840	17369.127333	1296.880859	255.560501
2829.539840	17369.127333	1295.780273	187.043839
2829.539840	17369.127333	1294.679688	162.268021
2829.539840	17369.127333	1293.578125	319.012665
2829.539840	17369.127333	1292.476563	80.366264
2829.539840	17369.127333	1291.375000	193.465408
2829.539840	17369.127333	1290.273438	163.176254
2829.539840	17369.127333	1289.171875	9.792642
2829.539840	17369.127333	1288.069336	80.459610
2829.539840	17369.127333	1286.966797	97.546677
2829.539840	17369.127333	1285.864258	140.881882
2829.539840	17369.127333	1284.761719	131.557938
2829.539840	17369.127333	1283.658203	236.804916
2829.539840	17369.127333	1282.554688	198.056686
2829.539840	17369.127333	1281.451172	196.609070
2829.539840	17369.127333	1280.347656	303.721741
2829.539840	17369.127333	1279.244141	272.375122
2829.539840	17369.127333	1278.139648	199.759369
2829.539840	17369.127333	1277.035156	351.864868
2829.539840	17369.127333	1275.930664	334.411255
2829.539840	17369.127333	1274.825195	310.938416
2829.539840	17369.127333	1273.720703	377.324371
2829.539840	17369.127333	1272.615234	376.605103
2829.539840	17369.127333	1271.508789	386.041290
2829.539840	17369.127333	1270.403320	288.721802
2829.539840	17369.127333	1269.297852	272.985413
2829.539840	17369.127333	1268.191406	177.203156
2829.539840	17369.127333	1267.084961	238.471680
2829.539840	17369.127333	1265.977539	215.024353
2829.539840	17369.127333	1264.871094	233.583710
2829.539840	17369.127333	1263.763672	194.868530
2829.539840	17369.127333	1262.656250	82.742989
2829.539840	17369.127333	1261.548828	234.929672
2829.539840	17369.127333	1260.440430	66.529251
2829.539840	17369.127333	1259.333008	63.351994
2829.539840	17369.127333	1258.224609	24.215479
2829.539840	17369.127333	1257.115234	32.077690
2829.539840	17369.127333	1256.006836	64.730331
2829.539840	17369.127333	1254.897461	-28.672075
2829.539840	17369.127333	1253.788086	17.883986
2829.539840	17369.127333	1252.678711	-27.595657
2829.539840	17369.127333	1251.569336	222.835251
2829.539840	17369.127333	1250.458984	76.376083
2829.539840	17369.127333	1249.349609	201.713028
2829.539840	17369.127333	1248.239258	275.081726
2829.539840	17369.127333	1247.127930	258.379608
2829.539840	17369.127333	1246.017578	319.311493
2829.539840	17369.127333	1244.906250	415.000671
2829.539840	17369.127333	1243.794922	348.072021
2829.539840	17369.127333	1242.683594	252.400528
2829.539840	17369.127333	1241.571289	204.232452
2829.539840	17369.127333	1240.459961	464.941528
2829.539840	17369.127333	1239.347656	486.704834
2829.539840	17369.127333	1238.234375	170.446152
2829.539840	17369.127333	1237.122070	213.690689
2829.539840	17369.127333	1236.008789	223.306854
2829.539840	17369.127333	1234.896484	182.339401
2829.539840	17369.127333	1233.782227	347.728088
2829.539840	17369.127333	1232.668945	383.623077
2829.539840	17369.127333	1231.555664	274.043060
2829.539840	17369.127333	1230.441406	280.095581
2829.539840	17369.127333	1229.327148	267.552094
2829.539840	17369.127333	1228.211914	215.454651
2829.539840	17369.127333	1227.097656	312.310150
2829.539840	17369.127333	1225.982422	250.577637
2829.539840	17369.127333	1224.867188	266.259155
2829.539840	17369.127333	1223.751953	237.211212
2829.539840	17369.127333	1222.635742	252.170151
2829.539840	17369.127333	1221.520508	127.562981
2829.539840	17369.127333	1220.404297	207.757782
2829.539840	17369.127333	1219.287109	162.290741
2829.539840	17369.127333	1218.170898	99.206154
2829.539840	17369.127333	1217.053711	126.994095
2829.539840	17369.127333	1215.936523	124.922401
2829.539840	17369.127333	1214.819336	100.120102
2829.539840	17369.127333	1213.702148	59.416451
2829.539840	17369.127333	1212.583984	110.781021
2829.539840	17369.127333	1211.465820	-8.627598
2829.539840	17369.127333	1210.347656	22.930990
2829.539840	17369.127333	1209.229492	67.002838
2829.539840	17369.127333	1208.110352	36.333824
2829.539840	17369.127333	1206.992188	60.494221
2829.539840	17369.127333	1205.873047	178.799789
2829.539840	17369.127333	1204.752930	169.790665
2829.539840	17369.127333	1203.633789	1.612527
2829.539840	17369.127333	1202.513672	22.484293
2829.539840	17369.127333	1201.393555	-44.508377
2829.539840	17369.127333	1200.273438	59.629845
2829.539840	17369.127333	1199.152344	69.246193
2829.539840	17369.127333	1198.032227	48.285522
2829.539840	17369.127333	1196.911133	38.604153
2829.539840	17369.127333	1195.790039	-108.398582
2829.539840	17369.127333	1194.667969	-126.962479
2829.539840	17369.127333	1193.545898	-96.850235
2829.539840	17369.127333	1192.424805	-79.266769
2829.539840	17369.127333	1191.301758	2.452570
2829.539840	17369.127333	1190.179688	-33.901230
2829.539840	17369.127333	1189.056641	-4.202796
2829.539840	17369.127333	1187.933594	-151.693100
2829.539840	17369.127333	1186.810547	-104.791779
2829.539840	17369.127333	1185.687500	-96.848122
2829.539840	17369.127333	1184.563477	-63.780922
2829.539840	17369.127333	1183.440430	-76.448929
2829.539840	17369.127333	1182.316406	-42.859043
2829.539840	17369.127333	1181.191406	-9.588193
2829.539840	17369.127333	1180.067383	48.609653
2829.539840	17369.127333	1178.942383	-95.240410
2829.539840	17369.127333	1177.817383	-161.933624
2829.539840	17369.127333	1176.692383	-12.981314
2829.539840	17369.127333	1175.566406	-18.855326
2829.539840	17369.127333	1174.440430	27.245955
2829.539840	17369.127333	1173.314453	-165.233719
2829.539840	17369.127333	1172.188477	-39.648426
2829.539840	17369.127333	1171.062500	-42.730183
2829.539840	17369.127333	1169.935547	62.130039
2829.539840	17369.127333	1168.808594	70.969475
2829.539840	17369.127333	1167.681641	87.249504
2829.539840	17369.127333	1166.553711	93.030197
2829.539840	17369.127333	1165.426758	70.863602
2829.539840	17369.127333	1164.298828	120.262939
2829.539840	17369.127333	1163.170898	-126.389542
2829.539840	17369.127333	1162.041992	79.895752
2829.539840	17369.127333	1160.914063	-60.636299
2829.539840	17369.127333	1159.785156	76.730255
2829.539840	17369.127333	1158.656250	-79.738289
2829.539840	17369.127333	1157.526367	-5.102344
2829.539840	17369.127333	1156.397461	-126.751320
2829.539840	17369.127333	1155.267578	-4.415956
2829.539840	17369.127333	1154.137695	-84.485962
2829.539840	17369.127333	1153.006836	82.710503
2829.539840	17369.127333	1151.876953	-157.075867
2829.539840	17369.127333	1150.746094	-77.627975
2829.539840	17369.127333	1149.615234	-23.941713
2829.539840	17369.127333	1148.484375	-202.193268
2829.539840	17369.127333	1147.352539	3.630772
2829.539840	17369.127333	1146.220703	-213.959457
2829.539840	17369.127333	1145.088867	-35.218246
2829.539840	17369.127333	1143.957031	-158.643005
2829.539840	17369.127333	1142.825195	-106.945511
2829.539840	17369.127333	1141.692383	-302.323547
2829.539840	17369.127333	1140.559570	-17.599670
2829.539840	17369.127333	1139.426758	24.958241
2829.539840	17369.127333	1138.292969	-215.469345
2829.539840	17369.127333	1137.159180	-82.586594
2829.539840	17369.127333	1136.025391	-51.767334
2829.539840	17369.127333	1134.891602	80.743515
2829.539840	17369.127333	1133.757813	-9.285766
2829.539840	17369.127333	1132.623047	-65.170082
2829.539840	17369.127333	1131.488281	205.545914
2829.539840	17369.127333	1130.353516	197.070007
2829.539840	17369.127333	1129.217773	96.516800
2829.539840	17369.127333	1128.083008	168.178726
2829.539840	17369.127333	1126.947266	122.949303
2829.539840	17369.127333	1125.811523	-50.951603
2829.539840	17369.127333	1124.674805	133.369232
2829.539840	17369.127333	1123.539063	105.418633
2829.539840	17369.127333	1122.402344	143.164841
2829.539840	17369.127333	1121.265625	142.842682
2829.539840	17369.127333	1120.127930	169.437912
2829.539840	17369.127333	1118.990234	70.913994
2829.539840	17369.127333	1117.853516	104.243950
2829.539840	17369.127333	1116.714844	139.156586
2829.539840	17369.127333	1115.577148	91.948181
2829.539840	17369.127333	1114.439453	87.210403
2829.539840	17369.127333	1113.300781	236.247070
2829.539840	17369.127333	1112.162109	54.819412
2829.539840	17369.127333	1111.022461	89.144241
2829.539840	17369.127333	1109.883789	-26.062487
2829.539840	17369.127333	1108.744141	102.420944
2829.539840	17369.127333	1107.604492	175.059692
2829.539840	17369.127333	1106.463867	94.887222
2829.539840	17369.127333	1105.324219	143.089279
2829.539840	17369.127333	1104.183594	182.121475
2829.539840	17369.127333	1103.042969	169.875534
2829.539840	17369.127333	1101.902344	245.330917
2829.539840	17369.127333	1100.760742	423.953888
2829.539840	17369.127333	1099.619141	266.935730
2829.539840	17369.127333	1098.477539	258.581116
2829.539840	17369.127333	1097.335938	236.295334
2829.539840	17369.127333	1096.193359	255.441376
2829.539840	17369.127333	1095.051758	166.716019
2829.539840	17369.127333	1093.909180	282.444397
2829.539840	17369.127333	1092.765625	294.700043
2829.539840	17369.127333	1091.623047	265.354980
2829.539840	17369.127333	1090.479492	217.825760
2829.539840	17369.127333	1089.335938	305.324280
2829.539840	17369.127333	1088.192383	379.627014
2829.539840	17369.127333	1087.047852	341.844574
2829.539840	17369.127333	1085.903320	299.798981
2829.539840	17369.127333	1084.758789	219.296936
2829.539840	17369.127333	1083.614258	279.667694
2829.539840	17369.127333	1082.469727	280.706207
2829.539840	17369.127333	1081.324219	246.373001
2829.539840	17369.127333	1080.178711	234.841461
2829.539840	17369.127333	1079.033203	345.193298
2829.539840	17369.127333	1077.886719	436.363373
2829.539840	17369.127333	1076.740234	361.229950
2829.539840	17369.127333	1075.593750	151.476776
2829.539840	17369.127333	1074.447266	40.094742
2829.539840	17369.127333	1073.300781	349.814972
2829.539840	17369.127333	1072.153320	482.428497
2829.539840	17369.127333	1071.005859	306.846161
2829.539840	17369.127333	1069.858398	315.102325
2829.539840	17369.127333	1068.709961	193.974731
2829.539840	17369.127333	1067.561523	210.714722
2829.539840	17369.127333	1066.413086	277.719482
2829.539840	17369.127333	1065.264648	303.494141
2829.539840	17369.127333	1064.116211	305.615082
2829.539840	17369.127333	1062.966797	443.549652
2829.539840	17369.127333	1061.817383	400.056915
2829.539840	17369.127333	1060.667969	590.955017
2829.539840	17369.127333	1059.517578	549.679382
2829.539840	17369.127333	1058.368164	526.254822
2829.539840	17369.127333	1057.217773	549.997803
2829.539840	17369.127333	1056.067383	634.683228
2829.539840	17369.127333	1054.916016	449.701569
2829.539840	17369.127333	1053.764648	570.597412
2829.539840	17369.127333	1052.613281	446.063995
2829.539840	17369.127333	1051.461914	466.145050
2829.539840	17369.127333	1050.310547	312.074249
2829.539840	17369.127333	1049.158203	347.429657
2829.539840	17369.127333	1048.005859	393.887146
2829.539840	17369.127333	1046.853516	298.343567
2829.539840	17369.127333	1045.700195	338.218048
2829.539840	17369.127333	1044.547852	322.928558
2829.539840	17369.127333	1043.394531	160.991333
2829.539840	17369.127333	1042.240234	363.945068
2829.539840	17369.127333	1041.086914	445.427368
2829.539840	17369.127333	1039.932617	253.672821
2829.539840	17369.127333	1038.778320	524.777771
2829.539840	17369.127333	1037.624023	446.596100
2829.539840	17369.127333	1036.469727	316.832794
2829.539840	17369.127333	1035.314453	371.372864
2829.539840	17369.127333	1034.159180	449.940369
2829.539840	17369.127333	1033.003906	680.315430
2829.539840	17369.127333	1031.847656	379.139282
2829.539840	17369.127333	1030.692383	482.740021
2829.539840	17369.127333	1029.536133	510.462616
2829.539840	17369.127333	1028.378906	371.556854
2829.539840	17369.127333	1027.222656	461.030304
2829.539840	17369.127333	1026.065430	571.074341
2829.539840	17369.127333	1024.908203	534.636658
2829.539840	17369.127333	1023.750977	419.161957
2829.539840	17369.127333	1022.593750	382.637512
2829.539840	17369.127333	1021.435547	538.466370
2829.539840	17369.127333	1020.277344	339.999146
2829.539840	17369.127333	1019.119141	409.007355
2829.539840	17369.127333	1017.959961	311.843567
2829.539840	17369.127333	1016.800781	401.731140
2829.539840	17369.127333	1015.641602	278.917175
2829.539840	17369.127333	1014.482422	259.887970
2829.539840	17369.127333	1013.323242	307.384216
2829.539840	17369.127333	1012.163086	196.092239
2829.539840	17369.127333	1011.002930	294.189362
2829.539840	17369.127333	1009.842773	238.768799
2829.539840	17369.127333	1008.681641	222.202332
2829.539840	17369.127333	1007.520508	194.927643
2829.539840	17369.127333	1006.359375	221.088806
2829.539840	17369.127333	1005.198242	391.914337
2829.539840	17369.127333	1004.037109	391.141022
2829.539840	17369.127333	1002.875000	409.654602
2829.539840	17369.127333	1001.712891	305.775787
2829.539840	17369.127333	1000.550781	319.632599
2829.539840	17369.127333	999.387695	330.153961
2829.539840	17369.127333	998.224609	389.260986
2829.539840	17369.127333	997.061523	240.051315
2829.539840	17369.127333	995.898438	263.999084
2829.539840	17369.127333	994.734375	-5.369672
2829.539840	17369.127333	993.571289	69.071739
2829.539840	17369.127333	992.407227	163.496384
2829.539840	17369.127333	991.242188	183.772827
2829.539840	17369.127333	990.078125	62.936237
2829.539840	17369.127333	988.913086	166.215591
2829.539840	17369.127333	987.748047	261.459564
2829.539840	17369.127333	986.583008	116.365929
2829.539840	17369.127333	985.416992	130.707977
2829.539840	17369.127333	984.250977	46.237343
2829.539840	17369.127333	983.084961	32.645462
2829.539840	17369.127333	981.918945	-78.487053
2829.539840	17369.127333	980.751953	90.050415
2829.539840	17369.127333	979.584961	207.164444
2829.539840	17369.127333	978.417969	43.835072
2829.539840	17369.127333	977.250977	70.670723
2829.539840	17369.127333	976.083008	132.026917
2829.539840	17369.127333	974.915039	117.844048
2829.539840	17369.127333	973.747070	114.843857
2829.539840	17369.127333	972.579102	110.868195
2829.539840	17369.127333	971.410156	-39.053761
2829.539840	17369.127333	970.242188	161.633011
2829.539840	17369.127333	969.072266	67.511467
2829.539840	17369.127333	967.903320	200.839569
2829.539840	17369.127333	966.733398	33.152027
2829.539840	17369.127333	965.563477	47.259663
2829.539840	17369.127333	964.393555	89.848564
2829.539840	17369.127333	963.223633	293.436829
2829.539840	17369.127333	962.052734	133.091492
2829.539840	17369.127333	960.881836	198.358826
2829.539840	17369.127333	959.710938	34.641724
2829.539840	17369.127333	958.540039	289.194611
2829.539840	17369.127333	957.368164	246.293854
2829.539840	17369.127333	956.196289	229.158234
2829.539840	17369.127333	955.024414	293.999725
2829.539840	17369.127333	953.851563	192.062805
2829.539840	17369.127333	952.679688	125.784813
2829.539840	17369.127333	951.506836	76.291443
2829.539840	17369.127333	950.333984	248.445663
2829.539840	17369.127333	949.160156	216.188675
2829.539840	17369.127333	947.986328	237.406921
2829.539840	17369.127333	946.812500	222.120941
2829.539840	17369.127333	945.638672	189.259949
2829.539840	17369.127333	944.464844	254.182388
2829.539840	17369.127333	943.290039	113.194046
2829.539840	17369.127333	942.115234	136.766953
2829.539840	17369.127333	940.940430	155.108139
2829.539840	17369.127333	939.764648	299.486267
2829.539840	17369.127333	938.588867	173.804520
2829.539840	17369.127333	937.413086	228.169876
2829.539840	17369.127333	936.237305	202.938278
2829.539840	17369.127333	935.060547	151.728851
2829.539840	17369.127333	933.883789	62.183681
2829.539840	17369.127333	932.707031	149.776871
2829.539840	17369.127333	931.530273	88.376091
2829.539840	17369.127333	930.352539	88.595009
2829.539840	17369.127333	929.175781	193.948441
2829.539840	17369.127333	927.998047	150.486923
2829.539840	17369.127333	926.819336	47.938416
2829.539840	17369.127333	925.641602	-98.153358
2829.539840	17369.127333	924.462891	27.655106
2829.539840	17369.127333	923.284180	150.844391
2829.539840	17369.127333	922.104492	-82.432922
2829.539840	17369.127333	920.924805	-141.326111
2829.539840	17369.127333	919.746094	-139.853973
2829.539840	17369.127333	919.551758	94.773308
2829.539840	17369.127333	918.386719	105.002312
2829.539840	17369.127333	917.220703	40.914368
2829.539840	17369.127333	916.054688	138.204010
2829.539840	17369.127333	914.887695	38.249249
2829.539840	17369.127333	913.721680	27.931000
2829.539840	17369.127333	912.554688	32.960453
2829.539840	17369.127333	911.387695	212.006775
2829.539840	17369.127333	910.220703	-18.445257
2829.539840	17369.127333	909.052734	157.951035
2829.539840	17369.127333	907.885742	-21.270483
2829.539840	17369.127333	906.717773	183.155411
2829.539840	17369.127333	905.548828	-13.921821
2829.539840	17369.127333	904.380859	-62.672859
2829.539840	17369.127333	903.211914	85.371063
2829.539840	17369.127333	902.042969	-190.815170
2829.539840	17369.127333	900.874023	-17.284403
2829.539840	17369.127333	899.704102	-22.623680
2829.539840	17369.127333	898.535156	-71.385437
2829.539840	17369.127333	897.365234	-12.908174
2829.539840	17369.127333	896.194336	-74.435715
2829.539840	17369.127333	895.024414	55.453659
2829.539840	17369.127333	893.853516	164.868164
2829.539840	17369.127333	892.682617	-6.382808
2829.539840	17369.127333	891.511719	64.722076
2829.539840	17369.127333	890.340820	51.639160
2829.539840	17369.127333	889.168945	97.190971
2829.539840	17369.127333	887.997070	-56.101170
2829.539840	17369.127333	886.825195	132.146332
2829.539840	17369.127333	885.653320	29.849792
2829.539840	17369.127333	884.480469	-24.012098
2829.539840	17369.127333	883.307617	57.122044
2829.539840	17369.127333	882.134766	13.446340
2829.539840	17369.127333	880.961914	-45.494034
2829.539840	17369.127333	879.788086	-81.509476
2829.539840	17369.127333	878.614258	30.079071
2829.539840	17369.127333	877.440430	34.757202
2829.539840	17369.127333	876.266602	-44.515865
2829.539840	17369.127333	875.091797	102.582726
2829.539840	17369.127333	873.916992	-68.219635
2829.539840	17369.127333	872.742188	-63.549191
2829.539840	17369.127333	871.567383	-76.677216
2829.539840	17369.127333	870.391602	-41.524071
2829.539840	17369.127333	869.215820	92.693306
2829.539840	17369.127333	868.040039	-75.418457
2829.539840	17369.127333	866.864258	96.833702
2829.539840	17369.127333	865.687500	58.272057
2829.539840	17369.127333	864.510742	-36.126011
2829.539840	17369.127333	863.333984	19.251968
2829.539840	17369.127333	862.157227	79.678123
2829.539840	17369.127333	860.979492	-70.491127
2829.539840	17369.127333	859.802734	-43.053131
2829.539840	17369.127333	858.625000	62.984066
2829.539840	17369.127333	857.446289	57.417465
2829.539840	17369.127333	856.268555	120.290047
2829.539840	17369.127333	855.089844	0.661114
2829.539840	17369.127333	853.911133	106.589073
2829.539840	17369.127333	852.731445	-40.860252
2829.539840	17369.127333	851.552734	24.501616
2829.539840	17369.127333	850.373047	-231.764114
2829.539840	17369.127333	849.193359	36.145096
2829.539840	17369.127333	848.013672	101.442688
2829.539840	17369.127333	846.833008	70.544548
2829.539840	17369.127333	845.652344	-150.108643
2829.539840	17369.127333	844.471680	23.955357
2829.539840	17369.127333	843.291016	106.895760
2829.539840	17369.127333	842.110352	113.940636
2829.539840	17369.127333	840.928711	62.833946
2829.539840	17369.127333	839.747070	26.910887
2829.539840	17369.127333	838.564453	44.069695
2829.539840	17369.127333	837.382813	38.479282
2829.539840	17369.127333	836.200195	-123.724564
2829.539840	17369.127333	835.017578	24.773321
2829.539840	17369.127333	833.834961	46.958279
2829.539840	17369.127333	832.651367	-173.217300
2829.539840	17369.127333	831.467773	-82.858681
2829.539840	17369.127333	830.284180	-179.273499
2829.539840	17369.127333	829.100586	-131.845612
2829.539840	17369.127333	827.916992	-119.753242
2829.539840	17369.127333	826.732422	-97.580696
2829.539840	17369.127333	825.547852	-9.864894
2829.539840	17369.127333	824.363281	-53.271427
2829.539840	17369.127333	823.177734	84.800461
2829.539840	17369.127333	821.992188	-112.319969
2829.539840	17369.127333	820.806641	-67.512672
2829.539840	17369.127333	819.621094	-118.439377
2829.539840	17369.127333	818.434570	-118.982750
2829.539840	17369.127333	817.249023	-8.750780
2829.539840	17369.127333	816.062500	73.743690
2829.539840	17369.127333	814.875000	15.267129
2829.539840	17369.127333	813.688477	-101.060905
2829.539840	17369.127333	812.500977	26.672003
2829.539840	17369.127333	811.313477	99.016273
2829.539840	17369.127333	810.125977	50.625084
2829.539840	17369.127333	808.937500	-125.967331
2829.539840	17369.127333	807.749023	-31.027458
2829.539840	17369.127333	806.560547	-59.269810
2829.539840	17369.127333	805.372070	20.532495
2829.539840	17369.127333	804.182617	266.089417
2829.539840	17369.127333	802.994141	9.243202
2829.539840	17369.127333	801.803711	13.638711
2829.539840	17369.127333	800.614258	63.214172
2829.539840	17369.127333	799.424805	-160.818512
2829.539840	17369.127333	798.234375	-83.635162
2829.539840	17369.127333	797.043945	-71.721039
2829.539840	17369.127333	795.852539	-57.309589
2829.539840	17369.127333	794.662109	84.988777
2829.539840	17369.127333	793.470703	-18.495789
2829.539840	17369.127333	792.279297	86.120117
2829.539840	17369.127333	791.087891	195.697586
2829.539840	17369.127333	789.895508	92.232590
2829.539840	17369.127333	788.703125	-41.260128
2829.539840	17369.127333	787.510742	-169.696350
2829.539840	17369.127333	786.318359	-107.768234
2829.539840	17369.127333	785.125000	19.221817
2829.539840	17369.127333	783.931641	23.495089
2829.539840	17369.127333	782.738281	32.762730
2829.539840	17369.127333	781.544922	162.119186
2829.539840	17369.127333	780.350586	41.251259
2829.539840	17369.127333	779.156250	-114.591927
2829.539840	17369.127333	777.961914	-22.824234
2829.539840	17369.127333	776.767578	73.894859
2829.539840	17369.127333	775.572266	-41.897331
2829.539840	17369.127333	774.376953	32.272480
2829.539840	17369.127333	773.181641	133.882980
2829.539840	17369.127333	771.986328	50.589119
2829.539840	17369.127333	770.790039	-127.585495
2829.539840	17369.127333	769.593750	-23.545019
2829.539840	17369.127333	768.397461	0.553973
2829.539840	17369.127333	767.201172	-155.075470
2829.539840	17369.127333	766.003906	-121.004539
2829.539840	17369.127333	764.806641	-86.961578
2829.539840	17369.127333	763.609375	-10.543597
2829.539840	17369.127333	762.412109	70.814964
2829.539840	17369.127333	761.213867	-79.752052
2829.539840	17369.127333	760.015625	-45.805977
2829.539840	17369.127333	758.817383	13.033218
2829.539840	17369.127333	757.618164	-37.805275
2829.539840	17369.127333	756.419922	3.535369
2829.539840	17369.127333	755.220703	-156.904968
2829.539840	17369.127333	754.021484	138.409134
2829.539840	17369.127333	752.821289	35.234924
2829.539840	17369.127333	751.621094	1.782155
2829.539840	17369.127333	750.420898	55.426430
2829.539840	17369.127333	749.220703	56.779678
2829.539840	17369.127333	748.020508	135.227753
2829.539840	17369.127333	746.819336	-30.109856
2829.539840	17369.127333	745.618164	-11.392978
2829.539840	17369.127333	744.416992	186.290115
2829.539840	17369.127333	743.214844	43.353783
2829.539840	17369.127333	742.012695	14.765196
2829.539840	17369.127333	740.810547	88.031296
2829.539840	17369.127333	739.608398	96.661469
2829.539840	17369.127333	738.406250	271.656311
2829.539840	17369.127333	737.203125	496.214233
2829.539840	17369.127333	736.000000	469.930939
2829.539840	17369.127333	734.795898	783.654236
2829.539840	17369.127333	733.592773	906.156555
2829.539840	17369.127333	732.388672	966.561646
2829.539840	17369.127333	731.184570	897.938843
2829.539840	17369.127333	729.979492	1067.381958
2829.539840	17369.127333	728.775391	800.371277
2829.539840	17369.127333	727.570313	684.651794
2829.539840	17369.127333	726.365234	536.736816
2829.539840	17369.127333	725.160156	401.245178
2829.539840	17369.127333	723.954102	340.099640
2829.539840	17369.127333	722.748047	192.266785
2829.539840	17369.127333	721.541992	267.325287
2829.539840	17369.127333	720.334961	156.647598
2829.539840	17369.127333	719.128906	206.872452
2829.539840	17369.127333	717.921875	291.691406
2829.539840	17369.127333	716.714844	64.706833
2829.539840	17369.127333	715.506836	52.989357
2829.539840	17369.127333	714.298828	251.458298
2829.539840	17369.127333	713.090820	316.294952
2829.539840	17369.127333	711.882813	146.228409
2829.539840	17369.127333	710.674805	35.518620
2829.539840	17369.127333	709.465820	-1.047621
2829.539840	17369.127333	708.256836	-94.451729
2829.539840	17369.127333	707.047852	29.507608
2829.539840	17369.127333	705.837891	304.018036
2829.539840	17369.127333	704.627930	153.723190
2829.539840	17369.127333	703.417969	146.625229
2829.539840	17369.127333	702.208008	114.817039
2829.539840	17369.127333	700.998047	-5.838402
2829.539840	17369.127333	699.787109	127.608635
2829.539840	17369.127333	698.576172	16.795614
2829.539840	17369.127333	697.364258	110.656601
2829.539840	17369.127333	696.153320	9.683852
2829.539840	17369.127333	694.941406	-9.946118
2829.539840	17369.127333	693.729492	9.824215
2829.539840	17369.127333	692.516602	-24.654194
2829.539840	17369.127333	691.304688	54.154629
2829.539840	17369.127333	690.091797	142.742416
2829.539840	17369.127333	688.878906	113.069168
2829.539840	17369.127333	687.665039	157.220139
2829.539840	17369.127333	686.451172	73.333122
2829.539840	17369.127333	685.237305	85.408371
2829.539840	17369.127333	684.023438	48.236168
2829.539840	17369.127333	682.809570	30.717640
2829.539840	17369.127333	681.594727	244.321198
2829.539840	17369.127333	680.379883	388.954407
2829.539840	17369.127333	679.165039	299.971008
2829.539840	17369.127333	677.949219	306.827667
2829.539840	17369.127333	676.733398	382.437378
2829.539840	17369.127333	675.517578	354.801422
2829.539840	17369.127333	674.301758	319.767792
2829.539840	17369.127333	673.084961	355.915070
2829.539840	17369.127333	671.869141	357.638214
2829.539840	17369.127333	670.651367	187.505356
2829.539840	17369.127333	669.434570	321.689789
2829.539840	17369.127333	668.216797	222.701294
2829.539840	17369.127333	667.000000	452.399994
2829.539840	17369.127333	665.781250	301.839966
2829.539840	17369.127333	664.563477	349.902466
2829.539840	17369.127333	663.344727	255.723007
2829.539840	17369.127333	662.125977	298.786407
2829.539840	17369.127333	660.907227	464.304016
2829.539840	17369.127333	659.688477	249.992081
2829.539840	17369.127333	658.468750	248.812195
2829.539840	17369.127333	657.249023	357.783539
2829.539840	17369.127333	656.029297	236.532013
2829.539840	17369.127333	654.808594	105.495781
2829.539840	17369.127333	653.587891	226.532974
2829.539840	17369.127333	652.367188	278.968292
2829.539840	17369.127333	651.146484	260.399902
2829.539840	17369.127333	649.924805	359.184753
2829.539840	17369.127333	648.704102	237.824753
2829.539840	17369.127333	647.482422	226.478134
2829.539840	17369.127333	646.259766	97.774765
2829.539840	17369.127333	645.037109	364.941742
2829.539840	17369.127333	643.815430	353.445618
2829.539840	17369.127333	642.591797	283.286011
2829.539840	17369.127333	641.369141	239.977127
2829.539840	17369.127333	640.145508	321.158356
2829.539840	17369.127333	638.921875	272.889038
2829.539840	17369.127333	637.698242	302.692810
2829.539840	17369.127333	636.474609	395.880310
2829.539840	17369.127333	635.250000	257.235992
2829.539840	17369.127333	634.025391	242.993286
2829.539840	17369.127333	632.800781	50.709953
2829.539840	17369.127333	631.575195	175.389633
2829.539840	17369.127333	630.349609	243.914780
2829.539840	17369.127333	629.124023	334.300751
2829.539840	17369.127333	627.898438	251.625916
2829.539840	17369.127333	626.671875	319.963654
2829.539840	17369.127333	625.445313	215.324005
2829.539840	17369.127333	624.218750	247.036377
2829.539840	17369.127333	622.992188	230.008774
2829.539840	17369.127333	621.764648	276.223175
2829.539840	17369.127333	620.537109	283.445709
2829.539840	17369.127333	619.309570	161.690353
2829.539840	17369.127333	618.081055	215.064072
2829.539840	17369.127333	616.852539	73.839935
2829.539840	17369.127333	615.624023	166.030029
2829.539840	17369.127333	614.395508	224.112778
2829.539840	17369.127333	613.166992	133.893723
2829.539840	17369.127333	611.937500	36.383553
2829.539840	17369.127333	610.708008	65.191010
2829.539840	17369.127333	609.477539	93.946373
2829.539840	17369.127333	608.248047	105.659409
2829.539840	17369.127333	607.017578	71.204018
2829.539840	17369.127333	605.787109	136.236938
2829.539840	17369.127333	604.555664	-29.317644
2829.539840	17369.127333	603.325195	67.177254
2829.539840	17369.127333	602.093750	161.167633
2829.539840	17369.127333	600.861328	199.306274
2829.539840	17369.127333	599.629883	145.268448
2829.539840	17369.127333	598.397461	30.618704
2829.539840	17369.127333	597.165039	-76.744240
2829.539840	17369.127333	595.932617	-36.294910
2829.539840	17369.127333	594.699219	-75.836769
2829.539840	17369.127333	593.465820	-151.720963
2829.539840	17369.127333	592.232422	-150.118790
2829.539840	17369.127333	590.999023	-34.766411
2829.539840	17369.127333	589.764648	-1.786680
2829.539840	17369.127333	588.530273	-24.505718
2829.539840	17369.127333	587.295898	-139.176773
2829.539840	17369.127333	586.061523	4.985974
2829.539840	17369.127333	584.826172	-41.987511
2829.539840	17369.127333	583.590820	-117.979378
2829.539840	17369.127333	582.355469	-39.259441
2829.539840	17369.127333	581.119141	27.315044
2829.539840	17369.127333	579.882813	4.437693
2829.539840	17369.127333	578.646484	150.646835
2829.539840	17369.127333	577.410156	289.525726
2829.539840	17369.127333	576.172852	179.608688
2829.539840	17369.127333	574.935547	69.717361
2829.539840	17369.127333	573.698242	145.704086
2829.539840	17369.127333	572.460938	221.639465
2829.539840	17369.127333	571.222656	145.525070
2829.539840	17369.127333	569.984375	223.800812
2829.539840	17369.127333	568.746094	277.909882
2829.539840	17369.127333	567.506836	281.343567
2829.539840	17369.127333	566.267578	91.915871
2829.539840	17369.127333	565.028320	61.617378
2829.539840	17369.127333	563.789063	86.737473
2829.539840	17369.127333	562.548828	56.423218
2829.539840	17369.127333	561.309570	245.286789
2829.539840	17369.127333	560.068359	77.669540
2829.539840	17369.127333	558.828125	1.600943
2829.539840	17369.127333	557.586914	226.421631
2829.539840	17369.127333	556.345703	-1.274016
2829.539840	17369.127333	555.104492	28.554403
2829.539840	17369.127333	553.863281	-4.177704
2829.539840	17369.127333	552.621094	210.799271
2829.539840	17369.127333	551.378906	211.688141
2829.539840	17369.127333	550.136719	73.148430
2829.539840	17369.127333	548.893555	-5.255798
2829.539840	17369.127333	547.650391	79.764198
2829.539840	17369.127333	546.407227	215.195114
2829.539840	17369.127333	545.164063	216.065628
2829.539840	17369.127333	543.919922	238.543320
2829.539840	17369.127333	542.675781	311.428619
2829.539840	17369.127333	541.431641	281.072479
2829.539840	17369.127333	540.186523	289.124390
2829.539840	17369.127333	538.941406	227.598175
2829.539840	17369.127333	537.696289	242.861343
2829.539840	17369.127333	536.451172	178.982101
2829.539840	17369.127333	535.205078	170.279388
2829.539840	17369.127333	533.959961	53.717400
2829.539840	17369.127333	532.712891	148.112106
2829.539840	17369.127333	531.466797	120.274620
2829.539840	17369.127333	530.219727	66.101715
2829.539840	17369.127333	528.972656	237.104660
2829.539840	17369.127333	527.725586	175.766129
2829.539840	17369.127333	526.478516	35.459896
2829.539840	17369.127333	525.230469	62.773930
2829.539840	17369.127333	523.982422	-60.675152
2829.539840	17369.127333	522.734375	12.132381
2829.539840	17369.127333	521.485352	-68.172073
2829.539840	17369.127333	520.236328	-59.940735
2829.539840	17369.127333	518.987305	-6.268180
2829.539840	17369.127333	517.737305	90.423256
2829.539840	17369.127333	516.488281	-125.996002
2829.539840	17369.127333	515.238281	49.566231
2829.539840	17369.127333	513.988281	31.564205
2829.539840	17369.127333	512.737305	130.619507
2829.539840	17369.127333	511.486328	64.882576
2829.539840	17369.127333	510.235352	6.355350
2829.539840	17369.127333	508.984375	86.314629
2829.539840	17369.127333	507.732422	-198.864151
2829.539840	17369.127333	506.480469	19.523474
2829.539840	17369.127333	505.228516	175.818665
2829.539840	17369.127333	503.976563	-68.590088
2829.539840	17369.127333	502.723633	-193.657501
2829.539840	17369.127333	501.470703	-75.498146
2829.539840	17369.127333	500.217773	-90.834023
2829.539840	17369.127333	498.963867	67.801010
2829.539840	17369.127333	497.709961	126.333694
2829.539840	17369.127333	496.456055	-50.933674
2829.539840	17369.127333	495.202148	31.456451
2829.539840	17369.127333	493.947266	278.102905
2829.539840	17369.127333	492.692383	253.316940
2829.539840	17369.127333	491.437500	161.931427
2829.539840	17369.127333	490.181641	251.425003
2829.539840	17369.127333	488.926758	-61.097675
2829.539840	17369.127333	487.670898	18.935972
2829.539840	17369.127333	486.414063	141.751740
2829.539840	17369.127333	485.158203	-54.003532
2829.539840	17369.127333	483.901367	-95.173820
2829.539840	17369.127333	482.644531	-117.297112
2829.539840	17369.127333	481.386719	67.286079
2829.539840	17369.127333	480.128906	-28.457043
2829.539840	17369.127333	478.871094	23.085588
2829.539840	17369.127333	477.613281	58.003986
2829.539840	17369.127333	476.355469	9.848057
2829.539840	17369.127333	475.096680	-19.289881
2829.539840	17369.127333	473.837891	-8.067579
2829.539840	17369.127333	472.578125	124.135468
2829.539840	17369.127333	471.319336	128.232559
2829.539840	17369.127333	470.059570	158.417328
2829.539840	17369.127333	468.799805	110.370995
2829.539840	17369.127333	467.539063	195.071167
2829.539840	17369.127333	466.278320	-44.880222
2829.539840	17369.127333	465.017578	49.304237
2829.539840	17369.127333	463.756836	-98.133530
2829.539840	17369.127333	462.495117	43.382359
2829.539840	17369.127333	461.233398	-137.136917
2829.539840	17369.127333	459.971680	-168.463928
2829.539840	17369.127333	458.709961	-19.933329
2829.539840	17369.127333	457.447266	-138.826096
2829.539840	17369.127333	456.184570	-32.963066
2829.539840	17369.127333	454.921875	-132.903839
2829.539840	17369.127333	453.658203	-83.862389
2829.539840	17369.127333	452.394531	-335.071503
2829.539840	17369.127333	451.130859	-125.336769
2829.539840	17369.127333	449.867188	-83.478539
2829.539840	17369.127333	448.602539	-129.073654
2829.539840	17369.127333	447.337891	-9.350984
2829.539840	17369.127333	446.073242	-99.870537
2829.539840	17369.127333	444.807617	-20.412277
2829.539840	17369.127333	443.542969	68.415787
2829.539840	17369.127333	442.276367	81.641716
2829.539840	17369.127333	441.010742	229.296097
2829.539840	17369.127333	439.744141	-28.877005
2829.539840	17369.127333	438.478516	80.896416
2829.539840	17369.127333	437.210938	157.546661
2829.539840	17369.127333	435.944336	130.382935
2829.539840	17369.127333	434.676758	91.372948
2829.539840	17369.127333	433.409180	73.511101
2829.539840	17369.127333	432.141602	-78.699402
2829.539840	17369.127333	430.873047	112.925499
2829.539840	17369.127333	429.604492	217.251892
2829.539840	17369.127333	428.335938	55.414764
2829.539840	17369.127333	427.067383	194.813065
2829.539840	17369.127333	425.797852	195.202026
2829.539840	17369.127333	424.528320	296.639191
2829.539840	17369.127333	423.258789	108.597572
2829.539840	17369.127333	421.988281	153.314972
2829.539840	17369.127333	420.717773	195.526230
2829.539840	17369.127333	419.447266	16.619314
2829.539840	17369.127333	418.175781	136.097107
2829.539840	17369.127333	416.905273	116.743622
2829.539840	17369.127333	415.633789	308.645081
2829.539840	17369.127333	414.362305	112.775536
2829.539840	17369.127333	413.089844	36.554867
2829.539840	17369.127333	411.817383	131.546707
2829.539840	17369.127333	410.544922	-34.223969
2829.539840	17369.127333	409.272461	36.867680
2829.539840	17369.127333	407.999023	81.898605
2829.539840	17369.127333	406.725586	86.807487
2829.539840	17369.127333	405.452148	96.166603
2829.539840	17369.127333	404.177734	32.587696
2829.539840	17369.127333	402.903320	261.775238
2829.539840	17369.127333	401.628906	153.133163
2829.539840	17369.127333	400.354492	189.521713
2829.539840	17369.127333	399.079102	234.965195
2829.539840	17369.127333	397.803711	186.406921
2829.539840	17369.127333	396.528320	32.188671
2829.539840	17369.127333	395.251953	76.680717
2829.539840	17369.127333	393.976563	55.288265
2829.539840	17369.127333	392.700195	185.638092
2829.539840	17369.127333	391.422852	74.596222
2829.539840	17369.127333	390.145508	77.827164
2829.539840	17369.127333	388.869141	164.852722
2829.539840	17369.127333	387.590820	45.678665
2829.539840	17369.127333	386.313477	155.204300
2829.539840	17369.127333	385.035156	114.673370
2829.539840	17369.127333	383.756836	160.150009
2829.539840	17369.127333	382.478516	275.211975
2829.539840	17369.127333	381.199219	146.849167
2829.539840	17369.127333	379.919922	148.788742
2829.539840	17369.127333	378.640625	68.505661
2829.539840	17369.127333	377.360352	71.723366
2829.539840	17369.127333	376.080078	-0.283297
2829.539840	17369.127333	374.799805	253.758270
2829.539840	17369.127333	373.519531	103.609055
2829.539840	17369.127333	372.238281	29.846909
2829.539840	17369.127333	370.957031	93.028419
2829.539840	17369.127333	369.675781	92.599762
2829.539840	17369.127333	368.394531	156.743973
2829.539840	17369.127333	367.112305	94.343246
2829.539840	17369.127333	365.830078	82.496223
2829.539840	17369.127333	364.546875	-104.756828
2829.539840	17369.127333	363.264648	133.394119
2829.539840	17369.127333	361.981445	49.413765
2829.539840	17369.127333	360.698242	113.603149
2829.539840	17369.127333	359.414063	-60.412022
2829.539840	17369.127333	358.129883	-65.395035
2829.539840	17369.127333	356.845703	103.168655
2829.539840	17369.127333	355.561523	-38.498913
2829.539840	17369.127333	354.276367	-29.957516
2829.539840	17369.127333	352.991211	-8.434852
2829.539840	17369.127333	351.706055	72.503334
2829.539840	17369.127333	350.420898	-59.016884
2829.539840	17369.127333	349.134766	-47.545902
2829.539840	17369.127333	347.848633	-183.450470
2829.539840	17369.127333	346.561523	-199.701843
2829.539840	17369.127333	345.275391	-36.005516
2829.539840	17369.127333	343.988281	112.501244
2829.539840	17369.127333	342.700195	-25.661354
2829.539840	17369.127333	341.413086	-37.384926
2829.539840	17369.127333	340.125000	79.471153
2829.539840	17369.127333	338.836914	-83.254257
2829.539840	17369.127333	337.548828	35.567539
2829.539840	17369.127333	336.259766	-113.588371
2829.539840	17369.127333	334.970703	-64.813904
2829.539840	17369.127333	333.681641	-225.994171
2829.539840	17369.127333	332.391602	39.856197
2829.539840	17369.127333	331.101563	7.679454
2829.539840	17369.127333	329.811523	-95.489777
2829.539840	17369.127333	328.521484	-49.763092
2829.539840	17369.127333	327.230469	-17.302452
2829.539840	17369.127333	325.939453	27.346706
2829.539840	17369.127333	324.648438	-47.706844
2829.539840	17369.127333	323.356445	-45.908623
2829.539840	17369.127333	322.064453	60.435558
2829.539840	17369.127333	320.772461	19.257267
2829.539840	17369.127333	319.480469	-167.082047
2829.539840	17369.127333	318.187500	-94.243820
2829.539840	17369.127333	316.894531	-81.177261
2829.539840	17369.127333	315.601563	-84.010780
2829.539840	17369.127333	314.307617	-19.714725
2829.539840	17369.127333	313.013672	37.799576
2829.539840	17369.127333	311.719727	88.485062
2829.539840	17369.127333	310.425781	-75.379074
2829.539840	17369.127333	309.130859	62.999050
2829.539840	17369.127333	307.835938	72.112198
2829.539840	17369.127333	306.541016	242.547318
2829.539840	17369.127333	305.245117	-48.405136
2829.539840	17369.127333	303.949219	-12.133921
2829.539840	17369.127333	302.653320	198.995758
2829.539840	17369.127333	301.356445	335.907196
2829.539840	17369.127333	300.060547	329.633728
2829.539840	17369.127333	298.763672	373.505157
