#X		#Y		#Wave		#Intensity
2692.219309	17476.530000	2000.043945	31.663910
2692.219309	17476.530000	1999.080078	63.335762
2692.219309	17476.530000	1998.116211	7.414350
2692.219309	17476.530000	1997.151367	-26.321789
2692.219309	17476.530000	1996.186523	170.241058
2692.219309	17476.530000	1995.222656	-44.626728
2692.219309	17476.530000	1994.256836	-120.834846
2692.219309	17476.530000	1993.291992	-221.905930
2692.219309	17476.530000	1992.327148	-92.806381
2692.219309	17476.530000	1991.361328	-95.061821
2692.219309	17476.530000	1990.395508	-164.251709
2692.219309	17476.530000	1989.429688	-0.922772
2692.219309	17476.530000	1988.463867	152.346924
2692.219309	17476.530000	1987.497070	-77.939728
2692.219309	17476.530000	1986.531250	136.916260
2692.219309	17476.530000	1985.564453	-14.347183
2692.219309	17476.530000	1984.597656	98.881943
2692.219309	17476.530000	1983.630859	71.091492
2692.219309	17476.530000	1982.664063	102.540726
2692.219309	17476.530000	1981.696289	-29.170935
2692.219309	17476.530000	1980.728516	-151.029144
2692.219309	17476.530000	1979.761719	223.531433
2692.219309	17476.530000	1978.792969	79.305702
2692.219309	17476.530000	1977.825195	9.133651
2692.219309	17476.530000	1976.857422	40.131695
2692.219309	17476.530000	1975.888672	290.716705
2692.219309	17476.530000	1974.919922	286.986908
2692.219309	17476.530000	1973.951172	-104.139023
2692.219309	17476.530000	1972.982422	180.696869
2692.219309	17476.530000	1972.013672	18.989239
2692.219309	17476.530000	1971.043945	69.349594
2692.219309	17476.530000	1970.075195	188.673218
2692.219309	17476.530000	1969.105469	-14.987395
2692.219309	17476.530000	1968.135742	252.084976
2692.219309	17476.530000	1967.165039	319.438873
2692.219309	17476.530000	1966.195313	-14.819455
2692.219309	17476.530000	1965.224609	330.807190
2692.219309	17476.530000	1964.253906	299.496857
2692.219309	17476.530000	1963.283203	147.520859
2692.219309	17476.530000	1962.312500	249.121124
2692.219309	17476.530000	1961.341797	170.986816
2692.219309	17476.530000	1960.370117	193.743851
2692.219309	17476.530000	1959.399414	268.129395
2692.219309	17476.530000	1958.427734	408.879883
2692.219309	17476.530000	1957.455078	254.432205
2692.219309	17476.530000	1956.483398	95.099625
2692.219309	17476.530000	1955.511719	112.812386
2692.219309	17476.530000	1954.539063	147.705688
2692.219309	17476.530000	1953.566406	133.416168
2692.219309	17476.530000	1952.593750	153.513275
2692.219309	17476.530000	1951.621094	207.978485
2692.219309	17476.530000	1950.647461	24.161537
2692.219309	17476.530000	1949.674805	189.106018
2692.219309	17476.530000	1948.701172	368.707581
2692.219309	17476.530000	1947.727539	226.651459
2692.219309	17476.530000	1946.753906	231.893478
2692.219309	17476.530000	1945.780273	-199.667236
2692.219309	17476.530000	1944.805664	210.445602
2692.219309	17476.530000	1943.831055	90.553818
2692.219309	17476.530000	1942.856445	-115.140892
2692.219309	17476.530000	1941.881836	-11.811866
2692.219309	17476.530000	1940.907227	-173.300446
2692.219309	17476.530000	1939.932617	5.967997
2692.219309	17476.530000	1938.957031	236.627609
2692.219309	17476.530000	1937.981445	75.156204
2692.219309	17476.530000	1937.005859	-110.762344
2692.219309	17476.530000	1936.030273	-201.094620
2692.219309	17476.530000	1935.054688	97.966209
2692.219309	17476.530000	1934.078125	-31.559250
2692.219309	17476.530000	1933.101563	-134.119125
2692.219309	17476.530000	1932.125000	135.370621
2692.219309	17476.530000	1931.148438	-60.181778
2692.219309	17476.530000	1930.171875	-126.002914
2692.219309	17476.530000	1929.194336	45.468616
2692.219309	17476.530000	1928.217773	16.322678
2692.219309	17476.530000	1927.240234	60.537529
2692.219309	17476.530000	1926.262695	-112.854706
2692.219309	17476.530000	1925.284180	-66.202957
2692.219309	17476.530000	1924.306641	-44.017044
2692.219309	17476.530000	1923.328125	78.331474
2692.219309	17476.530000	1922.350586	2.746810
2692.219309	17476.530000	1921.372070	68.847549
2692.219309	17476.530000	1920.392578	-48.239746
2692.219309	17476.530000	1919.414063	-114.019119
2692.219309	17476.530000	1918.434570	-65.053757
2692.219309	17476.530000	1917.456055	-206.486404
2692.219309	17476.530000	1916.476563	64.514198
2692.219309	17476.530000	1915.497070	93.866623
2692.219309	17476.530000	1914.516602	-45.112465
2692.219309	17476.530000	1913.537109	57.389259
2692.219309	17476.530000	1912.556641	35.482136
2692.219309	17476.530000	1911.576172	20.883528
2692.219309	17476.530000	1910.595703	237.834991
2692.219309	17476.530000	1909.615234	91.574165
2692.219309	17476.530000	1908.633789	20.886217
2692.219309	17476.530000	1907.653320	-152.109863
2692.219309	17476.530000	1906.671875	3.754566
2692.219309	17476.530000	1905.690430	-59.625462
2692.219309	17476.530000	1904.708984	149.688751
2692.219309	17476.530000	1903.727539	-181.504730
2692.219309	17476.530000	1902.745117	-298.417053
2692.219309	17476.530000	1901.762695	-176.838760
2692.219309	17476.530000	1900.780273	17.659061
2692.219309	17476.530000	1899.797852	190.169281
2692.219309	17476.530000	1898.815430	233.693008
2692.219309	17476.530000	1897.832031	136.145844
2692.219309	17476.530000	1896.849609	247.684128
2692.219309	17476.530000	1895.866211	-80.791740
2692.219309	17476.530000	1894.882813	23.398485
2692.219309	17476.530000	1893.898438	93.506187
2692.219309	17476.530000	1892.915039	-125.526962
2692.219309	17476.530000	1891.930664	-26.332108
2692.219309	17476.530000	1890.947266	-252.608109
2692.219309	17476.530000	1889.962891	-143.781158
2692.219309	17476.530000	1888.977539	-37.453907
2692.219309	17476.530000	1887.993164	-69.543816
2692.219309	17476.530000	1887.007813	272.032471
2692.219309	17476.530000	1886.023438	84.554840
2692.219309	17476.530000	1885.038086	-51.952068
2692.219309	17476.530000	1884.051758	46.797680
2692.219309	17476.530000	1883.066406	-191.570084
2692.219309	17476.530000	1882.081055	13.754210
2692.219309	17476.530000	1881.094727	119.581886
2692.219309	17476.530000	1880.108398	-36.396687
2692.219309	17476.530000	1879.122070	379.446320
2692.219309	17476.530000	1878.135742	97.418449
2692.219309	17476.530000	1877.148438	115.778084
2692.219309	17476.530000	1876.162109	85.651611
2692.219309	17476.530000	1875.174805	166.857666
2692.219309	17476.530000	1874.187500	214.094635
2692.219309	17476.530000	1873.199219	-92.086288
2692.219309	17476.530000	1872.211914	102.681870
2692.219309	17476.530000	1871.223633	222.324753
2692.219309	17476.530000	1870.236328	191.900955
2692.219309	17476.530000	1869.248047	200.124969
2692.219309	17476.530000	1868.258789	68.050209
2692.219309	17476.530000	1867.270508	85.850853
2692.219309	17476.530000	1866.282227	89.081741
2692.219309	17476.530000	1865.292969	208.246719
2692.219309	17476.530000	1864.303711	114.687294
2692.219309	17476.530000	1863.314453	40.423847
2692.219309	17476.530000	1862.324219	205.231537
2692.219309	17476.530000	1861.334961	53.578182
2692.219309	17476.530000	1860.344727	10.560059
2692.219309	17476.530000	1859.354492	353.704529
2692.219309	17476.530000	1858.364258	204.319061
2692.219309	17476.530000	1857.374023	76.638954
2692.219309	17476.530000	1856.383789	-94.491188
2692.219309	17476.530000	1855.392578	149.240448
2692.219309	17476.530000	1854.401367	433.804932
2692.219309	17476.530000	1853.410156	50.304714
2692.219309	17476.530000	1852.418945	28.475065
2692.219309	17476.530000	1851.426758	264.471283
2692.219309	17476.530000	1850.435547	254.504944
2692.219309	17476.530000	1849.443359	34.850510
2692.219309	17476.530000	1848.451172	12.727569
2692.219309	17476.530000	1847.458984	-69.679367
2692.219309	17476.530000	1846.466797	35.685326
2692.219309	17476.530000	1845.473633	205.925735
2692.219309	17476.530000	1844.480469	265.294983
2692.219309	17476.530000	1843.487305	45.391666
2692.219309	17476.530000	1842.494141	111.816368
2692.219309	17476.530000	1841.500977	274.357178
2692.219309	17476.530000	1840.506836	205.842407
2692.219309	17476.530000	1839.513672	-71.950058
2692.219309	17476.530000	1838.519531	109.498650
2692.219309	17476.530000	1837.525391	216.266495
2692.219309	17476.530000	1836.530273	176.288925
2692.219309	17476.530000	1835.536133	342.893372
2692.219309	17476.530000	1834.541016	182.594116
2692.219309	17476.530000	1833.545898	84.713684
2692.219309	17476.530000	1832.550781	15.594927
2692.219309	17476.530000	1831.555664	90.473297
2692.219309	17476.530000	1830.560547	18.783470
2692.219309	17476.530000	1829.564453	302.257202
2692.219309	17476.530000	1828.568359	314.344421
2692.219309	17476.530000	1827.572266	-31.178312
2692.219309	17476.530000	1826.576172	112.705727
2692.219309	17476.530000	1825.580078	182.079742
2692.219309	17476.530000	1824.583008	119.430878
2692.219309	17476.530000	1823.585938	140.615906
2692.219309	17476.530000	1822.588867	41.833279
2692.219309	17476.530000	1821.591797	43.638878
2692.219309	17476.530000	1820.594727	-0.188740
2692.219309	17476.530000	1819.596680	99.632080
2692.219309	17476.530000	1818.599609	-40.216202
2692.219309	17476.530000	1817.601563	229.390930
2692.219309	17476.530000	1816.603516	79.768059
2692.219309	17476.530000	1815.604492	104.842949
2692.219309	17476.530000	1814.606445	122.623199
2692.219309	17476.530000	1813.607422	324.543060
2692.219309	17476.530000	1812.608398	78.859009
2692.219309	17476.530000	1811.609375	-152.490112
2692.219309	17476.530000	1810.610352	147.082977
2692.219309	17476.530000	1809.610352	49.482071
2692.219309	17476.530000	1808.611328	243.481735
2692.219309	17476.530000	1807.611328	148.056061
2692.219309	17476.530000	1806.611328	69.278648
2692.219309	17476.530000	1805.610352	100.322441
2692.219309	17476.530000	1804.610352	-83.765564
2692.219309	17476.530000	1803.609375	-208.195694
2692.219309	17476.530000	1802.608398	-151.204391
2692.219309	17476.530000	1801.607422	70.389534
2692.219309	17476.530000	1800.606445	64.999702
2692.219309	17476.530000	1799.605469	-308.061798
2692.219309	17476.530000	1798.603516	-225.335648
2692.219309	17476.530000	1797.601563	-16.313467
2692.219309	17476.530000	1796.599609	144.799301
2692.219309	17476.530000	1795.597656	62.467125
2692.219309	17476.530000	1794.595703	-155.868927
2692.219309	17476.530000	1793.592773	-35.724609
2692.219309	17476.530000	1792.589844	-106.434647
2692.219309	17476.530000	1791.587891	-96.210243
2692.219309	17476.530000	1790.583984	94.952133
2692.219309	17476.530000	1789.581055	-90.461342
2692.219309	17476.530000	1788.577148	-97.308754
2692.219309	17476.530000	1787.574219	167.197433
2692.219309	17476.530000	1786.570313	-304.209503
2692.219309	17476.530000	1785.566406	174.208893
2692.219309	17476.530000	1784.561523	-2.169476
2692.219309	17476.530000	1783.557617	-190.499420
2692.219309	17476.530000	1782.552734	-79.132538
2692.219309	17476.530000	1781.547852	-388.946991
2692.219309	17476.530000	1780.542969	107.416504
2692.219309	17476.530000	1779.538086	77.996902
2692.219309	17476.530000	1778.532227	110.259369
2692.219309	17476.530000	1777.527344	-40.621239
2692.219309	17476.530000	1776.521484	38.922077
2692.219309	17476.530000	1775.515625	18.519791
2692.219309	17476.530000	1774.508789	-61.396564
2692.219309	17476.530000	1773.502930	-205.528046
2692.219309	17476.530000	1772.496094	-143.158157
2692.219309	17476.530000	1771.489258	135.099991
2692.219309	17476.530000	1770.482422	-23.622675
2692.219309	17476.530000	1769.475586	-132.576065
2692.219309	17476.530000	1768.467773	-28.083166
2692.219309	17476.530000	1767.460938	-206.048569
2692.219309	17476.530000	1766.453125	85.535866
2692.219309	17476.530000	1765.445313	-144.821060
2692.219309	17476.530000	1764.437500	186.689423
2692.219309	17476.530000	1763.428711	46.212570
2692.219309	17476.530000	1762.420898	-94.326805
2692.219309	17476.530000	1761.412109	32.806850
2692.219309	17476.530000	1760.403320	-67.669952
2692.219309	17476.530000	1759.393555	179.946243
2692.219309	17476.530000	1758.384766	-207.328903
2692.219309	17476.530000	1757.375000	-21.596632
2692.219309	17476.530000	1756.366211	-72.782196
2692.219309	17476.530000	1755.356445	15.557649
2692.219309	17476.530000	1754.345703	165.252975
2692.219309	17476.530000	1753.335938	113.670326
2692.219309	17476.530000	1752.325195	-39.747715
2692.219309	17476.530000	1751.315430	-48.952480
2692.219309	17476.530000	1750.304688	62.304832
2692.219309	17476.530000	1749.292969	178.108292
2692.219309	17476.530000	1748.282227	260.665527
2692.219309	17476.530000	1747.270508	-84.695206
2692.219309	17476.530000	1746.259766	103.958778
2692.219309	17476.530000	1745.248047	34.908440
2692.219309	17476.530000	1744.235352	95.652008
2692.219309	17476.530000	1743.223633	227.107300
2692.219309	17476.530000	1742.211914	108.122932
2692.219309	17476.530000	1741.199219	10.295141
2692.219309	17476.530000	1740.186523	131.872375
2692.219309	17476.530000	1739.173828	149.458786
2692.219309	17476.530000	1738.160156	-43.064560
2692.219309	17476.530000	1737.147461	233.770447
2692.219309	17476.530000	1736.133789	-15.532504
2692.219309	17476.530000	1735.120117	284.519836
2692.219309	17476.530000	1734.106445	292.021881
2692.219309	17476.530000	1733.091797	-190.854675
2692.219309	17476.530000	1732.078125	2.664067
2692.219309	17476.530000	1731.063477	153.571075
2692.219309	17476.530000	1730.048828	134.703949
2692.219309	17476.530000	1729.034180	299.428680
2692.219309	17476.530000	1728.019531	-25.800829
2692.219309	17476.530000	1727.003906	237.530334
2692.219309	17476.530000	1725.988281	76.963364
2692.219309	17476.530000	1724.972656	368.188538
2692.219309	17476.530000	1723.957031	560.370789
2692.219309	17476.530000	1722.941406	199.544128
2692.219309	17476.530000	1721.924805	365.576569
2692.219309	17476.530000	1720.909180	404.471039
2692.219309	17476.530000	1719.892578	292.755493
2692.219309	17476.530000	1718.875977	296.159454
2692.219309	17476.530000	1717.858398	268.886536
2692.219309	17476.530000	1716.841797	121.698242
2692.219309	17476.530000	1715.824219	347.983246
2692.219309	17476.530000	1714.806641	294.567139
2692.219309	17476.530000	1713.789063	278.642365
2692.219309	17476.530000	1712.770508	401.134796
2692.219309	17476.530000	1711.752930	352.129181
2692.219309	17476.530000	1710.734375	568.243774
2692.219309	17476.530000	1709.715820	206.912262
2692.219309	17476.530000	1708.697266	282.004761
2692.219309	17476.530000	1707.678711	110.674683
2692.219309	17476.530000	1706.659180	265.286957
2692.219309	17476.530000	1705.640625	621.415771
2692.219309	17476.530000	1704.621094	552.969360
2692.219309	17476.530000	1703.600586	-49.969215
2692.219309	17476.530000	1702.581055	432.266449
2692.219309	17476.530000	1701.561523	466.714996
2692.219309	17476.530000	1700.541016	533.838562
2692.219309	17476.530000	1699.520508	380.690887
2692.219309	17476.530000	1698.500000	630.277039
2692.219309	17476.530000	1697.478516	402.060944
2692.219309	17476.530000	1696.458008	473.481537
2692.219309	17476.530000	1695.436523	355.207642
2692.219309	17476.530000	1694.415039	552.777771
2692.219309	17476.530000	1693.393555	572.396240
2692.219309	17476.530000	1692.372070	491.351501
2692.219309	17476.530000	1691.349609	447.657837
2692.219309	17476.530000	1690.327148	738.244751
2692.219309	17476.530000	1689.304688	799.558777
2692.219309	17476.530000	1688.282227	996.327820
2692.219309	17476.530000	1687.259766	975.635254
2692.219309	17476.530000	1686.236328	952.522522
2692.219309	17476.530000	1685.213867	1076.519897
2692.219309	17476.530000	1684.190430	1165.353638
2692.219309	17476.530000	1683.166016	906.163391
2692.219309	17476.530000	1682.142578	803.431213
2692.219309	17476.530000	1681.119141	1330.856689
2692.219309	17476.530000	1680.094727	1244.268066
2692.219309	17476.530000	1679.070313	1358.298706
2692.219309	17476.530000	1678.045898	1581.856323
2692.219309	17476.530000	1677.020508	1742.278687
2692.219309	17476.530000	1675.996094	1716.058350
2692.219309	17476.530000	1674.970703	1878.607910
2692.219309	17476.530000	1673.945313	2008.404785
2692.219309	17476.530000	1672.919922	1940.012939
2692.219309	17476.530000	1671.893555	2069.619629
2692.219309	17476.530000	1670.868164	2446.071533
2692.219309	17476.530000	1669.841797	2351.837402
2692.219309	17476.530000	1668.815430	2404.293213
2692.219309	17476.530000	1667.789063	2559.118652
2692.219309	17476.530000	1666.761719	2334.402588
2692.219309	17476.530000	1665.735352	2209.818359
2692.219309	17476.530000	1664.708008	2643.655029
2692.219309	17476.530000	1663.680664	2304.927490
2692.219309	17476.530000	1662.653320	2768.732910
2692.219309	17476.530000	1661.625000	2739.299316
2692.219309	17476.530000	1660.597656	2577.333496
2692.219309	17476.530000	1659.569336	2752.436279
2692.219309	17476.530000	1658.541016	2729.886719
2692.219309	17476.530000	1657.512695	2790.965820
2692.219309	17476.530000	1656.483398	2408.233154
2692.219309	17476.530000	1655.455078	2501.806152
2692.219309	17476.530000	1654.425781	2695.154785
2692.219309	17476.530000	1653.396484	2751.411621
2692.219309	17476.530000	1652.366211	2612.599121
2692.219309	17476.530000	1651.336914	2842.874023
2692.219309	17476.530000	1650.306641	2485.922852
2692.219309	17476.530000	1649.276367	2375.017090
2692.219309	17476.530000	1648.246094	2556.407959
2692.219309	17476.530000	1647.215820	2482.601318
2692.219309	17476.530000	1646.185547	2888.784180
2692.219309	17476.530000	1645.154297	2455.557617
2692.219309	17476.530000	1644.123047	3097.960205
2692.219309	17476.530000	1643.091797	2752.896240
2692.219309	17476.530000	1642.060547	2767.082275
2692.219309	17476.530000	1641.028320	2813.665771
2692.219309	17476.530000	1639.997070	2772.233154
2692.219309	17476.530000	1638.964844	2628.906494
2692.219309	17476.530000	1637.931641	3191.730469
2692.219309	17476.530000	1636.899414	3184.941406
2692.219309	17476.530000	1635.867188	3009.212891
2692.219309	17476.530000	1634.833984	2884.438477
2692.219309	17476.530000	1633.800781	3046.571533
2692.219309	17476.530000	1632.767578	3315.037354
2692.219309	17476.530000	1631.734375	3451.597656
2692.219309	17476.530000	1630.700195	3428.565918
2692.219309	17476.530000	1629.666016	3430.977539
2692.219309	17476.530000	1628.631836	3807.800781
2692.219309	17476.530000	1627.597656	3673.834473
2692.219309	17476.530000	1626.563477	3752.474121
2692.219309	17476.530000	1625.528320	3909.610840
2692.219309	17476.530000	1624.493164	4045.921387
2692.219309	17476.530000	1623.458008	3902.827881
2692.219309	17476.530000	1622.422852	4149.929199
2692.219309	17476.530000	1621.387695	4140.775879
2692.219309	17476.530000	1620.351563	4406.225586
2692.219309	17476.530000	1619.315430	4150.201660
2692.219309	17476.530000	1618.279297	4161.871094
2692.219309	17476.530000	1617.243164	4097.462891
2692.219309	17476.530000	1616.207031	4438.917480
2692.219309	17476.530000	1615.169922	4243.125977
2692.219309	17476.530000	1614.132813	3840.009521
2692.219309	17476.530000	1613.095703	4363.444824
2692.219309	17476.530000	1612.058594	4276.173828
2692.219309	17476.530000	1611.020508	4069.176758
2692.219309	17476.530000	1609.983398	3947.532715
2692.219309	17476.530000	1608.945313	4010.164551
2692.219309	17476.530000	1607.907227	4082.026123
2692.219309	17476.530000	1606.868164	4199.920410
2692.219309	17476.530000	1605.830078	4050.893311
2692.219309	17476.530000	1604.791016	4182.650391
2692.219309	17476.530000	1603.751953	4286.802246
2692.219309	17476.530000	1602.712891	4213.875488
2692.219309	17476.530000	1601.673828	4485.948242
2692.219309	17476.530000	1600.633789	4171.708496
2692.219309	17476.530000	1599.594727	4200.152344
2692.219309	17476.530000	1598.554688	4217.132813
2692.219309	17476.530000	1597.513672	4758.012695
2692.219309	17476.530000	1596.473633	4469.475586
2692.219309	17476.530000	1595.433594	4043.310547
2692.219309	17476.530000	1594.392578	4384.323730
2692.219309	17476.530000	1593.351563	4472.726563
2692.219309	17476.530000	1592.310547	4168.650879
2692.219309	17476.530000	1591.268555	4449.959961
2692.219309	17476.530000	1590.227539	4336.594727
2692.219309	17476.530000	1589.185547	4402.265625
2692.219309	17476.530000	1588.143555	4529.914063
2692.219309	17476.530000	1587.100586	4210.408691
2692.219309	17476.530000	1586.058594	4496.397461
2692.219309	17476.530000	1585.015625	4459.128418
2692.219309	17476.530000	1583.972656	4412.790039
2692.219309	17476.530000	1582.929688	4536.112793
2692.219309	17476.530000	1581.886719	4421.219238
2692.219309	17476.530000	1580.843750	4274.388184
2692.219309	17476.530000	1579.799805	4150.588379
2692.219309	17476.530000	1578.755859	4040.663086
2692.219309	17476.530000	1577.711914	4013.281494
2692.219309	17476.530000	1576.666992	3853.244629
2692.219309	17476.530000	1575.623047	3883.302734
2692.219309	17476.530000	1574.578125	3908.855225
2692.219309	17476.530000	1573.533203	4138.064941
2692.219309	17476.530000	1572.488281	3834.443115
2692.219309	17476.530000	1571.443359	3960.889648
2692.219309	17476.530000	1570.397461	3973.071533
2692.219309	17476.530000	1569.351563	3896.219238
2692.219309	17476.530000	1568.305664	4000.021729
2692.219309	17476.530000	1567.259766	4007.937744
2692.219309	17476.530000	1566.213867	3965.706543
2692.219309	17476.530000	1565.166992	3498.810547
2692.219309	17476.530000	1564.120117	3609.879639
2692.219309	17476.530000	1563.073242	3558.939209
2692.219309	17476.530000	1562.026367	3540.083740
2692.219309	17476.530000	1560.978516	3354.755127
2692.219309	17476.530000	1559.930664	3354.419189
2692.219309	17476.530000	1558.883789	3340.527344
2692.219309	17476.530000	1557.834961	3080.429199
2692.219309	17476.530000	1556.787109	2907.213623
2692.219309	17476.530000	1555.739258	3016.872559
2692.219309	17476.530000	1554.690430	2725.450195
2692.219309	17476.530000	1553.641602	2978.901611
2692.219309	17476.530000	1552.592773	2758.483887
2692.219309	17476.530000	1551.542969	2939.176514
2692.219309	17476.530000	1550.494141	2700.891602
2692.219309	17476.530000	1549.444336	2471.923096
2692.219309	17476.530000	1548.394531	2375.219482
2692.219309	17476.530000	1547.344727	2542.718018
2692.219309	17476.530000	1546.293945	2166.386719
2692.219309	17476.530000	1545.244141	2340.956787
2692.219309	17476.530000	1544.193359	2206.213379
2692.219309	17476.530000	1543.142578	2442.378174
2692.219309	17476.530000	1542.090820	2135.119385
2692.219309	17476.530000	1541.040039	2178.244629
2692.219309	17476.530000	1539.988281	1976.001587
2692.219309	17476.530000	1538.936523	2342.116943
2692.219309	17476.530000	1537.884766	2194.740234
2692.219309	17476.530000	1536.833008	2333.796631
2692.219309	17476.530000	1535.780273	2363.915527
2692.219309	17476.530000	1534.727539	2121.682861
2692.219309	17476.530000	1533.674805	2040.888550
2692.219309	17476.530000	1532.622070	2293.943848
2692.219309	17476.530000	1531.569336	2129.482910
2692.219309	17476.530000	1530.515625	2033.297974
2692.219309	17476.530000	1529.461914	1839.759155
2692.219309	17476.530000	1528.408203	1714.496338
2692.219309	17476.530000	1527.354492	2056.567139
2692.219309	17476.530000	1526.299805	1716.235718
2692.219309	17476.530000	1525.246094	1684.480957
2692.219309	17476.530000	1524.191406	1797.931641
2692.219309	17476.530000	1523.136719	1510.448608
2692.219309	17476.530000	1522.081055	1775.982056
2692.219309	17476.530000	1521.026367	1153.736450
2692.219309	17476.530000	1519.970703	1840.755615
2692.219309	17476.530000	1518.915039	1658.284668
2692.219309	17476.530000	1517.859375	1313.076416
2692.219309	17476.530000	1516.802734	1189.950806
2692.219309	17476.530000	1515.747070	1372.511230
2692.219309	17476.530000	1514.690430	1075.570313
2692.219309	17476.530000	1513.633789	1201.870483
2692.219309	17476.530000	1512.577148	1140.602173
2692.219309	17476.530000	1511.519531	880.564453
2692.219309	17476.530000	1510.461914	892.055786
2692.219309	17476.530000	1509.405273	731.967712
2692.219309	17476.530000	1508.346680	1044.345581
2692.219309	17476.530000	1507.289063	708.424927
2692.219309	17476.530000	1506.231445	835.839111
2692.219309	17476.530000	1505.172852	1168.868774
2692.219309	17476.530000	1504.114258	756.887390
2692.219309	17476.530000	1503.055664	627.413330
2692.219309	17476.530000	1501.996094	574.897461
2692.219309	17476.530000	1500.937500	569.975403
2692.219309	17476.530000	1499.877930	562.976074
2692.219309	17476.530000	1498.818359	371.211700
2692.219309	17476.530000	1497.757813	299.219757
2692.219309	17476.530000	1496.698242	159.808121
2692.219309	17476.530000	1495.637695	162.645081
2692.219309	17476.530000	1494.577148	16.920927
2692.219309	17476.530000	1493.516602	-60.957527
2692.219309	17476.530000	1492.456055	-154.388168
2692.219309	17476.530000	1491.394531	-96.689926
2692.219309	17476.530000	1490.333008	-243.749466
2692.219309	17476.530000	1489.271484	66.490356
2692.219309	17476.530000	1488.209961	-147.694550
2692.219309	17476.530000	1487.148438	205.545883
2692.219309	17476.530000	1486.085938	5.299796
2692.219309	17476.530000	1485.023438	41.542843
2692.219309	17476.530000	1483.960938	57.722733
2692.219309	17476.530000	1482.898438	316.959015
2692.219309	17476.530000	1481.834961	126.617844
2692.219309	17476.530000	1480.772461	260.247620
2692.219309	17476.530000	1479.708984	324.340149
2692.219309	17476.530000	1478.644531	660.464661
2692.219309	17476.530000	1477.581055	459.785645
2692.219309	17476.530000	1476.517578	585.036743
2692.219309	17476.530000	1475.453125	744.038147
2692.219309	17476.530000	1474.388672	1019.982300
2692.219309	17476.530000	1473.323242	972.762146
2692.219309	17476.530000	1472.258789	593.870300
2692.219309	17476.530000	1471.193359	1033.918579
2692.219309	17476.530000	1470.127930	1189.061279
2692.219309	17476.530000	1469.062500	1194.308716
2692.219309	17476.530000	1467.997070	1305.045654
2692.219309	17476.530000	1466.930664	1328.773438
2692.219309	17476.530000	1465.865234	1688.552856
2692.219309	17476.530000	1464.798828	1607.454590
2692.219309	17476.530000	1463.731445	1935.377930
2692.219309	17476.530000	1462.665039	1723.380493
2692.219309	17476.530000	1461.597656	2263.862061
2692.219309	17476.530000	1460.530273	2032.071533
2692.219309	17476.530000	1459.462891	1973.928589
2692.219309	17476.530000	1458.395508	2072.396240
2692.219309	17476.530000	1457.327148	2014.922729
2692.219309	17476.530000	1456.259766	1984.531982
2692.219309	17476.530000	1455.191406	2293.393799
2692.219309	17476.530000	1454.123047	2179.284668
2692.219309	17476.530000	1453.053711	1902.552124
2692.219309	17476.530000	1451.985352	1872.520874
2692.219309	17476.530000	1450.916016	1780.561768
2692.219309	17476.530000	1449.846680	1960.592896
2692.219309	17476.530000	1448.776367	1621.444702
2692.219309	17476.530000	1447.707031	1478.001343
2692.219309	17476.530000	1446.636719	1219.021484
2692.219309	17476.530000	1445.566406	1220.848267
2692.219309	17476.530000	1444.496094	1207.522583
2692.219309	17476.530000	1443.425781	1279.499512
2692.219309	17476.530000	1442.354492	1209.696289
2692.219309	17476.530000	1441.283203	1452.545288
2692.219309	17476.530000	1440.211914	1192.102905
2692.219309	17476.530000	1439.140625	1037.997925
2692.219309	17476.530000	1438.069336	1271.102905
2692.219309	17476.530000	1436.997070	1142.926270
2692.219309	17476.530000	1435.924805	1173.113892
2692.219309	17476.530000	1434.852539	1154.739746
2692.219309	17476.530000	1433.780273	1089.704102
2692.219309	17476.530000	1432.707031	1086.333862
2692.219309	17476.530000	1431.633789	941.600586
2692.219309	17476.530000	1430.560547	900.802795
2692.219309	17476.530000	1429.487305	743.979248
2692.219309	17476.530000	1428.413086	905.856079
2692.219309	17476.530000	1427.339844	932.048401
2692.219309	17476.530000	1426.265625	944.593018
2692.219309	17476.530000	1425.191406	735.972107
2692.219309	17476.530000	1424.116211	662.431946
2692.219309	17476.530000	1423.041992	429.992310
2692.219309	17476.530000	1421.966797	428.927887
2692.219309	17476.530000	1420.891602	560.514832
2692.219309	17476.530000	1419.816406	508.518280
2692.219309	17476.530000	1418.740234	405.423767
2692.219309	17476.530000	1417.665039	585.512817
2692.219309	17476.530000	1416.588867	803.155579
2692.219309	17476.530000	1415.512695	886.183899
2692.219309	17476.530000	1414.435547	1003.320190
2692.219309	17476.530000	1413.359375	1000.414978
2692.219309	17476.530000	1412.282227	1083.925537
2692.219309	17476.530000	1411.205078	1131.556152
2692.219309	17476.530000	1410.127930	1061.733643
2692.219309	17476.530000	1409.049805	1150.224731
2692.219309	17476.530000	1407.972656	1119.613892
2692.219309	17476.530000	1406.894531	1133.930786
2692.219309	17476.530000	1405.816406	1127.300415
2692.219309	17476.530000	1404.737305	1307.561890
2692.219309	17476.530000	1403.659180	1314.259521
2692.219309	17476.530000	1402.580078	1392.447754
2692.219309	17476.530000	1401.500977	1299.365845
2692.219309	17476.530000	1400.421875	1302.567871
2692.219309	17476.530000	1399.341797	1250.274780
2692.219309	17476.530000	1398.262695	1467.128540
2692.219309	17476.530000	1397.182617	1340.770996
2692.219309	17476.530000	1396.102539	1665.155640
2692.219309	17476.530000	1395.021484	1302.757935
2692.219309	17476.530000	1393.941406	1404.560181
2692.219309	17476.530000	1392.860352	1330.610107
2692.219309	17476.530000	1391.779297	1289.430420
2692.219309	17476.530000	1390.698242	1201.014526
2692.219309	17476.530000	1389.616211	1227.793701
2692.219309	17476.530000	1388.535156	1162.975342
2692.219309	17476.530000	1387.453125	1277.661011
2692.219309	17476.530000	1386.371094	1261.591797
2692.219309	17476.530000	1385.288086	991.408447
2692.219309	17476.530000	1384.206055	1344.133301
2692.219309	17476.530000	1383.123047	1251.023682
2692.219309	17476.530000	1382.040039	1748.847168
2692.219309	17476.530000	1380.957031	1537.356567
2692.219309	17476.530000	1379.873047	1583.510010
2692.219309	17476.530000	1378.789063	1666.285278
2692.219309	17476.530000	1377.705078	1665.732300
2692.219309	17476.530000	1376.621094	2040.451416
2692.219309	17476.530000	1375.537109	1848.023804
2692.219309	17476.530000	1374.452148	1669.605469
2692.219309	17476.530000	1373.367188	2130.329590
2692.219309	17476.530000	1372.282227	1635.777222
2692.219309	17476.530000	1371.197266	1777.585938
2692.219309	17476.530000	1370.112305	1767.557495
2692.219309	17476.530000	1369.026367	1617.291870
2692.219309	17476.530000	1367.940430	1883.134277
2692.219309	17476.530000	1366.854492	1705.218628
2692.219309	17476.530000	1365.767578	2120.533936
2692.219309	17476.530000	1364.681641	1930.612549
2692.219309	17476.530000	1363.594727	2070.894531
2692.219309	17476.530000	1362.507813	2190.713135
2692.219309	17476.530000	1361.419922	2082.073486
2692.219309	17476.530000	1360.333008	2206.795654
2692.219309	17476.530000	1359.245117	2163.385742
2692.219309	17476.530000	1358.157227	2183.521484
2692.219309	17476.530000	1357.069336	1968.340454
2692.219309	17476.530000	1355.981445	2378.947021
2692.219309	17476.530000	1354.892578	2421.372559
2692.219309	17476.530000	1353.803711	2024.846924
2692.219309	17476.530000	1352.714844	2320.812500
2692.219309	17476.530000	1351.625000	2194.273926
2692.219309	17476.530000	1350.536133	2170.310059
2692.219309	17476.530000	1349.446289	2175.581787
2692.219309	17476.530000	1348.356445	2291.246338
2692.219309	17476.530000	1347.266602	2415.505371
2692.219309	17476.530000	1346.175781	2380.311279
2692.219309	17476.530000	1345.085938	2493.698975
2692.219309	17476.530000	1343.995117	2771.498535
2692.219309	17476.530000	1342.903320	2948.368896
2692.219309	17476.530000	1341.812500	3290.842529
2692.219309	17476.530000	1340.720703	3221.164063
2692.219309	17476.530000	1339.629883	3424.300781
2692.219309	17476.530000	1338.538086	3282.413818
2692.219309	17476.530000	1337.445313	3364.093750
2692.219309	17476.530000	1336.353516	3440.807617
2692.219309	17476.530000	1335.260742	3798.920166
2692.219309	17476.530000	1334.167969	3507.463379
2692.219309	17476.530000	1333.075195	3469.389648
2692.219309	17476.530000	1331.981445	3464.039063
2692.219309	17476.530000	1330.888672	3471.865234
2692.219309	17476.530000	1329.794922	3442.539063
2692.219309	17476.530000	1328.701172	3317.496582
2692.219309	17476.530000	1327.606445	3234.697754
2692.219309	17476.530000	1326.512695	3242.952881
2692.219309	17476.530000	1325.417969	3207.855469
2692.219309	17476.530000	1324.323242	3551.965820
2692.219309	17476.530000	1323.227539	3359.494629
2692.219309	17476.530000	1322.132813	3437.915039
2692.219309	17476.530000	1321.037109	3427.276611
2692.219309	17476.530000	1319.941406	3033.455811
2692.219309	17476.530000	1318.845703	3193.759521
2692.219309	17476.530000	1317.750000	3280.425049
2692.219309	17476.530000	1316.653320	3076.147705
2692.219309	17476.530000	1315.556641	3152.521973
2692.219309	17476.530000	1314.459961	2931.945068
2692.219309	17476.530000	1313.363281	2729.116699
2692.219309	17476.530000	1312.265625	2844.312500
2692.219309	17476.530000	1311.167969	2374.476807
2692.219309	17476.530000	1310.070313	2481.152832
2692.219309	17476.530000	1308.972656	2159.653809
2692.219309	17476.530000	1307.874023	1878.243896
2692.219309	17476.530000	1306.776367	1962.352905
2692.219309	17476.530000	1305.677734	1789.190796
2692.219309	17476.530000	1304.579102	1844.455078
2692.219309	17476.530000	1303.479492	1315.211304
2692.219309	17476.530000	1302.380859	1193.890381
2692.219309	17476.530000	1301.281250	1197.333862
2692.219309	17476.530000	1300.181641	1301.541626
2692.219309	17476.530000	1299.081055	1133.335327
2692.219309	17476.530000	1297.981445	831.420654
2692.219309	17476.530000	1296.880859	1146.967896
2692.219309	17476.530000	1295.780273	1112.251953
2692.219309	17476.530000	1294.679688	937.089722
2692.219309	17476.530000	1293.578125	733.986755
2692.219309	17476.530000	1292.476563	738.176697
2692.219309	17476.530000	1291.375000	821.913940
2692.219309	17476.530000	1290.273438	541.681335
2692.219309	17476.530000	1289.171875	651.280029
2692.219309	17476.530000	1288.069336	584.092834
2692.219309	17476.530000	1286.966797	612.191040
2692.219309	17476.530000	1285.864258	273.166901
2692.219309	17476.530000	1284.761719	245.362579
2692.219309	17476.530000	1283.658203	511.182587
2692.219309	17476.530000	1282.554688	540.035889
2692.219309	17476.530000	1281.451172	453.459991
2692.219309	17476.530000	1280.347656	310.927948
2692.219309	17476.530000	1279.244141	424.094482
2692.219309	17476.530000	1278.139648	543.499146
2692.219309	17476.530000	1277.035156	469.929443
2692.219309	17476.530000	1275.930664	289.868286
2692.219309	17476.530000	1274.825195	477.240051
2692.219309	17476.530000	1273.720703	628.001892
2692.219309	17476.530000	1272.615234	575.797180
2692.219309	17476.530000	1271.508789	663.946838
2692.219309	17476.530000	1270.403320	647.565857
2692.219309	17476.530000	1269.297852	453.199890
2692.219309	17476.530000	1268.191406	854.650574
2692.219309	17476.530000	1267.084961	632.349609
2692.219309	17476.530000	1265.977539	815.643555
2692.219309	17476.530000	1264.871094	759.031982
2692.219309	17476.530000	1263.763672	904.401062
2692.219309	17476.530000	1262.656250	922.707764
2692.219309	17476.530000	1261.548828	675.015015
2692.219309	17476.530000	1260.440430	532.794556
2692.219309	17476.530000	1259.333008	683.608154
2692.219309	17476.530000	1258.224609	739.529785
2692.219309	17476.530000	1257.115234	551.487610
2692.219309	17476.530000	1256.006836	730.789429
2692.219309	17476.530000	1254.897461	829.015137
2692.219309	17476.530000	1253.788086	839.369568
2692.219309	17476.530000	1252.678711	645.228149
2692.219309	17476.530000	1251.569336	661.601196
2692.219309	17476.530000	1250.458984	651.150146
2692.219309	17476.530000	1249.349609	648.129578
2692.219309	17476.530000	1248.239258	524.307312
2692.219309	17476.530000	1247.127930	628.601868
2692.219309	17476.530000	1246.017578	715.515869
2692.219309	17476.530000	1244.906250	721.010498
2692.219309	17476.530000	1243.794922	759.770935
2692.219309	17476.530000	1242.683594	852.225464
2692.219309	17476.530000	1241.571289	733.558960
2692.219309	17476.530000	1240.459961	731.225342
2692.219309	17476.530000	1239.347656	598.797119
2692.219309	17476.530000	1238.234375	387.729950
2692.219309	17476.530000	1237.122070	656.075195
2692.219309	17476.530000	1236.008789	559.280579
2692.219309	17476.530000	1234.896484	678.145630
2692.219309	17476.530000	1233.782227	838.409729
2692.219309	17476.530000	1232.668945	617.615845
2692.219309	17476.530000	1231.555664	586.495728
2692.219309	17476.530000	1230.441406	483.205200
2692.219309	17476.530000	1229.327148	617.058350
2692.219309	17476.530000	1228.211914	823.939331
2692.219309	17476.530000	1227.097656	575.063965
2692.219309	17476.530000	1225.982422	683.682373
2692.219309	17476.530000	1224.867188	598.184998
2692.219309	17476.530000	1223.751953	333.474792
2692.219309	17476.530000	1222.635742	436.933899
2692.219309	17476.530000	1221.520508	481.372009
2692.219309	17476.530000	1220.404297	283.640808
2692.219309	17476.530000	1219.287109	175.666580
2692.219309	17476.530000	1218.170898	58.593140
2692.219309	17476.530000	1217.053711	162.883377
2692.219309	17476.530000	1215.936523	95.285294
2692.219309	17476.530000	1214.819336	78.365936
2692.219309	17476.530000	1213.702148	258.905243
2692.219309	17476.530000	1212.583984	40.068508
2692.219309	17476.530000	1211.465820	91.279602
2692.219309	17476.530000	1210.347656	-9.589694
2692.219309	17476.530000	1209.229492	11.988642
2692.219309	17476.530000	1208.110352	95.445412
2692.219309	17476.530000	1206.992188	9.723803
2692.219309	17476.530000	1205.873047	107.868301
2692.219309	17476.530000	1204.752930	124.776001
2692.219309	17476.530000	1203.633789	206.298523
2692.219309	17476.530000	1202.513672	50.062210
2692.219309	17476.530000	1201.393555	34.823334
2692.219309	17476.530000	1200.273438	121.190071
2692.219309	17476.530000	1199.152344	250.798065
2692.219309	17476.530000	1198.032227	-9.346320
2692.219309	17476.530000	1196.911133	54.009838
2692.219309	17476.530000	1195.790039	27.718771
2692.219309	17476.530000	1194.667969	103.658180
2692.219309	17476.530000	1193.545898	8.192122
2692.219309	17476.530000	1192.424805	146.225845
2692.219309	17476.530000	1191.301758	-40.914078
2692.219309	17476.530000	1190.179688	-4.679502
2692.219309	17476.530000	1189.056641	-62.700871
2692.219309	17476.530000	1187.933594	-116.275963
2692.219309	17476.530000	1186.810547	25.232800
2692.219309	17476.530000	1185.687500	9.650522
2692.219309	17476.530000	1184.563477	200.282288
2692.219309	17476.530000	1183.440430	-70.317345
2692.219309	17476.530000	1182.316406	14.081969
2692.219309	17476.530000	1181.191406	-82.608864
2692.219309	17476.530000	1180.067383	116.491264
2692.219309	17476.530000	1178.942383	134.934647
2692.219309	17476.530000	1177.817383	43.857651
2692.219309	17476.530000	1176.692383	-41.068821
2692.219309	17476.530000	1175.566406	-4.352571
2692.219309	17476.530000	1174.440430	139.273849
2692.219309	17476.530000	1173.314453	20.000877
2692.219309	17476.530000	1172.188477	-147.992737
2692.219309	17476.530000	1171.062500	-28.036047
2692.219309	17476.530000	1169.935547	46.376560
2692.219309	17476.530000	1168.808594	-2.016406
2692.219309	17476.530000	1167.681641	31.299782
2692.219309	17476.530000	1166.553711	-17.987780
2692.219309	17476.530000	1165.426758	78.501808
2692.219309	17476.530000	1164.298828	64.583031
2692.219309	17476.530000	1163.170898	-53.065758
2692.219309	17476.530000	1162.041992	-135.464722
2692.219309	17476.530000	1160.914063	-30.629831
2692.219309	17476.530000	1159.785156	-66.574249
2692.219309	17476.530000	1158.656250	122.119949
2692.219309	17476.530000	1157.526367	-3.076422
2692.219309	17476.530000	1156.397461	-29.669926
2692.219309	17476.530000	1155.267578	40.012268
2692.219309	17476.530000	1154.137695	-130.003174
2692.219309	17476.530000	1153.006836	-48.462498
2692.219309	17476.530000	1151.876953	-59.411655
2692.219309	17476.530000	1150.746094	24.007181
2692.219309	17476.530000	1149.615234	-19.674097
2692.219309	17476.530000	1148.484375	132.240097
2692.219309	17476.530000	1147.352539	42.820602
2692.219309	17476.530000	1146.220703	6.515573
2692.219309	17476.530000	1145.088867	-54.038921
2692.219309	17476.530000	1143.957031	-49.467552
2692.219309	17476.530000	1142.825195	-92.160599
2692.219309	17476.530000	1141.692383	-56.598366
2692.219309	17476.530000	1140.559570	-41.240417
2692.219309	17476.530000	1139.426758	-176.396927
2692.219309	17476.530000	1138.292969	-355.510284
2692.219309	17476.530000	1137.159180	-110.620895
2692.219309	17476.530000	1136.025391	-155.174576
2692.219309	17476.530000	1134.891602	-245.584000
2692.219309	17476.530000	1133.757813	-334.821381
2692.219309	17476.530000	1132.623047	-347.285522
2692.219309	17476.530000	1131.488281	-226.795639
2692.219309	17476.530000	1130.353516	-196.861954
2692.219309	17476.530000	1129.217773	-75.931366
2692.219309	17476.530000	1128.083008	-154.810806
2692.219309	17476.530000	1126.947266	-94.844849
2692.219309	17476.530000	1125.811523	40.675198
2692.219309	17476.530000	1124.674805	-51.129524
2692.219309	17476.530000	1123.539063	-54.183331
2692.219309	17476.530000	1122.402344	-161.771881
2692.219309	17476.530000	1121.265625	115.570755
2692.219309	17476.530000	1120.127930	50.105057
2692.219309	17476.530000	1118.990234	75.137985
2692.219309	17476.530000	1117.853516	134.052048
2692.219309	17476.530000	1116.714844	229.889709
2692.219309	17476.530000	1115.577148	1.579532
2692.219309	17476.530000	1114.439453	180.471725
2692.219309	17476.530000	1113.300781	-93.444183
2692.219309	17476.530000	1112.162109	86.309296
2692.219309	17476.530000	1111.022461	-32.065601
2692.219309	17476.530000	1109.883789	4.361681
2692.219309	17476.530000	1108.744141	9.980217
2692.219309	17476.530000	1107.604492	-34.472317
2692.219309	17476.530000	1106.463867	19.644484
2692.219309	17476.530000	1105.324219	-122.112068
2692.219309	17476.530000	1104.183594	-110.484436
2692.219309	17476.530000	1103.042969	22.111168
2692.219309	17476.530000	1101.902344	-151.082260
2692.219309	17476.530000	1100.760742	-148.234268
2692.219309	17476.530000	1099.619141	-40.137711
2692.219309	17476.530000	1098.477539	29.041271
2692.219309	17476.530000	1097.335938	-16.900562
2692.219309	17476.530000	1096.193359	-124.062790
2692.219309	17476.530000	1095.051758	-96.644119
2692.219309	17476.530000	1093.909180	26.298918
2692.219309	17476.530000	1092.765625	21.312838
2692.219309	17476.530000	1091.623047	52.486656
2692.219309	17476.530000	1090.479492	109.035767
2692.219309	17476.530000	1089.335938	75.227852
2692.219309	17476.530000	1088.192383	73.874435
2692.219309	17476.530000	1087.047852	65.641876
2692.219309	17476.530000	1085.903320	139.654633
2692.219309	17476.530000	1084.758789	121.443985
2692.219309	17476.530000	1083.614258	-52.605282
2692.219309	17476.530000	1082.469727	-99.480415
2692.219309	17476.530000	1081.324219	165.493317
2692.219309	17476.530000	1080.178711	139.400894
2692.219309	17476.530000	1079.033203	-15.914852
2692.219309	17476.530000	1077.886719	-73.636841
2692.219309	17476.530000	1076.740234	74.439354
2692.219309	17476.530000	1075.593750	-31.247683
2692.219309	17476.530000	1074.447266	-93.802307
2692.219309	17476.530000	1073.300781	133.220932
2692.219309	17476.530000	1072.153320	150.885773
2692.219309	17476.530000	1071.005859	204.893234
2692.219309	17476.530000	1069.858398	380.456421
2692.219309	17476.530000	1068.709961	7.511833
2692.219309	17476.530000	1067.561523	101.678818
2692.219309	17476.530000	1066.413086	352.633362
2692.219309	17476.530000	1065.264648	-46.790325
2692.219309	17476.530000	1064.116211	56.003689
2692.219309	17476.530000	1062.966797	-58.377579
2692.219309	17476.530000	1061.817383	181.933777
2692.219309	17476.530000	1060.667969	127.144081
2692.219309	17476.530000	1059.517578	166.056396
2692.219309	17476.530000	1058.368164	4.209867
2692.219309	17476.530000	1057.217773	315.135071
2692.219309	17476.530000	1056.067383	458.136017
2692.219309	17476.530000	1054.916016	513.332764
2692.219309	17476.530000	1053.764648	483.143799
2692.219309	17476.530000	1052.613281	484.060669
2692.219309	17476.530000	1051.461914	471.383484
2692.219309	17476.530000	1050.310547	454.416351
2692.219309	17476.530000	1049.158203	462.023132
2692.219309	17476.530000	1048.005859	423.322937
2692.219309	17476.530000	1046.853516	325.562286
2692.219309	17476.530000	1045.700195	261.716095
2692.219309	17476.530000	1044.547852	308.369781
2692.219309	17476.530000	1043.394531	612.518677
2692.219309	17476.530000	1042.240234	535.746887
2692.219309	17476.530000	1041.086914	748.685425
2692.219309	17476.530000	1039.932617	456.373871
2692.219309	17476.530000	1038.778320	825.422485
2692.219309	17476.530000	1037.624023	711.136414
2692.219309	17476.530000	1036.469727	1020.604980
2692.219309	17476.530000	1035.314453	1078.092407
2692.219309	17476.530000	1034.159180	1427.120605
2692.219309	17476.530000	1033.003906	1556.023804
2692.219309	17476.530000	1031.847656	1751.608032
2692.219309	17476.530000	1030.692383	1912.955322
2692.219309	17476.530000	1029.536133	1703.821411
2692.219309	17476.530000	1028.378906	1512.157959
2692.219309	17476.530000	1027.222656	1280.328369
2692.219309	17476.530000	1026.065430	1037.653687
2692.219309	17476.530000	1024.908203	886.890808
2692.219309	17476.530000	1023.750977	543.215881
2692.219309	17476.530000	1022.593750	653.059265
2692.219309	17476.530000	1021.435547	814.561340
2692.219309	17476.530000	1020.277344	259.081787
2692.219309	17476.530000	1019.119141	414.116241
2692.219309	17476.530000	1017.959961	203.906479
2692.219309	17476.530000	1016.800781	175.276276
2692.219309	17476.530000	1015.641602	119.394218
2692.219309	17476.530000	1014.482422	139.950378
2692.219309	17476.530000	1013.323242	78.067482
2692.219309	17476.530000	1012.163086	194.293488
2692.219309	17476.530000	1011.002930	114.628418
2692.219309	17476.530000	1009.842773	25.596361
2692.219309	17476.530000	1008.681641	73.066383
2692.219309	17476.530000	1007.520508	164.252609
2692.219309	17476.530000	1006.359375	356.307068
2692.219309	17476.530000	1005.198242	361.636719
2692.219309	17476.530000	1004.037109	540.580078
2692.219309	17476.530000	1002.875000	776.062500
2692.219309	17476.530000	1001.712891	549.053467
2692.219309	17476.530000	1000.550781	528.712830
2692.219309	17476.530000	999.387695	379.388550
2692.219309	17476.530000	998.224609	552.106995
2692.219309	17476.530000	997.061523	474.275024
2692.219309	17476.530000	995.898438	464.886597
2692.219309	17476.530000	994.734375	114.279686
2692.219309	17476.530000	993.571289	233.827225
2692.219309	17476.530000	992.407227	327.349976
2692.219309	17476.530000	991.242188	36.440231
2692.219309	17476.530000	990.078125	183.352234
2692.219309	17476.530000	988.913086	-19.912996
2692.219309	17476.530000	987.748047	213.484940
2692.219309	17476.530000	986.583008	202.997940
2692.219309	17476.530000	985.416992	11.499657
2692.219309	17476.530000	984.250977	82.461563
2692.219309	17476.530000	983.084961	90.091431
2692.219309	17476.530000	981.918945	130.935913
2692.219309	17476.530000	980.751953	15.147708
2692.219309	17476.530000	979.584961	-59.329773
2692.219309	17476.530000	978.417969	23.712233
2692.219309	17476.530000	977.250977	85.294014
2692.219309	17476.530000	976.083008	19.810234
2692.219309	17476.530000	974.915039	-39.402874
2692.219309	17476.530000	973.747070	104.136902
2692.219309	17476.530000	972.579102	107.246727
2692.219309	17476.530000	971.410156	304.124756
2692.219309	17476.530000	970.242188	60.472626
2692.219309	17476.530000	969.072266	79.450470
2692.219309	17476.530000	967.903320	282.846954
2692.219309	17476.530000	966.733398	295.863037
2692.219309	17476.530000	965.563477	489.192780
2692.219309	17476.530000	964.393555	601.424866
2692.219309	17476.530000	963.223633	623.270081
2692.219309	17476.530000	962.052734	533.642822
2692.219309	17476.530000	960.881836	728.668213
2692.219309	17476.530000	959.710938	648.608643
2692.219309	17476.530000	958.540039	548.207092
2692.219309	17476.530000	957.368164	538.911133
2692.219309	17476.530000	956.196289	453.478699
2692.219309	17476.530000	955.024414	390.305145
2692.219309	17476.530000	953.851563	340.443298
2692.219309	17476.530000	952.679688	101.293587
2692.219309	17476.530000	951.506836	248.640594
2692.219309	17476.530000	950.333984	136.598022
2692.219309	17476.530000	949.160156	122.935349
2692.219309	17476.530000	947.986328	128.638412
2692.219309	17476.530000	946.812500	83.712868
2692.219309	17476.530000	945.638672	193.548111
2692.219309	17476.530000	944.464844	129.666367
2692.219309	17476.530000	943.290039	183.551727
2692.219309	17476.530000	942.115234	125.936363
2692.219309	17476.530000	940.940430	128.584656
2692.219309	17476.530000	939.764648	322.578217
2692.219309	17476.530000	938.588867	9.090727
2692.219309	17476.530000	937.413086	246.989120
2692.219309	17476.530000	936.237305	159.888367
2692.219309	17476.530000	935.060547	223.659973
2692.219309	17476.530000	933.883789	136.257996
2692.219309	17476.530000	932.707031	380.166534
2692.219309	17476.530000	931.530273	317.925385
2692.219309	17476.530000	930.352539	366.809174
2692.219309	17476.530000	929.175781	287.949371
2692.219309	17476.530000	927.998047	382.833008
2692.219309	17476.530000	926.819336	241.030014
2692.219309	17476.530000	925.641602	193.473770
2692.219309	17476.530000	924.462891	351.020264
2692.219309	17476.530000	923.284180	205.043732
2692.219309	17476.530000	922.104492	218.105713
2692.219309	17476.530000	920.924805	210.217224
2692.219309	17476.530000	919.746094	217.582779
2692.219309	17476.530000	919.551758	-1.446955
2692.219309	17476.530000	918.386719	166.205154
2692.219309	17476.530000	917.220703	214.601227
2692.219309	17476.530000	916.054688	110.365692
2692.219309	17476.530000	914.887695	70.928940
2692.219309	17476.530000	913.721680	-114.778046
2692.219309	17476.530000	912.554688	108.985771
2692.219309	17476.530000	911.387695	-66.263527
2692.219309	17476.530000	910.220703	52.940456
2692.219309	17476.530000	909.052734	-15.808963
2692.219309	17476.530000	907.885742	-34.471188
2692.219309	17476.530000	906.717773	-96.968575
2692.219309	17476.530000	905.548828	261.976715
2692.219309	17476.530000	904.380859	155.587967
2692.219309	17476.530000	903.211914	218.147766
2692.219309	17476.530000	902.042969	57.556145
2692.219309	17476.530000	900.874023	-27.947149
2692.219309	17476.530000	899.704102	170.018082
2692.219309	17476.530000	898.535156	5.296435
2692.219309	17476.530000	897.365234	203.127258
2692.219309	17476.530000	896.194336	321.709198
2692.219309	17476.530000	895.024414	431.885986
2692.219309	17476.530000	893.853516	300.481781
2692.219309	17476.530000	892.682617	535.479675
2692.219309	17476.530000	891.511719	418.634064
2692.219309	17476.530000	890.340820	330.947296
2692.219309	17476.530000	889.168945	418.034668
2692.219309	17476.530000	887.997070	186.833450
2692.219309	17476.530000	886.825195	232.284470
2692.219309	17476.530000	885.653320	84.343208
2692.219309	17476.530000	884.480469	-7.426923
2692.219309	17476.530000	883.307617	-113.725342
2692.219309	17476.530000	882.134766	-215.841721
2692.219309	17476.530000	880.961914	-103.962219
2692.219309	17476.530000	879.788086	-208.144623
2692.219309	17476.530000	878.614258	-181.477982
2692.219309	17476.530000	877.440430	-287.710999
2692.219309	17476.530000	876.266602	-124.074768
2692.219309	17476.530000	875.091797	-222.000244
2692.219309	17476.530000	873.916992	-104.117470
2692.219309	17476.530000	872.742188	26.149050
2692.219309	17476.530000	871.567383	-125.717033
2692.219309	17476.530000	870.391602	-18.332270
2692.219309	17476.530000	869.215820	-219.906769
2692.219309	17476.530000	868.040039	24.224735
2692.219309	17476.530000	866.864258	-146.218765
2692.219309	17476.530000	865.687500	-210.935974
2692.219309	17476.530000	864.510742	-242.495392
2692.219309	17476.530000	863.333984	-220.209305
2692.219309	17476.530000	862.157227	-224.862701
2692.219309	17476.530000	860.979492	-283.347717
2692.219309	17476.530000	859.802734	-219.710663
2692.219309	17476.530000	858.625000	-197.492844
2692.219309	17476.530000	857.446289	-167.017395
2692.219309	17476.530000	856.268555	-372.378448
2692.219309	17476.530000	855.089844	-389.468964
2692.219309	17476.530000	853.911133	-34.390636
2692.219309	17476.530000	852.731445	235.779633
2692.219309	17476.530000	851.552734	-37.743607
2692.219309	17476.530000	850.373047	164.101593
2692.219309	17476.530000	849.193359	301.808258
2692.219309	17476.530000	848.013672	282.467255
2692.219309	17476.530000	846.833008	-28.051161
2692.219309	17476.530000	845.652344	-41.141636
2692.219309	17476.530000	844.471680	-48.045391
2692.219309	17476.530000	843.291016	4.891867
2692.219309	17476.530000	842.110352	-66.008598
2692.219309	17476.530000	840.928711	-31.675453
2692.219309	17476.530000	839.747070	-79.870560
2692.219309	17476.530000	838.564453	-47.630062
2692.219309	17476.530000	837.382813	-145.306686
2692.219309	17476.530000	836.200195	22.953108
2692.219309	17476.530000	835.017578	-33.501232
2692.219309	17476.530000	833.834961	37.801868
2692.219309	17476.530000	832.651367	304.766571
2692.219309	17476.530000	831.467773	56.715031
2692.219309	17476.530000	830.284180	-86.229889
2692.219309	17476.530000	829.100586	147.617203
2692.219309	17476.530000	827.916992	-26.189154
2692.219309	17476.530000	826.732422	26.433788
2692.219309	17476.530000	825.547852	301.226105
2692.219309	17476.530000	824.363281	71.919060
2692.219309	17476.530000	823.177734	200.546494
2692.219309	17476.530000	821.992188	329.107269
2692.219309	17476.530000	820.806641	352.755463
2692.219309	17476.530000	819.621094	220.173416
2692.219309	17476.530000	818.434570	67.087273
2692.219309	17476.530000	817.249023	64.020500
2692.219309	17476.530000	816.062500	264.296692
2692.219309	17476.530000	814.875000	267.329559
2692.219309	17476.530000	813.688477	138.933655
2692.219309	17476.530000	812.500977	164.538864
2692.219309	17476.530000	811.313477	122.387260
2692.219309	17476.530000	810.125977	108.962860
2692.219309	17476.530000	808.937500	136.560913
2692.219309	17476.530000	807.749023	188.742828
2692.219309	17476.530000	806.560547	201.921295
2692.219309	17476.530000	805.372070	358.592041
2692.219309	17476.530000	804.182617	162.614609
2692.219309	17476.530000	802.994141	413.460968
2692.219309	17476.530000	801.803711	233.908905
2692.219309	17476.530000	800.614258	160.929733
2692.219309	17476.530000	799.424805	397.226776
2692.219309	17476.530000	798.234375	195.199509
2692.219309	17476.530000	797.043945	300.326355
2692.219309	17476.530000	795.852539	215.033127
2692.219309	17476.530000	794.662109	166.582962
2692.219309	17476.530000	793.470703	163.145248
2692.219309	17476.530000	792.279297	266.055908
2692.219309	17476.530000	791.087891	105.072235
2692.219309	17476.530000	789.895508	420.558319
2692.219309	17476.530000	788.703125	12.200663
2692.219309	17476.530000	787.510742	49.553417
2692.219309	17476.530000	786.318359	88.906044
2692.219309	17476.530000	785.125000	81.229950
2692.219309	17476.530000	783.931641	185.871857
2692.219309	17476.530000	782.738281	-5.676666
2692.219309	17476.530000	781.544922	-9.333200
2692.219309	17476.530000	780.350586	-135.494659
2692.219309	17476.530000	779.156250	-126.934364
2692.219309	17476.530000	777.961914	75.437859
2692.219309	17476.530000	776.767578	122.648705
2692.219309	17476.530000	775.572266	122.898796
2692.219309	17476.530000	774.376953	-78.768738
2692.219309	17476.530000	773.181641	306.788025
2692.219309	17476.530000	771.986328	196.824234
2692.219309	17476.530000	770.790039	156.163422
2692.219309	17476.530000	769.593750	38.057785
2692.219309	17476.530000	768.397461	284.605255
2692.219309	17476.530000	767.201172	239.767059
2692.219309	17476.530000	766.003906	258.036438
2692.219309	17476.530000	764.806641	373.979156
2692.219309	17476.530000	763.609375	237.441223
2692.219309	17476.530000	762.412109	393.957977
2692.219309	17476.530000	761.213867	259.427795
2692.219309	17476.530000	760.015625	255.097275
2692.219309	17476.530000	758.817383	447.994934
2692.219309	17476.530000	757.618164	329.677185
2692.219309	17476.530000	756.419922	113.782753
2692.219309	17476.530000	755.220703	259.711365
2692.219309	17476.530000	754.021484	188.106232
2692.219309	17476.530000	752.821289	472.016754
2692.219309	17476.530000	751.621094	552.642822
2692.219309	17476.530000	750.420898	454.479797
2692.219309	17476.530000	749.220703	581.674316
2692.219309	17476.530000	748.020508	552.461853
2692.219309	17476.530000	746.819336	594.245178
2692.219309	17476.530000	745.618164	719.150146
2692.219309	17476.530000	744.416992	1113.758911
2692.219309	17476.530000	743.214844	1157.270142
2692.219309	17476.530000	742.012695	1077.012695
2692.219309	17476.530000	740.810547	1114.319824
2692.219309	17476.530000	739.608398	1447.489502
2692.219309	17476.530000	738.406250	1660.896973
2692.219309	17476.530000	737.203125	1961.281372
2692.219309	17476.530000	736.000000	2227.044434
2692.219309	17476.530000	734.795898	2713.392090
2692.219309	17476.530000	733.592773	3395.880371
2692.219309	17476.530000	732.388672	3414.018066
2692.219309	17476.530000	731.184570	3397.677246
2692.219309	17476.530000	729.979492	3302.362549
2692.219309	17476.530000	728.775391	2717.420898
2692.219309	17476.530000	727.570313	2367.295898
2692.219309	17476.530000	726.365234	1823.109741
2692.219309	17476.530000	725.160156	1574.277100
2692.219309	17476.530000	723.954102	1194.088135
2692.219309	17476.530000	722.748047	1100.975464
2692.219309	17476.530000	721.541992	1062.386475
2692.219309	17476.530000	720.334961	1056.068237
2692.219309	17476.530000	719.128906	837.605042
2692.219309	17476.530000	717.921875	905.907043
2692.219309	17476.530000	716.714844	919.596497
2692.219309	17476.530000	715.506836	612.269104
2692.219309	17476.530000	714.298828	728.787415
2692.219309	17476.530000	713.090820	647.452332
2692.219309	17476.530000	711.882813	525.729919
2692.219309	17476.530000	710.674805	547.174011
2692.219309	17476.530000	709.465820	631.038330
2692.219309	17476.530000	708.256836	539.401489
2692.219309	17476.530000	707.047852	411.442413
2692.219309	17476.530000	705.837891	529.300293
2692.219309	17476.530000	704.627930	455.632141
2692.219309	17476.530000	703.417969	436.296600
2692.219309	17476.530000	702.208008	517.578064
2692.219309	17476.530000	700.998047	508.136902
2692.219309	17476.530000	699.787109	621.407959
2692.219309	17476.530000	698.576172	406.496826
2692.219309	17476.530000	697.364258	453.169250
2692.219309	17476.530000	696.153320	391.100586
2692.219309	17476.530000	694.941406	419.479126
2692.219309	17476.530000	693.729492	514.114990
2692.219309	17476.530000	692.516602	592.539185
2692.219309	17476.530000	691.304688	656.768616
2692.219309	17476.530000	690.091797	690.736084
2692.219309	17476.530000	688.878906	676.376099
2692.219309	17476.530000	687.665039	625.773132
2692.219309	17476.530000	686.451172	595.181091
2692.219309	17476.530000	685.237305	765.299622
2692.219309	17476.530000	684.023438	694.351685
2692.219309	17476.530000	682.809570	755.805542
2692.219309	17476.530000	681.594727	1009.776672
2692.219309	17476.530000	680.379883	1026.808472
2692.219309	17476.530000	679.165039	1174.113159
2692.219309	17476.530000	677.949219	934.218384
2692.219309	17476.530000	676.733398	1043.190063
2692.219309	17476.530000	675.517578	761.131409
2692.219309	17476.530000	674.301758	873.903137
2692.219309	17476.530000	673.084961	896.359619
2692.219309	17476.530000	671.869141	960.776123
2692.219309	17476.530000	670.651367	1239.367676
2692.219309	17476.530000	669.434570	923.018982
2692.219309	17476.530000	668.216797	1089.184937
2692.219309	17476.530000	667.000000	1097.053589
2692.219309	17476.530000	665.781250	1116.820557
2692.219309	17476.530000	664.563477	1028.437012
2692.219309	17476.530000	663.344727	903.980347
2692.219309	17476.530000	662.125977	937.463013
2692.219309	17476.530000	660.907227	1050.805786
2692.219309	17476.530000	659.688477	1349.908691
2692.219309	17476.530000	658.468750	1203.083252
2692.219309	17476.530000	657.249023	1096.177612
2692.219309	17476.530000	656.029297	1149.035156
2692.219309	17476.530000	654.808594	1109.882324
2692.219309	17476.530000	653.587891	1122.561646
2692.219309	17476.530000	652.367188	979.399048
2692.219309	17476.530000	651.146484	1237.406250
2692.219309	17476.530000	649.924805	1092.068970
2692.219309	17476.530000	648.704102	1182.128174
2692.219309	17476.530000	647.482422	1220.173706
2692.219309	17476.530000	646.259766	986.853882
2692.219309	17476.530000	645.037109	1094.496216
2692.219309	17476.530000	643.815430	910.928589
2692.219309	17476.530000	642.591797	1135.919312
2692.219309	17476.530000	641.369141	1002.020630
2692.219309	17476.530000	640.145508	909.905579
2692.219309	17476.530000	638.921875	1010.934509
2692.219309	17476.530000	637.698242	996.309692
2692.219309	17476.530000	636.474609	1105.026489
2692.219309	17476.530000	635.250000	735.839661
2692.219309	17476.530000	634.025391	828.427307
2692.219309	17476.530000	632.800781	660.207581
2692.219309	17476.530000	631.575195	838.097290
2692.219309	17476.530000	630.349609	789.066772
2692.219309	17476.530000	629.124023	839.375244
2692.219309	17476.530000	627.898438	959.140259
2692.219309	17476.530000	626.671875	907.805603
2692.219309	17476.530000	625.445313	943.825500
2692.219309	17476.530000	624.218750	916.146790
2692.219309	17476.530000	622.992188	876.456482
2692.219309	17476.530000	621.764648	1009.455872
2692.219309	17476.530000	620.537109	735.255066
2692.219309	17476.530000	619.309570	542.457092
2692.219309	17476.530000	618.081055	617.571899
2692.219309	17476.530000	616.852539	585.399170
2692.219309	17476.530000	615.624023	588.848816
2692.219309	17476.530000	614.395508	717.153931
2692.219309	17476.530000	613.166992	716.405945
2692.219309	17476.530000	611.937500	590.649780
2692.219309	17476.530000	610.708008	538.188538
2692.219309	17476.530000	609.477539	626.352173
2692.219309	17476.530000	608.248047	914.501831
2692.219309	17476.530000	607.017578	730.966309
2692.219309	17476.530000	605.787109	672.184082
2692.219309	17476.530000	604.555664	641.048279
2692.219309	17476.530000	603.325195	683.083862
2692.219309	17476.530000	602.093750	497.388794
2692.219309	17476.530000	600.861328	559.028259
2692.219309	17476.530000	599.629883	515.700562
2692.219309	17476.530000	598.397461	563.281677
2692.219309	17476.530000	597.165039	521.762451
2692.219309	17476.530000	595.932617	385.269989
2692.219309	17476.530000	594.699219	345.601410
2692.219309	17476.530000	593.465820	157.640503
2692.219309	17476.530000	592.232422	127.744942
2692.219309	17476.530000	590.999023	346.685486
2692.219309	17476.530000	589.764648	385.716156
2692.219309	17476.530000	588.530273	302.221130
2692.219309	17476.530000	587.295898	390.437103
2692.219309	17476.530000	586.061523	360.110474
2692.219309	17476.530000	584.826172	448.113403
2692.219309	17476.530000	583.590820	370.275635
2692.219309	17476.530000	582.355469	361.433655
2692.219309	17476.530000	581.119141	210.525787
2692.219309	17476.530000	579.882813	142.420242
2692.219309	17476.530000	578.646484	70.329475
2692.219309	17476.530000	577.410156	224.846832
2692.219309	17476.530000	576.172852	391.045380
2692.219309	17476.530000	574.935547	153.259415
2692.219309	17476.530000	573.698242	323.211304
2692.219309	17476.530000	572.460938	150.395813
2692.219309	17476.530000	571.222656	335.893768
2692.219309	17476.530000	569.984375	186.641357
2692.219309	17476.530000	568.746094	344.384430
2692.219309	17476.530000	567.506836	230.485931
2692.219309	17476.530000	566.267578	122.483826
2692.219309	17476.530000	565.028320	59.706081
2692.219309	17476.530000	563.789063	462.896698
2692.219309	17476.530000	562.548828	301.676392
2692.219309	17476.530000	561.309570	551.246704
2692.219309	17476.530000	560.068359	384.082306
2692.219309	17476.530000	558.828125	415.369568
2692.219309	17476.530000	557.586914	556.584290
2692.219309	17476.530000	556.345703	481.692688
2692.219309	17476.530000	555.104492	385.199554
2692.219309	17476.530000	553.863281	408.445770
2692.219309	17476.530000	552.621094	523.873230
2692.219309	17476.530000	551.378906	393.968781
2692.219309	17476.530000	550.136719	515.173889
2692.219309	17476.530000	548.893555	457.823975
2692.219309	17476.530000	547.650391	496.549561
2692.219309	17476.530000	546.407227	507.790161
2692.219309	17476.530000	545.164063	695.394531
2692.219309	17476.530000	543.919922	541.940308
2692.219309	17476.530000	542.675781	504.119537
2692.219309	17476.530000	541.431641	720.922668
2692.219309	17476.530000	540.186523	763.329590
2692.219309	17476.530000	538.941406	425.890961
2692.219309	17476.530000	537.696289	491.809937
2692.219309	17476.530000	536.451172	322.856262
2692.219309	17476.530000	535.205078	253.746201
2692.219309	17476.530000	533.959961	112.292679
2692.219309	17476.530000	532.712891	58.890457
2692.219309	17476.530000	531.466797	-12.078590
2692.219309	17476.530000	530.219727	87.053375
2692.219309	17476.530000	528.972656	164.648438
2692.219309	17476.530000	527.725586	13.594387
2692.219309	17476.530000	526.478516	202.543686
2692.219309	17476.530000	525.230469	88.669662
2692.219309	17476.530000	523.982422	35.394875
2692.219309	17476.530000	522.734375	48.536766
2692.219309	17476.530000	521.485352	-145.221542
2692.219309	17476.530000	520.236328	2.638104
2692.219309	17476.530000	518.987305	-79.774910
2692.219309	17476.530000	517.737305	-37.292110
2692.219309	17476.530000	516.488281	-66.955582
2692.219309	17476.530000	515.238281	-254.524078
2692.219309	17476.530000	513.988281	-180.759949
2692.219309	17476.530000	512.737305	-89.462479
2692.219309	17476.530000	511.486328	-93.653900
2692.219309	17476.530000	510.235352	-123.134201
2692.219309	17476.530000	508.984375	-244.110641
2692.219309	17476.530000	507.732422	-143.007553
2692.219309	17476.530000	506.480469	106.056877
2692.219309	17476.530000	505.228516	6.631131
2692.219309	17476.530000	503.976563	49.356403
2692.219309	17476.530000	502.723633	-104.412369
2692.219309	17476.530000	501.470703	177.665283
2692.219309	17476.530000	500.217773	177.668884
2692.219309	17476.530000	498.963867	-7.003702
2692.219309	17476.530000	497.709961	-10.756440
2692.219309	17476.530000	496.456055	-224.361557
2692.219309	17476.530000	495.202148	-99.715355
2692.219309	17476.530000	493.947266	-130.493286
2692.219309	17476.530000	492.692383	-201.992355
2692.219309	17476.530000	491.437500	-57.855152
2692.219309	17476.530000	490.181641	-144.766022
2692.219309	17476.530000	488.926758	-31.646757
2692.219309	17476.530000	487.670898	-11.674590
2692.219309	17476.530000	486.414063	52.965679
2692.219309	17476.530000	485.158203	-64.698105
2692.219309	17476.530000	483.901367	-9.652731
2692.219309	17476.530000	482.644531	27.978554
2692.219309	17476.530000	481.386719	143.189850
2692.219309	17476.530000	480.128906	-218.368988
2692.219309	17476.530000	478.871094	-134.036789
2692.219309	17476.530000	477.613281	91.741951
2692.219309	17476.530000	476.355469	276.808807
2692.219309	17476.530000	475.096680	-142.325821
2692.219309	17476.530000	473.837891	44.761505
2692.219309	17476.530000	472.578125	76.971619
2692.219309	17476.530000	471.319336	-3.010797
2692.219309	17476.530000	470.059570	-20.994024
2692.219309	17476.530000	468.799805	156.459305
2692.219309	17476.530000	467.539063	53.461552
2692.219309	17476.530000	466.278320	-10.767100
2692.219309	17476.530000	465.017578	205.388062
2692.219309	17476.530000	463.756836	-69.406624
2692.219309	17476.530000	462.495117	-23.279486
2692.219309	17476.530000	461.233398	84.694855
2692.219309	17476.530000	459.971680	-149.198654
2692.219309	17476.530000	458.709961	-251.638138
2692.219309	17476.530000	457.447266	-87.572792
2692.219309	17476.530000	456.184570	-116.561539
2692.219309	17476.530000	454.921875	82.212044
2692.219309	17476.530000	453.658203	-50.925392
2692.219309	17476.530000	452.394531	-41.233665
2692.219309	17476.530000	451.130859	-83.592308
2692.219309	17476.530000	449.867188	82.324997
2692.219309	17476.530000	448.602539	109.389030
2692.219309	17476.530000	447.337891	186.562622
2692.219309	17476.530000	446.073242	113.416473
2692.219309	17476.530000	444.807617	-84.918564
2692.219309	17476.530000	443.542969	57.743378
2692.219309	17476.530000	442.276367	157.962875
2692.219309	17476.530000	441.010742	467.980164
2692.219309	17476.530000	439.744141	327.440430
2692.219309	17476.530000	438.478516	294.708191
2692.219309	17476.530000	437.210938	708.305725
2692.219309	17476.530000	435.944336	573.485840
2692.219309	17476.530000	434.676758	538.676697
2692.219309	17476.530000	433.409180	684.566650
2692.219309	17476.530000	432.141602	640.028015
2692.219309	17476.530000	430.873047	566.609192
2692.219309	17476.530000	429.604492	739.093201
2692.219309	17476.530000	428.335938	446.529327
2692.219309	17476.530000	427.067383	411.361694
2692.219309	17476.530000	425.797852	387.624359
2692.219309	17476.530000	424.528320	281.236084
2692.219309	17476.530000	423.258789	71.125313
2692.219309	17476.530000	421.988281	183.353027
2692.219309	17476.530000	420.717773	153.418106
2692.219309	17476.530000	419.447266	201.985199
2692.219309	17476.530000	418.175781	2.975032
2692.219309	17476.530000	416.905273	287.038422
2692.219309	17476.530000	415.633789	110.731476
2692.219309	17476.530000	414.362305	281.177490
2692.219309	17476.530000	413.089844	368.937469
2692.219309	17476.530000	411.817383	406.621460
2692.219309	17476.530000	410.544922	112.714317
2692.219309	17476.530000	409.272461	262.907501
2692.219309	17476.530000	407.999023	232.801361
2692.219309	17476.530000	406.725586	99.064278
2692.219309	17476.530000	405.452148	248.283691
2692.219309	17476.530000	404.177734	24.045980
2692.219309	17476.530000	402.903320	-49.331924
2692.219309	17476.530000	401.628906	85.404778
2692.219309	17476.530000	400.354492	189.115829
2692.219309	17476.530000	399.079102	311.490784
2692.219309	17476.530000	397.803711	66.473312
2692.219309	17476.530000	396.528320	-29.845152
2692.219309	17476.530000	395.251953	140.844269
2692.219309	17476.530000	393.976563	95.181778
2692.219309	17476.530000	392.700195	91.034470
2692.219309	17476.530000	391.422852	113.079063
2692.219309	17476.530000	390.145508	119.299538
2692.219309	17476.530000	388.869141	52.447491
2692.219309	17476.530000	387.590820	255.902466
2692.219309	17476.530000	386.313477	252.670273
2692.219309	17476.530000	385.035156	134.363846
2692.219309	17476.530000	383.756836	225.148544
2692.219309	17476.530000	382.478516	86.462158
2692.219309	17476.530000	381.199219	147.186127
2692.219309	17476.530000	379.919922	235.701904
2692.219309	17476.530000	378.640625	171.002655
2692.219309	17476.530000	377.360352	200.715714
2692.219309	17476.530000	376.080078	201.003143
2692.219309	17476.530000	374.799805	301.297150
2692.219309	17476.530000	373.519531	170.344543
2692.219309	17476.530000	372.238281	30.867279
2692.219309	17476.530000	370.957031	234.789383
2692.219309	17476.530000	369.675781	129.486969
2692.219309	17476.530000	368.394531	129.656601
2692.219309	17476.530000	367.112305	322.619019
2692.219309	17476.530000	365.830078	271.074036
2692.219309	17476.530000	364.546875	286.760681
2692.219309	17476.530000	363.264648	82.765877
2692.219309	17476.530000	361.981445	249.869003
2692.219309	17476.530000	360.698242	195.311508
2692.219309	17476.530000	359.414063	99.534554
2692.219309	17476.530000	358.129883	72.643684
2692.219309	17476.530000	356.845703	215.133408
2692.219309	17476.530000	355.561523	265.005005
2692.219309	17476.530000	354.276367	51.511368
2692.219309	17476.530000	352.991211	-26.914846
2692.219309	17476.530000	351.706055	-188.468979
2692.219309	17476.530000	350.420898	-156.370911
2692.219309	17476.530000	349.134766	-160.172119
2692.219309	17476.530000	347.848633	-88.065727
2692.219309	17476.530000	346.561523	-55.762703
2692.219309	17476.530000	345.275391	50.433422
2692.219309	17476.530000	343.988281	-74.546959
2692.219309	17476.530000	342.700195	129.787308
2692.219309	17476.530000	341.413086	-127.955070
2692.219309	17476.530000	340.125000	-64.163193
2692.219309	17476.530000	338.836914	18.216051
2692.219309	17476.530000	337.548828	-172.201920
2692.219309	17476.530000	336.259766	-196.601181
2692.219309	17476.530000	334.970703	-58.887848
2692.219309	17476.530000	333.681641	-288.537506
2692.219309	17476.530000	332.391602	-159.698196
2692.219309	17476.530000	331.101563	-127.998581
2692.219309	17476.530000	329.811523	-140.551453
2692.219309	17476.530000	328.521484	-8.530615
2692.219309	17476.530000	327.230469	-136.270050
2692.219309	17476.530000	325.939453	-113.943520
2692.219309	17476.530000	324.648438	-62.524387
2692.219309	17476.530000	323.356445	161.229767
2692.219309	17476.530000	322.064453	-74.835617
2692.219309	17476.530000	320.772461	8.517073
2692.219309	17476.530000	319.480469	214.862686
2692.219309	17476.530000	318.187500	-6.591381
2692.219309	17476.530000	316.894531	-31.635660
2692.219309	17476.530000	315.601563	-22.565701
2692.219309	17476.530000	314.307617	-13.503905
2692.219309	17476.530000	313.013672	204.638519
2692.219309	17476.530000	311.719727	-29.429621
2692.219309	17476.530000	310.425781	-47.063858
2692.219309	17476.530000	309.130859	215.396988
2692.219309	17476.530000	307.835938	-53.433002
2692.219309	17476.530000	306.541016	44.270435
2692.219309	17476.530000	305.245117	18.904903
2692.219309	17476.530000	303.949219	56.761559
2692.219309	17476.530000	302.653320	146.402756
2692.219309	17476.530000	301.356445	112.711533
2692.219309	17476.530000	300.060547	247.249634
2692.219309	17476.530000	298.763672	376.642578
