#X		#Y		#Wave		#Intensity
2794.834309	17354.927000	2000.043945	-60.329792
2794.834309	17354.927000	1999.080078	-2.947878
2794.834309	17354.927000	1998.116211	136.963043
2794.834309	17354.927000	1997.151367	-43.121914
2794.834309	17354.927000	1996.186523	29.326666
2794.834309	17354.927000	1995.222656	-32.276638
2794.834309	17354.927000	1994.256836	-49.508453
2794.834309	17354.927000	1993.291992	19.699139
2794.834309	17354.927000	1992.327148	-114.364250
2794.834309	17354.927000	1991.361328	85.586487
2794.834309	17354.927000	1990.395508	168.930374
2794.834309	17354.927000	1989.429688	-0.356773
2794.834309	17354.927000	1988.463867	80.099159
2794.834309	17354.927000	1987.497070	11.926059
2794.834309	17354.927000	1986.531250	27.679060
2794.834309	17354.927000	1985.564453	21.000244
2794.834309	17354.927000	1984.597656	24.044289
2794.834309	17354.927000	1983.630859	175.229416
2794.834309	17354.927000	1982.664063	66.719315
2794.834309	17354.927000	1981.696289	-51.780952
2794.834309	17354.927000	1980.728516	74.184143
2794.834309	17354.927000	1979.761719	9.782000
2794.834309	17354.927000	1978.792969	2.071957
2794.834309	17354.927000	1977.825195	-3.293539
2794.834309	17354.927000	1976.857422	-63.084541
2794.834309	17354.927000	1975.888672	-19.309034
2794.834309	17354.927000	1974.919922	36.677956
2794.834309	17354.927000	1973.951172	-45.620342
2794.834309	17354.927000	1972.982422	-7.120274
2794.834309	17354.927000	1972.013672	43.602020
2794.834309	17354.927000	1971.043945	138.598923
2794.834309	17354.927000	1970.075195	102.813492
2794.834309	17354.927000	1969.105469	118.722336
2794.834309	17354.927000	1968.135742	26.115274
2794.834309	17354.927000	1967.165039	73.914497
2794.834309	17354.927000	1966.195313	79.748268
2794.834309	17354.927000	1965.224609	176.646805
2794.834309	17354.927000	1964.253906	211.885132
2794.834309	17354.927000	1963.283203	-82.868881
2794.834309	17354.927000	1962.312500	156.611145
2794.834309	17354.927000	1961.341797	53.847874
2794.834309	17354.927000	1960.370117	-2.170319
2794.834309	17354.927000	1959.399414	-77.892311
2794.834309	17354.927000	1958.427734	6.262860
2794.834309	17354.927000	1957.455078	-76.887283
2794.834309	17354.927000	1956.483398	-71.518250
2794.834309	17354.927000	1955.511719	120.660484
2794.834309	17354.927000	1954.539063	-26.463095
2794.834309	17354.927000	1953.566406	50.079235
2794.834309	17354.927000	1952.593750	-40.510612
2794.834309	17354.927000	1951.621094	-187.587952
2794.834309	17354.927000	1950.647461	80.463257
2794.834309	17354.927000	1949.674805	171.590225
2794.834309	17354.927000	1948.701172	-95.796036
2794.834309	17354.927000	1947.727539	93.498375
2794.834309	17354.927000	1946.753906	115.819847
2794.834309	17354.927000	1945.780273	-168.607391
2794.834309	17354.927000	1944.805664	-99.640511
2794.834309	17354.927000	1943.831055	28.169931
2794.834309	17354.927000	1942.856445	45.569908
2794.834309	17354.927000	1941.881836	77.677376
2794.834309	17354.927000	1940.907227	244.614120
2794.834309	17354.927000	1939.932617	141.868561
2794.834309	17354.927000	1938.957031	117.588943
2794.834309	17354.927000	1937.981445	-4.682991
2794.834309	17354.927000	1937.005859	59.282658
2794.834309	17354.927000	1936.030273	96.292862
2794.834309	17354.927000	1935.054688	-28.323503
2794.834309	17354.927000	1934.078125	-23.115751
2794.834309	17354.927000	1933.101563	-91.334023
2794.834309	17354.927000	1932.125000	97.474388
2794.834309	17354.927000	1931.148438	92.913483
2794.834309	17354.927000	1930.171875	100.604294
2794.834309	17354.927000	1929.194336	-18.888466
2794.834309	17354.927000	1928.217773	47.552925
2794.834309	17354.927000	1927.240234	6.399721
2794.834309	17354.927000	1926.262695	21.511585
2794.834309	17354.927000	1925.284180	43.970665
2794.834309	17354.927000	1924.306641	95.769783
2794.834309	17354.927000	1923.328125	150.014404
2794.834309	17354.927000	1922.350586	-44.916615
2794.834309	17354.927000	1921.372070	-39.469563
2794.834309	17354.927000	1920.392578	-4.697730
2794.834309	17354.927000	1919.414063	-26.070696
2794.834309	17354.927000	1918.434570	-23.001068
2794.834309	17354.927000	1917.456055	60.633659
2794.834309	17354.927000	1916.476563	-33.873062
2794.834309	17354.927000	1915.497070	108.334213
2794.834309	17354.927000	1914.516602	26.099081
2794.834309	17354.927000	1913.537109	75.616417
2794.834309	17354.927000	1912.556641	-135.766586
2794.834309	17354.927000	1911.576172	33.269600
2794.834309	17354.927000	1910.595703	95.018845
2794.834309	17354.927000	1909.615234	-242.900330
2794.834309	17354.927000	1908.633789	-90.921288
2794.834309	17354.927000	1907.653320	141.415955
2794.834309	17354.927000	1906.671875	-25.754730
2794.834309	17354.927000	1905.690430	233.318436
2794.834309	17354.927000	1904.708984	49.196678
2794.834309	17354.927000	1903.727539	23.394789
2794.834309	17354.927000	1902.745117	-58.352684
2794.834309	17354.927000	1901.762695	78.956299
2794.834309	17354.927000	1900.780273	7.004894
2794.834309	17354.927000	1899.797852	205.105148
2794.834309	17354.927000	1898.815430	-131.888931
2794.834309	17354.927000	1897.832031	-9.173032
2794.834309	17354.927000	1896.849609	23.565992
2794.834309	17354.927000	1895.866211	-4.453842
2794.834309	17354.927000	1894.882813	-61.606331
2794.834309	17354.927000	1893.898438	24.635483
2794.834309	17354.927000	1892.915039	47.700687
2794.834309	17354.927000	1891.930664	136.353256
2794.834309	17354.927000	1890.947266	88.999214
2794.834309	17354.927000	1889.962891	29.539770
2794.834309	17354.927000	1888.977539	-39.592171
2794.834309	17354.927000	1887.993164	153.432114
2794.834309	17354.927000	1887.007813	-41.850395
2794.834309	17354.927000	1886.023438	-50.238026
2794.834309	17354.927000	1885.038086	-29.502869
2794.834309	17354.927000	1884.051758	80.968063
2794.834309	17354.927000	1883.066406	-140.781387
2794.834309	17354.927000	1882.081055	-81.221458
2794.834309	17354.927000	1881.094727	-16.827692
2794.834309	17354.927000	1880.108398	-85.736130
2794.834309	17354.927000	1879.122070	-60.118069
2794.834309	17354.927000	1878.135742	35.747738
2794.834309	17354.927000	1877.148438	39.546352
2794.834309	17354.927000	1876.162109	7.023550
2794.834309	17354.927000	1875.174805	-236.119583
2794.834309	17354.927000	1874.187500	-101.548004
2794.834309	17354.927000	1873.199219	86.219200
2794.834309	17354.927000	1872.211914	82.755882
2794.834309	17354.927000	1871.223633	166.387604
2794.834309	17354.927000	1870.236328	-40.274685
2794.834309	17354.927000	1869.248047	-7.442066
2794.834309	17354.927000	1868.258789	88.240891
2794.834309	17354.927000	1867.270508	-53.029423
2794.834309	17354.927000	1866.282227	-90.320984
2794.834309	17354.927000	1865.292969	106.801628
2794.834309	17354.927000	1864.303711	100.889214
2794.834309	17354.927000	1863.314453	12.837233
2794.834309	17354.927000	1862.324219	86.627937
2794.834309	17354.927000	1861.334961	-37.631104
2794.834309	17354.927000	1860.344727	-29.068110
2794.834309	17354.927000	1859.354492	-35.004818
2794.834309	17354.927000	1858.364258	-81.981331
2794.834309	17354.927000	1857.374023	-92.760910
2794.834309	17354.927000	1856.383789	-43.241074
2794.834309	17354.927000	1855.392578	76.192154
2794.834309	17354.927000	1854.401367	46.044247
2794.834309	17354.927000	1853.410156	-27.512497
2794.834309	17354.927000	1852.418945	-16.688597
2794.834309	17354.927000	1851.426758	68.827110
2794.834309	17354.927000	1850.435547	-50.542995
2794.834309	17354.927000	1849.443359	-189.166290
2794.834309	17354.927000	1848.451172	69.700134
2794.834309	17354.927000	1847.458984	121.320374
2794.834309	17354.927000	1846.466797	249.948303
2794.834309	17354.927000	1845.473633	58.302151
2794.834309	17354.927000	1844.480469	95.369095
2794.834309	17354.927000	1843.487305	158.864410
2794.834309	17354.927000	1842.494141	128.465317
2794.834309	17354.927000	1841.500977	162.998932
2794.834309	17354.927000	1840.506836	-33.416725
2794.834309	17354.927000	1839.513672	8.281500
2794.834309	17354.927000	1838.519531	42.715908
2794.834309	17354.927000	1837.525391	-35.881477
2794.834309	17354.927000	1836.530273	12.894867
2794.834309	17354.927000	1835.536133	124.092270
2794.834309	17354.927000	1834.541016	-12.251699
2794.834309	17354.927000	1833.545898	19.560980
2794.834309	17354.927000	1832.550781	212.228577
2794.834309	17354.927000	1831.555664	80.623680
2794.834309	17354.927000	1830.560547	28.249279
2794.834309	17354.927000	1829.564453	-55.353607
2794.834309	17354.927000	1828.568359	48.215427
2794.834309	17354.927000	1827.572266	-4.258874
2794.834309	17354.927000	1826.576172	82.375916
2794.834309	17354.927000	1825.580078	56.203373
2794.834309	17354.927000	1824.583008	51.572952
2794.834309	17354.927000	1823.585938	178.759842
2794.834309	17354.927000	1822.588867	-58.510273
2794.834309	17354.927000	1821.591797	205.156311
2794.834309	17354.927000	1820.594727	46.941387
2794.834309	17354.927000	1819.596680	176.221039
2794.834309	17354.927000	1818.599609	-56.290195
2794.834309	17354.927000	1817.601563	242.884796
2794.834309	17354.927000	1816.603516	72.591446
2794.834309	17354.927000	1815.604492	67.485954
2794.834309	17354.927000	1814.606445	-28.625843
2794.834309	17354.927000	1813.607422	215.049667
2794.834309	17354.927000	1812.608398	197.783478
2794.834309	17354.927000	1811.609375	17.798981
2794.834309	17354.927000	1810.610352	53.073002
2794.834309	17354.927000	1809.610352	-69.549561
2794.834309	17354.927000	1808.611328	132.959061
2794.834309	17354.927000	1807.611328	53.268845
2794.834309	17354.927000	1806.611328	150.395813
2794.834309	17354.927000	1805.610352	3.699825
2794.834309	17354.927000	1804.610352	-25.944628
2794.834309	17354.927000	1803.609375	59.003567
2794.834309	17354.927000	1802.608398	119.973343
2794.834309	17354.927000	1801.607422	75.798088
2794.834309	17354.927000	1800.606445	153.317551
2794.834309	17354.927000	1799.605469	149.591721
2794.834309	17354.927000	1798.603516	272.268158
2794.834309	17354.927000	1797.601563	180.106308
2794.834309	17354.927000	1796.599609	226.260376
2794.834309	17354.927000	1795.597656	281.866608
2794.834309	17354.927000	1794.595703	122.779953
2794.834309	17354.927000	1793.592773	80.495888
2794.834309	17354.927000	1792.589844	317.031067
2794.834309	17354.927000	1791.587891	155.429718
2794.834309	17354.927000	1790.583984	148.683258
2794.834309	17354.927000	1789.581055	172.837509
2794.834309	17354.927000	1788.577148	106.399597
2794.834309	17354.927000	1787.574219	68.490662
2794.834309	17354.927000	1786.570313	211.462769
2794.834309	17354.927000	1785.566406	163.874161
2794.834309	17354.927000	1784.561523	163.823807
2794.834309	17354.927000	1783.557617	61.383186
2794.834309	17354.927000	1782.552734	158.740280
2794.834309	17354.927000	1781.547852	51.425846
2794.834309	17354.927000	1780.542969	48.713036
2794.834309	17354.927000	1779.538086	214.738785
2794.834309	17354.927000	1778.532227	-25.885101
2794.834309	17354.927000	1777.527344	-83.480225
2794.834309	17354.927000	1776.521484	63.228508
2794.834309	17354.927000	1775.515625	107.640541
2794.834309	17354.927000	1774.508789	52.185318
2794.834309	17354.927000	1773.502930	151.049225
2794.834309	17354.927000	1772.496094	119.193810
2794.834309	17354.927000	1771.489258	87.270844
2794.834309	17354.927000	1770.482422	190.577072
2794.834309	17354.927000	1769.475586	-19.494068
2794.834309	17354.927000	1768.467773	17.193043
2794.834309	17354.927000	1767.460938	139.191986
2794.834309	17354.927000	1766.453125	0.160300
2794.834309	17354.927000	1765.445313	152.779099
2794.834309	17354.927000	1764.437500	-31.410660
2794.834309	17354.927000	1763.428711	54.617474
2794.834309	17354.927000	1762.420898	52.846622
2794.834309	17354.927000	1761.412109	159.991257
2794.834309	17354.927000	1760.403320	271.752472
2794.834309	17354.927000	1759.393555	-92.716110
2794.834309	17354.927000	1758.384766	-87.680191
2794.834309	17354.927000	1757.375000	-9.332107
2794.834309	17354.927000	1756.366211	57.074963
2794.834309	17354.927000	1755.356445	-23.375214
2794.834309	17354.927000	1754.345703	104.363632
2794.834309	17354.927000	1753.335938	101.850822
2794.834309	17354.927000	1752.325195	56.674122
2794.834309	17354.927000	1751.315430	-116.273323
2794.834309	17354.927000	1750.304688	-85.884499
2794.834309	17354.927000	1749.292969	98.076393
2794.834309	17354.927000	1748.282227	-18.297287
2794.834309	17354.927000	1747.270508	-14.186538
2794.834309	17354.927000	1746.259766	-203.900513
2794.834309	17354.927000	1745.248047	-150.306000
2794.834309	17354.927000	1744.235352	-87.369293
2794.834309	17354.927000	1743.223633	65.205437
2794.834309	17354.927000	1742.211914	-75.120872
2794.834309	17354.927000	1741.199219	27.657845
2794.834309	17354.927000	1740.186523	-167.053864
2794.834309	17354.927000	1739.173828	51.169601
2794.834309	17354.927000	1738.160156	-162.508133
2794.834309	17354.927000	1737.147461	-15.286888
2794.834309	17354.927000	1736.133789	155.377472
2794.834309	17354.927000	1735.120117	7.589612
2794.834309	17354.927000	1734.106445	123.810379
2794.834309	17354.927000	1733.091797	89.058075
2794.834309	17354.927000	1732.078125	14.190797
2794.834309	17354.927000	1731.063477	-121.988213
2794.834309	17354.927000	1730.048828	-65.031570
2794.834309	17354.927000	1729.034180	170.819489
2794.834309	17354.927000	1728.019531	-163.330093
2794.834309	17354.927000	1727.003906	-90.148865
2794.834309	17354.927000	1725.988281	98.266930
2794.834309	17354.927000	1724.972656	199.464188
2794.834309	17354.927000	1723.957031	-73.561455
2794.834309	17354.927000	1722.941406	-17.211342
2794.834309	17354.927000	1721.924805	27.277344
2794.834309	17354.927000	1720.909180	-107.032051
2794.834309	17354.927000	1719.892578	71.327888
2794.834309	17354.927000	1718.875977	-98.346916
2794.834309	17354.927000	1717.858398	-70.618080
2794.834309	17354.927000	1716.841797	69.827324
2794.834309	17354.927000	1715.824219	137.315140
2794.834309	17354.927000	1714.806641	49.684059
2794.834309	17354.927000	1713.789063	105.271637
2794.834309	17354.927000	1712.770508	174.850464
2794.834309	17354.927000	1711.752930	47.154564
2794.834309	17354.927000	1710.734375	3.927670
2794.834309	17354.927000	1709.715820	110.835022
2794.834309	17354.927000	1708.697266	-85.016258
2794.834309	17354.927000	1707.678711	-107.274895
2794.834309	17354.927000	1706.659180	-0.607043
2794.834309	17354.927000	1705.640625	286.515045
2794.834309	17354.927000	1704.621094	-54.828640
2794.834309	17354.927000	1703.600586	171.111526
2794.834309	17354.927000	1702.581055	155.539429
2794.834309	17354.927000	1701.561523	228.947021
2794.834309	17354.927000	1700.541016	-2.272548
2794.834309	17354.927000	1699.520508	-6.278566
2794.834309	17354.927000	1698.500000	-10.339794
2794.834309	17354.927000	1697.478516	-14.465557
2794.834309	17354.927000	1696.458008	63.289917
2794.834309	17354.927000	1695.436523	30.956961
2794.834309	17354.927000	1694.415039	108.555290
2794.834309	17354.927000	1693.393555	169.694122
2794.834309	17354.927000	1692.372070	165.265884
2794.834309	17354.927000	1691.349609	277.702423
2794.834309	17354.927000	1690.327148	200.663330
2794.834309	17354.927000	1689.304688	235.807648
2794.834309	17354.927000	1688.282227	284.911621
2794.834309	17354.927000	1687.259766	333.947815
2794.834309	17354.927000	1686.236328	305.811768
2794.834309	17354.927000	1685.213867	350.058716
2794.834309	17354.927000	1684.190430	181.715164
2794.834309	17354.927000	1683.166016	356.612946
2794.834309	17354.927000	1682.142578	370.331055
2794.834309	17354.927000	1681.119141	213.617462
2794.834309	17354.927000	1680.094727	208.592163
2794.834309	17354.927000	1679.070313	567.492432
2794.834309	17354.927000	1678.045898	448.018372
2794.834309	17354.927000	1677.020508	407.835785
2794.834309	17354.927000	1675.996094	216.073898
2794.834309	17354.927000	1674.970703	555.877747
2794.834309	17354.927000	1673.945313	508.589325
2794.834309	17354.927000	1672.919922	354.084534
2794.834309	17354.927000	1671.893555	378.999786
2794.834309	17354.927000	1670.868164	497.062256
2794.834309	17354.927000	1669.841797	456.658905
2794.834309	17354.927000	1668.815430	446.509827
2794.834309	17354.927000	1667.789063	468.927521
2794.834309	17354.927000	1666.761719	656.563843
2794.834309	17354.927000	1665.735352	567.162903
2794.834309	17354.927000	1664.708008	752.322388
2794.834309	17354.927000	1663.680664	697.766357
2794.834309	17354.927000	1662.653320	701.352356
2794.834309	17354.927000	1661.625000	837.451843
2794.834309	17354.927000	1660.597656	650.307190
2794.834309	17354.927000	1659.569336	749.122314
2794.834309	17354.927000	1658.541016	938.517029
2794.834309	17354.927000	1657.512695	723.497192
2794.834309	17354.927000	1656.483398	994.083679
2794.834309	17354.927000	1655.455078	848.778809
2794.834309	17354.927000	1654.425781	833.550049
2794.834309	17354.927000	1653.396484	1083.004517
2794.834309	17354.927000	1652.366211	1067.691406
2794.834309	17354.927000	1651.336914	989.712769
2794.834309	17354.927000	1650.306641	1190.203003
2794.834309	17354.927000	1649.276367	1098.271118
2794.834309	17354.927000	1648.246094	1140.899780
2794.834309	17354.927000	1647.215820	1239.161255
2794.834309	17354.927000	1646.185547	1244.624878
2794.834309	17354.927000	1645.154297	1396.117188
2794.834309	17354.927000	1644.123047	1535.953369
2794.834309	17354.927000	1643.091797	1596.936279
2794.834309	17354.927000	1642.060547	1486.435181
2794.834309	17354.927000	1641.028320	1494.101563
2794.834309	17354.927000	1639.997070	1427.657837
2794.834309	17354.927000	1638.964844	1375.120117
2794.834309	17354.927000	1637.931641	1290.176880
2794.834309	17354.927000	1636.899414	1200.646240
2794.834309	17354.927000	1635.867188	1361.087891
2794.834309	17354.927000	1634.833984	1440.474976
2794.834309	17354.927000	1633.800781	1383.346313
2794.834309	17354.927000	1632.767578	1483.518433
2794.834309	17354.927000	1631.734375	1248.350586
2794.834309	17354.927000	1630.700195	1362.380493
2794.834309	17354.927000	1629.666016	1328.432861
2794.834309	17354.927000	1628.631836	1421.615479
2794.834309	17354.927000	1627.597656	1378.441895
2794.834309	17354.927000	1626.563477	1471.595825
2794.834309	17354.927000	1625.528320	1472.322876
2794.834309	17354.927000	1624.493164	1463.823730
2794.834309	17354.927000	1623.458008	1332.969727
2794.834309	17354.927000	1622.422852	1377.620239
2794.834309	17354.927000	1621.387695	1311.484375
2794.834309	17354.927000	1620.351563	1529.203247
2794.834309	17354.927000	1619.315430	1303.898438
2794.834309	17354.927000	1618.279297	1390.090576
2794.834309	17354.927000	1617.243164	1326.366699
2794.834309	17354.927000	1616.207031	1195.822510
2794.834309	17354.927000	1615.169922	1547.139282
2794.834309	17354.927000	1614.132813	1425.852539
2794.834309	17354.927000	1613.095703	1346.114868
2794.834309	17354.927000	1612.058594	1333.245483
2794.834309	17354.927000	1611.020508	1301.967896
2794.834309	17354.927000	1609.983398	1236.192749
2794.834309	17354.927000	1608.945313	1488.214600
2794.834309	17354.927000	1607.907227	1173.843140
2794.834309	17354.927000	1606.868164	1287.725708
2794.834309	17354.927000	1605.830078	1123.153931
2794.834309	17354.927000	1604.791016	1299.182983
2794.834309	17354.927000	1603.751953	1162.329590
2794.834309	17354.927000	1602.712891	1032.462158
2794.834309	17354.927000	1601.673828	1229.198608
2794.834309	17354.927000	1600.633789	1189.087891
2794.834309	17354.927000	1599.594727	1273.158325
2794.834309	17354.927000	1598.554688	1382.502686
2794.834309	17354.927000	1597.513672	1275.854492
2794.834309	17354.927000	1596.473633	1288.749634
2794.834309	17354.927000	1595.433594	1473.935181
2794.834309	17354.927000	1594.392578	1271.006226
2794.834309	17354.927000	1593.351563	1362.066040
2794.834309	17354.927000	1592.310547	1423.292114
2794.834309	17354.927000	1591.268555	1406.500488
2794.834309	17354.927000	1590.227539	1580.212769
2794.834309	17354.927000	1589.185547	1522.194214
2794.834309	17354.927000	1588.143555	1773.880005
2794.834309	17354.927000	1587.100586	1626.497314
2794.834309	17354.927000	1586.058594	1630.548706
2794.834309	17354.927000	1585.015625	1634.637939
2794.834309	17354.927000	1583.972656	1707.529907
2794.834309	17354.927000	1582.929688	1846.894531
2794.834309	17354.927000	1581.886719	1945.019775
2794.834309	17354.927000	1580.843750	2008.801880
2794.834309	17354.927000	1579.799805	1880.242798
2794.834309	17354.927000	1578.755859	1907.479370
2794.834309	17354.927000	1577.711914	2321.621582
2794.834309	17354.927000	1576.666992	2353.441895
2794.834309	17354.927000	1575.623047	2188.528076
2794.834309	17354.927000	1574.578125	2252.506104
2794.834309	17354.927000	1573.533203	2373.699951
2794.834309	17354.927000	1572.488281	2197.613525
2794.834309	17354.927000	1571.443359	1930.199585
2794.834309	17354.927000	1570.397461	1827.534668
2794.834309	17354.927000	1569.351563	1830.106445
2794.834309	17354.927000	1568.305664	2045.252808
2794.834309	17354.927000	1567.259766	1853.714600
2794.834309	17354.927000	1566.213867	1835.914551
2794.834309	17354.927000	1565.166992	1708.559204
2794.834309	17354.927000	1564.120117	1759.417358
2794.834309	17354.927000	1563.073242	1817.171387
2794.834309	17354.927000	1562.026367	1692.379517
2794.834309	17354.927000	1560.978516	1768.509521
2794.834309	17354.927000	1559.930664	1840.115845
2794.834309	17354.927000	1558.883789	1843.341431
2794.834309	17354.927000	1557.834961	1739.432983
2794.834309	17354.927000	1556.787109	2109.916748
2794.834309	17354.927000	1555.739258	1869.367065
2794.834309	17354.927000	1554.690430	1982.263550
2794.834309	17354.927000	1553.641602	2013.151367
2794.834309	17354.927000	1552.592773	2076.000000
2794.834309	17354.927000	1551.542969	1942.992554
2794.834309	17354.927000	1550.494141	2208.677002
2794.834309	17354.927000	1549.444336	2037.139526
2794.834309	17354.927000	1548.394531	1815.663452
2794.834309	17354.927000	1547.344727	1810.585083
2794.834309	17354.927000	1546.293945	1657.661133
2794.834309	17354.927000	1545.244141	1764.260132
2794.834309	17354.927000	1544.193359	1509.202515
2794.834309	17354.927000	1543.142578	1472.661499
2794.834309	17354.927000	1542.090820	1252.026733
2794.834309	17354.927000	1541.040039	1206.622314
2794.834309	17354.927000	1539.988281	1222.682251
2794.834309	17354.927000	1538.936523	1213.822632
2794.834309	17354.927000	1537.884766	909.680054
2794.834309	17354.927000	1536.833008	1164.565308
2794.834309	17354.927000	1535.780273	1053.768188
2794.834309	17354.927000	1534.727539	895.415344
2794.834309	17354.927000	1533.674805	632.778748
2794.834309	17354.927000	1532.622070	728.968201
2794.834309	17354.927000	1531.569336	820.669861
2794.834309	17354.927000	1530.515625	780.819153
2794.834309	17354.927000	1529.461914	643.527710
2794.834309	17354.927000	1528.408203	588.030212
2794.834309	17354.927000	1527.354492	621.081238
2794.834309	17354.927000	1526.299805	772.097839
2794.834309	17354.927000	1525.246094	381.407257
2794.834309	17354.927000	1524.191406	426.079834
2794.834309	17354.927000	1523.136719	484.421875
2794.834309	17354.927000	1522.081055	676.485718
2794.834309	17354.927000	1521.026367	372.554810
2794.834309	17354.927000	1519.970703	408.503876
2794.834309	17354.927000	1518.915039	587.165222
2794.834309	17354.927000	1517.859375	410.470856
2794.834309	17354.927000	1516.802734	80.044777
2794.834309	17354.927000	1515.747070	211.434143
2794.834309	17354.927000	1514.690430	485.384644
2794.834309	17354.927000	1513.633789	370.296478
2794.834309	17354.927000	1512.577148	422.689484
2794.834309	17354.927000	1511.519531	425.415619
2794.834309	17354.927000	1510.461914	328.778961
2794.834309	17354.927000	1509.405273	107.983772
2794.834309	17354.927000	1508.346680	-24.511982
2794.834309	17354.927000	1507.289063	157.161407
2794.834309	17354.927000	1506.231445	201.084518
2794.834309	17354.927000	1505.172852	175.082443
2794.834309	17354.927000	1504.114258	194.344467
2794.834309	17354.927000	1503.055664	-14.287387
2794.834309	17354.927000	1501.996094	45.825710
2794.834309	17354.927000	1500.937500	101.506508
2794.834309	17354.927000	1499.877930	-86.380600
2794.834309	17354.927000	1498.818359	-14.708375
2794.834309	17354.927000	1497.757813	223.908432
2794.834309	17354.927000	1496.698242	250.602325
2794.834309	17354.927000	1495.637695	29.425926
2794.834309	17354.927000	1494.577148	178.049988
2794.834309	17354.927000	1493.516602	383.048889
2794.834309	17354.927000	1492.456055	331.246979
2794.834309	17354.927000	1491.394531	536.337708
2794.834309	17354.927000	1490.333008	486.982513
2794.834309	17354.927000	1489.271484	588.599548
2794.834309	17354.927000	1488.209961	530.455566
2794.834309	17354.927000	1487.148438	476.940186
2794.834309	17354.927000	1486.085938	707.065674
2794.834309	17354.927000	1485.023438	916.955994
2794.834309	17354.927000	1483.960938	789.481201
2794.834309	17354.927000	1482.898438	866.799622
2794.834309	17354.927000	1481.834961	782.308533
2794.834309	17354.927000	1480.772461	911.509521
2794.834309	17354.927000	1479.708984	642.970581
2794.834309	17354.927000	1478.644531	880.195007
2794.834309	17354.927000	1477.581055	1245.471680
2794.834309	17354.927000	1476.517578	1006.576172
2794.834309	17354.927000	1475.453125	1030.561401
2794.834309	17354.927000	1474.388672	982.797424
2794.834309	17354.927000	1473.323242	959.913635
2794.834309	17354.927000	1472.258789	1006.641296
2794.834309	17354.927000	1471.193359	1105.063721
2794.834309	17354.927000	1470.127930	1098.135254
2794.834309	17354.927000	1469.062500	934.459473
2794.834309	17354.927000	1467.997070	1060.090942
2794.834309	17354.927000	1466.930664	1073.454468
2794.834309	17354.927000	1465.865234	1107.579224
2794.834309	17354.927000	1464.798828	897.434998
2794.834309	17354.927000	1463.731445	1117.217407
2794.834309	17354.927000	1462.665039	961.275146
2794.834309	17354.927000	1461.597656	1038.125732
2794.834309	17354.927000	1460.530273	1097.229248
2794.834309	17354.927000	1459.462891	869.790955
2794.834309	17354.927000	1458.395508	1037.943359
2794.834309	17354.927000	1457.327148	954.443115
2794.834309	17354.927000	1456.259766	978.125061
2794.834309	17354.927000	1455.191406	781.439392
2794.834309	17354.927000	1454.123047	745.967957
2794.834309	17354.927000	1453.053711	803.580078
2794.834309	17354.927000	1451.985352	698.096008
2794.834309	17354.927000	1450.916016	786.791931
2794.834309	17354.927000	1449.846680	681.716003
2794.834309	17354.927000	1448.776367	518.158813
2794.834309	17354.927000	1447.707031	527.061035
2794.834309	17354.927000	1446.636719	457.271698
2794.834309	17354.927000	1445.566406	429.158936
2794.834309	17354.927000	1444.496094	598.497803
2794.834309	17354.927000	1443.425781	615.763672
2794.834309	17354.927000	1442.354492	526.220276
2794.834309	17354.927000	1441.283203	421.936432
2794.834309	17354.927000	1440.211914	432.380585
2794.834309	17354.927000	1439.140625	474.353241
2794.834309	17354.927000	1438.069336	475.423370
2794.834309	17354.927000	1436.997070	428.680389
2794.834309	17354.927000	1435.924805	405.755127
2794.834309	17354.927000	1434.852539	407.995819
2794.834309	17354.927000	1433.780273	571.626770
2794.834309	17354.927000	1432.707031	373.116608
2794.834309	17354.927000	1431.633789	487.013702
2794.834309	17354.927000	1430.560547	646.060852
2794.834309	17354.927000	1429.487305	784.849426
2794.834309	17354.927000	1428.413086	439.350433
2794.834309	17354.927000	1427.339844	452.544678
2794.834309	17354.927000	1426.265625	387.389130
2794.834309	17354.927000	1425.191406	603.991150
2794.834309	17354.927000	1424.116211	464.404083
2794.834309	17354.927000	1423.041992	563.699768
2794.834309	17354.927000	1421.966797	470.126953
2794.834309	17354.927000	1420.891602	565.390198
2794.834309	17354.927000	1419.816406	453.493988
2794.834309	17354.927000	1418.740234	287.408020
2794.834309	17354.927000	1417.665039	260.620239
2794.834309	17354.927000	1416.588867	372.919250
2794.834309	17354.927000	1415.512695	350.248474
2794.834309	17354.927000	1414.435547	343.803497
2794.834309	17354.927000	1413.359375	320.259155
2794.834309	17354.927000	1412.282227	345.169250
2794.834309	17354.927000	1411.205078	307.897766
2794.834309	17354.927000	1410.127930	356.785004
2794.834309	17354.927000	1409.049805	323.936127
2794.834309	17354.927000	1407.972656	326.760406
2794.834309	17354.927000	1406.894531	315.699219
2794.834309	17354.927000	1405.816406	365.815308
2794.834309	17354.927000	1404.737305	315.921143
2794.834309	17354.927000	1403.659180	287.997620
2794.834309	17354.927000	1402.580078	346.366577
2794.834309	17354.927000	1401.500977	316.637299
2794.834309	17354.927000	1400.421875	300.448853
2794.834309	17354.927000	1399.341797	340.086731
2794.834309	17354.927000	1398.262695	377.379639
2794.834309	17354.927000	1397.182617	238.311325
2794.834309	17354.927000	1396.102539	347.055115
2794.834309	17354.927000	1395.021484	305.489532
2794.834309	17354.927000	1393.941406	531.223877
2794.834309	17354.927000	1392.860352	621.139954
2794.834309	17354.927000	1391.779297	508.529938
2794.834309	17354.927000	1390.698242	535.083496
2794.834309	17354.927000	1389.616211	658.231445
2794.834309	17354.927000	1388.535156	645.484558
2794.834309	17354.927000	1387.453125	765.881653
2794.834309	17354.927000	1386.371094	676.797424
2794.834309	17354.927000	1385.288086	747.872803
2794.834309	17354.927000	1384.206055	746.407043
2794.834309	17354.927000	1383.123047	715.420959
2794.834309	17354.927000	1382.040039	820.657166
2794.834309	17354.927000	1380.957031	969.923523
2794.834309	17354.927000	1379.873047	945.537048
2794.834309	17354.927000	1378.789063	866.341675
2794.834309	17354.927000	1377.705078	895.790833
2794.834309	17354.927000	1376.621094	906.123962
2794.834309	17354.927000	1375.537109	1033.420532
2794.834309	17354.927000	1374.452148	833.561340
2794.834309	17354.927000	1373.367188	993.940735
2794.834309	17354.927000	1372.282227	798.437805
2794.834309	17354.927000	1371.197266	1037.500122
2794.834309	17354.927000	1370.112305	754.356445
2794.834309	17354.927000	1369.026367	819.056946
2794.834309	17354.927000	1367.940430	693.005188
2794.834309	17354.927000	1366.854492	837.560913
2794.834309	17354.927000	1365.767578	684.815247
2794.834309	17354.927000	1364.681641	732.836670
2794.834309	17354.927000	1363.594727	816.503662
2794.834309	17354.927000	1362.507813	781.637634
2794.834309	17354.927000	1361.419922	833.908081
2794.834309	17354.927000	1360.333008	892.464050
2794.834309	17354.927000	1359.245117	1027.332886
2794.834309	17354.927000	1358.157227	1188.550659
2794.834309	17354.927000	1357.069336	1177.439697
2794.834309	17354.927000	1355.981445	1415.877319
2794.834309	17354.927000	1354.892578	1286.822510
2794.834309	17354.927000	1353.803711	1262.927124
2794.834309	17354.927000	1352.714844	1340.946289
2794.834309	17354.927000	1351.625000	1436.849854
2794.834309	17354.927000	1350.536133	1259.015137
2794.834309	17354.927000	1349.446289	1110.569336
2794.834309	17354.927000	1348.356445	1209.643555
2794.834309	17354.927000	1347.266602	1216.935181
2794.834309	17354.927000	1346.175781	1436.634155
2794.834309	17354.927000	1345.085938	1205.814575
2794.834309	17354.927000	1343.995117	1262.968140
2794.834309	17354.927000	1342.903320	1327.271118
2794.834309	17354.927000	1341.812500	1564.379272
2794.834309	17354.927000	1340.720703	1493.547485
2794.834309	17354.927000	1339.629883	1563.475342
2794.834309	17354.927000	1338.538086	1664.772217
2794.834309	17354.927000	1337.445313	1649.570190
2794.834309	17354.927000	1336.353516	1716.251587
2794.834309	17354.927000	1335.260742	1710.564453
2794.834309	17354.927000	1334.167969	1833.122803
2794.834309	17354.927000	1333.075195	1737.894653
2794.834309	17354.927000	1331.981445	1802.950073
2794.834309	17354.927000	1330.888672	1812.027466
2794.834309	17354.927000	1329.794922	1806.126099
2794.834309	17354.927000	1328.701172	1894.789673
2794.834309	17354.927000	1327.606445	2020.888306
2794.834309	17354.927000	1326.512695	2324.756592
2794.834309	17354.927000	1325.417969	2458.377441
2794.834309	17354.927000	1324.323242	2632.153076
2794.834309	17354.927000	1323.227539	2673.387939
2794.834309	17354.927000	1322.132813	2652.864746
2794.834309	17354.927000	1321.037109	2867.144287
2794.834309	17354.927000	1319.941406	2734.789063
2794.834309	17354.927000	1318.845703	2618.051270
2794.834309	17354.927000	1317.750000	2641.321777
2794.834309	17354.927000	1316.653320	2388.866455
2794.834309	17354.927000	1315.556641	2219.978516
2794.834309	17354.927000	1314.459961	2176.829834
2794.834309	17354.927000	1313.363281	2001.558228
2794.834309	17354.927000	1312.265625	1824.753418
2794.834309	17354.927000	1311.167969	1590.731445
2794.834309	17354.927000	1310.070313	1383.252319
2794.834309	17354.927000	1308.972656	1378.966675
2794.834309	17354.927000	1307.874023	1193.367188
2794.834309	17354.927000	1306.776367	1233.056885
2794.834309	17354.927000	1305.677734	1229.471313
2794.834309	17354.927000	1304.579102	1383.910156
2794.834309	17354.927000	1303.479492	1078.835815
2794.834309	17354.927000	1302.380859	1148.052368
2794.834309	17354.927000	1301.281250	1192.729004
2794.834309	17354.927000	1300.181641	1074.897461
2794.834309	17354.927000	1299.081055	1000.507935
2794.834309	17354.927000	1297.981445	962.275269
2794.834309	17354.927000	1296.880859	857.250549
2794.834309	17354.927000	1295.780273	926.493042
2794.834309	17354.927000	1294.679688	753.583984
2794.834309	17354.927000	1293.578125	701.800659
2794.834309	17354.927000	1292.476563	664.149414
2794.834309	17354.927000	1291.375000	611.004517
2794.834309	17354.927000	1290.273438	672.918884
2794.834309	17354.927000	1289.171875	731.065674
2794.834309	17354.927000	1288.069336	385.789459
2794.834309	17354.927000	1286.966797	622.521484
2794.834309	17354.927000	1285.864258	480.970917
2794.834309	17354.927000	1284.761719	410.212219
2794.834309	17354.927000	1283.658203	597.174072
2794.834309	17354.927000	1282.554688	591.329651
2794.834309	17354.927000	1281.451172	514.202576
2794.834309	17354.927000	1280.347656	531.729675
2794.834309	17354.927000	1279.244141	621.272400
2794.834309	17354.927000	1278.139648	551.075073
2794.834309	17354.927000	1277.035156	660.958374
2794.834309	17354.927000	1275.930664	529.629578
2794.834309	17354.927000	1274.825195	742.472595
2794.834309	17354.927000	1273.720703	801.615967
2794.834309	17354.927000	1272.615234	970.470642
2794.834309	17354.927000	1271.508789	987.287903
2794.834309	17354.927000	1270.403320	987.015686
2794.834309	17354.927000	1269.297852	1133.408936
2794.834309	17354.927000	1268.191406	1073.426636
2794.834309	17354.927000	1267.084961	980.812500
2794.834309	17354.927000	1265.977539	969.342957
2794.834309	17354.927000	1264.871094	984.816589
2794.834309	17354.927000	1263.763672	808.297607
2794.834309	17354.927000	1262.656250	892.753357
2794.834309	17354.927000	1261.548828	800.708557
2794.834309	17354.927000	1260.440430	690.694519
2794.834309	17354.927000	1259.333008	651.492249
2794.834309	17354.927000	1258.224609	701.794006
2794.834309	17354.927000	1257.115234	417.231873
2794.834309	17354.927000	1256.006836	586.044006
2794.834309	17354.927000	1254.897461	490.201782
2794.834309	17354.927000	1253.788086	515.756653
2794.834309	17354.927000	1252.678711	433.748962
2794.834309	17354.927000	1251.569336	488.121399
2794.834309	17354.927000	1250.458984	469.284149
2794.834309	17354.927000	1249.349609	485.775269
2794.834309	17354.927000	1248.239258	422.828827
2794.834309	17354.927000	1247.127930	567.691284
2794.834309	17354.927000	1246.017578	495.325470
2794.834309	17354.927000	1244.906250	628.461609
2794.834309	17354.927000	1243.794922	564.758606
2794.834309	17354.927000	1242.683594	554.073181
2794.834309	17354.927000	1241.571289	631.194397
2794.834309	17354.927000	1240.459961	627.518005
2794.834309	17354.927000	1239.347656	645.415527
2794.834309	17354.927000	1238.234375	656.321960
2794.834309	17354.927000	1237.122070	585.965088
2794.834309	17354.927000	1236.008789	692.726257
2794.834309	17354.927000	1234.896484	632.132141
2794.834309	17354.927000	1233.782227	569.948303
2794.834309	17354.927000	1232.668945	660.795776
2794.834309	17354.927000	1231.555664	543.097290
2794.834309	17354.927000	1230.441406	702.072388
2794.834309	17354.927000	1229.327148	726.878418
2794.834309	17354.927000	1228.211914	743.334351
2794.834309	17354.927000	1227.097656	796.627502
2794.834309	17354.927000	1225.982422	742.329285
2794.834309	17354.927000	1224.867188	622.490479
2794.834309	17354.927000	1223.751953	688.395874
2794.834309	17354.927000	1222.635742	614.379028
2794.834309	17354.927000	1221.520508	660.872559
2794.834309	17354.927000	1220.404297	642.556152
2794.834309	17354.927000	1219.287109	571.098083
2794.834309	17354.927000	1218.170898	669.976074
2794.834309	17354.927000	1217.053711	642.361755
2794.834309	17354.927000	1215.936523	587.500610
2794.834309	17354.927000	1214.819336	592.903809
2794.834309	17354.927000	1213.702148	561.119751
2794.834309	17354.927000	1212.583984	454.791565
2794.834309	17354.927000	1211.465820	500.515350
2794.834309	17354.927000	1210.347656	406.685150
2794.834309	17354.927000	1209.229492	325.583710
2794.834309	17354.927000	1208.110352	335.884369
2794.834309	17354.927000	1206.992188	322.599487
2794.834309	17354.927000	1205.873047	236.432510
2794.834309	17354.927000	1204.752930	328.311646
2794.834309	17354.927000	1203.633789	230.646942
2794.834309	17354.927000	1202.513672	198.785248
2794.834309	17354.927000	1201.393555	270.328857
2794.834309	17354.927000	1200.273438	144.071304
2794.834309	17354.927000	1199.152344	95.609024
2794.834309	17354.927000	1198.032227	-24.013334
2794.834309	17354.927000	1196.911133	117.473183
2794.834309	17354.927000	1195.790039	90.400047
2794.834309	17354.927000	1194.667969	-24.063656
2794.834309	17354.927000	1193.545898	39.956112
2794.834309	17354.927000	1192.424805	73.903831
2794.834309	17354.927000	1191.301758	84.033928
2794.834309	17354.927000	1190.179688	16.523390
2794.834309	17354.927000	1189.056641	-53.768448
2794.834309	17354.927000	1187.933594	-104.285217
2794.834309	17354.927000	1186.810547	-143.978439
2794.834309	17354.927000	1185.687500	-38.702938
2794.834309	17354.927000	1184.563477	-41.509121
2794.834309	17354.927000	1183.440430	63.443539
2794.834309	17354.927000	1182.316406	-171.874680
2794.834309	17354.927000	1181.191406	-52.050110
2794.834309	17354.927000	1180.067383	-51.893875
2794.834309	17354.927000	1178.942383	-129.356277
2794.834309	17354.927000	1177.817383	-85.327385
2794.834309	17354.927000	1176.692383	-125.599457
2794.834309	17354.927000	1175.566406	-102.224129
2794.834309	17354.927000	1174.440430	-117.438980
2794.834309	17354.927000	1173.314453	-65.799934
2794.834309	17354.927000	1172.188477	-7.328741
2794.834309	17354.927000	1171.062500	-6.322534
2794.834309	17354.927000	1169.935547	68.388573
2794.834309	17354.927000	1168.808594	-15.857086
2794.834309	17354.927000	1167.681641	9.455873
2794.834309	17354.927000	1166.553711	46.945969
2794.834309	17354.927000	1165.426758	-7.173878
2794.834309	17354.927000	1164.298828	87.537674
2794.834309	17354.927000	1163.170898	11.203840
2794.834309	17354.927000	1162.041992	145.451797
2794.834309	17354.927000	1160.914063	-50.933899
2794.834309	17354.927000	1159.785156	53.475098
2794.834309	17354.927000	1158.656250	75.026802
2794.834309	17354.927000	1157.526367	-151.382233
2794.834309	17354.927000	1156.397461	16.112995
2794.834309	17354.927000	1155.267578	-95.771400
2794.834309	17354.927000	1154.137695	-84.065628
2794.834309	17354.927000	1153.006836	-75.830299
2794.834309	17354.927000	1151.876953	-94.575081
2794.834309	17354.927000	1150.746094	-67.791664
2794.834309	17354.927000	1149.615234	-39.256176
2794.834309	17354.927000	1148.484375	-33.774414
2794.834309	17354.927000	1147.352539	22.848204
2794.834309	17354.927000	1146.220703	-25.221428
2794.834309	17354.927000	1145.088867	-37.872101
2794.834309	17354.927000	1143.957031	-56.700119
2794.834309	17354.927000	1142.825195	23.205542
2794.834309	17354.927000	1141.692383	13.759001
2794.834309	17354.927000	1140.559570	42.464802
2794.834309	17354.927000	1139.426758	15.097264
2794.834309	17354.927000	1138.292969	-13.654699
2794.834309	17354.927000	1137.159180	134.246796
2794.834309	17354.927000	1136.025391	52.418388
2794.834309	17354.927000	1134.891602	303.380005
2794.834309	17354.927000	1133.757813	102.626251
2794.834309	17354.927000	1132.623047	213.712021
2794.834309	17354.927000	1131.488281	193.948898
2794.834309	17354.927000	1130.353516	352.719177
2794.834309	17354.927000	1129.217773	407.563965
2794.834309	17354.927000	1128.083008	225.131332
2794.834309	17354.927000	1126.947266	335.714478
2794.834309	17354.927000	1125.811523	213.372284
2794.834309	17354.927000	1124.674805	217.291748
2794.834309	17354.927000	1123.539063	176.816589
2794.834309	17354.927000	1122.402344	71.723091
2794.834309	17354.927000	1121.265625	78.398468
2794.834309	17354.927000	1120.127930	79.161873
2794.834309	17354.927000	1118.990234	92.760002
2794.834309	17354.927000	1117.853516	176.728271
2794.834309	17354.927000	1116.714844	131.197266
2794.834309	17354.927000	1115.577148	33.781071
2794.834309	17354.927000	1114.439453	21.481895
2794.834309	17354.927000	1113.300781	30.295422
2794.834309	17354.927000	1112.162109	96.670776
2794.834309	17354.927000	1111.022461	32.953651
2794.834309	17354.927000	1109.883789	22.786232
2794.834309	17354.927000	1108.744141	-49.177750
2794.834309	17354.927000	1107.604492	-72.131561
2794.834309	17354.927000	1106.463867	45.043793
2794.834309	17354.927000	1105.324219	151.031372
2794.834309	17354.927000	1104.183594	68.399147
2794.834309	17354.927000	1103.042969	148.467224
2794.834309	17354.927000	1101.902344	33.929031
2794.834309	17354.927000	1100.760742	110.461967
2794.834309	17354.927000	1099.619141	154.169495
2794.834309	17354.927000	1098.477539	350.562439
2794.834309	17354.927000	1097.335938	196.210236
2794.834309	17354.927000	1096.193359	186.641678
2794.834309	17354.927000	1095.051758	405.364868
2794.834309	17354.927000	1093.909180	107.582314
2794.834309	17354.927000	1092.765625	116.173355
2794.834309	17354.927000	1091.623047	270.885651
2794.834309	17354.927000	1090.479492	126.614258
2794.834309	17354.927000	1089.335938	198.236053
2794.834309	17354.927000	1088.192383	67.727730
2794.834309	17354.927000	1087.047852	104.840904
2794.834309	17354.927000	1085.903320	247.476959
2794.834309	17354.927000	1084.758789	101.463211
2794.834309	17354.927000	1083.614258	201.642059
2794.834309	17354.927000	1082.469727	257.621582
2794.834309	17354.927000	1081.324219	138.845123
2794.834309	17354.927000	1080.178711	126.035568
2794.834309	17354.927000	1079.033203	138.166718
2794.834309	17354.927000	1077.886719	-3.547198
2794.834309	17354.927000	1076.740234	170.891266
2794.834309	17354.927000	1075.593750	132.762054
2794.834309	17354.927000	1074.447266	240.936951
2794.834309	17354.927000	1073.300781	161.272568
2794.834309	17354.927000	1072.153320	58.314953
2794.834309	17354.927000	1071.005859	26.263458
2794.834309	17354.927000	1069.858398	173.106064
2794.834309	17354.927000	1068.709961	11.502973
2794.834309	17354.927000	1067.561523	60.569672
2794.834309	17354.927000	1066.413086	62.741421
2794.834309	17354.927000	1065.264648	48.162457
2794.834309	17354.927000	1064.116211	133.533173
2794.834309	17354.927000	1062.966797	10.279237
2794.834309	17354.927000	1061.817383	62.290253
2794.834309	17354.927000	1060.667969	131.474152
2794.834309	17354.927000	1059.517578	-1.809431
2794.834309	17354.927000	1058.368164	23.300434
2794.834309	17354.927000	1057.217773	59.446095
2794.834309	17354.927000	1056.067383	-25.814163
2794.834309	17354.927000	1054.916016	-87.251717
2794.834309	17354.927000	1053.764648	-150.300858
2794.834309	17354.927000	1052.613281	-14.742637
2794.834309	17354.927000	1051.461914	11.518414
2794.834309	17354.927000	1050.310547	50.180271
2794.834309	17354.927000	1049.158203	130.620316
2794.834309	17354.927000	1048.005859	88.411743
2794.834309	17354.927000	1046.853516	72.763802
2794.834309	17354.927000	1045.700195	-3.420869
2794.834309	17354.927000	1044.547852	126.498909
2794.834309	17354.927000	1043.394531	46.215874
2794.834309	17354.927000	1042.240234	99.335136
2794.834309	17354.927000	1041.086914	190.188034
2794.834309	17354.927000	1039.932617	196.342590
2794.834309	17354.927000	1038.778320	193.572037
2794.834309	17354.927000	1037.624023	121.143204
2794.834309	17354.927000	1036.469727	214.474335
2794.834309	17354.927000	1035.314453	384.223633
2794.834309	17354.927000	1034.159180	324.015564
2794.834309	17354.927000	1033.003906	266.650177
2794.834309	17354.927000	1031.847656	279.151306
2794.834309	17354.927000	1030.692383	311.171234
2794.834309	17354.927000	1029.536133	159.715363
2794.834309	17354.927000	1028.378906	-36.760098
2794.834309	17354.927000	1027.222656	195.723038
2794.834309	17354.927000	1026.065430	98.602074
2794.834309	17354.927000	1024.908203	177.037399
2794.834309	17354.927000	1023.750977	105.621071
2794.834309	17354.927000	1022.593750	36.752285
2794.834309	17354.927000	1021.435547	135.188965
2794.834309	17354.927000	1020.277344	195.741989
2794.834309	17354.927000	1019.119141	132.035202
2794.834309	17354.927000	1017.959961	112.365936
2794.834309	17354.927000	1016.800781	-110.131531
2794.834309	17354.927000	1015.641602	-36.992584
2794.834309	17354.927000	1014.482422	-103.604172
2794.834309	17354.927000	1013.323242	80.852348
2794.834309	17354.927000	1012.163086	84.082382
2794.834309	17354.927000	1011.002930	-95.990097
2794.834309	17354.927000	1009.842773	-157.206146
2794.834309	17354.927000	1008.681641	-86.961967
2794.834309	17354.927000	1007.520508	-35.223186
2794.834309	17354.927000	1006.359375	76.404510
2794.834309	17354.927000	1005.198242	205.912125
2794.834309	17354.927000	1004.037109	183.194427
2794.834309	17354.927000	1002.875000	135.155380
2794.834309	17354.927000	1001.712891	147.956940
2794.834309	17354.927000	1000.550781	75.189209
2794.834309	17354.927000	999.387695	145.756531
2794.834309	17354.927000	998.224609	59.556316
2794.834309	17354.927000	997.061523	19.144981
2794.834309	17354.927000	995.898438	92.550621
2794.834309	17354.927000	994.734375	-147.631149
2794.834309	17354.927000	993.571289	-35.966782
2794.834309	17354.927000	992.407227	122.324516
2794.834309	17354.927000	991.242188	102.570068
2794.834309	17354.927000	990.078125	-58.462440
2794.834309	17354.927000	988.913086	-141.905457
2794.834309	17354.927000	987.748047	-35.303730
2794.834309	17354.927000	986.583008	-16.658449
2794.834309	17354.927000	985.416992	150.491013
2794.834309	17354.927000	984.250977	25.031160
2794.834309	17354.927000	983.084961	-125.691078
2794.834309	17354.927000	981.918945	-37.372238
2794.834309	17354.927000	980.751953	202.727524
2794.834309	17354.927000	979.584961	26.408356
2794.834309	17354.927000	978.417969	90.047958
2794.834309	17354.927000	977.250977	-212.580475
2794.834309	17354.927000	976.083008	-8.764560
2794.834309	17354.927000	974.915039	20.488337
2794.834309	17354.927000	973.747070	-48.029064
2794.834309	17354.927000	972.579102	-77.201286
2794.834309	17354.927000	971.410156	-43.616344
2794.834309	17354.927000	970.242188	-17.300173
2794.834309	17354.927000	969.072266	-15.683853
2794.834309	17354.927000	967.903320	-17.486233
2794.834309	17354.927000	966.733398	-41.476467
2794.834309	17354.927000	965.563477	90.152710
2794.834309	17354.927000	964.393555	61.554363
2794.834309	17354.927000	963.223633	-6.484680
2794.834309	17354.927000	962.052734	148.162231
2794.834309	17354.927000	960.881836	64.629578
2794.834309	17354.927000	959.710938	-53.240131
2794.834309	17354.927000	958.540039	67.375580
2794.834309	17354.927000	957.368164	101.671608
2794.834309	17354.927000	956.196289	17.161930
2794.834309	17354.927000	955.024414	50.953190
2794.834309	17354.927000	953.851563	77.219711
2794.834309	17354.927000	952.679688	46.935200
2794.834309	17354.927000	951.506836	193.178070
2794.834309	17354.927000	950.333984	5.410122
2794.834309	17354.927000	949.160156	98.784111
2794.834309	17354.927000	947.986328	-46.892406
2794.834309	17354.927000	946.812500	-5.357536
2794.834309	17354.927000	945.638672	0.331291
2794.834309	17354.927000	944.464844	90.914490
2794.834309	17354.927000	943.290039	235.516373
2794.834309	17354.927000	942.115234	2.003182
2794.834309	17354.927000	940.940430	-5.013596
2794.834309	17354.927000	939.764648	75.237762
2794.834309	17354.927000	938.588867	57.598618
2794.834309	17354.927000	937.413086	50.346001
2794.834309	17354.927000	936.237305	-95.760170
2794.834309	17354.927000	935.060547	-79.801285
2794.834309	17354.927000	933.883789	141.704697
2794.834309	17354.927000	932.707031	162.670547
2794.834309	17354.927000	931.530273	-81.253212
2794.834309	17354.927000	930.352539	21.917374
2794.834309	17354.927000	929.175781	117.348114
2794.834309	17354.927000	927.998047	-28.826761
2794.834309	17354.927000	926.819336	69.074478
2794.834309	17354.927000	925.641602	30.772417
2794.834309	17354.927000	924.462891	100.327454
2794.834309	17354.927000	923.284180	20.919039
2794.834309	17354.927000	922.104492	-32.813259
2794.834309	17354.927000	920.924805	-60.880871
2794.834309	17354.927000	919.746094	-59.383553
2794.834309	17354.927000	919.551758	121.720024
2794.834309	17354.927000	918.386719	121.789742
2794.834309	17354.927000	917.220703	165.450500
2794.834309	17354.927000	916.054688	14.153298
2794.834309	17354.927000	914.887695	-29.403320
2794.834309	17354.927000	913.721680	-96.035576
2794.834309	17354.927000	912.554688	-37.062851
2794.834309	17354.927000	911.387695	-208.772842
2794.834309	17354.927000	910.220703	-47.353943
2794.834309	17354.927000	909.052734	-162.673157
2794.834309	17354.927000	907.885742	-52.589039
2794.834309	17354.927000	906.717773	-47.551022
2794.834309	17354.927000	905.548828	-19.492680
2794.834309	17354.927000	904.380859	69.963844
2794.834309	17354.927000	903.211914	54.446163
2794.834309	17354.927000	902.042969	-122.268387
2794.834309	17354.927000	900.874023	-150.567444
2794.834309	17354.927000	899.704102	79.429398
2794.834309	17354.927000	898.535156	117.543976
2794.834309	17354.927000	897.365234	109.609795
2794.834309	17354.927000	896.194336	-21.021114
2794.834309	17354.927000	895.024414	183.134323
2794.834309	17354.927000	893.853516	-26.695505
2794.834309	17354.927000	892.682617	70.060799
2794.834309	17354.927000	891.511719	28.853462
2794.834309	17354.927000	890.340820	191.907104
2794.834309	17354.927000	889.168945	102.153244
2794.834309	17354.927000	887.997070	50.701389
2794.834309	17354.927000	886.825195	50.286423
2794.834309	17354.927000	885.653320	-57.297215
2794.834309	17354.927000	884.480469	120.821358
2794.834309	17354.927000	883.307617	-73.473869
2794.834309	17354.927000	882.134766	-30.592569
2794.834309	17354.927000	880.961914	-135.595291
2794.834309	17354.927000	879.788086	24.480076
2794.834309	17354.927000	878.614258	-103.459969
2794.834309	17354.927000	877.440430	150.765701
2794.834309	17354.927000	876.266602	68.661484
2794.834309	17354.927000	875.091797	45.142532
2794.834309	17354.927000	873.916992	-21.667324
2794.834309	17354.927000	872.742188	104.986275
2794.834309	17354.927000	871.567383	55.969036
2794.834309	17354.927000	870.391602	14.586669
2794.834309	17354.927000	869.215820	34.256016
2794.834309	17354.927000	868.040039	158.176743
2794.834309	17354.927000	866.864258	121.827820
2794.834309	17354.927000	865.687500	105.814194
2794.834309	17354.927000	864.510742	145.707550
2794.834309	17354.927000	863.333984	-96.518036
2794.834309	17354.927000	862.157227	139.002121
2794.834309	17354.927000	860.979492	-47.275043
2794.834309	17354.927000	859.802734	10.318439
2794.834309	17354.927000	858.625000	-3.228810
2794.834309	17354.927000	857.446289	-14.250402
2794.834309	17354.927000	856.268555	88.930016
2794.834309	17354.927000	855.089844	52.478210
2794.834309	17354.927000	853.911133	122.580711
2794.834309	17354.927000	852.731445	108.927231
2794.834309	17354.927000	851.552734	-36.617756
2794.834309	17354.927000	850.373047	-149.160614
2794.834309	17354.927000	849.193359	-25.917591
2794.834309	17354.927000	848.013672	-92.835052
2794.834309	17354.927000	846.833008	-98.928947
2794.834309	17354.927000	845.652344	-13.835400
2794.834309	17354.927000	844.471680	2.812684
2794.834309	17354.927000	843.291016	-13.488699
2794.834309	17354.927000	842.110352	-19.676170
2794.834309	17354.927000	840.928711	189.286957
2794.834309	17354.927000	839.747070	228.574219
2794.834309	17354.927000	838.564453	229.868729
2794.834309	17354.927000	837.382813	3.455747
2794.834309	17354.927000	836.200195	148.924774
2794.834309	17354.927000	835.017578	157.757004
2794.834309	17354.927000	833.834961	27.508959
2794.834309	17354.927000	832.651367	117.207436
2794.834309	17354.927000	831.467773	189.156433
2794.834309	17354.927000	830.284180	58.916363
2794.834309	17354.927000	829.100586	-119.290222
2794.834309	17354.927000	827.916992	-135.801834
2794.834309	17354.927000	826.732422	69.883804
2794.834309	17354.927000	825.547852	10.375459
2794.834309	17354.927000	824.363281	125.032867
2794.834309	17354.927000	823.177734	-53.116859
2794.834309	17354.927000	821.992188	8.476020
2794.834309	17354.927000	820.806641	-8.179356
2794.834309	17354.927000	819.621094	91.162483
2794.834309	17354.927000	818.434570	71.928490
2794.834309	17354.927000	817.249023	153.518250
2794.834309	17354.927000	816.062500	101.465935
2794.834309	17354.927000	814.875000	-58.947388
2794.834309	17354.927000	813.688477	166.154053
2794.834309	17354.927000	812.500977	-1.811408
2794.834309	17354.927000	811.313477	-6.037043
2794.834309	17354.927000	810.125977	52.661575
2794.834309	17354.927000	808.937500	-145.459183
2794.834309	17354.927000	807.749023	-162.311295
2794.834309	17354.927000	806.560547	105.161263
2794.834309	17354.927000	805.372070	-80.343903
2794.834309	17354.927000	804.182617	66.217079
2794.834309	17354.927000	802.994141	8.997690
2794.834309	17354.927000	801.803711	-30.625071
2794.834309	17354.927000	800.614258	27.777662
2794.834309	17354.927000	799.424805	-127.490974
2794.834309	17354.927000	798.234375	81.614754
2794.834309	17354.927000	797.043945	26.831982
2794.834309	17354.927000	795.852539	4.695657
2794.834309	17354.927000	794.662109	-17.457834
2794.834309	17354.927000	793.470703	-102.393929
2794.834309	17354.927000	792.279297	15.992774
2794.834309	17354.927000	791.087891	18.864716
2794.834309	17354.927000	789.895508	89.450584
2794.834309	17354.927000	788.703125	59.639038
2794.834309	17354.927000	787.510742	87.496346
2794.834309	17354.927000	786.318359	122.835831
2794.834309	17354.927000	785.125000	-29.888805
2794.834309	17354.927000	783.931641	45.506599
2794.834309	17354.927000	782.738281	-29.512764
2794.834309	17354.927000	781.544922	18.235094
2794.834309	17354.927000	780.350586	118.534836
2794.834309	17354.927000	779.156250	-59.217854
2794.834309	17354.927000	777.961914	-19.092939
2794.834309	17354.927000	776.767578	-91.663307
2794.834309	17354.927000	775.572266	-131.697113
2794.834309	17354.927000	774.376953	25.934816
2794.834309	17354.927000	773.181641	-84.214912
2794.834309	17354.927000	771.986328	-81.793892
2794.834309	17354.927000	770.790039	23.123981
2794.834309	17354.927000	769.593750	-174.554199
2794.834309	17354.927000	768.397461	-112.215752
2794.834309	17354.927000	767.201172	30.039589
2794.834309	17354.927000	766.003906	54.768688
2794.834309	17354.927000	764.806641	81.954437
2794.834309	17354.927000	763.609375	-48.249947
2794.834309	17354.927000	762.412109	-61.069195
2794.834309	17354.927000	761.213867	70.884529
2794.834309	17354.927000	760.015625	20.541975
2794.834309	17354.927000	758.817383	107.442108
2794.834309	17354.927000	757.618164	-40.256310
2794.834309	17354.927000	756.419922	116.402313
2794.834309	17354.927000	755.220703	83.422096
2794.834309	17354.927000	754.021484	222.470276
2794.834309	17354.927000	752.821289	122.107857
2794.834309	17354.927000	751.621094	233.608063
2794.834309	17354.927000	750.420898	75.907364
2794.834309	17354.927000	749.220703	82.669724
2794.834309	17354.927000	748.020508	141.704147
2794.834309	17354.927000	746.819336	116.009064
2794.834309	17354.927000	745.618164	82.822670
2794.834309	17354.927000	744.416992	79.489159
2794.834309	17354.927000	743.214844	195.582535
2794.834309	17354.927000	742.012695	236.947586
2794.834309	17354.927000	740.810547	156.363998
2794.834309	17354.927000	739.608398	85.729721
2794.834309	17354.927000	738.406250	199.106689
2794.834309	17354.927000	737.203125	416.819824
2794.834309	17354.927000	736.000000	380.873169
2794.834309	17354.927000	734.795898	648.091125
2794.834309	17354.927000	733.592773	813.297485
2794.834309	17354.927000	732.388672	1010.692810
2794.834309	17354.927000	731.184570	947.197205
2794.834309	17354.927000	729.979492	784.371399
2794.834309	17354.927000	728.775391	748.190674
2794.834309	17354.927000	727.570313	587.889160
2794.834309	17354.927000	726.365234	377.991638
2794.834309	17354.927000	725.160156	140.856964
2794.834309	17354.927000	723.954102	191.518829
2794.834309	17354.927000	722.748047	232.205780
2794.834309	17354.927000	721.541992	74.489113
2794.834309	17354.927000	720.334961	137.423904
2794.834309	17354.927000	719.128906	71.425949
2794.834309	17354.927000	717.921875	287.895416
2794.834309	17354.927000	716.714844	78.138596
2794.834309	17354.927000	715.506836	-74.599556
2794.834309	17354.927000	714.298828	129.279846
2794.834309	17354.927000	713.090820	214.203125
2794.834309	17354.927000	711.882813	207.472595
2794.834309	17354.927000	710.674805	72.024872
2794.834309	17354.927000	709.465820	92.474884
2794.834309	17354.927000	708.256836	229.146301
2794.834309	17354.927000	707.047852	76.365372
2794.834309	17354.927000	705.837891	79.390549
2794.834309	17354.927000	704.627930	208.460617
2794.834309	17354.927000	703.417969	181.731461
2794.834309	17354.927000	702.208008	-218.157166
2794.834309	17354.927000	700.998047	17.031197
2794.834309	17354.927000	699.787109	66.830299
2794.834309	17354.927000	698.576172	-157.544357
2794.834309	17354.927000	697.364258	-100.390114
2794.834309	17354.927000	696.153320	-82.785202
2794.834309	17354.927000	694.941406	80.388908
2794.834309	17354.927000	693.729492	88.011436
2794.834309	17354.927000	692.516602	191.807892
2794.834309	17354.927000	691.304688	117.947372
2794.834309	17354.927000	690.091797	36.686409
2794.834309	17354.927000	688.878906	34.320835
2794.834309	17354.927000	687.665039	-29.699753
2794.834309	17354.927000	686.451172	120.675423
2794.834309	17354.927000	685.237305	17.180462
2794.834309	17354.927000	684.023438	140.324875
2794.834309	17354.927000	682.809570	157.485840
2794.834309	17354.927000	681.594727	260.786713
2794.834309	17354.927000	680.379883	-2.790445
2794.834309	17354.927000	679.165039	181.662842
2794.834309	17354.927000	677.949219	-52.319977
2794.834309	17354.927000	676.733398	259.936127
2794.834309	17354.927000	675.517578	193.237137
2794.834309	17354.927000	674.301758	256.874329
2794.834309	17354.927000	673.084961	271.279510
2794.834309	17354.927000	671.869141	246.323318
2794.834309	17354.927000	670.651367	186.936844
2794.834309	17354.927000	669.434570	356.062653
2794.834309	17354.927000	668.216797	303.992767
2794.834309	17354.927000	667.000000	364.900696
2794.834309	17354.927000	665.781250	455.216858
2794.834309	17354.927000	664.563477	137.934357
2794.834309	17354.927000	663.344727	188.935455
2794.834309	17354.927000	662.125977	450.934113
2794.834309	17354.927000	660.907227	349.680176
2794.834309	17354.927000	659.688477	199.384491
2794.834309	17354.927000	658.468750	237.963623
2794.834309	17354.927000	657.249023	171.068649
2794.834309	17354.927000	656.029297	256.166290
2794.834309	17354.927000	654.808594	331.397156
2794.834309	17354.927000	653.587891	252.199539
2794.834309	17354.927000	652.367188	317.554840
2794.834309	17354.927000	651.146484	326.524963
2794.834309	17354.927000	649.924805	249.756912
2794.834309	17354.927000	648.704102	319.902405
2794.834309	17354.927000	647.482422	265.156281
2794.834309	17354.927000	646.259766	252.013092
2794.834309	17354.927000	645.037109	248.642258
2794.834309	17354.927000	643.815430	262.380676
2794.834309	17354.927000	642.591797	339.676025
2794.834309	17354.927000	641.369141	301.998596
2794.834309	17354.927000	640.145508	232.534363
2794.834309	17354.927000	638.921875	216.853668
2794.834309	17354.927000	637.698242	230.486328
2794.834309	17354.927000	636.474609	383.355743
2794.834309	17354.927000	635.250000	348.058472
2794.834309	17354.927000	634.025391	447.076599
2794.834309	17354.927000	632.800781	201.773956
2794.834309	17354.927000	631.575195	347.127502
2794.834309	17354.927000	630.349609	255.672577
2794.834309	17354.927000	629.124023	230.123627
2794.834309	17354.927000	627.898438	236.286362
2794.834309	17354.927000	626.671875	139.992249
2794.834309	17354.927000	625.445313	-22.111477
2794.834309	17354.927000	624.218750	259.551910
2794.834309	17354.927000	622.992188	46.282848
2794.834309	17354.927000	621.764648	186.445953
2794.834309	17354.927000	620.537109	92.644562
2794.834309	17354.927000	619.309570	45.155655
2794.834309	17354.927000	618.081055	268.002563
2794.834309	17354.927000	616.852539	154.735962
2794.834309	17354.927000	615.624023	-33.954124
2794.834309	17354.927000	614.395508	76.790382
2794.834309	17354.927000	613.166992	63.383198
2794.834309	17354.927000	611.937500	157.016129
2794.834309	17354.927000	610.708008	63.318958
2794.834309	17354.927000	609.477539	15.857523
2794.834309	17354.927000	608.248047	53.510876
2794.834309	17354.927000	607.017578	-64.424896
2794.834309	17354.927000	605.787109	-24.348804
2794.834309	17354.927000	604.555664	-15.880532
2794.834309	17354.927000	603.325195	92.183685
2794.834309	17354.927000	602.093750	-28.095881
2794.834309	17354.927000	600.861328	70.205765
2794.834309	17354.927000	599.629883	141.766998
2794.834309	17354.927000	598.397461	26.408852
2794.834309	17354.927000	597.165039	114.936432
2794.834309	17354.927000	595.932617	-7.639321
2794.834309	17354.927000	594.699219	44.478951
2794.834309	17354.927000	593.465820	89.304352
2794.834309	17354.927000	592.232422	-42.874336
2794.834309	17354.927000	590.999023	-31.973907
2794.834309	17354.927000	589.764648	95.253716
2794.834309	17354.927000	588.530273	98.862640
2794.834309	17354.927000	587.295898	-79.206985
2794.834309	17354.927000	586.061523	-97.342171
2794.834309	17354.927000	584.826172	124.257935
2794.834309	17354.927000	583.590820	-31.888720
2794.834309	17354.927000	582.355469	-35.472366
2794.834309	17354.927000	581.119141	-51.145733
2794.834309	17354.927000	579.882813	-132.122360
2794.834309	17354.927000	578.646484	23.996386
2794.834309	17354.927000	577.410156	165.552994
2794.834309	17354.927000	576.172852	-111.223373
2794.834309	17354.927000	574.935547	47.249088
2794.834309	17354.927000	573.698242	70.329948
2794.834309	17354.927000	572.460938	141.743027
2794.834309	17354.927000	571.222656	152.745850
2794.834309	17354.927000	569.984375	156.516342
2794.834309	17354.927000	568.746094	177.207535
2794.834309	17354.927000	567.506836	98.922668
2794.834309	17354.927000	566.267578	148.617950
2794.834309	17354.927000	565.028320	191.073334
2794.834309	17354.927000	563.789063	127.374908
2794.834309	17354.927000	562.548828	152.971695
2794.834309	17354.927000	561.309570	185.819153
2794.834309	17354.927000	560.068359	81.235260
2794.834309	17354.927000	558.828125	133.413055
2794.834309	17354.927000	557.586914	163.899414
2794.834309	17354.927000	556.345703	240.180115
2794.834309	17354.927000	555.104492	53.866604
2794.834309	17354.927000	553.863281	-11.913593
2794.834309	17354.927000	552.621094	307.643646
2794.834309	17354.927000	551.378906	270.779327
2794.834309	17354.927000	550.136719	51.027695
2794.834309	17354.927000	548.893555	45.572803
2794.834309	17354.927000	547.650391	186.914352
2794.834309	17354.927000	546.407227	164.654434
2794.834309	17354.927000	545.164063	87.121201
2794.834309	17354.927000	543.919922	26.480162
2794.834309	17354.927000	542.675781	59.649349
2794.834309	17354.927000	541.431641	42.365067
2794.834309	17354.927000	540.186523	-171.918045
2794.834309	17354.927000	538.941406	204.905411
2794.834309	17354.927000	537.696289	192.501373
2794.834309	17354.927000	536.451172	52.865856
2794.834309	17354.927000	535.205078	76.577583
2794.834309	17354.927000	533.959961	220.332352
2794.834309	17354.927000	532.712891	-12.712064
2794.834309	17354.927000	531.466797	-10.489595
2794.834309	17354.927000	530.219727	-1.037966
2794.834309	17354.927000	528.972656	-161.829788
2794.834309	17354.927000	527.725586	68.314423
2794.834309	17354.927000	526.478516	41.894421
2794.834309	17354.927000	525.230469	1.139887
2794.834309	17354.927000	523.982422	183.286011
2794.834309	17354.927000	522.734375	44.371059
2794.834309	17354.927000	521.485352	37.284893
2794.834309	17354.927000	520.236328	-106.255043
2794.834309	17354.927000	518.987305	-12.675880
2794.834309	17354.927000	517.737305	179.037247
2794.834309	17354.927000	516.488281	-40.905365
2794.834309	17354.927000	515.238281	-16.673325
2794.834309	17354.927000	513.988281	-123.977196
2794.834309	17354.927000	512.737305	-30.307476
2794.834309	17354.927000	511.486328	-106.404144
2794.834309	17354.927000	510.235352	-50.949905
2794.834309	17354.927000	508.984375	-158.002975
2794.834309	17354.927000	507.732422	0.261589
2794.834309	17354.927000	506.480469	-3.955044
2794.834309	17354.927000	505.228516	-261.311279
2794.834309	17354.927000	503.976563	-124.504662
2794.834309	17354.927000	502.723633	31.378651
2794.834309	17354.927000	501.470703	-103.975105
2794.834309	17354.927000	500.217773	42.364864
2794.834309	17354.927000	498.963867	69.381187
2794.834309	17354.927000	497.709961	5.776040
2794.834309	17354.927000	496.456055	-50.611214
2794.834309	17354.927000	495.202148	-54.482250
2794.834309	17354.927000	493.947266	-148.906250
2794.834309	17354.927000	492.692383	-205.121262
2794.834309	17354.927000	491.437500	-189.793945
2794.834309	17354.927000	490.181641	8.997209
2794.834309	17354.927000	488.926758	-18.535238
2794.834309	17354.927000	487.670898	-81.745911
2794.834309	17354.927000	486.414063	-56.811340
2794.834309	17354.927000	485.158203	-8.052935
2794.834309	17354.927000	483.901367	24.053099
2794.834309	17354.927000	482.644531	-96.098099
2794.834309	17354.927000	481.386719	-33.009991
2794.834309	17354.927000	480.128906	37.211926
2794.834309	17354.927000	478.871094	31.341433
2794.834309	17354.927000	477.613281	170.506271
2794.834309	17354.927000	476.355469	-51.621933
2794.834309	17354.927000	475.096680	87.543022
2794.834309	17354.927000	473.837891	162.525635
2794.834309	17354.927000	472.578125	180.489151
2794.834309	17354.927000	471.319336	260.203918
2794.834309	17354.927000	470.059570	78.745308
2794.834309	17354.927000	468.799805	-0.555860
2794.834309	17354.927000	467.539063	45.962509
2794.834309	17354.927000	466.278320	59.255611
2794.834309	17354.927000	465.017578	-74.516701
2794.834309	17354.927000	463.756836	-1.898249
2794.834309	17354.927000	462.495117	141.823593
2794.834309	17354.927000	461.233398	72.139381
2794.834309	17354.927000	459.971680	68.846863
2794.834309	17354.927000	458.709961	63.185150
2794.834309	17354.927000	457.447266	5.403706
2794.834309	17354.927000	456.184570	-61.831451
2794.834309	17354.927000	454.921875	155.111145
2794.834309	17354.927000	453.658203	201.491455
2794.834309	17354.927000	452.394531	155.528503
2794.834309	17354.927000	451.130859	24.378410
2794.834309	17354.927000	449.867188	390.111786
2794.834309	17354.927000	448.602539	166.676727
2794.834309	17354.927000	447.337891	47.371044
2794.834309	17354.927000	446.073242	138.521454
2794.834309	17354.927000	444.807617	257.968292
2794.834309	17354.927000	443.542969	133.906143
2794.834309	17354.927000	442.276367	321.756256
2794.834309	17354.927000	441.010742	207.107574
2794.834309	17354.927000	439.744141	142.063232
2794.834309	17354.927000	438.478516	74.641846
2794.834309	17354.927000	437.210938	26.083775
2794.834309	17354.927000	435.944336	-34.305214
2794.834309	17354.927000	434.676758	141.252594
2794.834309	17354.927000	433.409180	196.350723
2794.834309	17354.927000	432.141602	93.323166
2794.834309	17354.927000	430.873047	209.588394
2794.834309	17354.927000	429.604492	28.654312
2794.834309	17354.927000	428.335938	76.374130
2794.834309	17354.927000	427.067383	60.360725
2794.834309	17354.927000	425.797852	159.721390
2794.834309	17354.927000	424.528320	124.673264
2794.834309	17354.927000	423.258789	287.381653
2794.834309	17354.927000	421.988281	150.873215
2794.834309	17354.927000	420.717773	318.007507
2794.834309	17354.927000	419.447266	223.702957
2794.834309	17354.927000	418.175781	72.846428
2794.834309	17354.927000	416.905273	154.848862
2794.834309	17354.927000	415.633789	90.856010
2794.834309	17354.927000	414.362305	158.450424
2794.834309	17354.927000	413.089844	134.182175
2794.834309	17354.927000	411.817383	269.623047
2794.834309	17354.927000	410.544922	78.193474
2794.834309	17354.927000	409.272461	95.805496
2794.834309	17354.927000	407.999023	89.754791
2794.834309	17354.927000	406.725586	29.522720
2794.834309	17354.927000	405.452148	27.844643
2794.834309	17354.927000	404.177734	143.360184
2794.834309	17354.927000	402.903320	164.757187
2794.834309	17354.927000	401.628906	70.971298
2794.834309	17354.927000	400.354492	218.664581
2794.834309	17354.927000	399.079102	234.733322
2794.834309	17354.927000	397.803711	95.809700
2794.834309	17354.927000	396.528320	156.004578
2794.834309	17354.927000	395.251953	-9.083601
2794.834309	17354.927000	393.976563	43.608311
2794.834309	17354.927000	392.700195	-28.150406
2794.834309	17354.927000	391.422852	26.354439
2794.834309	17354.927000	390.145508	33.733665
2794.834309	17354.927000	388.869141	-158.177139
2794.834309	17354.927000	387.590820	45.319534
2794.834309	17354.927000	386.313477	-13.681645
2794.834309	17354.927000	385.035156	18.295694
2794.834309	17354.927000	383.756836	96.740524
2794.834309	17354.927000	382.478516	67.245880
2794.834309	17354.927000	381.199219	84.199562
2794.834309	17354.927000	379.919922	84.445702
2794.834309	17354.927000	378.640625	4.876132
2794.834309	17354.927000	377.360352	132.958405
2794.834309	17354.927000	376.080078	69.039330
2794.834309	17354.927000	374.799805	81.855415
2794.834309	17354.927000	373.519531	-50.510799
2794.834309	17354.927000	372.238281	162.328247
2794.834309	17354.927000	370.957031	131.898453
2794.834309	17354.927000	369.675781	98.729546
2794.834309	17354.927000	368.394531	132.810089
2794.834309	17354.927000	367.112305	14.793164
2794.834309	17354.927000	365.830078	-45.319260
2794.834309	17354.927000	364.546875	55.010567
2794.834309	17354.927000	363.264648	-29.339760
2794.834309	17354.927000	361.981445	-102.500740
2794.834309	17354.927000	360.698242	75.534050
2794.834309	17354.927000	359.414063	87.552528
2794.834309	17354.927000	358.129883	-45.375580
2794.834309	17354.927000	356.845703	-76.323074
2794.834309	17354.927000	355.561523	-3.042166
2794.834309	17354.927000	354.276367	-9.517465
2794.834309	17354.927000	352.991211	157.967529
2794.834309	17354.927000	351.706055	-135.903046
2794.834309	17354.927000	350.420898	62.896111
2794.834309	17354.927000	349.134766	35.376701
2794.834309	17354.927000	347.848633	-148.557861
2794.834309	17354.927000	346.561523	-91.318649
2794.834309	17354.927000	345.275391	-92.862000
2794.834309	17354.927000	343.988281	4.809083
2794.834309	17354.927000	342.700195	-35.348473
2794.834309	17354.927000	341.413086	-164.447296
2794.834309	17354.927000	340.125000	-29.520109
2794.834309	17354.927000	338.836914	-178.641144
2794.834309	17354.927000	337.548828	-47.607742
2794.834309	17354.927000	336.259766	-219.117004
2794.834309	17354.927000	334.970703	-41.016644
2794.834309	17354.927000	333.681641	75.877220
2794.834309	17354.927000	332.391602	89.821411
2794.834309	17354.927000	331.101563	14.796417
2794.834309	17354.927000	329.811523	8.474113
2794.834309	17354.927000	328.521484	168.129654
2794.834309	17354.927000	327.230469	-32.368065
2794.834309	17354.927000	325.939453	0.266687
2794.834309	17354.927000	324.648438	-144.083328
2794.834309	17354.927000	323.356445	13.971313
2794.834309	17354.927000	322.064453	6.599414
2794.834309	17354.927000	320.772461	53.770840
2794.834309	17354.927000	319.480469	-6.553594
2794.834309	17354.927000	318.187500	-37.855789
2794.834309	17354.927000	316.894531	154.147232
2794.834309	17354.927000	315.601563	-94.405823
2794.834309	17354.927000	314.307617	74.477379
2794.834309	17354.927000	313.013672	212.100876
2794.834309	17354.927000	311.719727	1.853501
2794.834309	17354.927000	310.425781	88.572029
2794.834309	17354.927000	309.130859	-61.607372
2794.834309	17354.927000	307.835938	147.331512
2794.834309	17354.927000	306.541016	195.608383
2794.834309	17354.927000	305.245117	-18.309322
2794.834309	17354.927000	303.949219	15.828843
2794.834309	17354.927000	302.653320	71.703606
2794.834309	17354.927000	301.356445	8.507025
2794.834309	17354.927000	300.060547	253.072693
2794.834309	17354.927000	298.763672	230.904449
