#X		#Y		#Wave		#Intensity
2751.989947	17469.674667	2000.043945	-62.173988
2751.989947	17469.674667	1999.080078	-91.209373
2751.989947	17469.674667	1998.116211	-10.422008
2751.989947	17469.674667	1997.151367	-138.229340
2751.989947	17469.674667	1996.186523	-38.434906
2751.989947	17469.674667	1995.222656	33.684460
2751.989947	17469.674667	1994.256836	55.884735
2751.989947	17469.674667	1993.291992	-46.102337
2751.989947	17469.674667	1992.327148	-32.031250
2751.989947	17469.674667	1991.361328	73.295448
2751.989947	17469.674667	1990.395508	0.064264
2751.989947	17469.674667	1989.429688	60.170761
2751.989947	17469.674667	1988.463867	28.415531
2751.989947	17469.674667	1987.497070	-3.614550
2751.989947	17469.674667	1986.531250	28.383966
2751.989947	17469.674667	1985.564453	55.159710
2751.989947	17469.674667	1984.597656	74.248779
2751.989947	17469.674667	1983.630859	-28.034245
2751.989947	17469.674667	1982.664063	7.871071
2751.989947	17469.674667	1981.696289	11.413948
2751.989947	17469.674667	1980.728516	66.610153
2751.989947	17469.674667	1979.761719	178.377991
2751.989947	17469.674667	1978.792969	-41.001572
2751.989947	17469.674667	1977.825195	-33.351665
2751.989947	17469.674667	1976.857422	82.722229
2751.989947	17469.674667	1975.888672	-28.487909
2751.989947	17469.674667	1974.919922	25.500553
2751.989947	17469.674667	1973.951172	39.830185
2751.989947	17469.674667	1972.982422	14.530074
2751.989947	17469.674667	1972.013672	63.076389
2751.989947	17469.674667	1971.043945	69.544540
2751.989947	17469.674667	1970.075195	-35.064579
2751.989947	17469.674667	1969.105469	131.369690
2751.989947	17469.674667	1968.135742	-7.964663
2751.989947	17469.674667	1967.165039	-21.702887
2751.989947	17469.674667	1966.195313	-50.326687
2751.989947	17469.674667	1965.224609	110.609093
2751.989947	17469.674667	1964.253906	-164.486526
2751.989947	17469.674667	1963.283203	33.152554
2751.989947	17469.674667	1962.312500	169.090576
2751.989947	17469.674667	1961.341797	137.536194
2751.989947	17469.674667	1960.370117	216.650208
2751.989947	17469.674667	1959.399414	98.843124
2751.989947	17469.674667	1958.427734	-31.285469
2751.989947	17469.674667	1957.455078	40.240318
2751.989947	17469.674667	1956.483398	192.828033
2751.989947	17469.674667	1955.511719	-99.670982
2751.989947	17469.674667	1954.539063	47.871082
2751.989947	17469.674667	1953.566406	74.896118
2751.989947	17469.674667	1952.593750	160.842880
2751.989947	17469.674667	1951.621094	126.348228
2751.989947	17469.674667	1950.647461	64.817139
2751.989947	17469.674667	1949.674805	-36.007763
2751.989947	17469.674667	1948.701172	-80.349037
2751.989947	17469.674667	1947.727539	49.596458
2751.989947	17469.674667	1946.753906	76.395111
2751.989947	17469.674667	1945.780273	41.823631
2751.989947	17469.674667	1944.805664	56.322769
2751.989947	17469.674667	1943.831055	188.551208
2751.989947	17469.674667	1942.856445	68.118805
2751.989947	17469.674667	1941.881836	58.071819
2751.989947	17469.674667	1940.907227	6.353377
2751.989947	17469.674667	1939.932617	-99.266853
2751.989947	17469.674667	1938.957031	54.929539
2751.989947	17469.674667	1937.981445	15.509763
2751.989947	17469.674667	1937.005859	-87.578117
2751.989947	17469.674667	1936.030273	39.620705
2751.989947	17469.674667	1935.054688	191.276733
2751.989947	17469.674667	1934.078125	186.194870
2751.989947	17469.674667	1933.101563	-61.212528
2751.989947	17469.674667	1932.125000	48.826813
2751.989947	17469.674667	1931.148438	29.154907
2751.989947	17469.674667	1930.171875	16.854889
2751.989947	17469.674667	1929.194336	178.258148
2751.989947	17469.674667	1928.217773	-7.654011
2751.989947	17469.674667	1927.240234	-14.969472
2751.989947	17469.674667	1926.262695	2.195514
2751.989947	17469.674667	1925.284180	-163.938217
2751.989947	17469.674667	1924.306641	-119.806465
2751.989947	17469.674667	1923.328125	22.077057
2751.989947	17469.674667	1922.350586	12.480370
2751.989947	17469.674667	1921.372070	81.081139
2751.989947	17469.674667	1920.392578	44.684437
2751.989947	17469.674667	1919.414063	10.780524
2751.989947	17469.674667	1918.434570	47.717468
2751.989947	17469.674667	1917.456055	-149.622681
2751.989947	17469.674667	1916.476563	-171.157944
2751.989947	17469.674667	1915.497070	-41.382233
2751.989947	17469.674667	1914.516602	59.111912
2751.989947	17469.674667	1913.537109	54.739655
2751.989947	17469.674667	1912.556641	113.805687
2751.989947	17469.674667	1911.576172	82.686798
2751.989947	17469.674667	1910.595703	95.493942
2751.989947	17469.674667	1909.615234	-72.001816
2751.989947	17469.674667	1908.633789	-15.232493
2751.989947	17469.674667	1907.653320	-70.503975
2751.989947	17469.674667	1906.671875	-52.645683
2751.989947	17469.674667	1905.690430	-68.846367
2751.989947	17469.674667	1904.708984	44.039780
2751.989947	17469.674667	1903.727539	-108.413277
2751.989947	17469.674667	1902.745117	-221.828537
2751.989947	17469.674667	1901.762695	59.043388
2751.989947	17469.674667	1900.780273	4.107387
2751.989947	17469.674667	1899.797852	-133.473404
2751.989947	17469.674667	1898.815430	-32.628654
2751.989947	17469.674667	1897.832031	60.921436
2751.989947	17469.674667	1896.849609	-66.756363
2751.989947	17469.674667	1895.866211	46.283287
2751.989947	17469.674667	1894.882813	-20.516937
2751.989947	17469.674667	1893.898438	-65.389938
2751.989947	17469.674667	1892.915039	62.267235
2751.989947	17469.674667	1891.930664	-99.118980
2751.989947	17469.674667	1890.947266	-41.859425
2751.989947	17469.674667	1889.962891	-57.426510
2751.989947	17469.674667	1888.977539	2.295723
2751.989947	17469.674667	1887.993164	151.824768
2751.989947	17469.674667	1887.007813	-84.493835
2751.989947	17469.674667	1886.023438	-109.625191
2751.989947	17469.674667	1885.038086	-91.057167
2751.989947	17469.674667	1884.051758	-130.672989
2751.989947	17469.674667	1883.066406	-99.931679
2751.989947	17469.674667	1882.081055	95.674049
2751.989947	17469.674667	1881.094727	114.291649
2751.989947	17469.674667	1880.108398	6.909772
2751.989947	17469.674667	1879.122070	-61.643581
2751.989947	17469.674667	1878.135742	-52.631725
2751.989947	17469.674667	1877.148438	89.607460
2751.989947	17469.674667	1876.162109	1.763430
2751.989947	17469.674667	1875.174805	-3.712974
2751.989947	17469.674667	1874.187500	-28.535992
2751.989947	17469.674667	1873.199219	53.154736
2751.989947	17469.674667	1872.211914	-7.937375
2751.989947	17469.674667	1871.223633	3.585357
2751.989947	17469.674667	1870.236328	27.208008
2751.989947	17469.674667	1869.248047	-28.973963
2751.989947	17469.674667	1868.258789	18.845823
2751.989947	17469.674667	1867.270508	112.586426
2751.989947	17469.674667	1866.282227	17.769793
2751.989947	17469.674667	1865.292969	58.322655
2751.989947	17469.674667	1864.303711	-58.183830
2751.989947	17469.674667	1863.314453	-143.240723
2751.989947	17469.674667	1862.324219	49.484955
2751.989947	17469.674667	1861.334961	-1.753370
2751.989947	17469.674667	1860.344727	-43.315796
2751.989947	17469.674667	1859.354492	50.309219
2751.989947	17469.674667	1858.364258	-32.282501
2751.989947	17469.674667	1857.374023	61.295391
2751.989947	17469.674667	1856.383789	55.918991
2751.989947	17469.674667	1855.392578	101.189758
2751.989947	17469.674667	1854.401367	98.201752
2751.989947	17469.674667	1853.410156	-18.119131
2751.989947	17469.674667	1852.418945	72.908852
2751.989947	17469.674667	1851.426758	-45.799904
2751.989947	17469.674667	1850.435547	54.809433
2751.989947	17469.674667	1849.443359	63.810638
2751.989947	17469.674667	1848.451172	53.519035
2751.989947	17469.674667	1847.458984	-98.883621
2751.989947	17469.674667	1846.466797	76.232178
2751.989947	17469.674667	1845.473633	109.217735
2751.989947	17469.674667	1844.480469	-38.361542
2751.989947	17469.674667	1843.487305	143.794281
2751.989947	17469.674667	1842.494141	130.957291
2751.989947	17469.674667	1841.500977	-103.226357
2751.989947	17469.674667	1840.506836	136.482712
2751.989947	17469.674667	1839.513672	44.209660
2751.989947	17469.674667	1838.519531	60.135231
2751.989947	17469.674667	1837.525391	162.561874
2751.989947	17469.674667	1836.530273	130.324051
2751.989947	17469.674667	1835.536133	23.569700
2751.989947	17469.674667	1834.541016	121.034500
2751.989947	17469.674667	1833.545898	45.474648
2751.989947	17469.674667	1832.550781	181.246811
2751.989947	17469.674667	1831.555664	81.612411
2751.989947	17469.674667	1830.560547	92.406174
2751.989947	17469.674667	1829.564453	249.569290
2751.989947	17469.674667	1828.568359	128.250809
2751.989947	17469.674667	1827.572266	189.283005
2751.989947	17469.674667	1826.576172	82.322388
2751.989947	17469.674667	1825.580078	-3.060436
2751.989947	17469.674667	1824.583008	117.767952
2751.989947	17469.674667	1823.585938	46.696114
2751.989947	17469.674667	1822.588867	69.085693
2751.989947	17469.674667	1821.591797	108.190926
2751.989947	17469.674667	1820.594727	34.605900
2751.989947	17469.674667	1819.596680	61.614243
2751.989947	17469.674667	1818.599609	282.575043
2751.989947	17469.674667	1817.601563	139.379349
2751.989947	17469.674667	1816.603516	22.516790
2751.989947	17469.674667	1815.604492	-46.483109
2751.989947	17469.674667	1814.606445	18.518057
2751.989947	17469.674667	1813.607422	188.725418
2751.989947	17469.674667	1812.608398	88.444267
2751.989947	17469.674667	1811.609375	64.684868
2751.989947	17469.674667	1810.610352	38.477974
2751.989947	17469.674667	1809.610352	148.513489
2751.989947	17469.674667	1808.611328	-16.497078
2751.989947	17469.674667	1807.611328	21.662945
2751.989947	17469.674667	1806.611328	66.908714
2751.989947	17469.674667	1805.610352	107.287849
2751.989947	17469.674667	1804.610352	32.911858
2751.989947	17469.674667	1803.609375	-39.120239
2751.989947	17469.674667	1802.608398	125.219841
2751.989947	17469.674667	1801.607422	103.191040
2751.989947	17469.674667	1800.606445	104.967354
2751.989947	17469.674667	1799.605469	11.199848
2751.989947	17469.674667	1798.603516	79.655495
2751.989947	17469.674667	1797.601563	19.175032
2751.989947	17469.674667	1796.599609	216.257721
2751.989947	17469.674667	1795.597656	91.226074
2751.989947	17469.674667	1794.595703	23.388981
2751.989947	17469.674667	1793.592773	15.095637
2751.989947	17469.674667	1792.589844	1.957747
2751.989947	17469.674667	1791.587891	-168.538147
2751.989947	17469.674667	1790.583984	87.436295
2751.989947	17469.674667	1789.581055	140.747787
2751.989947	17469.674667	1788.577148	3.413821
2751.989947	17469.674667	1787.574219	20.834364
2751.989947	17469.674667	1786.570313	-2.313223
2751.989947	17469.674667	1785.566406	95.862740
2751.989947	17469.674667	1784.561523	77.295860
2751.989947	17469.674667	1783.557617	3.924451
2751.989947	17469.674667	1782.552734	23.273430
2751.989947	17469.674667	1781.547852	37.770523
2751.989947	17469.674667	1780.542969	-38.195057
2751.989947	17469.674667	1779.538086	116.415344
2751.989947	17469.674667	1778.532227	118.731720
2751.989947	17469.674667	1777.527344	85.310211
2751.989947	17469.674667	1776.521484	70.818871
2751.989947	17469.674667	1775.515625	75.249527
2751.989947	17469.674667	1774.508789	181.728027
2751.989947	17469.674667	1773.502930	36.331738
2751.989947	17469.674667	1772.496094	-139.973038
2751.989947	17469.674667	1771.489258	175.129684
2751.989947	17469.674667	1770.482422	112.616211
2751.989947	17469.674667	1769.475586	28.675293
2751.989947	17469.674667	1768.467773	44.323956
2751.989947	17469.674667	1767.460938	5.316047
2751.989947	17469.674667	1766.453125	6.547101
2751.989947	17469.674667	1765.445313	29.026600
2751.989947	17469.674667	1764.437500	-29.206516
2751.989947	17469.674667	1763.428711	128.195984
2751.989947	17469.674667	1762.420898	34.229137
2751.989947	17469.674667	1761.412109	-14.779177
2751.989947	17469.674667	1760.403320	11.948627
2751.989947	17469.674667	1759.393555	93.046631
2751.989947	17469.674667	1758.384766	-22.536686
2751.989947	17469.674667	1757.375000	190.943863
2751.989947	17469.674667	1756.366211	-118.921730
2751.989947	17469.674667	1755.356445	-64.272385
2751.989947	17469.674667	1754.345703	-57.071682
2751.989947	17469.674667	1753.335938	82.531204
2751.989947	17469.674667	1752.325195	-83.169037
2751.989947	17469.674667	1751.315430	-24.214254
2751.989947	17469.674667	1750.304688	-50.507339
2751.989947	17469.674667	1749.292969	-202.190491
2751.989947	17469.674667	1748.282227	85.744835
2751.989947	17469.674667	1747.270508	-61.367428
2751.989947	17469.674667	1746.259766	-66.742966
2751.989947	17469.674667	1745.248047	24.640327
2751.989947	17469.674667	1744.235352	45.031948
2751.989947	17469.674667	1743.223633	20.461414
2751.989947	17469.674667	1742.211914	-30.163214
2751.989947	17469.674667	1741.199219	-78.506958
2751.989947	17469.674667	1740.186523	-51.401421
2751.989947	17469.674667	1739.173828	-243.846268
2751.989947	17469.674667	1738.160156	-98.950096
2751.989947	17469.674667	1737.147461	-86.284294
2751.989947	17469.674667	1736.133789	41.835423
2751.989947	17469.674667	1735.120117	125.015945
2751.989947	17469.674667	1734.106445	-98.387321
2751.989947	17469.674667	1733.091797	-145.031647
2751.989947	17469.674667	1732.078125	-104.550484
2751.989947	17469.674667	1731.063477	15.924740
2751.989947	17469.674667	1730.048828	-89.873077
2751.989947	17469.674667	1729.034180	-21.437584
2751.989947	17469.674667	1728.019531	13.917773
2751.989947	17469.674667	1727.003906	-73.256660
2751.989947	17469.674667	1725.988281	13.696219
2751.989947	17469.674667	1724.972656	-75.972046
2751.989947	17469.674667	1723.957031	-12.753555
2751.989947	17469.674667	1722.941406	-13.160907
2751.989947	17469.674667	1721.924805	-74.813507
2751.989947	17469.674667	1720.909180	-117.706627
2751.989947	17469.674667	1719.892578	25.061867
2751.989947	17469.674667	1718.875977	-81.476723
2751.989947	17469.674667	1717.858398	-79.956703
2751.989947	17469.674667	1716.841797	-158.401962
2751.989947	17469.674667	1715.824219	82.596878
2751.989947	17469.674667	1714.806641	18.072472
2751.989947	17469.674667	1713.789063	0.460594
2751.989947	17469.674667	1712.770508	-108.802559
2751.989947	17469.674667	1711.752930	-91.329437
2751.989947	17469.674667	1710.734375	-111.502808
2751.989947	17469.674667	1709.715820	6.703560
2751.989947	17469.674667	1708.697266	80.210861
2751.989947	17469.674667	1707.678711	-62.190063
2751.989947	17469.674667	1706.659180	81.499138
2751.989947	17469.674667	1705.640625	-124.306709
2751.989947	17469.674667	1704.621094	40.290615
2751.989947	17469.674667	1703.600586	101.610603
2751.989947	17469.674667	1702.581055	-94.934914
2751.989947	17469.674667	1701.561523	-5.630348
2751.989947	17469.674667	1700.541016	67.162468
2751.989947	17469.674667	1699.520508	32.120468
2751.989947	17469.674667	1698.500000	-35.759830
2751.989947	17469.674667	1697.478516	22.733320
2751.989947	17469.674667	1696.458008	-61.639267
2751.989947	17469.674667	1695.436523	102.016647
2751.989947	17469.674667	1694.415039	136.852005
2751.989947	17469.674667	1693.393555	124.821854
2751.989947	17469.674667	1692.372070	260.086823
2751.989947	17469.674667	1691.349609	128.637695
2751.989947	17469.674667	1690.327148	53.291180
2751.989947	17469.674667	1689.304688	-101.565971
2751.989947	17469.674667	1688.282227	136.218597
2751.989947	17469.674667	1687.259766	137.845612
2751.989947	17469.674667	1686.236328	125.386665
2751.989947	17469.674667	1685.213867	84.856346
2751.989947	17469.674667	1684.190430	165.713699
2751.989947	17469.674667	1683.166016	211.450836
2751.989947	17469.674667	1682.142578	282.806305
2751.989947	17469.674667	1681.119141	-3.021433
2751.989947	17469.674667	1680.094727	128.905243
2751.989947	17469.674667	1679.070313	-49.573353
2751.989947	17469.674667	1678.045898	33.225025
2751.989947	17469.674667	1677.020508	83.280823
2751.989947	17469.674667	1675.996094	47.005981
2751.989947	17469.674667	1674.970703	180.873001
2751.989947	17469.674667	1673.945313	139.828400
2751.989947	17469.674667	1672.919922	289.848907
2751.989947	17469.674667	1671.893555	162.492432
2751.989947	17469.674667	1670.868164	142.310501
2751.989947	17469.674667	1669.841797	177.982285
2751.989947	17469.674667	1668.815430	220.585403
2751.989947	17469.674667	1667.789063	249.165436
2751.989947	17469.674667	1666.761719	228.802139
2751.989947	17469.674667	1665.735352	126.967339
2751.989947	17469.674667	1664.708008	278.748077
2751.989947	17469.674667	1663.680664	141.966827
2751.989947	17469.674667	1662.653320	179.648666
2751.989947	17469.674667	1661.625000	96.347343
2751.989947	17469.674667	1660.597656	268.811859
2751.989947	17469.674667	1659.569336	213.359467
2751.989947	17469.674667	1658.541016	74.231743
2751.989947	17469.674667	1657.512695	125.671547
2751.989947	17469.674667	1656.483398	81.801910
2751.989947	17469.674667	1655.455078	79.745064
2751.989947	17469.674667	1654.425781	223.959732
2751.989947	17469.674667	1653.396484	191.633347
2751.989947	17469.674667	1652.366211	140.715561
2751.989947	17469.674667	1651.336914	152.473785
2751.989947	17469.674667	1650.306641	-16.803825
2751.989947	17469.674667	1649.276367	210.698700
2751.989947	17469.674667	1648.246094	287.320953
2751.989947	17469.674667	1647.215820	326.791168
2751.989947	17469.674667	1646.185547	370.868378
2751.989947	17469.674667	1645.154297	192.348801
2751.989947	17469.674667	1644.123047	324.475708
2751.989947	17469.674667	1643.091797	139.057953
2751.989947	17469.674667	1642.060547	396.238342
2751.989947	17469.674667	1641.028320	152.937073
2751.989947	17469.674667	1639.997070	312.725525
2751.989947	17469.674667	1638.964844	368.232025
2751.989947	17469.674667	1637.931641	562.609192
2751.989947	17469.674667	1636.899414	393.512238
2751.989947	17469.674667	1635.867188	416.560760
2751.989947	17469.674667	1634.833984	645.514771
2751.989947	17469.674667	1633.800781	804.978882
2751.989947	17469.674667	1632.767578	501.804016
2751.989947	17469.674667	1631.734375	455.429749
2751.989947	17469.674667	1630.700195	596.337952
2751.989947	17469.674667	1629.666016	540.714233
2751.989947	17469.674667	1628.631836	605.295105
2751.989947	17469.674667	1627.597656	706.828003
2751.989947	17469.674667	1626.563477	616.583557
2751.989947	17469.674667	1625.528320	778.135376
2751.989947	17469.674667	1624.493164	759.509033
2751.989947	17469.674667	1623.458008	745.519043
2751.989947	17469.674667	1622.422852	694.613953
2751.989947	17469.674667	1621.387695	604.506897
2751.989947	17469.674667	1620.351563	941.328125
2751.989947	17469.674667	1619.315430	830.465393
2751.989947	17469.674667	1618.279297	952.631775
2751.989947	17469.674667	1617.243164	1081.688721
2751.989947	17469.674667	1616.207031	887.914795
2751.989947	17469.674667	1615.169922	947.805725
2751.989947	17469.674667	1614.132813	1074.535156
2751.989947	17469.674667	1613.095703	1115.978271
2751.989947	17469.674667	1612.058594	862.527771
2751.989947	17469.674667	1611.020508	1185.058472
2751.989947	17469.674667	1609.983398	1026.171021
2751.989947	17469.674667	1608.945313	1069.988647
2751.989947	17469.674667	1607.907227	1104.609741
2751.989947	17469.674667	1606.868164	968.914001
2751.989947	17469.674667	1605.830078	860.927673
2751.989947	17469.674667	1604.791016	989.987122
2751.989947	17469.674667	1603.751953	838.388733
2751.989947	17469.674667	1602.712891	785.780151
2751.989947	17469.674667	1601.673828	822.906494
2751.989947	17469.674667	1600.633789	970.396851
2751.989947	17469.674667	1599.594727	839.755371
2751.989947	17469.674667	1598.554688	835.589478
2751.989947	17469.674667	1597.513672	1008.373047
2751.989947	17469.674667	1596.473633	721.703735
2751.989947	17469.674667	1595.433594	779.700867
2751.989947	17469.674667	1594.392578	819.339233
2751.989947	17469.674667	1593.351563	666.155945
2751.989947	17469.674667	1592.310547	742.617920
2751.989947	17469.674667	1591.268555	775.484253
2751.989947	17469.674667	1590.227539	810.690063
2751.989947	17469.674667	1589.185547	777.101196
2751.989947	17469.674667	1588.143555	771.098328
2751.989947	17469.674667	1587.100586	719.275757
2751.989947	17469.674667	1586.058594	837.197937
2751.989947	17469.674667	1585.015625	840.503723
2751.989947	17469.674667	1583.972656	786.568481
2751.989947	17469.674667	1582.929688	877.066162
2751.989947	17469.674667	1581.886719	917.184204
2751.989947	17469.674667	1580.843750	753.493835
2751.989947	17469.674667	1579.799805	855.558594
2751.989947	17469.674667	1578.755859	982.827759
2751.989947	17469.674667	1577.711914	888.063965
2751.989947	17469.674667	1576.666992	848.318115
2751.989947	17469.674667	1575.623047	838.406433
2751.989947	17469.674667	1574.578125	798.812439
2751.989947	17469.674667	1573.533203	832.493103
2751.989947	17469.674667	1572.488281	980.569397
2751.989947	17469.674667	1571.443359	739.962097
2751.989947	17469.674667	1570.397461	869.835693
2751.989947	17469.674667	1569.351563	645.470032
2751.989947	17469.674667	1568.305664	791.445007
2751.989947	17469.674667	1567.259766	597.023254
2751.989947	17469.674667	1566.213867	699.691956
2751.989947	17469.674667	1565.166992	635.671509
2751.989947	17469.674667	1564.120117	649.380981
2751.989947	17469.674667	1563.073242	453.137573
2751.989947	17469.674667	1562.026367	476.156006
2751.989947	17469.674667	1560.978516	506.078857
2751.989947	17469.674667	1559.930664	412.864838
2751.989947	17469.674667	1558.883789	353.989075
2751.989947	17469.674667	1557.834961	603.078308
2751.989947	17469.674667	1556.787109	510.135193
2751.989947	17469.674667	1555.739258	506.216522
2751.989947	17469.674667	1554.690430	712.062927
2751.989947	17469.674667	1553.641602	432.525238
2751.989947	17469.674667	1552.592773	624.798462
2751.989947	17469.674667	1551.542969	448.050323
2751.989947	17469.674667	1550.494141	467.324615
2751.989947	17469.674667	1549.444336	566.364197
2751.989947	17469.674667	1548.394531	581.216675
2751.989947	17469.674667	1547.344727	612.081970
2751.989947	17469.674667	1546.293945	454.133911
2751.989947	17469.674667	1545.244141	473.811035
2751.989947	17469.674667	1544.193359	466.262146
2751.989947	17469.674667	1543.142578	768.114563
2751.989947	17469.674667	1542.090820	526.473083
2751.989947	17469.674667	1541.040039	444.165100
2751.989947	17469.674667	1539.988281	371.064789
2751.989947	17469.674667	1538.936523	473.069489
2751.989947	17469.674667	1537.884766	284.299866
2751.989947	17469.674667	1536.833008	229.724289
2751.989947	17469.674667	1535.780273	375.120880
2751.989947	17469.674667	1534.727539	472.868042
2751.989947	17469.674667	1533.674805	373.156738
2751.989947	17469.674667	1532.622070	334.866394
2751.989947	17469.674667	1531.569336	239.951599
2751.989947	17469.674667	1530.515625	226.846176
2751.989947	17469.674667	1529.461914	311.387970
2751.989947	17469.674667	1528.408203	189.601898
2751.989947	17469.674667	1527.354492	351.412231
2751.989947	17469.674667	1526.299805	50.752121
2751.989947	17469.674667	1525.246094	58.587730
2751.989947	17469.674667	1524.191406	9.857285
2751.989947	17469.674667	1523.136719	74.536682
2751.989947	17469.674667	1522.081055	87.182480
2751.989947	17469.674667	1521.026367	131.638916
2751.989947	17469.674667	1519.970703	15.395717
2751.989947	17469.674667	1518.915039	152.871719
2751.989947	17469.674667	1517.859375	-98.938568
2751.989947	17469.674667	1516.802734	-153.659821
2751.989947	17469.674667	1515.747070	81.370522
2751.989947	17469.674667	1514.690430	85.660683
2751.989947	17469.674667	1513.633789	35.769577
2751.989947	17469.674667	1512.577148	108.114502
2751.989947	17469.674667	1511.519531	128.531189
2751.989947	17469.674667	1510.461914	225.900482
2751.989947	17469.674667	1509.405273	79.261040
2751.989947	17469.674667	1508.346680	9.602481
2751.989947	17469.674667	1507.289063	143.399536
2751.989947	17469.674667	1506.231445	-2.821463
2751.989947	17469.674667	1505.172852	29.515976
2751.989947	17469.674667	1504.114258	57.431686
2751.989947	17469.674667	1503.055664	-7.105381
2751.989947	17469.674667	1501.996094	63.898544
2751.989947	17469.674667	1500.937500	62.780788
2751.989947	17469.674667	1499.877930	-12.678246
2751.989947	17469.674667	1498.818359	-15.822571
2751.989947	17469.674667	1497.757813	30.751125
2751.989947	17469.674667	1496.698242	45.853920
2751.989947	17469.674667	1495.637695	207.577530
2751.989947	17469.674667	1494.577148	71.855820
2751.989947	17469.674667	1493.516602	134.584381
2751.989947	17469.674667	1492.456055	305.533813
2751.989947	17469.674667	1491.394531	190.471252
2751.989947	17469.674667	1490.333008	325.527374
2751.989947	17469.674667	1489.271484	316.545959
2751.989947	17469.674667	1488.209961	255.904022
2751.989947	17469.674667	1487.148438	211.150421
2751.989947	17469.674667	1486.085938	281.280273
2751.989947	17469.674667	1485.023438	288.501831
2751.989947	17469.674667	1483.960938	392.548462
2751.989947	17469.674667	1482.898438	415.708252
2751.989947	17469.674667	1481.834961	551.382935
2751.989947	17469.674667	1480.772461	435.357910
2751.989947	17469.674667	1479.708984	591.429993
2751.989947	17469.674667	1478.644531	828.434265
2751.989947	17469.674667	1477.581055	795.874390
2751.989947	17469.674667	1476.517578	801.672607
2751.989947	17469.674667	1475.453125	744.706909
2751.989947	17469.674667	1474.388672	741.709717
2751.989947	17469.674667	1473.323242	723.104065
2751.989947	17469.674667	1472.258789	558.853333
2751.989947	17469.674667	1471.193359	679.621948
2751.989947	17469.674667	1470.127930	607.472107
2751.989947	17469.674667	1469.062500	654.611633
2751.989947	17469.674667	1467.997070	555.913391
2751.989947	17469.674667	1466.930664	551.316589
2751.989947	17469.674667	1465.865234	416.859375
2751.989947	17469.674667	1464.798828	466.271027
2751.989947	17469.674667	1463.731445	211.646347
2751.989947	17469.674667	1462.665039	203.511154
2751.989947	17469.674667	1461.597656	342.617706
2751.989947	17469.674667	1460.530273	580.402100
2751.989947	17469.674667	1459.462891	400.122803
2751.989947	17469.674667	1458.395508	271.315796
2751.989947	17469.674667	1457.327148	317.849731
2751.989947	17469.674667	1456.259766	171.071457
2751.989947	17469.674667	1455.191406	101.693359
2751.989947	17469.674667	1454.123047	301.767059
2751.989947	17469.674667	1453.053711	231.798340
2751.989947	17469.674667	1451.985352	229.798248
2751.989947	17469.674667	1450.916016	90.832451
2751.989947	17469.674667	1449.846680	65.713867
2751.989947	17469.674667	1448.776367	29.529690
2751.989947	17469.674667	1447.707031	38.008884
2751.989947	17469.674667	1446.636719	-155.152252
2751.989947	17469.674667	1445.566406	-119.863876
2751.989947	17469.674667	1444.496094	30.104086
2751.989947	17469.674667	1443.425781	83.899689
2751.989947	17469.674667	1442.354492	-24.194029
2751.989947	17469.674667	1441.283203	-66.370865
2751.989947	17469.674667	1440.211914	89.316025
2751.989947	17469.674667	1439.140625	-37.815422
2751.989947	17469.674667	1438.069336	-136.790039
2751.989947	17469.674667	1436.997070	-30.456203
2751.989947	17469.674667	1435.924805	81.504463
2751.989947	17469.674667	1434.852539	45.016304
2751.989947	17469.674667	1433.780273	-54.378178
2751.989947	17469.674667	1432.707031	59.802105
2751.989947	17469.674667	1431.633789	26.820412
2751.989947	17469.674667	1430.560547	-135.544449
2751.989947	17469.674667	1429.487305	97.268570
2751.989947	17469.674667	1428.413086	135.625626
2751.989947	17469.674667	1427.339844	72.753868
2751.989947	17469.674667	1426.265625	-107.316887
2751.989947	17469.674667	1425.191406	-134.637436
2751.989947	17469.674667	1424.116211	95.634300
2751.989947	17469.674667	1423.041992	34.487419
2751.989947	17469.674667	1421.966797	237.067657
2751.989947	17469.674667	1420.891602	271.857025
2751.989947	17469.674667	1419.816406	144.763153
2751.989947	17469.674667	1418.740234	165.801392
2751.989947	17469.674667	1417.665039	151.023407
2751.989947	17469.674667	1416.588867	284.742737
2751.989947	17469.674667	1415.512695	278.043488
2751.989947	17469.674667	1414.435547	206.995972
2751.989947	17469.674667	1413.359375	253.638458
2751.989947	17469.674667	1412.282227	327.763672
2751.989947	17469.674667	1411.205078	280.608643
2751.989947	17469.674667	1410.127930	326.371979
2751.989947	17469.674667	1409.049805	200.823593
2751.989947	17469.674667	1407.972656	330.945221
2751.989947	17469.674667	1406.894531	286.069489
2751.989947	17469.674667	1405.816406	280.859680
2751.989947	17469.674667	1404.737305	228.102661
2751.989947	17469.674667	1403.659180	192.699417
2751.989947	17469.674667	1402.580078	4.550516
2751.989947	17469.674667	1401.500977	192.097290
2751.989947	17469.674667	1400.421875	90.931816
2751.989947	17469.674667	1399.341797	129.905777
2751.989947	17469.674667	1398.262695	94.261108
2751.989947	17469.674667	1397.182617	1.942135
2751.989947	17469.674667	1396.102539	-21.287012
2751.989947	17469.674667	1395.021484	-99.121269
2751.989947	17469.674667	1393.941406	-59.992146
2751.989947	17469.674667	1392.860352	12.672194
2751.989947	17469.674667	1391.779297	-28.699396
2751.989947	17469.674667	1390.698242	-122.134987
2751.989947	17469.674667	1389.616211	21.352476
2751.989947	17469.674667	1388.535156	-41.076508
2751.989947	17469.674667	1387.453125	-16.570108
2751.989947	17469.674667	1386.371094	-48.360981
2751.989947	17469.674667	1385.288086	-115.287994
2751.989947	17469.674667	1384.206055	-108.413872
2751.989947	17469.674667	1383.123047	-51.276875
2751.989947	17469.674667	1382.040039	8.408601
2751.989947	17469.674667	1380.957031	-100.794731
2751.989947	17469.674667	1379.873047	-13.929527
2751.989947	17469.674667	1378.789063	178.420456
2751.989947	17469.674667	1377.705078	78.891167
2751.989947	17469.674667	1376.621094	-49.071880
2751.989947	17469.674667	1375.537109	97.875252
2751.989947	17469.674667	1374.452148	-69.655502
2751.989947	17469.674667	1373.367188	-11.980646
2751.989947	17469.674667	1372.282227	-50.319725
2751.989947	17469.674667	1371.197266	120.249321
2751.989947	17469.674667	1370.112305	-32.908092
2751.989947	17469.674667	1369.026367	206.666931
2751.989947	17469.674667	1367.940430	77.461266
2751.989947	17469.674667	1366.854492	-180.298340
2751.989947	17469.674667	1365.767578	140.048340
2751.989947	17469.674667	1364.681641	75.669685
2751.989947	17469.674667	1363.594727	-172.029968
2751.989947	17469.674667	1362.507813	137.503326
2751.989947	17469.674667	1361.419922	160.571625
2751.989947	17469.674667	1360.333008	-63.244053
2751.989947	17469.674667	1359.245117	-10.488175
2751.989947	17469.674667	1358.157227	131.162537
2751.989947	17469.674667	1357.069336	120.237518
2751.989947	17469.674667	1355.981445	306.707642
2751.989947	17469.674667	1354.892578	261.837158
2751.989947	17469.674667	1353.803711	81.595581
2751.989947	17469.674667	1352.714844	246.190125
2751.989947	17469.674667	1351.625000	307.711334
2751.989947	17469.674667	1350.536133	321.736389
2751.989947	17469.674667	1349.446289	328.027374
2751.989947	17469.674667	1348.356445	348.386566
2751.989947	17469.674667	1347.266602	288.217468
2751.989947	17469.674667	1346.175781	220.142059
2751.989947	17469.674667	1345.085938	410.344543
2751.989947	17469.674667	1343.995117	448.198700
2751.989947	17469.674667	1342.903320	561.258545
2751.989947	17469.674667	1341.812500	530.872986
2751.989947	17469.674667	1340.720703	621.727661
2751.989947	17469.674667	1339.629883	574.191895
2751.989947	17469.674667	1338.538086	674.200317
2751.989947	17469.674667	1337.445313	590.907654
2751.989947	17469.674667	1336.353516	730.528564
2751.989947	17469.674667	1335.260742	774.032227
2751.989947	17469.674667	1334.167969	552.033936
2751.989947	17469.674667	1333.075195	795.497681
2751.989947	17469.674667	1331.981445	811.540100
2751.989947	17469.674667	1330.888672	674.229187
2751.989947	17469.674667	1329.794922	736.035400
2751.989947	17469.674667	1328.701172	494.826721
2751.989947	17469.674667	1327.606445	642.938721
2751.989947	17469.674667	1326.512695	637.109985
2751.989947	17469.674667	1325.417969	651.127625
2751.989947	17469.674667	1324.323242	526.253174
2751.989947	17469.674667	1323.227539	498.934479
2751.989947	17469.674667	1322.132813	735.966614
2751.989947	17469.674667	1321.037109	495.893768
2751.989947	17469.674667	1319.941406	365.671661
2751.989947	17469.674667	1318.845703	398.286713
2751.989947	17469.674667	1317.750000	397.797699
2751.989947	17469.674667	1316.653320	522.741577
2751.989947	17469.674667	1315.556641	498.679474
2751.989947	17469.674667	1314.459961	222.604614
2751.989947	17469.674667	1313.363281	406.742798
2751.989947	17469.674667	1312.265625	364.605713
2751.989947	17469.674667	1311.167969	371.417389
2751.989947	17469.674667	1310.070313	355.159454
2751.989947	17469.674667	1308.972656	355.061554
2751.989947	17469.674667	1307.874023	282.266327
2751.989947	17469.674667	1306.776367	396.098480
2751.989947	17469.674667	1305.677734	210.935837
2751.989947	17469.674667	1304.579102	236.626373
2751.989947	17469.674667	1303.479492	156.034485
2751.989947	17469.674667	1302.380859	214.073593
2751.989947	17469.674667	1301.281250	336.181244
2751.989947	17469.674667	1300.181641	299.720062
2751.989947	17469.674667	1299.081055	288.226288
2751.989947	17469.674667	1297.981445	222.768600
2751.989947	17469.674667	1296.880859	366.912567
2751.989947	17469.674667	1295.780273	296.046112
2751.989947	17469.674667	1294.679688	246.380417
2751.989947	17469.674667	1293.578125	431.889313
2751.989947	17469.674667	1292.476563	488.404114
2751.989947	17469.674667	1291.375000	485.324402
2751.989947	17469.674667	1290.273438	483.193420
2751.989947	17469.674667	1289.171875	494.402008
2751.989947	17469.674667	1288.069336	350.247314
2751.989947	17469.674667	1286.966797	296.497101
2751.989947	17469.674667	1285.864258	422.029602
2751.989947	17469.674667	1284.761719	225.480743
2751.989947	17469.674667	1283.658203	309.538361
2751.989947	17469.674667	1282.554688	418.508331
2751.989947	17469.674667	1281.451172	244.921143
2751.989947	17469.674667	1280.347656	193.523193
2751.989947	17469.674667	1279.244141	412.744415
2751.989947	17469.674667	1278.139648	394.452362
2751.989947	17469.674667	1277.035156	415.934326
2751.989947	17469.674667	1275.930664	323.564606
2751.989947	17469.674667	1274.825195	346.771301
2751.989947	17469.674667	1273.720703	229.777206
2751.989947	17469.674667	1272.615234	356.911865
2751.989947	17469.674667	1271.508789	280.301544
2751.989947	17469.674667	1270.403320	258.190552
2751.989947	17469.674667	1269.297852	360.079285
2751.989947	17469.674667	1268.191406	312.088196
2751.989947	17469.674667	1267.084961	227.792755
2751.989947	17469.674667	1265.977539	289.449158
2751.989947	17469.674667	1264.871094	428.954163
2751.989947	17469.674667	1263.763672	276.513245
2751.989947	17469.674667	1262.656250	251.129623
2751.989947	17469.674667	1261.548828	463.263611
2751.989947	17469.674667	1260.440430	233.536636
2751.989947	17469.674667	1259.333008	399.729370
2751.989947	17469.674667	1258.224609	417.636047
2751.989947	17469.674667	1257.115234	331.634918
2751.989947	17469.674667	1256.006836	477.749908
2751.989947	17469.674667	1254.897461	384.814270
2751.989947	17469.674667	1253.788086	376.123383
2751.989947	17469.674667	1252.678711	457.068237
2751.989947	17469.674667	1251.569336	439.330872
2751.989947	17469.674667	1250.458984	447.009216
2751.989947	17469.674667	1249.349609	438.843201
2751.989947	17469.674667	1248.239258	365.334869
2751.989947	17469.674667	1247.127930	423.110565
2751.989947	17469.674667	1246.017578	367.490448
2751.989947	17469.674667	1244.906250	331.995972
2751.989947	17469.674667	1243.794922	365.782135
2751.989947	17469.674667	1242.683594	389.119812
2751.989947	17469.674667	1241.571289	359.410583
2751.989947	17469.674667	1240.459961	264.744324
2751.989947	17469.674667	1239.347656	465.103271
2751.989947	17469.674667	1238.234375	432.685150
2751.989947	17469.674667	1237.122070	424.796722
2751.989947	17469.674667	1236.008789	459.875275
2751.989947	17469.674667	1234.896484	549.089050
2751.989947	17469.674667	1233.782227	642.773193
2751.989947	17469.674667	1232.668945	567.405090
2751.989947	17469.674667	1231.555664	543.766052
2751.989947	17469.674667	1230.441406	600.800354
2751.989947	17469.674667	1229.327148	548.647766
2751.989947	17469.674667	1228.211914	623.386292
2751.989947	17469.674667	1227.097656	684.535095
2751.989947	17469.674667	1225.982422	640.794861
2751.989947	17469.674667	1224.867188	679.647034
2751.989947	17469.674667	1223.751953	568.204529
2751.989947	17469.674667	1222.635742	509.552124
2751.989947	17469.674667	1221.520508	613.282593
2751.989947	17469.674667	1220.404297	571.231018
2751.989947	17469.674667	1219.287109	486.539551
2751.989947	17469.674667	1218.170898	494.336151
2751.989947	17469.674667	1217.053711	489.578888
2751.989947	17469.674667	1215.936523	496.066956
2751.989947	17469.674667	1214.819336	585.258972
2751.989947	17469.674667	1213.702148	506.202362
2751.989947	17469.674667	1212.583984	411.542389
2751.989947	17469.674667	1211.465820	446.767792
2751.989947	17469.674667	1210.347656	431.479797
2751.989947	17469.674667	1209.229492	424.852875
2751.989947	17469.674667	1208.110352	441.196136
2751.989947	17469.674667	1206.992188	423.535797
2751.989947	17469.674667	1205.873047	317.382050
2751.989947	17469.674667	1204.752930	470.202759
2751.989947	17469.674667	1203.633789	369.142456
2751.989947	17469.674667	1202.513672	305.899170
2751.989947	17469.674667	1201.393555	299.419556
2751.989947	17469.674667	1200.273438	277.121277
2751.989947	17469.674667	1199.152344	120.525230
2751.989947	17469.674667	1198.032227	161.942276
2751.989947	17469.674667	1196.911133	242.554565
2751.989947	17469.674667	1195.790039	134.087265
2751.989947	17469.674667	1194.667969	93.280861
2751.989947	17469.674667	1193.545898	81.259018
2751.989947	17469.674667	1192.424805	135.055206
2751.989947	17469.674667	1191.301758	52.725746
2751.989947	17469.674667	1190.179688	-23.592318
2751.989947	17469.674667	1189.056641	0.755415
2751.989947	17469.674667	1187.933594	-123.495377
2751.989947	17469.674667	1186.810547	-105.923523
2751.989947	17469.674667	1185.687500	9.513254
2751.989947	17469.674667	1184.563477	-24.840319
2751.989947	17469.674667	1183.440430	162.737762
2751.989947	17469.674667	1182.316406	-51.680050
2751.989947	17469.674667	1181.191406	26.016808
2751.989947	17469.674667	1180.067383	30.341574
2751.989947	17469.674667	1178.942383	120.914864
2751.989947	17469.674667	1177.817383	25.916080
2751.989947	17469.674667	1176.692383	77.408554
2751.989947	17469.674667	1175.566406	103.319786
2751.989947	17469.674667	1174.440430	79.346893
2751.989947	17469.674667	1173.314453	251.973618
2751.989947	17469.674667	1172.188477	315.063141
2751.989947	17469.674667	1171.062500	306.340851
2751.989947	17469.674667	1169.935547	116.387497
2751.989947	17469.674667	1168.808594	329.042938
2751.989947	17469.674667	1167.681641	110.829071
2751.989947	17469.674667	1166.553711	158.824005
2751.989947	17469.674667	1165.426758	226.387741
2751.989947	17469.674667	1164.298828	6.828977
2751.989947	17469.674667	1163.170898	-38.131794
2751.989947	17469.674667	1162.041992	67.051208
2751.989947	17469.674667	1160.914063	21.810574
2751.989947	17469.674667	1159.785156	205.227661
2751.989947	17469.674667	1158.656250	-42.796200
2751.989947	17469.674667	1157.526367	119.321281
2751.989947	17469.674667	1156.397461	93.963196
2751.989947	17469.674667	1155.267578	47.073418
2751.989947	17469.674667	1154.137695	152.700928
2751.989947	17469.674667	1153.006836	132.718414
2751.989947	17469.674667	1151.876953	70.728020
2751.989947	17469.674667	1150.746094	91.101105
2751.989947	17469.674667	1149.615234	44.991783
2751.989947	17469.674667	1148.484375	-58.873878
2751.989947	17469.674667	1147.352539	-126.093582
2751.989947	17469.674667	1146.220703	-38.955452
2751.989947	17469.674667	1145.088867	-138.890640
2751.989947	17469.674667	1143.957031	-133.764359
2751.989947	17469.674667	1142.825195	-90.490662
2751.989947	17469.674667	1141.692383	-139.705505
2751.989947	17469.674667	1140.559570	-105.239769
2751.989947	17469.674667	1139.426758	-35.284325
2751.989947	17469.674667	1138.292969	-67.640282
2751.989947	17469.674667	1137.159180	-20.556337
2751.989947	17469.674667	1136.025391	11.439714
2751.989947	17469.674667	1134.891602	79.607201
2751.989947	17469.674667	1133.757813	134.461319
2751.989947	17469.674667	1132.623047	101.317513
2751.989947	17469.674667	1131.488281	285.946320
2751.989947	17469.674667	1130.353516	265.986969
2751.989947	17469.674667	1129.217773	180.386154
2751.989947	17469.674667	1128.083008	187.341995
2751.989947	17469.674667	1126.947266	63.016331
2751.989947	17469.674667	1125.811523	103.675514
2751.989947	17469.674667	1124.674805	125.770493
2751.989947	17469.674667	1123.539063	-26.555456
2751.989947	17469.674667	1122.402344	-38.653488
2751.989947	17469.674667	1121.265625	19.793222
2751.989947	17469.674667	1120.127930	-230.047226
2751.989947	17469.674667	1118.990234	-4.158200
2751.989947	17469.674667	1117.853516	-153.988266
2751.989947	17469.674667	1116.714844	-40.486202
2751.989947	17469.674667	1115.577148	23.774073
2751.989947	17469.674667	1114.439453	73.298981
2751.989947	17469.674667	1113.300781	43.122143
2751.989947	17469.674667	1112.162109	79.366875
2751.989947	17469.674667	1111.022461	92.009117
2751.989947	17469.674667	1109.883789	75.637909
2751.989947	17469.674667	1108.744141	102.913452
2751.989947	17469.674667	1107.604492	-0.147213
2751.989947	17469.674667	1106.463867	-11.911545
2751.989947	17469.674667	1105.324219	79.793785
2751.989947	17469.674667	1104.183594	167.209763
2751.989947	17469.674667	1103.042969	293.460022
2751.989947	17469.674667	1101.902344	110.554520
2751.989947	17469.674667	1100.760742	209.047485
2751.989947	17469.674667	1099.619141	207.237976
2751.989947	17469.674667	1098.477539	280.435730
2751.989947	17469.674667	1097.335938	340.576508
2751.989947	17469.674667	1096.193359	309.786194
2751.989947	17469.674667	1095.051758	150.524429
2751.989947	17469.674667	1093.909180	254.754272
2751.989947	17469.674667	1092.765625	210.326370
2751.989947	17469.674667	1091.623047	61.245018
2751.989947	17469.674667	1090.479492	68.821693
2751.989947	17469.674667	1089.335938	82.686836
2751.989947	17469.674667	1088.192383	116.696594
2751.989947	17469.674667	1087.047852	25.624590
2751.989947	17469.674667	1085.903320	10.160447
2751.989947	17469.674667	1084.758789	-64.054016
2751.989947	17469.674667	1083.614258	-86.529823
2751.989947	17469.674667	1082.469727	143.773285
2751.989947	17469.674667	1081.324219	17.271338
2751.989947	17469.674667	1080.178711	73.656097
2751.989947	17469.674667	1079.033203	137.850159
2751.989947	17469.674667	1077.886719	72.878334
2751.989947	17469.674667	1076.740234	-4.282832
2751.989947	17469.674667	1075.593750	-92.785461
2751.989947	17469.674667	1074.447266	-51.636646
2751.989947	17469.674667	1073.300781	66.235130
2751.989947	17469.674667	1072.153320	-58.780216
2751.989947	17469.674667	1071.005859	-80.059502
2751.989947	17469.674667	1069.858398	62.955608
2751.989947	17469.674667	1068.709961	-109.339676
2751.989947	17469.674667	1067.561523	-82.723450
2751.989947	17469.674667	1066.413086	115.809410
2751.989947	17469.674667	1065.264648	15.940781
2751.989947	17469.674667	1064.116211	-49.349113
2751.989947	17469.674667	1062.966797	-54.765800
2751.989947	17469.674667	1061.817383	1.511905
2751.989947	17469.674667	1060.667969	69.716667
2751.989947	17469.674667	1059.517578	59.737606
2751.989947	17469.674667	1058.368164	159.067215
2751.989947	17469.674667	1057.217773	118.743210
2751.989947	17469.674667	1056.067383	129.959976
2751.989947	17469.674667	1054.916016	-115.297287
2751.989947	17469.674667	1053.764648	59.479824
2751.989947	17469.674667	1052.613281	29.544979
2751.989947	17469.674667	1051.461914	9.248519
2751.989947	17469.674667	1050.310547	50.961788
2751.989947	17469.674667	1049.158203	42.526772
2751.989947	17469.674667	1048.005859	49.948120
2751.989947	17469.674667	1046.853516	58.819336
2751.989947	17469.674667	1045.700195	94.614166
2751.989947	17469.674667	1044.547852	-76.265038
2751.989947	17469.674667	1043.394531	38.794468
2751.989947	17469.674667	1042.240234	-97.555786
2751.989947	17469.674667	1041.086914	-7.576869
2751.989947	17469.674667	1039.932617	32.608944
2751.989947	17469.674667	1038.778320	136.792160
2751.989947	17469.674667	1037.624023	160.613632
2751.989947	17469.674667	1036.469727	134.059952
2751.989947	17469.674667	1035.314453	193.556763
2751.989947	17469.674667	1034.159180	223.175919
2751.989947	17469.674667	1033.003906	360.174500
2751.989947	17469.674667	1031.847656	332.382416
2751.989947	17469.674667	1030.692383	229.826096
2751.989947	17469.674667	1029.536133	243.505890
2751.989947	17469.674667	1028.378906	478.854584
2751.989947	17469.674667	1027.222656	155.108276
2751.989947	17469.674667	1026.065430	239.697296
2751.989947	17469.674667	1024.908203	278.477386
2751.989947	17469.674667	1023.750977	181.857452
2751.989947	17469.674667	1022.593750	207.473480
2751.989947	17469.674667	1021.435547	193.043823
2751.989947	17469.674667	1020.277344	227.023880
2751.989947	17469.674667	1019.119141	-26.275084
2751.989947	17469.674667	1017.959961	87.356903
2751.989947	17469.674667	1016.800781	0.576499
2751.989947	17469.674667	1015.641602	22.409309
2751.989947	17469.674667	1014.482422	89.266693
2751.989947	17469.674667	1013.323242	121.651306
2751.989947	17469.674667	1012.163086	151.589905
2751.989947	17469.674667	1011.002930	87.844208
2751.989947	17469.674667	1009.842773	136.511612
2751.989947	17469.674667	1008.681641	381.491333
2751.989947	17469.674667	1007.520508	455.937775
2751.989947	17469.674667	1006.359375	458.810089
2751.989947	17469.674667	1005.198242	698.011841
2751.989947	17469.674667	1004.037109	628.012878
2751.989947	17469.674667	1002.875000	726.937561
2751.989947	17469.674667	1001.712891	575.250305
2751.989947	17469.674667	1000.550781	555.579712
2751.989947	17469.674667	999.387695	536.037842
2751.989947	17469.674667	998.224609	530.825928
2751.989947	17469.674667	997.061523	357.383728
2751.989947	17469.674667	995.898438	318.369110
2751.989947	17469.674667	994.734375	321.889557
2751.989947	17469.674667	993.571289	136.555817
2751.989947	17469.674667	992.407227	225.664673
2751.989947	17469.674667	991.242188	190.128357
2751.989947	17469.674667	990.078125	210.631012
2751.989947	17469.674667	988.913086	259.299805
2751.989947	17469.674667	987.748047	66.850983
2751.989947	17469.674667	986.583008	159.628891
2751.989947	17469.674667	985.416992	-25.702019
2751.989947	17469.674667	984.250977	-67.682846
2751.989947	17469.674667	983.084961	50.438023
2751.989947	17469.674667	981.918945	-18.947657
2751.989947	17469.674667	980.751953	53.629158
2751.989947	17469.674667	979.584961	33.181622
2751.989947	17469.674667	978.417969	40.931057
2751.989947	17469.674667	977.250977	-27.347485
2751.989947	17469.674667	976.083008	-108.777328
2751.989947	17469.674667	974.915039	130.841248
2751.989947	17469.674667	973.747070	-47.205967
2751.989947	17469.674667	972.579102	-115.716713
2751.989947	17469.674667	971.410156	-89.404716
2751.989947	17469.674667	970.242188	-56.233776
2751.989947	17469.674667	969.072266	74.675133
2751.989947	17469.674667	967.903320	-12.312644
2751.989947	17469.674667	966.733398	-25.969507
2751.989947	17469.674667	965.563477	17.557692
2751.989947	17469.674667	964.393555	18.291023
2751.989947	17469.674667	963.223633	-140.293335
2751.989947	17469.674667	962.052734	88.073143
2751.989947	17469.674667	960.881836	46.579121
2751.989947	17469.674667	959.710938	198.821838
2751.989947	17469.674667	958.540039	82.775505
2751.989947	17469.674667	957.368164	77.062096
2751.989947	17469.674667	956.196289	108.024605
2751.989947	17469.674667	955.024414	25.229021
2751.989947	17469.674667	953.851563	127.277245
2751.989947	17469.674667	952.679688	132.610184
2751.989947	17469.674667	951.506836	-73.298912
2751.989947	17469.674667	950.333984	-9.824278
2751.989947	17469.674667	949.160156	-11.386553
2751.989947	17469.674667	947.986328	64.379791
2751.989947	17469.674667	946.812500	140.180862
2751.989947	17469.674667	945.638672	14.190024
2751.989947	17469.674667	944.464844	-65.767479
2751.989947	17469.674667	943.290039	-43.268127
2751.989947	17469.674667	942.115234	29.734314
2751.989947	17469.674667	940.940430	2.056768
2751.989947	17469.674667	939.764648	46.370255
2751.989947	17469.674667	938.588867	47.349472
2751.989947	17469.674667	937.413086	122.862099
2751.989947	17469.674667	936.237305	-29.465864
2751.989947	17469.674667	935.060547	50.811913
2751.989947	17469.674667	933.883789	20.843307
2751.989947	17469.674667	932.707031	-33.252048
2751.989947	17469.674667	931.530273	-60.946331
2751.989947	17469.674667	930.352539	-19.188292
2751.989947	17469.674667	929.175781	-58.831936
2751.989947	17469.674667	927.998047	-17.120974
2751.989947	17469.674667	926.819336	86.846870
2751.989947	17469.674667	925.641602	92.602440
2751.989947	17469.674667	924.462891	213.252991
2751.989947	17469.674667	923.284180	142.367905
2751.989947	17469.674667	922.104492	66.712135
2751.989947	17469.674667	920.924805	91.549423
2751.989947	17469.674667	919.746094	93.738747
2751.989947	17469.674667	919.551758	186.086029
2751.989947	17469.674667	918.386719	215.610474
2751.989947	17469.674667	917.220703	-15.514511
2751.989947	17469.674667	916.054688	-24.242424
2751.989947	17469.674667	914.887695	21.988968
2751.989947	17469.674667	913.721680	6.054027
2751.989947	17469.674667	912.554688	-100.675179
2751.989947	17469.674667	911.387695	-59.285431
2751.989947	17469.674667	910.220703	99.086983
2751.989947	17469.674667	909.052734	-134.191116
2751.989947	17469.674667	907.885742	-138.228149
2751.989947	17469.674667	906.717773	-42.040382
2751.989947	17469.674667	905.548828	-62.830105
2751.989947	17469.674667	904.380859	-66.931236
2751.989947	17469.674667	903.211914	-9.032032
2751.989947	17469.674667	902.042969	24.978086
2751.989947	17469.674667	900.874023	-3.033297
2751.989947	17469.674667	899.704102	7.089074
2751.989947	17469.674667	898.535156	29.104189
2751.989947	17469.674667	897.365234	22.499399
2751.989947	17469.674667	896.194336	13.498183
2751.989947	17469.674667	895.024414	28.298090
2751.989947	17469.674667	893.853516	-28.365095
2751.989947	17469.674667	892.682617	160.200363
2751.989947	17469.674667	891.511719	96.354218
2751.989947	17469.674667	890.340820	201.484024
2751.989947	17469.674667	889.168945	197.101822
2751.989947	17469.674667	887.997070	164.155243
2751.989947	17469.674667	886.825195	-73.339226
2751.989947	17469.674667	885.653320	79.219345
2751.989947	17469.674667	884.480469	60.522587
2751.989947	17469.674667	883.307617	98.860008
2751.989947	17469.674667	882.134766	99.137711
2751.989947	17469.674667	880.961914	-2.771883
2751.989947	17469.674667	879.788086	-116.536118
2751.989947	17469.674667	878.614258	-189.900574
2751.989947	17469.674667	877.440430	-42.426949
2751.989947	17469.674667	876.266602	12.378273
2751.989947	17469.674667	875.091797	-27.800766
2751.989947	17469.674667	873.916992	-32.388798
2751.989947	17469.674667	872.742188	124.337166
2751.989947	17469.674667	871.567383	-138.880859
2751.989947	17469.674667	870.391602	-98.448639
2751.989947	17469.674667	869.215820	17.820475
2751.989947	17469.674667	868.040039	-197.867630
2751.989947	17469.674667	866.864258	-72.190842
2751.989947	17469.674667	865.687500	-41.373402
2751.989947	17469.674667	864.510742	1.254337
2751.989947	17469.674667	863.333984	58.053040
2751.989947	17469.674667	862.157227	-32.022881
2751.989947	17469.674667	860.979492	-136.291000
2751.989947	17469.674667	859.802734	-62.999527
2751.989947	17469.674667	858.625000	-82.064224
2751.989947	17469.674667	857.446289	-157.934555
2751.989947	17469.674667	856.268555	-25.611551
2751.989947	17469.674667	855.089844	-40.014015
2751.989947	17469.674667	853.911133	-16.599098
2751.989947	17469.674667	852.731445	-113.797798
2751.989947	17469.674667	851.552734	-125.884926
2751.989947	17469.674667	850.373047	-15.098297
2751.989947	17469.674667	849.193359	12.917031
2751.989947	17469.674667	848.013672	-37.063251
2751.989947	17469.674667	846.833008	-35.086956
2751.989947	17469.674667	845.652344	28.258053
2751.989947	17469.674667	844.471680	-54.825787
2751.989947	17469.674667	843.291016	-26.962193
2751.989947	17469.674667	842.110352	-32.176754
2751.989947	17469.674667	840.928711	56.963078
2751.989947	17469.674667	839.747070	-45.038174
2751.989947	17469.674667	838.564453	-5.515584
2751.989947	17469.674667	837.382813	48.110069
2751.989947	17469.674667	836.200195	-75.127098
2751.989947	17469.674667	835.017578	51.503113
2751.989947	17469.674667	833.834961	97.929710
2751.989947	17469.674667	832.651367	-88.940308
2751.989947	17469.674667	831.467773	4.550569
2751.989947	17469.674667	830.284180	83.843071
2751.989947	17469.674667	829.100586	64.180176
2751.989947	17469.674667	827.916992	-188.561844
2751.989947	17469.674667	826.732422	-97.598663
2751.989947	17469.674667	825.547852	59.184860
2751.989947	17469.674667	824.363281	-158.199722
2751.989947	17469.674667	823.177734	-20.346111
2751.989947	17469.674667	821.992188	53.924419
2751.989947	17469.674667	820.806641	12.924177
2751.989947	17469.674667	819.621094	56.535309
2751.989947	17469.674667	818.434570	147.102509
2751.989947	17469.674667	817.249023	110.714142
2751.989947	17469.674667	816.062500	62.562687
2751.989947	17469.674667	814.875000	84.862732
2751.989947	17469.674667	813.688477	121.211098
2751.989947	17469.674667	812.500977	37.773258
2751.989947	17469.674667	811.313477	99.872215
2751.989947	17469.674667	810.125977	117.322739
2751.989947	17469.674667	808.937500	118.308693
2751.989947	17469.674667	807.749023	13.696608
2751.989947	17469.674667	806.560547	101.416504
2751.989947	17469.674667	805.372070	85.890572
2751.989947	17469.674667	804.182617	255.546722
2751.989947	17469.674667	802.994141	221.176620
2751.989947	17469.674667	801.803711	250.059296
2751.989947	17469.674667	800.614258	201.578491
2751.989947	17469.674667	799.424805	265.521942
2751.989947	17469.674667	798.234375	254.460510
2751.989947	17469.674667	797.043945	241.027100
2751.989947	17469.674667	795.852539	227.564484
2751.989947	17469.674667	794.662109	94.705055
2751.989947	17469.674667	793.470703	95.248215
2751.989947	17469.674667	792.279297	11.531117
2751.989947	17469.674667	791.087891	194.468674
2751.989947	17469.674667	789.895508	38.197483
2751.989947	17469.674667	788.703125	1.199298
2751.989947	17469.674667	787.510742	-26.469343
2751.989947	17469.674667	786.318359	160.855026
2751.989947	17469.674667	785.125000	62.992470
2751.989947	17469.674667	783.931641	30.546486
2751.989947	17469.674667	782.738281	79.827034
2751.989947	17469.674667	781.544922	7.619659
2751.989947	17469.674667	780.350586	133.856644
2751.989947	17469.674667	779.156250	40.585461
2751.989947	17469.674667	777.961914	113.012566
2751.989947	17469.674667	776.767578	-17.621874
2751.989947	17469.674667	775.572266	-183.231888
2751.989947	17469.674667	774.376953	-3.629711
2751.989947	17469.674667	773.181641	66.265144
2751.989947	17469.674667	771.986328	21.858383
2751.989947	17469.674667	770.790039	66.003479
2751.989947	17469.674667	769.593750	-22.737673
2751.989947	17469.674667	768.397461	2.684209
2751.989947	17469.674667	767.201172	-34.835896
2751.989947	17469.674667	766.003906	-7.169721
2751.989947	17469.674667	764.806641	87.971344
2751.989947	17469.674667	763.609375	-24.151981
2751.989947	17469.674667	762.412109	-19.893715
2751.989947	17469.674667	761.213867	-55.234573
2751.989947	17469.674667	760.015625	25.725519
2751.989947	17469.674667	758.817383	-51.554447
2751.989947	17469.674667	757.618164	96.733307
2751.989947	17469.674667	756.419922	84.495674
2751.989947	17469.674667	755.220703	209.372131
2751.989947	17469.674667	754.021484	34.353737
2751.989947	17469.674667	752.821289	63.843903
2751.989947	17469.674667	751.621094	60.760036
2751.989947	17469.674667	750.420898	171.447891
2751.989947	17469.674667	749.220703	200.776657
2751.989947	17469.674667	748.020508	48.967094
2751.989947	17469.674667	746.819336	120.012810
2751.989947	17469.674667	745.618164	47.108261
2751.989947	17469.674667	744.416992	60.044048
2751.989947	17469.674667	743.214844	161.083725
2751.989947	17469.674667	742.012695	176.231934
2751.989947	17469.674667	740.810547	86.992661
2751.989947	17469.674667	739.608398	199.441208
2751.989947	17469.674667	738.406250	279.356506
2751.989947	17469.674667	737.203125	340.660675
2751.989947	17469.674667	736.000000	457.505493
2751.989947	17469.674667	734.795898	590.476135
2751.989947	17469.674667	733.592773	721.040344
2751.989947	17469.674667	732.388672	779.735046
2751.989947	17469.674667	731.184570	787.440613
2751.989947	17469.674667	729.979492	679.385254
2751.989947	17469.674667	728.775391	571.340088
2751.989947	17469.674667	727.570313	537.330750
2751.989947	17469.674667	726.365234	320.577484
2751.989947	17469.674667	725.160156	240.313034
2751.989947	17469.674667	723.954102	340.377686
2751.989947	17469.674667	722.748047	248.511566
2751.989947	17469.674667	721.541992	66.519043
2751.989947	17469.674667	720.334961	104.063675
2751.989947	17469.674667	719.128906	7.577811
2751.989947	17469.674667	717.921875	45.048943
2751.989947	17469.674667	716.714844	-19.129366
2751.989947	17469.674667	715.506836	228.340134
2751.989947	17469.674667	714.298828	94.835960
2751.989947	17469.674667	713.090820	-40.954140
2751.989947	17469.674667	711.882813	28.613184
2751.989947	17469.674667	710.674805	-104.867065
2751.989947	17469.674667	709.465820	-46.916073
2751.989947	17469.674667	708.256836	22.506441
2751.989947	17469.674667	707.047852	-37.224701
2751.989947	17469.674667	705.837891	-18.604870
2751.989947	17469.674667	704.627930	-89.890549
2751.989947	17469.674667	703.417969	27.728651
2751.989947	17469.674667	702.208008	-9.051620
2751.989947	17469.674667	700.998047	156.796814
2751.989947	17469.674667	699.787109	-114.893852
2751.989947	17469.674667	698.576172	-124.094795
2751.989947	17469.674667	697.364258	-133.324921
2751.989947	17469.674667	696.153320	-165.586823
2751.989947	17469.674667	694.941406	-41.443111
2751.989947	17469.674667	693.729492	-163.467850
2751.989947	17469.674667	692.516602	-55.533550
2751.989947	17469.674667	691.304688	-39.626446
2751.989947	17469.674667	690.091797	86.567642
2751.989947	17469.674667	688.878906	-120.521332
2751.989947	17469.674667	687.665039	-8.205849
2751.989947	17469.674667	686.451172	-42.971424
2751.989947	17469.674667	685.237305	2.628680
2751.989947	17469.674667	684.023438	43.591503
2751.989947	17469.674667	682.809570	52.374050
2751.989947	17469.674667	681.594727	-65.102829
2751.989947	17469.674667	680.379883	-28.818636
2751.989947	17469.674667	679.165039	-10.927194
2751.989947	17469.674667	677.949219	-98.575050
2751.989947	17469.674667	676.733398	61.446819
2751.989947	17469.674667	675.517578	51.723896
2751.989947	17469.674667	674.301758	80.949562
2751.989947	17469.674667	673.084961	-9.028631
2751.989947	17469.674667	671.869141	98.054268
2751.989947	17469.674667	670.651367	69.914146
2751.989947	17469.674667	669.434570	247.888443
2751.989947	17469.674667	668.216797	141.837708
2751.989947	17469.674667	667.000000	67.864929
2751.989947	17469.674667	665.781250	25.941710
2751.989947	17469.674667	664.563477	167.083908
2751.989947	17469.674667	663.344727	74.790176
2751.989947	17469.674667	662.125977	208.962692
2751.989947	17469.674667	660.907227	96.084450
2751.989947	17469.674667	659.688477	58.687805
2751.989947	17469.674667	658.468750	231.588486
2751.989947	17469.674667	657.249023	185.004166
2751.989947	17469.674667	656.029297	200.118088
2751.989947	17469.674667	654.808594	53.015514
2751.989947	17469.674667	653.587891	193.738373
2751.989947	17469.674667	652.367188	28.406448
2751.989947	17469.674667	651.146484	70.883652
2751.989947	17469.674667	649.924805	99.633659
2751.989947	17469.674667	648.704102	126.082619
2751.989947	17469.674667	647.482422	262.021484
2751.989947	17469.674667	646.259766	199.439178
2751.989947	17469.674667	645.037109	275.989563
2751.989947	17469.674667	643.815430	233.938797
2751.989947	17469.674667	642.591797	444.928070
2751.989947	17469.674667	641.369141	320.795074
2751.989947	17469.674667	640.145508	244.556824
2751.989947	17469.674667	638.921875	104.557678
2751.989947	17469.674667	637.698242	37.498989
2751.989947	17469.674667	636.474609	129.868271
2751.989947	17469.674667	635.250000	30.949020
2751.989947	17469.674667	634.025391	86.853172
2751.989947	17469.674667	632.800781	106.319717
2751.989947	17469.674667	631.575195	-38.044098
2751.989947	17469.674667	630.349609	26.932261
2751.989947	17469.674667	629.124023	16.830553
2751.989947	17469.674667	627.898438	-50.111198
2751.989947	17469.674667	626.671875	39.834400
2751.989947	17469.674667	625.445313	175.201645
2751.989947	17469.674667	624.218750	110.546936
2751.989947	17469.674667	622.992188	20.932987
2751.989947	17469.674667	621.764648	83.542793
2751.989947	17469.674667	620.537109	57.565929
2751.989947	17469.674667	619.309570	45.229183
2751.989947	17469.674667	618.081055	125.969963
2751.989947	17469.674667	616.852539	84.133102
2751.989947	17469.674667	615.624023	76.357018
2751.989947	17469.674667	614.395508	34.566265
2751.989947	17469.674667	613.166992	56.308445
2751.989947	17469.674667	611.937500	102.992210
2751.989947	17469.674667	610.708008	88.456474
2751.989947	17469.674667	609.477539	51.270561
2751.989947	17469.674667	608.248047	75.301445
2751.989947	17469.674667	607.017578	24.567402
2751.989947	17469.674667	605.787109	121.104095
2751.989947	17469.674667	604.555664	59.085369
2751.989947	17469.674667	603.325195	60.508953
2751.989947	17469.674667	602.093750	5.353683
2751.989947	17469.674667	600.861328	-45.237591
2751.989947	17469.674667	599.629883	-46.006016
2751.989947	17469.674667	598.397461	-46.757820
2751.989947	17469.674667	597.165039	20.363325
2751.989947	17469.674667	595.932617	6.070033
2751.989947	17469.674667	594.699219	-191.324570
2751.989947	17469.674667	593.465820	-189.704453
2751.989947	17469.674667	592.232422	-199.361404
2751.989947	17469.674667	590.999023	-186.397766
2751.989947	17469.674667	589.764648	-207.301636
2751.989947	17469.674667	588.530273	-65.566917
2751.989947	17469.674667	587.295898	-124.822357
2751.989947	17469.674667	586.061523	37.202732
2751.989947	17469.674667	584.826172	-78.423523
2751.989947	17469.674667	583.590820	-146.587250
2751.989947	17469.674667	582.355469	-117.685738
2751.989947	17469.674667	581.119141	39.794003
2751.989947	17469.674667	579.882813	48.403259
2751.989947	17469.674667	578.646484	41.257393
2751.989947	17469.674667	577.410156	203.200287
2751.989947	17469.674667	576.172852	157.772339
2751.989947	17469.674667	574.935547	299.403625
2751.989947	17469.674667	573.698242	488.312469
2751.989947	17469.674667	572.460938	634.383301
2751.989947	17469.674667	571.222656	809.694092
2751.989947	17469.674667	569.984375	883.660706
2751.989947	17469.674667	568.746094	806.832520
2751.989947	17469.674667	567.506836	806.578552
2751.989947	17469.674667	566.267578	491.395142
2751.989947	17469.674667	565.028320	432.799347
2751.989947	17469.674667	563.789063	437.232056
2751.989947	17469.674667	562.548828	452.939026
2751.989947	17469.674667	561.309570	293.349213
2751.989947	17469.674667	560.068359	383.317017
2751.989947	17469.674667	558.828125	286.797516
2751.989947	17469.674667	557.586914	98.254433
2751.989947	17469.674667	556.345703	172.603027
2751.989947	17469.674667	555.104492	-44.945374
2751.989947	17469.674667	553.863281	-24.395748
2751.989947	17469.674667	552.621094	-17.282532
2751.989947	17469.674667	551.378906	-48.279015
2751.989947	17469.674667	550.136719	-81.463966
2751.989947	17469.674667	548.893555	-76.462578
2751.989947	17469.674667	547.650391	45.190857
2751.989947	17469.674667	546.407227	43.522015
2751.989947	17469.674667	545.164063	138.285065
2751.989947	17469.674667	543.919922	4.456441
2751.989947	17469.674667	542.675781	-19.480772
2751.989947	17469.674667	541.431641	-68.005379
2751.989947	17469.674667	540.186523	-132.144302
2751.989947	17469.674667	538.941406	16.511152
2751.989947	17469.674667	537.696289	53.212105
2751.989947	17469.674667	536.451172	80.988953
2751.989947	17469.674667	535.205078	14.811893
2751.989947	17469.674667	533.959961	107.555786
2751.989947	17469.674667	532.712891	39.253178
2751.989947	17469.674667	531.466797	96.259796
2751.989947	17469.674667	530.219727	59.380783
2751.989947	17469.674667	528.972656	-53.439003
2751.989947	17469.674667	527.725586	-32.073132
2751.989947	17469.674667	526.478516	-126.859550
2751.989947	17469.674667	525.230469	-76.357254
2751.989947	17469.674667	523.982422	-124.102585
2751.989947	17469.674667	522.734375	2.387726
2751.989947	17469.674667	521.485352	-172.516083
2751.989947	17469.674667	520.236328	-57.141068
2751.989947	17469.674667	518.987305	-71.198868
2751.989947	17469.674667	517.737305	-87.438347
2751.989947	17469.674667	516.488281	36.899242
2751.989947	17469.674667	515.238281	150.076141
2751.989947	17469.674667	513.988281	162.915863
2751.989947	17469.674667	512.737305	291.706665
2751.989947	17469.674667	511.486328	161.962357
2751.989947	17469.674667	510.235352	32.316814
2751.989947	17469.674667	508.984375	63.162178
2751.989947	17469.674667	507.732422	11.629011
2751.989947	17469.674667	506.480469	-193.485443
2751.989947	17469.674667	505.228516	42.326111
2751.989947	17469.674667	503.976563	22.113396
2751.989947	17469.674667	502.723633	28.652008
2751.989947	17469.674667	501.470703	48.575363
2751.989947	17469.674667	500.217773	204.212875
2751.989947	17469.674667	498.963867	244.180481
2751.989947	17469.674667	497.709961	377.549866
2751.989947	17469.674667	496.456055	284.162567
2751.989947	17469.674667	495.202148	35.282444
2751.989947	17469.674667	493.947266	50.954109
2751.989947	17469.674667	492.692383	126.632797
2751.989947	17469.674667	491.437500	-70.868904
2751.989947	17469.674667	490.181641	9.309026
2751.989947	17469.674667	488.926758	-19.296465
2751.989947	17469.674667	487.670898	63.117569
2751.989947	17469.674667	486.414063	-40.876591
2751.989947	17469.674667	485.158203	-60.491264
2751.989947	17469.674667	483.901367	157.268417
2751.989947	17469.674667	482.644531	-21.996807
2751.989947	17469.674667	481.386719	153.585190
2751.989947	17469.674667	480.128906	233.798630
2751.989947	17469.674667	478.871094	92.379570
2751.989947	17469.674667	477.613281	-122.076118
2751.989947	17469.674667	476.355469	20.235430
2751.989947	17469.674667	475.096680	67.269241
2751.989947	17469.674667	473.837891	85.513840
2751.989947	17469.674667	472.578125	77.201065
2751.989947	17469.674667	471.319336	-10.773812
2751.989947	17469.674667	470.059570	-7.970651
2751.989947	17469.674667	468.799805	-49.405041
2751.989947	17469.674667	467.539063	-53.209518
2751.989947	17469.674667	466.278320	31.453251
2751.989947	17469.674667	465.017578	-142.595154
2751.989947	17469.674667	463.756836	-71.201675
2751.989947	17469.674667	462.495117	-154.535110
2751.989947	17469.674667	461.233398	-72.117676
2751.989947	17469.674667	459.971680	-93.561081
2751.989947	17469.674667	458.709961	99.232437
2751.989947	17469.674667	457.447266	0.471815
2751.989947	17469.674667	456.184570	-47.478115
2751.989947	17469.674667	454.921875	25.976851
2751.989947	17469.674667	453.658203	-8.736215
2751.989947	17469.674667	452.394531	53.625336
2751.989947	17469.674667	451.130859	67.419746
2751.989947	17469.674667	449.867188	262.019867
2751.989947	17469.674667	448.602539	207.380402
2751.989947	17469.674667	447.337891	214.463120
2751.989947	17469.674667	446.073242	236.946411
2751.989947	17469.674667	444.807617	180.074341
2751.989947	17469.674667	443.542969	129.807388
2751.989947	17469.674667	442.276367	134.590714
2751.989947	17469.674667	441.010742	119.522179
2751.989947	17469.674667	439.744141	190.279480
2751.989947	17469.674667	438.478516	128.912460
2751.989947	17469.674667	437.210938	87.335045
2751.989947	17469.674667	435.944336	109.532013
2751.989947	17469.674667	434.676758	-15.692900
2751.989947	17469.674667	433.409180	50.403149
2751.989947	17469.674667	432.141602	24.080170
2751.989947	17469.674667	430.873047	105.419846
2751.989947	17469.674667	429.604492	195.457993
2751.989947	17469.674667	428.335938	197.512589
2751.989947	17469.674667	427.067383	96.261490
2751.989947	17469.674667	425.797852	137.739670
2751.989947	17469.674667	424.528320	269.154816
2751.989947	17469.674667	423.258789	231.409775
2751.989947	17469.674667	421.988281	272.616394
2751.989947	17469.674667	420.717773	59.193367
2751.989947	17469.674667	419.447266	212.144989
2751.989947	17469.674667	418.175781	97.361618
2751.989947	17469.674667	416.905273	127.269562
2751.989947	17469.674667	415.633789	97.879532
2751.989947	17469.674667	414.362305	53.065460
2751.989947	17469.674667	413.089844	12.556180
2751.989947	17469.674667	411.817383	162.576767
2751.989947	17469.674667	410.544922	3.573200
2751.989947	17469.674667	409.272461	118.280991
2751.989947	17469.674667	407.999023	103.646805
2751.989947	17469.674667	406.725586	95.472084
2751.989947	17469.674667	405.452148	100.316010
2751.989947	17469.674667	404.177734	231.944717
2751.989947	17469.674667	402.903320	-12.876288
2751.989947	17469.674667	401.628906	155.650375
2751.989947	17469.674667	400.354492	-28.079313
2751.989947	17469.674667	399.079102	205.696442
2751.989947	17469.674667	397.803711	104.818611
2751.989947	17469.674667	396.528320	-94.492630
2751.989947	17469.674667	395.251953	3.263375
2751.989947	17469.674667	393.976563	83.356461
2751.989947	17469.674667	392.700195	51.885540
2751.989947	17469.674667	391.422852	70.485893
2751.989947	17469.674667	390.145508	71.456116
2751.989947	17469.674667	388.869141	63.535683
2751.989947	17469.674667	387.590820	96.902122
2751.989947	17469.674667	386.313477	298.057831
2751.989947	17469.674667	385.035156	152.174438
2751.989947	17469.674667	383.756836	230.766922
2751.989947	17469.674667	382.478516	128.202332
2751.989947	17469.674667	381.199219	167.162994
2751.989947	17469.674667	379.919922	-9.810308
2751.989947	17469.674667	378.640625	48.389225
2751.989947	17469.674667	377.360352	213.090454
2751.989947	17469.674667	376.080078	11.674448
2751.989947	17469.674667	374.799805	16.974129
2751.989947	17469.674667	373.519531	-130.305511
2751.989947	17469.674667	372.238281	-101.462631
2751.989947	17469.674667	370.957031	22.885946
2751.989947	17469.674667	369.675781	-235.887222
2751.989947	17469.674667	368.394531	35.882881
2751.989947	17469.674667	367.112305	-62.333439
2751.989947	17469.674667	365.830078	-2.044328
2751.989947	17469.674667	364.546875	79.713371
2751.989947	17469.674667	363.264648	30.830832
2751.989947	17469.674667	361.981445	20.826952
2751.989947	17469.674667	360.698242	40.992268
2751.989947	17469.674667	359.414063	-38.993362
2751.989947	17469.674667	358.129883	-132.220306
2751.989947	17469.674667	356.845703	-84.574463
2751.989947	17469.674667	355.561523	-8.994925
2751.989947	17469.674667	354.276367	96.659027
2751.989947	17469.674667	352.991211	-53.952988
2751.989947	17469.674667	351.706055	-89.827026
2751.989947	17469.674667	350.420898	64.846130
2751.989947	17469.674667	349.134766	-99.481850
2751.989947	17469.674667	347.848633	104.417076
2751.989947	17469.674667	346.561523	-84.243965
2751.989947	17469.674667	345.275391	-101.956787
2751.989947	17469.674667	343.988281	40.316299
2751.989947	17469.674667	342.700195	-1.822719
2751.989947	17469.674667	341.413086	18.559191
2751.989947	17469.674667	340.125000	-97.725403
2751.989947	17469.674667	338.836914	-77.924934
2751.989947	17469.674667	337.548828	-103.861229
2751.989947	17469.674667	336.259766	-50.063351
2751.989947	17469.674667	334.970703	-223.652802
2751.989947	17469.674667	333.681641	-62.350990
2751.989947	17469.674667	332.391602	-46.259087
2751.989947	17469.674667	331.101563	8.420388
2751.989947	17469.674667	329.811523	51.965923
2751.989947	17469.674667	328.521484	80.063858
2751.989947	17469.674667	327.230469	43.037899
2751.989947	17469.674667	325.939453	68.334915
2751.989947	17469.674667	324.648438	171.024002
2751.989947	17469.674667	323.356445	-59.030380
2751.989947	17469.674667	322.064453	-138.250809
2751.989947	17469.674667	320.772461	45.442997
2751.989947	17469.674667	319.480469	60.508476
2751.989947	17469.674667	318.187500	107.585709
2751.989947	17469.674667	316.894531	9.881634
2751.989947	17469.674667	315.601563	64.943085
2751.989947	17469.674667	314.307617	63.623386
2751.989947	17469.674667	313.013672	-149.149521
2751.989947	17469.674667	311.719727	-67.040138
2751.989947	17469.674667	310.425781	31.950825
2751.989947	17469.674667	309.130859	53.062347
2751.989947	17469.674667	307.835938	32.956074
2751.989947	17469.674667	306.541016	77.116333
2751.989947	17469.674667	305.245117	-66.259872
2751.989947	17469.674667	303.949219	-50.687241
2751.989947	17469.674667	302.653320	168.897903
2751.989947	17469.674667	301.356445	-29.078838
2751.989947	17469.674667	300.060547	136.067871
2751.989947	17469.674667	298.763672	234.204742
