#X		#Y		#Wave		#Intensity
2738.919840	17389.693333	2000.043945	-50.163780
2738.919840	17389.693333	1999.080078	-133.595032
2738.919840	17389.693333	1998.116211	-89.651779
2738.919840	17389.693333	1997.151367	28.219398
2738.919840	17389.693333	1996.186523	-17.881413
2738.919840	17389.693333	1995.222656	-9.864435
2738.919840	17389.693333	1994.256836	148.874161
2738.919840	17389.693333	1993.291992	-17.220377
2738.919840	17389.693333	1992.327148	108.541710
2738.919840	17389.693333	1991.361328	92.820709
2738.919840	17389.693333	1990.395508	56.970261
2738.919840	17389.693333	1989.429688	50.500565
2738.919840	17389.693333	1988.463867	26.398172
2738.919840	17389.693333	1987.497070	-57.360847
2738.919840	17389.693333	1986.531250	73.767532
2738.919840	17389.693333	1985.564453	105.659065
2738.919840	17389.693333	1984.597656	70.510513
2738.919840	17389.693333	1983.630859	245.201523
2738.919840	17389.693333	1982.664063	273.760468
2738.919840	17389.693333	1981.696289	153.812027
2738.919840	17389.693333	1980.728516	60.837063
2738.919840	17389.693333	1979.761719	81.269882
2738.919840	17389.693333	1978.792969	-24.466459
2738.919840	17389.693333	1977.825195	10.343174
2738.919840	17389.693333	1976.857422	2.961251
2738.919840	17389.693333	1975.888672	54.613560
2738.919840	17389.693333	1974.919922	46.824833
2738.919840	17389.693333	1973.951172	-25.298008
2738.919840	17389.693333	1972.982422	33.155495
2738.919840	17389.693333	1972.013672	153.065369
2738.919840	17389.693333	1971.043945	206.186432
2738.919840	17389.693333	1970.075195	113.667854
2738.919840	17389.693333	1969.105469	60.465107
2738.919840	17389.693333	1968.135742	194.424454
2738.919840	17389.693333	1967.165039	20.198408
2738.919840	17389.693333	1966.195313	193.245392
2738.919840	17389.693333	1965.224609	191.221741
2738.919840	17389.693333	1964.253906	46.241295
2738.919840	17389.693333	1963.283203	211.417633
2738.919840	17389.693333	1962.312500	71.170769
2738.919840	17389.693333	1961.341797	115.453354
2738.919840	17389.693333	1960.370117	-22.480419
2738.919840	17389.693333	1959.399414	-52.213875
2738.919840	17389.693333	1958.427734	-30.376017
2738.919840	17389.693333	1957.455078	-16.016016
2738.919840	17389.693333	1956.483398	-16.503613
2738.919840	17389.693333	1955.511719	2.594241
2738.919840	17389.693333	1954.539063	164.169601
2738.919840	17389.693333	1953.566406	242.054367
2738.919840	17389.693333	1952.593750	103.616974
2738.919840	17389.693333	1951.621094	115.018761
2738.919840	17389.693333	1950.647461	121.442055
2738.919840	17389.693333	1949.674805	103.246788
2738.919840	17389.693333	1948.701172	23.622496
2738.919840	17389.693333	1947.727539	42.167862
2738.919840	17389.693333	1946.753906	146.560730
2738.919840	17389.693333	1945.780273	145.353317
2738.919840	17389.693333	1944.805664	-15.367723
2738.919840	17389.693333	1943.831055	-124.554207
2738.919840	17389.693333	1942.856445	-71.869545
2738.919840	17389.693333	1941.881836	-51.113499
2738.919840	17389.693333	1940.907227	104.443878
2738.919840	17389.693333	1939.932617	31.960638
2738.919840	17389.693333	1938.957031	-13.561831
2738.919840	17389.693333	1937.981445	11.968205
2738.919840	17389.693333	1937.005859	27.670431
2738.919840	17389.693333	1936.030273	45.800179
2738.919840	17389.693333	1935.054688	5.136614
2738.919840	17389.693333	1934.078125	50.170334
2738.919840	17389.693333	1933.101563	-29.667933
2738.919840	17389.693333	1932.125000	105.895348
2738.919840	17389.693333	1931.148438	136.179504
2738.919840	17389.693333	1930.171875	4.975007
2738.919840	17389.693333	1929.194336	-35.676254
2738.919840	17389.693333	1928.217773	-0.497321
2738.919840	17389.693333	1927.240234	32.224525
2738.919840	17389.693333	1926.262695	-57.300259
2738.919840	17389.693333	1925.284180	-56.348907
2738.919840	17389.693333	1924.306641	-84.718056
2738.919840	17389.693333	1923.328125	192.353592
2738.919840	17389.693333	1922.350586	-26.584114
2738.919840	17389.693333	1921.372070	64.763214
2738.919840	17389.693333	1920.392578	126.782455
2738.919840	17389.693333	1919.414063	127.751740
2738.919840	17389.693333	1918.434570	18.883247
2738.919840	17389.693333	1917.456055	-99.693024
2738.919840	17389.693333	1916.476563	-164.527161
2738.919840	17389.693333	1915.497070	65.887314
2738.919840	17389.693333	1914.516602	20.591850
2738.919840	17389.693333	1913.537109	114.343513
2738.919840	17389.693333	1912.556641	-113.787788
2738.919840	17389.693333	1911.576172	38.499031
2738.919840	17389.693333	1910.595703	-18.874659
2738.919840	17389.693333	1909.615234	-64.023186
2738.919840	17389.693333	1908.633789	20.001421
2738.919840	17389.693333	1907.653320	60.164627
2738.919840	17389.693333	1906.671875	-48.241604
2738.919840	17389.693333	1905.690430	106.412476
2738.919840	17389.693333	1904.708984	51.641666
2738.919840	17389.693333	1903.727539	-61.510963
2738.919840	17389.693333	1902.745117	78.516617
2738.919840	17389.693333	1901.762695	6.808953
2738.919840	17389.693333	1900.780273	-74.583214
2738.919840	17389.693333	1899.797852	19.212097
2738.919840	17389.693333	1898.815430	-52.383865
2738.919840	17389.693333	1897.832031	126.516495
2738.919840	17389.693333	1896.849609	86.571030
2738.919840	17389.693333	1895.866211	56.382668
2738.919840	17389.693333	1894.882813	26.224476
2738.919840	17389.693333	1893.898438	54.410225
2738.919840	17389.693333	1892.915039	41.306442
2738.919840	17389.693333	1891.930664	154.523865
2738.919840	17389.693333	1890.947266	17.594887
2738.919840	17389.693333	1889.962891	57.972042
2738.919840	17389.693333	1888.977539	-149.250412
2738.919840	17389.693333	1887.993164	-31.160418
2738.919840	17389.693333	1887.007813	-44.132580
2738.919840	17389.693333	1886.023438	-10.989338
2738.919840	17389.693333	1885.038086	63.391762
2738.919840	17389.693333	1884.051758	125.633125
2738.919840	17389.693333	1883.066406	183.014191
2738.919840	17389.693333	1882.081055	-99.013840
2738.919840	17389.693333	1881.094727	-19.774134
2738.919840	17389.693333	1880.108398	59.446541
2738.919840	17389.693333	1879.122070	182.259659
2738.919840	17389.693333	1878.135742	36.141922
2738.919840	17389.693333	1877.148438	-25.142042
2738.919840	17389.693333	1876.162109	160.602417
2738.919840	17389.693333	1875.174805	-9.618030
2738.919840	17389.693333	1874.187500	120.390617
2738.919840	17389.693333	1873.199219	54.319683
2738.919840	17389.693333	1872.211914	2.794830
2738.919840	17389.693333	1871.223633	35.967224
2738.919840	17389.693333	1870.236328	168.300369
2738.919840	17389.693333	1869.248047	-21.060461
2738.919840	17389.693333	1868.258789	38.696178
2738.919840	17389.693333	1867.270508	-78.047813
2738.919840	17389.693333	1866.282227	153.300140
2738.919840	17389.693333	1865.292969	51.071373
2738.919840	17389.693333	1864.303711	-48.707821
2738.919840	17389.693333	1863.314453	49.627930
2738.919840	17389.693333	1862.324219	-9.068634
2738.919840	17389.693333	1861.334961	-89.484978
2738.919840	17389.693333	1860.344727	8.777401
2738.919840	17389.693333	1859.354492	24.921034
2738.919840	17389.693333	1858.364258	62.767479
2738.919840	17389.693333	1857.374023	-32.126358
2738.919840	17389.693333	1856.383789	-42.561497
2738.919840	17389.693333	1855.392578	55.532902
2738.919840	17389.693333	1854.401367	54.698750
2738.919840	17389.693333	1853.410156	36.968498
2738.919840	17389.693333	1852.418945	-41.041428
2738.919840	17389.693333	1851.426758	47.262173
2738.919840	17389.693333	1850.435547	171.656891
2738.919840	17389.693333	1849.443359	69.505638
2738.919840	17389.693333	1848.451172	44.451958
2738.919840	17389.693333	1847.458984	89.225525
2738.919840	17389.693333	1846.466797	15.964712
2738.919840	17389.693333	1845.473633	34.188324
2738.919840	17389.693333	1844.480469	33.118595
2738.919840	17389.693333	1843.487305	10.358734
2738.919840	17389.693333	1842.494141	79.008034
2738.919840	17389.693333	1841.500977	68.209747
2738.919840	17389.693333	1840.506836	-43.639565
2738.919840	17389.693333	1839.513672	12.852038
2738.919840	17389.693333	1838.519531	21.197197
2738.919840	17389.693333	1837.525391	31.904488
2738.919840	17389.693333	1836.530273	-36.746376
2738.919840	17389.693333	1835.536133	5.124163
2738.919840	17389.693333	1834.541016	70.960556
2738.919840	17389.693333	1833.545898	2.211986
2738.919840	17389.693333	1832.550781	-90.573029
2738.919840	17389.693333	1831.555664	184.009018
2738.919840	17389.693333	1830.560547	93.530121
2738.919840	17389.693333	1829.564453	101.446449
2738.919840	17389.693333	1828.568359	56.512573
2738.919840	17389.693333	1827.572266	102.719444
2738.919840	17389.693333	1826.576172	76.888069
2738.919840	17389.693333	1825.580078	262.075317
2738.919840	17389.693333	1824.583008	5.903618
2738.919840	17389.693333	1823.585938	150.162521
2738.919840	17389.693333	1822.588867	-89.227814
2738.919840	17389.693333	1821.591797	-88.922897
2738.919840	17389.693333	1820.594727	69.469116
2738.919840	17389.693333	1819.596680	-40.584354
2738.919840	17389.693333	1818.599609	2.639363
2738.919840	17389.693333	1817.601563	26.622124
2738.919840	17389.693333	1816.603516	-16.513071
2738.919840	17389.693333	1815.604492	40.844513
2738.919840	17389.693333	1814.606445	-2.412467
2738.919840	17389.693333	1813.607422	-31.366598
2738.919840	17389.693333	1812.608398	-14.920958
2738.919840	17389.693333	1811.609375	-27.259773
2738.919840	17389.693333	1810.610352	65.567009
2738.919840	17389.693333	1809.610352	-18.668106
2738.919840	17389.693333	1808.611328	207.855179
2738.919840	17389.693333	1807.611328	125.863060
2738.919840	17389.693333	1806.611328	-27.871744
2738.919840	17389.693333	1805.610352	50.144192
2738.919840	17389.693333	1804.610352	125.663460
2738.919840	17389.693333	1803.609375	43.429283
2738.919840	17389.693333	1802.608398	39.950069
2738.919840	17389.693333	1801.607422	-6.588174
2738.919840	17389.693333	1800.606445	-29.321692
2738.919840	17389.693333	1799.605469	-16.331049
2738.919840	17389.693333	1798.603516	216.101318
2738.919840	17389.693333	1797.601563	-12.102137
2738.919840	17389.693333	1796.599609	93.642113
2738.919840	17389.693333	1795.597656	-67.851913
2738.919840	17389.693333	1794.595703	-41.004059
2738.919840	17389.693333	1793.592773	-69.092232
2738.919840	17389.693333	1792.589844	-40.056786
2738.919840	17389.693333	1791.587891	7.942095
2738.919840	17389.693333	1790.583984	-34.718060
2738.919840	17389.693333	1789.581055	144.090378
2738.919840	17389.693333	1788.577148	79.793869
2738.919840	17389.693333	1787.574219	24.953781
2738.919840	17389.693333	1786.570313	31.935196
2738.919840	17389.693333	1785.566406	31.674484
2738.919840	17389.693333	1784.561523	-49.607437
2738.919840	17389.693333	1783.557617	-97.641838
2738.919840	17389.693333	1782.552734	92.140747
2738.919840	17389.693333	1781.547852	-20.330196
2738.919840	17389.693333	1780.542969	21.717115
2738.919840	17389.693333	1779.538086	-26.706272
2738.919840	17389.693333	1778.532227	-25.297405
2738.919840	17389.693333	1777.527344	-50.133949
2738.919840	17389.693333	1776.521484	119.787552
2738.919840	17389.693333	1775.515625	49.575504
2738.919840	17389.693333	1774.508789	-15.970413
2738.919840	17389.693333	1773.502930	-26.969469
2738.919840	17389.693333	1772.496094	90.146484
2738.919840	17389.693333	1771.489258	12.436026
2738.919840	17389.693333	1770.482422	41.458702
2738.919840	17389.693333	1769.475586	177.153473
2738.919840	17389.693333	1768.467773	-45.599934
2738.919840	17389.693333	1767.460938	35.276859
2738.919840	17389.693333	1766.453125	175.301056
2738.919840	17389.693333	1765.445313	-38.173122
2738.919840	17389.693333	1764.437500	118.184006
2738.919840	17389.693333	1763.428711	120.282982
2738.919840	17389.693333	1762.420898	67.763863
2738.919840	17389.693333	1761.412109	-79.637863
2738.919840	17389.693333	1760.403320	26.397486
2738.919840	17389.693333	1759.393555	-69.064629
2738.919840	17389.693333	1758.384766	119.586517
2738.919840	17389.693333	1757.375000	28.648108
2738.919840	17389.693333	1756.366211	119.918343
2738.919840	17389.693333	1755.356445	-28.021326
2738.919840	17389.693333	1754.345703	117.406685
2738.919840	17389.693333	1753.335938	94.686829
2738.919840	17389.693333	1752.325195	104.968803
2738.919840	17389.693333	1751.315430	-22.036373
2738.919840	17389.693333	1750.304688	167.739532
2738.919840	17389.693333	1749.292969	113.810234
2738.919840	17389.693333	1748.282227	161.430908
2738.919840	17389.693333	1747.270508	-15.601816
2738.919840	17389.693333	1746.259766	190.097137
2738.919840	17389.693333	1745.248047	41.239021
2738.919840	17389.693333	1744.235352	22.215572
2738.919840	17389.693333	1743.223633	137.691864
2738.919840	17389.693333	1742.211914	151.482605
2738.919840	17389.693333	1741.199219	75.440208
2738.919840	17389.693333	1740.186523	147.994827
2738.919840	17389.693333	1739.173828	406.815430
2738.919840	17389.693333	1738.160156	162.900192
2738.919840	17389.693333	1737.147461	121.820343
2738.919840	17389.693333	1736.133789	321.175507
2738.919840	17389.693333	1735.120117	284.550751
2738.919840	17389.693333	1734.106445	174.742157
2738.919840	17389.693333	1733.091797	361.823517
2738.919840	17389.693333	1732.078125	360.204254
2738.919840	17389.693333	1731.063477	214.738785
2738.919840	17389.693333	1730.048828	384.861481
2738.919840	17389.693333	1729.034180	279.248383
2738.919840	17389.693333	1728.019531	253.617477
2738.919840	17389.693333	1727.003906	362.061127
2738.919840	17389.693333	1725.988281	458.576660
2738.919840	17389.693333	1724.972656	423.150299
2738.919840	17389.693333	1723.957031	453.502014
2738.919840	17389.693333	1722.941406	431.971558
2738.919840	17389.693333	1721.924805	523.218140
2738.919840	17389.693333	1720.909180	515.559021
2738.919840	17389.693333	1719.892578	585.362610
2738.919840	17389.693333	1718.875977	452.868286
2738.919840	17389.693333	1717.858398	353.201324
2738.919840	17389.693333	1716.841797	448.497742
2738.919840	17389.693333	1715.824219	489.598267
2738.919840	17389.693333	1714.806641	716.127625
2738.919840	17389.693333	1713.789063	738.145874
2738.919840	17389.693333	1712.770508	781.162598
2738.919840	17389.693333	1711.752930	758.331482
2738.919840	17389.693333	1710.734375	733.038208
2738.919840	17389.693333	1709.715820	803.852966
2738.919840	17389.693333	1708.697266	1073.951660
2738.919840	17389.693333	1707.678711	900.499329
2738.919840	17389.693333	1706.659180	884.122253
2738.919840	17389.693333	1705.640625	806.688843
2738.919840	17389.693333	1704.621094	837.004150
2738.919840	17389.693333	1703.600586	921.096252
2738.919840	17389.693333	1702.581055	817.584351
2738.919840	17389.693333	1701.561523	885.043701
2738.919840	17389.693333	1700.541016	837.572205
2738.919840	17389.693333	1699.520508	841.539490
2738.919840	17389.693333	1698.500000	950.773499
2738.919840	17389.693333	1697.478516	886.598816
2738.919840	17389.693333	1696.458008	845.764771
2738.919840	17389.693333	1695.436523	910.143555
2738.919840	17389.693333	1694.415039	976.734741
2738.919840	17389.693333	1693.393555	1066.591919
2738.919840	17389.693333	1692.372070	1046.382446
2738.919840	17389.693333	1691.349609	1061.143799
2738.919840	17389.693333	1690.327148	954.221252
2738.919840	17389.693333	1689.304688	985.158691
2738.919840	17389.693333	1688.282227	1111.809570
2738.919840	17389.693333	1687.259766	1032.684448
2738.919840	17389.693333	1686.236328	923.107605
2738.919840	17389.693333	1685.213867	1100.795532
2738.919840	17389.693333	1684.190430	1194.232544
2738.919840	17389.693333	1683.166016	1131.087036
2738.919840	17389.693333	1682.142578	1226.629517
2738.919840	17389.693333	1681.119141	1261.359497
2738.919840	17389.693333	1680.094727	1344.973877
2738.919840	17389.693333	1679.070313	1323.475708
2738.919840	17389.693333	1678.045898	1287.901245
2738.919840	17389.693333	1677.020508	1399.165405
2738.919840	17389.693333	1675.996094	1230.502808
2738.919840	17389.693333	1674.970703	1399.843872
2738.919840	17389.693333	1673.945313	1517.755127
2738.919840	17389.693333	1672.919922	1320.930176
2738.919840	17389.693333	1671.893555	1475.907471
2738.919840	17389.693333	1670.868164	1383.827759
2738.919840	17389.693333	1669.841797	1296.345459
2738.919840	17389.693333	1668.815430	1378.804932
2738.919840	17389.693333	1667.789063	1288.869263
2738.919840	17389.693333	1666.761719	1350.175537
2738.919840	17389.693333	1665.735352	1397.432617
2738.919840	17389.693333	1664.708008	1297.990479
2738.919840	17389.693333	1663.680664	1375.314819
2738.919840	17389.693333	1662.653320	1203.661987
2738.919840	17389.693333	1661.625000	1371.505371
2738.919840	17389.693333	1660.597656	1325.326050
2738.919840	17389.693333	1659.569336	1379.035034
2738.919840	17389.693333	1658.541016	1476.811279
2738.919840	17389.693333	1657.512695	1644.191284
2738.919840	17389.693333	1656.483398	1685.969727
2738.919840	17389.693333	1655.455078	1623.157471
2738.919840	17389.693333	1654.425781	1838.966675
2738.919840	17389.693333	1653.396484	1664.554321
2738.919840	17389.693333	1652.366211	1912.630127
2738.919840	17389.693333	1651.336914	1900.615356
2738.919840	17389.693333	1650.306641	1858.361572
2738.919840	17389.693333	1649.276367	2001.672607
2738.919840	17389.693333	1648.246094	2281.728271
2738.919840	17389.693333	1647.215820	2283.317139
2738.919840	17389.693333	1646.185547	2449.481201
2738.919840	17389.693333	1645.154297	2481.049316
2738.919840	17389.693333	1644.123047	2598.312500
2738.919840	17389.693333	1643.091797	2636.688232
2738.919840	17389.693333	1642.060547	2927.544922
2738.919840	17389.693333	1641.028320	2782.723877
2738.919840	17389.693333	1639.997070	2837.108154
2738.919840	17389.693333	1638.964844	2842.781006
2738.919840	17389.693333	1637.931641	3052.122314
2738.919840	17389.693333	1636.899414	3043.773926
2738.919840	17389.693333	1635.867188	3296.897217
2738.919840	17389.693333	1634.833984	3478.137207
2738.919840	17389.693333	1633.800781	3395.545898
2738.919840	17389.693333	1632.767578	3634.440918
2738.919840	17389.693333	1631.734375	3799.208252
2738.919840	17389.693333	1630.700195	3926.866699
2738.919840	17389.693333	1629.666016	3968.914795
2738.919840	17389.693333	1628.631836	3904.603271
2738.919840	17389.693333	1627.597656	4179.951172
2738.919840	17389.693333	1626.563477	4298.068848
2738.919840	17389.693333	1625.528320	4205.906250
2738.919840	17389.693333	1624.493164	4423.200684
2738.919840	17389.693333	1623.458008	4781.224121
2738.919840	17389.693333	1622.422852	4875.926758
2738.919840	17389.693333	1621.387695	4875.942383
2738.919840	17389.693333	1620.351563	4698.240723
2738.919840	17389.693333	1619.315430	4802.050781
2738.919840	17389.693333	1618.279297	4912.721191
2738.919840	17389.693333	1617.243164	4938.002441
2738.919840	17389.693333	1616.207031	4751.133789
2738.919840	17389.693333	1615.169922	4635.768555
2738.919840	17389.693333	1614.132813	4914.558594
2738.919840	17389.693333	1613.095703	4778.442871
2738.919840	17389.693333	1612.058594	4566.340820
2738.919840	17389.693333	1611.020508	4533.965820
2738.919840	17389.693333	1609.983398	4499.310547
2738.919840	17389.693333	1608.945313	4542.934570
2738.919840	17389.693333	1607.907227	4542.795410
2738.919840	17389.693333	1606.868164	4418.346680
2738.919840	17389.693333	1605.830078	4201.913086
2738.919840	17389.693333	1604.791016	4323.761230
2738.919840	17389.693333	1603.751953	3996.999512
2738.919840	17389.693333	1602.712891	4238.437988
2738.919840	17389.693333	1601.673828	4141.770996
2738.919840	17389.693333	1600.633789	4307.215332
2738.919840	17389.693333	1599.594727	4185.301270
2738.919840	17389.693333	1598.554688	4244.976563
2738.919840	17389.693333	1597.513672	3907.130127
2738.919840	17389.693333	1596.473633	3953.074951
2738.919840	17389.693333	1595.433594	4003.609375
2738.919840	17389.693333	1594.392578	4152.861816
2738.919840	17389.693333	1593.351563	4201.055176
2738.919840	17389.693333	1592.310547	4251.542969
2738.919840	17389.693333	1591.268555	4008.259766
2738.919840	17389.693333	1590.227539	4198.770020
2738.919840	17389.693333	1589.185547	4430.503906
2738.919840	17389.693333	1588.143555	4334.185059
2738.919840	17389.693333	1587.100586	4208.101074
2738.919840	17389.693333	1586.058594	4267.819824
2738.919840	17389.693333	1585.015625	4222.082031
2738.919840	17389.693333	1583.972656	4316.190918
2738.919840	17389.693333	1582.929688	4126.166992
2738.919840	17389.693333	1581.886719	4069.122070
2738.919840	17389.693333	1580.843750	4085.427246
2738.919840	17389.693333	1579.799805	3973.504883
2738.919840	17389.693333	1578.755859	3960.113770
2738.919840	17389.693333	1577.711914	3999.416016
2738.919840	17389.693333	1576.666992	3784.683838
2738.919840	17389.693333	1575.623047	3872.138184
2738.919840	17389.693333	1574.578125	3957.296387
2738.919840	17389.693333	1573.533203	3973.845215
2738.919840	17389.693333	1572.488281	4173.383789
2738.919840	17389.693333	1571.443359	4464.348145
2738.919840	17389.693333	1570.397461	4485.483887
2738.919840	17389.693333	1569.351563	4422.096680
2738.919840	17389.693333	1568.305664	4477.609375
2738.919840	17389.693333	1567.259766	4478.322266
2738.919840	17389.693333	1566.213867	4611.571289
2738.919840	17389.693333	1565.166992	4772.212402
2738.919840	17389.693333	1564.120117	4661.135254
2738.919840	17389.693333	1563.073242	4913.131836
2738.919840	17389.693333	1562.026367	4836.423828
2738.919840	17389.693333	1560.978516	4848.787109
2738.919840	17389.693333	1559.930664	4738.007324
2738.919840	17389.693333	1558.883789	4652.441406
2738.919840	17389.693333	1557.834961	4630.799805
2738.919840	17389.693333	1556.787109	4527.163574
2738.919840	17389.693333	1555.739258	4539.900391
2738.919840	17389.693333	1554.690430	4497.983398
2738.919840	17389.693333	1553.641602	4305.752930
2738.919840	17389.693333	1552.592773	4070.380371
2738.919840	17389.693333	1551.542969	4138.120605
2738.919840	17389.693333	1550.494141	4299.299805
2738.919840	17389.693333	1549.444336	4501.463379
2738.919840	17389.693333	1548.394531	4642.156738
2738.919840	17389.693333	1547.344727	4855.708008
2738.919840	17389.693333	1546.293945	5408.316406
2738.919840	17389.693333	1545.244141	5260.034180
2738.919840	17389.693333	1544.193359	5810.233398
2738.919840	17389.693333	1543.142578	5778.072266
2738.919840	17389.693333	1542.090820	5875.604980
2738.919840	17389.693333	1541.040039	5736.763184
2738.919840	17389.693333	1539.988281	5516.222168
2738.919840	17389.693333	1538.936523	5289.040039
2738.919840	17389.693333	1537.884766	5173.368652
2738.919840	17389.693333	1536.833008	4844.300781
2738.919840	17389.693333	1535.780273	4551.780273
2738.919840	17389.693333	1534.727539	4457.022461
2738.919840	17389.693333	1533.674805	4269.315918
2738.919840	17389.693333	1532.622070	4231.589355
2738.919840	17389.693333	1531.569336	4348.293945
2738.919840	17389.693333	1530.515625	4394.699707
2738.919840	17389.693333	1529.461914	4325.494629
2738.919840	17389.693333	1528.408203	4059.096436
2738.919840	17389.693333	1527.354492	4613.778809
2738.919840	17389.693333	1526.299805	4615.146973
2738.919840	17389.693333	1525.246094	4557.696777
2738.919840	17389.693333	1524.191406	4695.259766
2738.919840	17389.693333	1523.136719	4420.498535
2738.919840	17389.693333	1522.081055	4204.840332
2738.919840	17389.693333	1521.026367	3930.501465
2738.919840	17389.693333	1519.970703	3891.873047
2738.919840	17389.693333	1518.915039	3273.783203
2738.919840	17389.693333	1517.859375	3217.415771
2738.919840	17389.693333	1516.802734	2688.179199
2738.919840	17389.693333	1515.747070	2645.754150
2738.919840	17389.693333	1514.690430	2069.563965
2738.919840	17389.693333	1513.633789	1957.383423
2738.919840	17389.693333	1512.577148	1691.595093
2738.919840	17389.693333	1511.519531	1559.411377
2738.919840	17389.693333	1510.461914	1576.588745
2738.919840	17389.693333	1509.405273	1311.393433
2738.919840	17389.693333	1508.346680	1130.005615
2738.919840	17389.693333	1507.289063	1106.960815
2738.919840	17389.693333	1506.231445	1106.635254
2738.919840	17389.693333	1505.172852	1059.001587
2738.919840	17389.693333	1504.114258	909.914612
2738.919840	17389.693333	1503.055664	799.388611
2738.919840	17389.693333	1501.996094	837.975830
2738.919840	17389.693333	1500.937500	795.455444
2738.919840	17389.693333	1499.877930	543.268921
2738.919840	17389.693333	1498.818359	453.708496
2738.919840	17389.693333	1497.757813	319.205688
2738.919840	17389.693333	1496.698242	279.591522
2738.919840	17389.693333	1495.637695	190.525986
2738.919840	17389.693333	1494.577148	218.823395
2738.919840	17389.693333	1493.516602	229.217896
2738.919840	17389.693333	1492.456055	379.420166
2738.919840	17389.693333	1491.394531	119.757896
2738.919840	17389.693333	1490.333008	114.804520
2738.919840	17389.693333	1489.271484	-4.834743
2738.919840	17389.693333	1488.209961	141.335907
2738.919840	17389.693333	1487.148438	274.084747
2738.919840	17389.693333	1486.085938	148.147232
2738.919840	17389.693333	1485.023438	143.885193
2738.919840	17389.693333	1483.960938	182.502411
2738.919840	17389.693333	1482.898438	531.581543
2738.919840	17389.693333	1481.834961	471.459106
2738.919840	17389.693333	1480.772461	661.026550
2738.919840	17389.693333	1479.708984	830.421265
2738.919840	17389.693333	1478.644531	653.882507
2738.919840	17389.693333	1477.581055	1036.888794
2738.919840	17389.693333	1476.517578	1026.894897
2738.919840	17389.693333	1475.453125	1120.276367
2738.919840	17389.693333	1474.388672	1137.453979
2738.919840	17389.693333	1473.323242	1130.043701
2738.919840	17389.693333	1472.258789	1416.662964
2738.919840	17389.693333	1471.193359	1436.330444
2738.919840	17389.693333	1470.127930	1157.991577
2738.919840	17389.693333	1469.062500	1242.829712
2738.919840	17389.693333	1467.997070	982.803101
2738.919840	17389.693333	1466.930664	949.427917
2738.919840	17389.693333	1465.865234	981.236877
2738.919840	17389.693333	1464.798828	600.841064
2738.919840	17389.693333	1463.731445	650.974548
2738.919840	17389.693333	1462.665039	436.902649
2738.919840	17389.693333	1461.597656	538.706909
2738.919840	17389.693333	1460.530273	528.485840
2738.919840	17389.693333	1459.462891	440.622620
2738.919840	17389.693333	1458.395508	17.740646
2738.919840	17389.693333	1457.327148	376.890381
2738.919840	17389.693333	1456.259766	483.389954
2738.919840	17389.693333	1455.191406	367.390900
2738.919840	17389.693333	1454.123047	108.780869
2738.919840	17389.693333	1453.053711	295.673370
2738.919840	17389.693333	1451.985352	118.003456
2738.919840	17389.693333	1450.916016	73.836884
2738.919840	17389.693333	1449.846680	154.271591
2738.919840	17389.693333	1448.776367	12.818111
2738.919840	17389.693333	1447.707031	-215.183487
2738.919840	17389.693333	1446.636719	-9.932910
2738.919840	17389.693333	1445.566406	-2.114124
2738.919840	17389.693333	1444.496094	18.809172
2738.919840	17389.693333	1443.425781	175.968002
2738.919840	17389.693333	1442.354492	-63.716118
2738.919840	17389.693333	1441.283203	64.445251
2738.919840	17389.693333	1440.211914	40.832100
2738.919840	17389.693333	1439.140625	6.367395
2738.919840	17389.693333	1438.069336	-64.414597
2738.919840	17389.693333	1436.997070	40.660301
2738.919840	17389.693333	1435.924805	93.976959
2738.919840	17389.693333	1434.852539	144.465118
2738.919840	17389.693333	1433.780273	220.844543
2738.919840	17389.693333	1432.707031	71.612236
2738.919840	17389.693333	1431.633789	246.727585
2738.919840	17389.693333	1430.560547	524.109558
2738.919840	17389.693333	1429.487305	511.149750
2738.919840	17389.693333	1428.413086	632.647461
2738.919840	17389.693333	1427.339844	774.251221
2738.919840	17389.693333	1426.265625	731.129089
2738.919840	17389.693333	1425.191406	808.584290
2738.919840	17389.693333	1424.116211	939.559143
2738.919840	17389.693333	1423.041992	723.311401
2738.919840	17389.693333	1421.966797	883.426270
2738.919840	17389.693333	1420.891602	793.872253
2738.919840	17389.693333	1419.816406	674.732239
2738.919840	17389.693333	1418.740234	767.768677
2738.919840	17389.693333	1417.665039	645.227905
2738.919840	17389.693333	1416.588867	470.435852
2738.919840	17389.693333	1415.512695	347.300629
2738.919840	17389.693333	1414.435547	379.994446
2738.919840	17389.693333	1413.359375	300.048462
2738.919840	17389.693333	1412.282227	402.916779
2738.919840	17389.693333	1411.205078	251.445297
2738.919840	17389.693333	1410.127930	309.811554
2738.919840	17389.693333	1409.049805	245.193283
2738.919840	17389.693333	1407.972656	76.757805
2738.919840	17389.693333	1406.894531	241.778000
2738.919840	17389.693333	1405.816406	68.001350
2738.919840	17389.693333	1404.737305	98.306366
2738.919840	17389.693333	1403.659180	338.491913
2738.919840	17389.693333	1402.580078	-82.126945
2738.919840	17389.693333	1401.500977	-78.084641
2738.919840	17389.693333	1400.421875	58.369461
2738.919840	17389.693333	1399.341797	161.596970
2738.919840	17389.693333	1398.262695	257.877625
2738.919840	17389.693333	1397.182617	141.180267
2738.919840	17389.693333	1396.102539	286.633728
2738.919840	17389.693333	1395.021484	214.189011
2738.919840	17389.693333	1393.941406	310.871735
2738.919840	17389.693333	1392.860352	495.336395
2738.919840	17389.693333	1391.779297	562.528564
2738.919840	17389.693333	1390.698242	700.336548
2738.919840	17389.693333	1389.616211	948.690430
2738.919840	17389.693333	1388.535156	1157.892700
2738.919840	17389.693333	1387.453125	1461.234009
2738.919840	17389.693333	1386.371094	1579.586914
2738.919840	17389.693333	1385.288086	1776.199463
2738.919840	17389.693333	1384.206055	2048.486328
2738.919840	17389.693333	1383.123047	2287.184326
2738.919840	17389.693333	1382.040039	2478.889160
2738.919840	17389.693333	1380.957031	2509.412842
2738.919840	17389.693333	1379.873047	2258.159180
2738.919840	17389.693333	1378.789063	2452.446289
2738.919840	17389.693333	1377.705078	2236.191162
2738.919840	17389.693333	1376.621094	2266.735352
2738.919840	17389.693333	1375.537109	1894.403198
2738.919840	17389.693333	1374.452148	1851.639526
2738.919840	17389.693333	1373.367188	1885.373535
2738.919840	17389.693333	1372.282227	1692.597900
2738.919840	17389.693333	1371.197266	1851.814819
2738.919840	17389.693333	1370.112305	1659.983643
2738.919840	17389.693333	1369.026367	1633.129761
2738.919840	17389.693333	1367.940430	1477.445435
2738.919840	17389.693333	1366.854492	1405.814697
2738.919840	17389.693333	1365.767578	1350.822998
2738.919840	17389.693333	1364.681641	1355.754517
2738.919840	17389.693333	1363.594727	1138.507568
2738.919840	17389.693333	1362.507813	1031.850586
2738.919840	17389.693333	1361.419922	1096.822632
2738.919840	17389.693333	1360.333008	1131.235474
2738.919840	17389.693333	1359.245117	919.583557
2738.919840	17389.693333	1358.157227	993.058105
2738.919840	17389.693333	1357.069336	980.845825
2738.919840	17389.693333	1355.981445	991.950684
2738.919840	17389.693333	1354.892578	943.942749
2738.919840	17389.693333	1353.803711	1082.532837
2738.919840	17389.693333	1352.714844	1058.085449
2738.919840	17389.693333	1351.625000	1160.075195
2738.919840	17389.693333	1350.536133	1261.021240
2738.919840	17389.693333	1349.446289	1326.308228
2738.919840	17389.693333	1348.356445	1249.411011
2738.919840	17389.693333	1347.266602	1408.802490
2738.919840	17389.693333	1346.175781	1425.280029
2738.919840	17389.693333	1345.085938	1501.096802
2738.919840	17389.693333	1343.995117	1672.954224
2738.919840	17389.693333	1342.903320	1877.362427
2738.919840	17389.693333	1341.812500	1949.424561
2738.919840	17389.693333	1340.720703	1888.084839
2738.919840	17389.693333	1339.629883	1930.953491
2738.919840	17389.693333	1338.538086	2116.246582
2738.919840	17389.693333	1337.445313	2158.450195
2738.919840	17389.693333	1336.353516	2174.967773
2738.919840	17389.693333	1335.260742	2180.546387
2738.919840	17389.693333	1334.167969	2052.042969
2738.919840	17389.693333	1333.075195	2197.974121
2738.919840	17389.693333	1331.981445	2152.093018
2738.919840	17389.693333	1330.888672	2083.303711
2738.919840	17389.693333	1329.794922	2014.178101
2738.919840	17389.693333	1328.701172	2143.375000
2738.919840	17389.693333	1327.606445	2150.851563
2738.919840	17389.693333	1326.512695	2310.861572
2738.919840	17389.693333	1325.417969	2368.938721
2738.919840	17389.693333	1324.323242	2330.129639
2738.919840	17389.693333	1323.227539	2356.967285
2738.919840	17389.693333	1322.132813	2468.573975
2738.919840	17389.693333	1321.037109	2444.197510
2738.919840	17389.693333	1319.941406	2275.723633
2738.919840	17389.693333	1318.845703	2181.707275
2738.919840	17389.693333	1317.750000	2014.606079
2738.919840	17389.693333	1316.653320	1971.968384
2738.919840	17389.693333	1315.556641	1849.301636
2738.919840	17389.693333	1314.459961	1886.352783
2738.919840	17389.693333	1313.363281	1711.820923
2738.919840	17389.693333	1312.265625	1830.987183
2738.919840	17389.693333	1311.167969	1918.149536
2738.919840	17389.693333	1310.070313	1818.160278
2738.919840	17389.693333	1308.972656	1824.715820
2738.919840	17389.693333	1307.874023	1844.091553
2738.919840	17389.693333	1306.776367	1798.267334
2738.919840	17389.693333	1305.677734	1927.171509
2738.919840	17389.693333	1304.579102	1982.210815
2738.919840	17389.693333	1303.479492	1938.535034
2738.919840	17389.693333	1302.380859	2062.302246
2738.919840	17389.693333	1301.281250	1851.492920
2738.919840	17389.693333	1300.181641	1757.212769
2738.919840	17389.693333	1299.081055	1968.713623
2738.919840	17389.693333	1297.981445	1736.151855
2738.919840	17389.693333	1296.880859	1759.609985
2738.919840	17389.693333	1295.780273	1617.049927
2738.919840	17389.693333	1294.679688	1630.648193
2738.919840	17389.693333	1293.578125	1517.921753
2738.919840	17389.693333	1292.476563	1526.541870
2738.919840	17389.693333	1291.375000	1655.764282
2738.919840	17389.693333	1290.273438	1594.759888
2738.919840	17389.693333	1289.171875	1758.983276
2738.919840	17389.693333	1288.069336	1462.002441
2738.919840	17389.693333	1286.966797	1605.220825
2738.919840	17389.693333	1285.864258	1546.193115
2738.919840	17389.693333	1284.761719	1739.708130
2738.919840	17389.693333	1283.658203	1654.087646
2738.919840	17389.693333	1282.554688	1798.598511
2738.919840	17389.693333	1281.451172	1823.455200
2738.919840	17389.693333	1280.347656	1535.259033
2738.919840	17389.693333	1279.244141	1579.182739
2738.919840	17389.693333	1278.139648	1451.818115
2738.919840	17389.693333	1277.035156	1453.894165
2738.919840	17389.693333	1275.930664	1402.031006
2738.919840	17389.693333	1274.825195	1281.382935
2738.919840	17389.693333	1273.720703	1140.864990
2738.919840	17389.693333	1272.615234	1078.315796
2738.919840	17389.693333	1271.508789	905.112183
2738.919840	17389.693333	1270.403320	766.295715
2738.919840	17389.693333	1269.297852	591.481018
2738.919840	17389.693333	1268.191406	481.844391
2738.919840	17389.693333	1267.084961	555.484497
2738.919840	17389.693333	1265.977539	450.765259
2738.919840	17389.693333	1264.871094	381.389832
2738.919840	17389.693333	1263.763672	542.504272
2738.919840	17389.693333	1262.656250	456.882843
2738.919840	17389.693333	1261.548828	520.311462
2738.919840	17389.693333	1260.440430	627.289978
2738.919840	17389.693333	1259.333008	668.592407
2738.919840	17389.693333	1258.224609	627.168884
2738.919840	17389.693333	1257.115234	814.587769
2738.919840	17389.693333	1256.006836	818.200745
2738.919840	17389.693333	1254.897461	999.002380
2738.919840	17389.693333	1253.788086	1243.889526
2738.919840	17389.693333	1252.678711	1337.365967
2738.919840	17389.693333	1251.569336	1585.554321
2738.919840	17389.693333	1250.458984	1536.021484
2738.919840	17389.693333	1249.349609	1775.014038
2738.919840	17389.693333	1248.239258	2015.430420
2738.919840	17389.693333	1247.127930	2295.186279
2738.919840	17389.693333	1246.017578	2598.280518
2738.919840	17389.693333	1244.906250	2742.567383
2738.919840	17389.693333	1243.794922	2902.903564
2738.919840	17389.693333	1242.683594	2941.438232
2738.919840	17389.693333	1241.571289	2932.117920
2738.919840	17389.693333	1240.459961	2868.164063
2738.919840	17389.693333	1239.347656	2821.976074
2738.919840	17389.693333	1238.234375	2572.371094
2738.919840	17389.693333	1237.122070	2579.931396
2738.919840	17389.693333	1236.008789	2300.072510
2738.919840	17389.693333	1234.896484	2096.647949
2738.919840	17389.693333	1233.782227	2033.709839
2738.919840	17389.693333	1232.668945	1803.230957
2738.919840	17389.693333	1231.555664	1733.064453
2738.919840	17389.693333	1230.441406	1502.372314
2738.919840	17389.693333	1229.327148	1521.912964
2738.919840	17389.693333	1228.211914	1494.883667
2738.919840	17389.693333	1227.097656	1424.253662
2738.919840	17389.693333	1225.982422	1475.180298
2738.919840	17389.693333	1224.867188	1368.140747
2738.919840	17389.693333	1223.751953	1236.875000
2738.919840	17389.693333	1222.635742	1133.697388
2738.919840	17389.693333	1221.520508	1228.894653
2738.919840	17389.693333	1220.404297	1136.140747
2738.919840	17389.693333	1219.287109	1189.117920
2738.919840	17389.693333	1218.170898	982.854248
2738.919840	17389.693333	1217.053711	1112.443359
2738.919840	17389.693333	1215.936523	1034.860718
2738.919840	17389.693333	1214.819336	1003.447754
2738.919840	17389.693333	1213.702148	1000.154541
2738.919840	17389.693333	1212.583984	1183.275024
2738.919840	17389.693333	1211.465820	1024.554077
2738.919840	17389.693333	1210.347656	1112.633911
2738.919840	17389.693333	1209.229492	1178.839844
2738.919840	17389.693333	1208.110352	1063.453735
2738.919840	17389.693333	1206.992188	1238.994995
2738.919840	17389.693333	1205.873047	1199.470337
2738.919840	17389.693333	1204.752930	1236.240967
2738.919840	17389.693333	1203.633789	1215.679688
2738.919840	17389.693333	1202.513672	1243.000366
2738.919840	17389.693333	1201.393555	1230.844360
2738.919840	17389.693333	1200.273438	1233.234985
2738.919840	17389.693333	1199.152344	1201.530518
2738.919840	17389.693333	1198.032227	1208.271851
2738.919840	17389.693333	1196.911133	1143.633667
2738.919840	17389.693333	1195.790039	1315.307251
2738.919840	17389.693333	1194.667969	1239.780762
2738.919840	17389.693333	1193.545898	1279.130249
2738.919840	17389.693333	1192.424805	1211.917236
2738.919840	17389.693333	1191.301758	1321.884521
2738.919840	17389.693333	1190.179688	1229.766724
2738.919840	17389.693333	1189.056641	1172.806641
2738.919840	17389.693333	1187.933594	1129.319702
2738.919840	17389.693333	1186.810547	963.718079
2738.919840	17389.693333	1185.687500	877.953308
2738.919840	17389.693333	1184.563477	986.200317
2738.919840	17389.693333	1183.440430	954.444946
2738.919840	17389.693333	1182.316406	901.122192
2738.919840	17389.693333	1181.191406	899.378906
2738.919840	17389.693333	1180.067383	819.324524
2738.919840	17389.693333	1178.942383	856.470581
2738.919840	17389.693333	1177.817383	811.557617
2738.919840	17389.693333	1176.692383	631.742371
2738.919840	17389.693333	1175.566406	708.745117
2738.919840	17389.693333	1174.440430	636.720032
2738.919840	17389.693333	1173.314453	487.437561
2738.919840	17389.693333	1172.188477	546.948547
2738.919840	17389.693333	1171.062500	511.836090
2738.919840	17389.693333	1169.935547	453.350983
2738.919840	17389.693333	1168.808594	428.878632
2738.919840	17389.693333	1167.681641	382.850647
2738.919840	17389.693333	1166.553711	283.422211
2738.919840	17389.693333	1165.426758	245.229950
2738.919840	17389.693333	1164.298828	74.200249
2738.919840	17389.693333	1163.170898	50.509647
2738.919840	17389.693333	1162.041992	12.972304
2738.919840	17389.693333	1160.914063	40.579754
2738.919840	17389.693333	1159.785156	-15.400652
2738.919840	17389.693333	1158.656250	-45.337082
2738.919840	17389.693333	1157.526367	-101.683113
2738.919840	17389.693333	1156.397461	-107.160210
2738.919840	17389.693333	1155.267578	-35.019890
2738.919840	17389.693333	1154.137695	-64.062744
2738.919840	17389.693333	1153.006836	-48.111149
2738.919840	17389.693333	1151.876953	-8.870068
2738.919840	17389.693333	1150.746094	29.973585
2738.919840	17389.693333	1149.615234	-18.582220
2738.919840	17389.693333	1148.484375	18.303995
2738.919840	17389.693333	1147.352539	-12.003828
2738.919840	17389.693333	1146.220703	42.722435
2738.919840	17389.693333	1145.088867	-14.342223
2738.919840	17389.693333	1143.957031	13.081702
2738.919840	17389.693333	1142.825195	20.831337
2738.919840	17389.693333	1141.692383	21.360245
2738.919840	17389.693333	1140.559570	80.139030
2738.919840	17389.693333	1139.426758	124.688927
2738.919840	17389.693333	1138.292969	126.559059
2738.919840	17389.693333	1137.159180	231.176270
2738.919840	17389.693333	1136.025391	204.655090
2738.919840	17389.693333	1134.891602	299.402527
2738.919840	17389.693333	1133.757813	279.554565
2738.919840	17389.693333	1132.623047	331.104492
2738.919840	17389.693333	1131.488281	221.433029
2738.919840	17389.693333	1130.353516	307.799286
2738.919840	17389.693333	1129.217773	232.582108
2738.919840	17389.693333	1128.083008	214.575012
2738.919840	17389.693333	1126.947266	183.620712
2738.919840	17389.693333	1125.811523	292.138428
2738.919840	17389.693333	1124.674805	313.280701
2738.919840	17389.693333	1123.539063	274.074036
2738.919840	17389.693333	1122.402344	241.570114
2738.919840	17389.693333	1121.265625	352.570313
2738.919840	17389.693333	1120.127930	323.108246
2738.919840	17389.693333	1118.990234	466.227112
2738.919840	17389.693333	1117.853516	460.280365
2738.919840	17389.693333	1116.714844	503.223358
2738.919840	17389.693333	1115.577148	640.335938
2738.919840	17389.693333	1114.439453	714.664917
2738.919840	17389.693333	1113.300781	794.015076
2738.919840	17389.693333	1112.162109	872.389465
2738.919840	17389.693333	1111.022461	893.739746
2738.919840	17389.693333	1109.883789	964.636108
2738.919840	17389.693333	1108.744141	1040.140015
2738.919840	17389.693333	1107.604492	1107.944824
2738.919840	17389.693333	1106.463867	1171.370605
2738.919840	17389.693333	1105.324219	1238.259155
2738.919840	17389.693333	1104.183594	1298.827148
2738.919840	17389.693333	1103.042969	1358.628540
2738.919840	17389.693333	1101.902344	1415.934448
2738.919840	17389.693333	1100.760742	1625.340454
2738.919840	17389.693333	1099.619141	1642.038086
2738.919840	17389.693333	1098.477539	1720.240723
2738.919840	17389.693333	1097.335938	1686.364502
2738.919840	17389.693333	1096.193359	1675.910400
2738.919840	17389.693333	1095.051758	1584.311157
2738.919840	17389.693333	1093.909180	1455.264160
2738.919840	17389.693333	1092.765625	1361.873657
2738.919840	17389.693333	1091.623047	1240.026367
2738.919840	17389.693333	1090.479492	1055.809937
2738.919840	17389.693333	1089.335938	995.101990
2738.919840	17389.693333	1088.192383	900.102478
2738.919840	17389.693333	1087.047852	796.535156
2738.919840	17389.693333	1085.903320	763.034363
2738.919840	17389.693333	1084.758789	746.079224
2738.919840	17389.693333	1083.614258	754.803833
2738.919840	17389.693333	1082.469727	630.550598
2738.919840	17389.693333	1081.324219	631.844238
2738.919840	17389.693333	1080.178711	614.318542
2738.919840	17389.693333	1079.033203	543.431213
2738.919840	17389.693333	1077.886719	442.560333
2738.919840	17389.693333	1076.740234	497.344299
2738.919840	17389.693333	1075.593750	419.373718
2738.919840	17389.693333	1074.447266	460.438873
2738.919840	17389.693333	1073.300781	533.835022
2738.919840	17389.693333	1072.153320	611.296692
2738.919840	17389.693333	1071.005859	767.927124
2738.919840	17389.693333	1069.858398	844.459106
2738.919840	17389.693333	1068.709961	1177.744629
2738.919840	17389.693333	1067.561523	1240.527832
2738.919840	17389.693333	1066.413086	1273.956055
2738.919840	17389.693333	1065.264648	1293.200562
2738.919840	17389.693333	1064.116211	1429.983765
2738.919840	17389.693333	1062.966797	1502.702393
2738.919840	17389.693333	1061.817383	1642.024780
2738.919840	17389.693333	1060.667969	1683.366943
2738.919840	17389.693333	1059.517578	1829.452759
2738.919840	17389.693333	1058.368164	1855.469727
2738.919840	17389.693333	1057.217773	1968.238770
2738.919840	17389.693333	1056.067383	1880.004150
2738.919840	17389.693333	1054.916016	1997.755615
2738.919840	17389.693333	1053.764648	1897.141724
2738.919840	17389.693333	1052.613281	1906.077026
2738.919840	17389.693333	1051.461914	1773.272339
2738.919840	17389.693333	1050.310547	1728.411255
2738.919840	17389.693333	1049.158203	1748.518433
2738.919840	17389.693333	1048.005859	1517.396729
2738.919840	17389.693333	1046.853516	1531.181396
2738.919840	17389.693333	1045.700195	1298.411865
2738.919840	17389.693333	1044.547852	1161.701538
2738.919840	17389.693333	1043.394531	1100.327148
2738.919840	17389.693333	1042.240234	989.509033
2738.919840	17389.693333	1041.086914	863.111633
2738.919840	17389.693333	1039.932617	842.280334
2738.919840	17389.693333	1038.778320	735.911438
2738.919840	17389.693333	1037.624023	708.339050
2738.919840	17389.693333	1036.469727	593.863464
2738.919840	17389.693333	1035.314453	556.799072
2738.919840	17389.693333	1034.159180	561.833435
2738.919840	17389.693333	1033.003906	688.876953
2738.919840	17389.693333	1031.847656	629.852966
2738.919840	17389.693333	1030.692383	676.818665
2738.919840	17389.693333	1029.536133	625.798523
2738.919840	17389.693333	1028.378906	651.190918
2738.919840	17389.693333	1027.222656	567.039368
2738.919840	17389.693333	1026.065430	491.524048
2738.919840	17389.693333	1024.908203	483.805115
2738.919840	17389.693333	1023.750977	498.251312
2738.919840	17389.693333	1022.593750	383.857544
2738.919840	17389.693333	1021.435547	403.480133
2738.919840	17389.693333	1020.277344	411.202393
2738.919840	17389.693333	1019.119141	394.884857
2738.919840	17389.693333	1017.959961	415.101013
2738.919840	17389.693333	1016.800781	363.200500
2738.919840	17389.693333	1015.641602	382.379852
2738.919840	17389.693333	1014.482422	370.076813
2738.919840	17389.693333	1013.323242	394.655853
2738.919840	17389.693333	1012.163086	464.286774
2738.919840	17389.693333	1011.002930	439.323578
2738.919840	17389.693333	1009.842773	500.503357
2738.919840	17389.693333	1008.681641	436.758362
2738.919840	17389.693333	1007.520508	492.372528
2738.919840	17389.693333	1006.359375	477.384766
2738.919840	17389.693333	1005.198242	611.248901
2738.919840	17389.693333	1004.037109	644.440918
2738.919840	17389.693333	1002.875000	728.060181
2738.919840	17389.693333	1001.712891	798.680603
2738.919840	17389.693333	1000.550781	871.598389
2738.919840	17389.693333	999.387695	885.808289
2738.919840	17389.693333	998.224609	798.123657
2738.919840	17389.693333	997.061523	933.547852
2738.919840	17389.693333	995.898438	1026.976685
2738.919840	17389.693333	994.734375	977.033936
2738.919840	17389.693333	993.571289	1017.692322
2738.919840	17389.693333	992.407227	925.770752
2738.919840	17389.693333	991.242188	804.491028
2738.919840	17389.693333	990.078125	796.034851
2738.919840	17389.693333	988.913086	792.888123
2738.919840	17389.693333	987.748047	756.134644
2738.919840	17389.693333	986.583008	843.334839
2738.919840	17389.693333	985.416992	757.322876
2738.919840	17389.693333	984.250977	764.027527
2738.919840	17389.693333	983.084961	784.068298
2738.919840	17389.693333	981.918945	654.360657
2738.919840	17389.693333	980.751953	782.092529
2738.919840	17389.693333	979.584961	655.477661
2738.919840	17389.693333	978.417969	708.876709
2738.919840	17389.693333	977.250977	713.084656
2738.919840	17389.693333	976.083008	786.983521
2738.919840	17389.693333	974.915039	827.744751
2738.919840	17389.693333	973.747070	737.436707
2738.919840	17389.693333	972.579102	742.341064
2738.919840	17389.693333	971.410156	661.229309
2738.919840	17389.693333	970.242188	819.330933
2738.919840	17389.693333	969.072266	653.995239
2738.919840	17389.693333	967.903320	556.714661
2738.919840	17389.693333	966.733398	498.833557
2738.919840	17389.693333	965.563477	566.777893
2738.919840	17389.693333	964.393555	563.057007
2738.919840	17389.693333	963.223633	539.668457
2738.919840	17389.693333	962.052734	664.327454
2738.919840	17389.693333	960.881836	658.213318
2738.919840	17389.693333	959.710938	671.444092
2738.919840	17389.693333	958.540039	747.994507
2738.919840	17389.693333	957.368164	787.362854
2738.919840	17389.693333	956.196289	876.789551
2738.919840	17389.693333	955.024414	779.044617
2738.919840	17389.693333	953.851563	836.338684
2738.919840	17389.693333	952.679688	688.907532
2738.919840	17389.693333	951.506836	477.955261
2738.919840	17389.693333	950.333984	477.294434
2738.919840	17389.693333	949.160156	415.495178
2738.919840	17389.693333	947.986328	269.598236
2738.919840	17389.693333	946.812500	299.489441
2738.919840	17389.693333	945.638672	149.405228
2738.919840	17389.693333	944.464844	138.140564
2738.919840	17389.693333	943.290039	73.238441
2738.919840	17389.693333	942.115234	70.238480
2738.919840	17389.693333	940.940430	-26.553093
2738.919840	17389.693333	939.764648	121.463692
2738.919840	17389.693333	938.588867	67.381340
2738.919840	17389.693333	937.413086	5.739513
2738.919840	17389.693333	936.237305	23.937239
2738.919840	17389.693333	935.060547	34.920948
2738.919840	17389.693333	933.883789	-33.921692
2738.919840	17389.693333	932.707031	54.229263
2738.919840	17389.693333	931.530273	-158.709579
2738.919840	17389.693333	930.352539	11.707543
2738.919840	17389.693333	929.175781	-19.895910
2738.919840	17389.693333	927.998047	-121.774620
2738.919840	17389.693333	926.819336	23.115816
2738.919840	17389.693333	925.641602	-60.622284
2738.919840	17389.693333	924.462891	-24.691668
2738.919840	17389.693333	923.284180	25.697201
2738.919840	17389.693333	922.104492	18.014133
2738.919840	17389.693333	920.924805	59.822201
2738.919840	17389.693333	919.746094	62.621681
2738.919840	17389.693333	919.551758	63.365551
2738.919840	17389.693333	918.386719	28.917482
2738.919840	17389.693333	917.220703	144.162415
2738.919840	17389.693333	916.054688	159.103531
2738.919840	17389.693333	914.887695	27.937418
2738.919840	17389.693333	913.721680	145.365479
2738.919840	17389.693333	912.554688	221.673767
2738.919840	17389.693333	911.387695	262.916412
2738.919840	17389.693333	910.220703	242.583328
2738.919840	17389.693333	909.052734	167.948975
2738.919840	17389.693333	907.885742	200.586777
2738.919840	17389.693333	906.717773	216.289688
2738.919840	17389.693333	905.548828	136.738846
2738.919840	17389.693333	904.380859	125.845360
2738.919840	17389.693333	903.211914	260.662659
2738.919840	17389.693333	902.042969	202.686142
2738.919840	17389.693333	900.874023	215.727005
2738.919840	17389.693333	899.704102	174.545731
2738.919840	17389.693333	898.535156	136.944916
2738.919840	17389.693333	897.365234	95.706108
2738.919840	17389.693333	896.194336	242.124252
2738.919840	17389.693333	895.024414	329.498260
2738.919840	17389.693333	893.853516	354.258911
2738.919840	17389.693333	892.682617	395.799835
2738.919840	17389.693333	891.511719	450.505005
2738.919840	17389.693333	890.340820	423.419403
2738.919840	17389.693333	889.168945	348.240265
2738.919840	17389.693333	887.997070	316.300812
2738.919840	17389.693333	886.825195	250.703262
2738.919840	17389.693333	885.653320	326.798279
2738.919840	17389.693333	884.480469	233.533920
2738.919840	17389.693333	883.307617	223.097076
2738.919840	17389.693333	882.134766	98.612869
2738.919840	17389.693333	880.961914	126.530647
2738.919840	17389.693333	879.788086	146.004333
2738.919840	17389.693333	878.614258	81.474899
2738.919840	17389.693333	877.440430	215.999573
2738.919840	17389.693333	876.266602	326.455902
2738.919840	17389.693333	875.091797	289.396149
2738.919840	17389.693333	873.916992	338.605621
2738.919840	17389.693333	872.742188	297.897430
2738.919840	17389.693333	871.567383	240.402985
2738.919840	17389.693333	870.391602	224.820450
2738.919840	17389.693333	869.215820	224.779953
2738.919840	17389.693333	868.040039	175.622894
2738.919840	17389.693333	866.864258	163.562286
2738.919840	17389.693333	865.687500	213.707245
2738.919840	17389.693333	864.510742	154.923401
2738.919840	17389.693333	863.333984	53.071156
2738.919840	17389.693333	862.157227	56.479233
2738.919840	17389.693333	860.979492	153.126801
2738.919840	17389.693333	859.802734	111.030334
2738.919840	17389.693333	858.625000	195.621719
2738.919840	17389.693333	857.446289	284.933685
2738.919840	17389.693333	856.268555	196.163956
2738.919840	17389.693333	855.089844	214.912766
2738.919840	17389.693333	853.911133	135.700165
2738.919840	17389.693333	852.731445	81.571564
2738.919840	17389.693333	851.552734	1.178494
2738.919840	17389.693333	850.373047	-29.075314
2738.919840	17389.693333	849.193359	-16.380175
2738.919840	17389.693333	848.013672	-102.734085
2738.919840	17389.693333	846.833008	-73.371521
2738.919840	17389.693333	845.652344	-83.395836
2738.919840	17389.693333	844.471680	-36.205429
2738.919840	17389.693333	843.291016	-59.384731
2738.919840	17389.693333	842.110352	-65.888298
2738.919840	17389.693333	840.928711	-134.368668
2738.919840	17389.693333	839.747070	-71.792908
2738.919840	17389.693333	838.564453	-55.712029
2738.919840	17389.693333	837.382813	2.023908
2738.919840	17389.693333	836.200195	69.245445
2738.919840	17389.693333	835.017578	-46.889923
2738.919840	17389.693333	833.834961	15.522107
2738.919840	17389.693333	832.651367	19.590601
2738.919840	17389.693333	831.467773	65.279716
2738.919840	17389.693333	830.284180	-9.189837
2738.919840	17389.693333	829.100586	110.184364
2738.919840	17389.693333	827.916992	78.509247
2738.919840	17389.693333	826.732422	45.646240
2738.919840	17389.693333	825.547852	35.363739
2738.919840	17389.693333	824.363281	66.659279
2738.919840	17389.693333	823.177734	29.032438
2738.919840	17389.693333	821.992188	-67.972008
2738.919840	17389.693333	820.806641	-39.081635
2738.919840	17389.693333	819.621094	-82.629974
2738.919840	17389.693333	818.434570	-51.393394
2738.919840	17389.693333	817.249023	-7.125965
2738.919840	17389.693333	816.062500	72.707520
2738.919840	17389.693333	814.875000	150.127975
2738.919840	17389.693333	813.688477	121.959969
2738.919840	17389.693333	812.500977	219.479858
2738.919840	17389.693333	811.313477	228.044479
2738.919840	17389.693333	810.125977	305.340271
2738.919840	17389.693333	808.937500	243.957947
2738.919840	17389.693333	807.749023	225.245117
2738.919840	17389.693333	806.560547	311.952606
2738.919840	17389.693333	805.372070	372.565704
2738.919840	17389.693333	804.182617	430.782043
2738.919840	17389.693333	802.994141	454.641083
2738.919840	17389.693333	801.803711	529.377075
2738.919840	17389.693333	800.614258	445.524048
2738.919840	17389.693333	799.424805	548.616089
2738.919840	17389.693333	798.234375	419.842987
2738.919840	17389.693333	797.043945	407.006866
2738.919840	17389.693333	795.852539	329.149597
2738.919840	17389.693333	794.662109	279.691406
2738.919840	17389.693333	793.470703	357.883636
2738.919840	17389.693333	792.279297	347.428284
2738.919840	17389.693333	791.087891	414.940887
2738.919840	17389.693333	789.895508	535.572144
2738.919840	17389.693333	788.703125	461.321960
2738.919840	17389.693333	787.510742	567.727234
2738.919840	17389.693333	786.318359	611.532349
2738.919840	17389.693333	785.125000	576.256714
2738.919840	17389.693333	783.931641	607.066162
2738.919840	17389.693333	782.738281	524.626038
2738.919840	17389.693333	781.544922	630.913635
2738.919840	17389.693333	780.350586	531.998535
2738.919840	17389.693333	779.156250	408.371826
2738.919840	17389.693333	777.961914	440.373077
2738.919840	17389.693333	776.767578	499.465973
2738.919840	17389.693333	775.572266	512.591187
2738.919840	17389.693333	774.376953	371.414978
2738.919840	17389.693333	773.181641	396.344849
2738.919840	17389.693333	771.986328	395.365875
2738.919840	17389.693333	770.790039	276.679016
2738.919840	17389.693333	769.593750	389.891418
2738.919840	17389.693333	768.397461	275.970581
2738.919840	17389.693333	767.201172	276.211670
2738.919840	17389.693333	766.003906	195.303879
2738.919840	17389.693333	764.806641	282.588226
2738.919840	17389.693333	763.609375	217.007324
2738.919840	17389.693333	762.412109	233.737595
2738.919840	17389.693333	761.213867	161.154312
2738.919840	17389.693333	760.015625	176.726349
2738.919840	17389.693333	758.817383	233.412415
2738.919840	17389.693333	757.618164	339.407074
2738.919840	17389.693333	756.419922	340.861267
2738.919840	17389.693333	755.220703	356.409058
2738.919840	17389.693333	754.021484	384.868408
2738.919840	17389.693333	752.821289	263.120483
2738.919840	17389.693333	751.621094	265.791260
2738.919840	17389.693333	750.420898	158.209061
2738.919840	17389.693333	749.220703	264.115234
2738.919840	17389.693333	748.020508	244.529404
2738.919840	17389.693333	746.819336	244.887894
2738.919840	17389.693333	745.618164	150.323029
2738.919840	17389.693333	744.416992	305.387177
2738.919840	17389.693333	743.214844	350.273987
2738.919840	17389.693333	742.012695	292.080048
2738.919840	17389.693333	740.810547	328.770874
2738.919840	17389.693333	739.608398	386.528137
2738.919840	17389.693333	738.406250	398.620056
2738.919840	17389.693333	737.203125	496.145966
2738.919840	17389.693333	736.000000	636.931519
2738.919840	17389.693333	734.795898	785.855347
2738.919840	17389.693333	733.592773	924.199890
2738.919840	17389.693333	732.388672	916.333801
2738.919840	17389.693333	731.184570	1016.032837
2738.919840	17389.693333	729.979492	890.119446
2738.919840	17389.693333	728.775391	702.334106
2738.919840	17389.693333	727.570313	559.032654
2738.919840	17389.693333	726.365234	464.859528
2738.919840	17389.693333	725.160156	424.455872
2738.919840	17389.693333	723.954102	413.268250
2738.919840	17389.693333	722.748047	413.768646
2738.919840	17389.693333	721.541992	423.615234
2738.919840	17389.693333	720.334961	473.140411
2738.919840	17389.693333	719.128906	544.819641
2738.919840	17389.693333	717.921875	504.507599
2738.919840	17389.693333	716.714844	442.066223
2738.919840	17389.693333	715.506836	377.328918
2738.919840	17389.693333	714.298828	298.640564
2738.919840	17389.693333	713.090820	407.622742
2738.919840	17389.693333	711.882813	325.485413
2738.919840	17389.693333	710.674805	217.763672
2738.919840	17389.693333	709.465820	232.386627
2738.919840	17389.693333	708.256836	219.067276
2738.919840	17389.693333	707.047852	305.881256
2738.919840	17389.693333	705.837891	241.358734
2738.919840	17389.693333	704.627930	202.473907
2738.919840	17389.693333	703.417969	242.728683
2738.919840	17389.693333	702.208008	203.879364
2738.919840	17389.693333	700.998047	225.528458
2738.919840	17389.693333	699.787109	205.321365
2738.919840	17389.693333	698.576172	216.518341
2738.919840	17389.693333	697.364258	164.961105
2738.919840	17389.693333	696.153320	178.504654
2738.919840	17389.693333	694.941406	259.432556
2738.919840	17389.693333	693.729492	311.297974
2738.919840	17389.693333	692.516602	357.345490
2738.919840	17389.693333	691.304688	425.441284
2738.919840	17389.693333	690.091797	433.158478
2738.919840	17389.693333	688.878906	313.225494
2738.919840	17389.693333	687.665039	421.924561
2738.919840	17389.693333	686.451172	320.622711
2738.919840	17389.693333	685.237305	305.195862
2738.919840	17389.693333	684.023438	293.262604
2738.919840	17389.693333	682.809570	306.847198
2738.919840	17389.693333	681.594727	371.433014
2738.919840	17389.693333	680.379883	423.252869
2738.919840	17389.693333	679.165039	466.949677
2738.919840	17389.693333	677.949219	518.744568
2738.919840	17389.693333	676.733398	386.392853
2738.919840	17389.693333	675.517578	512.300049
2738.919840	17389.693333	674.301758	665.943237
2738.919840	17389.693333	673.084961	715.370117
2738.919840	17389.693333	671.869141	664.116089
2738.919840	17389.693333	670.651367	575.873291
2738.919840	17389.693333	669.434570	538.565002
2738.919840	17389.693333	668.216797	493.185547
2738.919840	17389.693333	667.000000	461.705261
2738.919840	17389.693333	665.781250	442.961273
2738.919840	17389.693333	664.563477	502.813934
2738.919840	17389.693333	663.344727	518.743835
2738.919840	17389.693333	662.125977	519.657532
2738.919840	17389.693333	660.907227	564.462952
2738.919840	17389.693333	659.688477	688.926697
2738.919840	17389.693333	658.468750	732.536499
2738.919840	17389.693333	657.249023	717.271545
2738.919840	17389.693333	656.029297	697.402771
2738.919840	17389.693333	654.808594	716.774414
2738.919840	17389.693333	653.587891	639.254761
2738.919840	17389.693333	652.367188	594.062988
2738.919840	17389.693333	651.146484	531.601746
2738.919840	17389.693333	649.924805	582.137207
2738.919840	17389.693333	648.704102	481.683960
2738.919840	17389.693333	647.482422	479.216858
2738.919840	17389.693333	646.259766	462.933044
2738.919840	17389.693333	645.037109	393.680817
2738.919840	17389.693333	643.815430	249.615540
2738.919840	17389.693333	642.591797	296.723053
2738.919840	17389.693333	641.369141	396.759949
2738.919840	17389.693333	640.145508	321.845093
2738.919840	17389.693333	638.921875	321.748657
2738.919840	17389.693333	637.698242	374.568634
2738.919840	17389.693333	636.474609	318.117371
2738.919840	17389.693333	635.250000	339.879791
2738.919840	17389.693333	634.025391	286.916077
2738.919840	17389.693333	632.800781	269.606476
2738.919840	17389.693333	631.575195	210.941757
2738.919840	17389.693333	630.349609	144.263824
2738.919840	17389.693333	629.124023	184.432877
2738.919840	17389.693333	627.898438	187.841354
2738.919840	17389.693333	626.671875	152.216888
2738.919840	17389.693333	625.445313	102.835915
2738.919840	17389.693333	624.218750	180.860413
2738.919840	17389.693333	622.992188	35.121777
2738.919840	17389.693333	621.764648	111.985329
2738.919840	17389.693333	620.537109	136.062500
2738.919840	17389.693333	619.309570	70.694916
2738.919840	17389.693333	618.081055	71.846573
2738.919840	17389.693333	616.852539	43.200161
2738.919840	17389.693333	615.624023	69.569496
2738.919840	17389.693333	614.395508	30.626804
2738.919840	17389.693333	613.166992	77.606796
2738.919840	17389.693333	611.937500	90.213684
2738.919840	17389.693333	610.708008	71.902634
2738.919840	17389.693333	609.477539	82.217705
2738.919840	17389.693333	608.248047	46.751011
2738.919840	17389.693333	607.017578	113.132324
2738.919840	17389.693333	605.787109	84.538002
2738.919840	17389.693333	604.555664	-3.515237
2738.919840	17389.693333	603.325195	-2.342504
2738.919840	17389.693333	602.093750	-98.343323
2738.919840	17389.693333	600.861328	-141.726318
2738.919840	17389.693333	599.629883	-19.397427
2738.919840	17389.693333	598.397461	-7.941225
2738.919840	17389.693333	597.165039	-31.900095
2738.919840	17389.693333	595.932617	-41.003666
2738.919840	17389.693333	594.699219	-5.576025
2738.919840	17389.693333	593.465820	43.533314
2738.919840	17389.693333	592.232422	20.720705
2738.919840	17389.693333	590.999023	41.275089
2738.919840	17389.693333	589.764648	-118.423531
2738.919840	17389.693333	588.530273	-38.543011
2738.919840	17389.693333	587.295898	-37.378891
2738.919840	17389.693333	586.061523	58.407093
2738.919840	17389.693333	584.826172	-47.595585
2738.919840	17389.693333	583.590820	-36.180260
2738.919840	17389.693333	582.355469	-68.066292
2738.919840	17389.693333	581.119141	-14.509902
2738.919840	17389.693333	579.882813	-48.669170
2738.919840	17389.693333	578.646484	24.210670
2738.919840	17389.693333	577.410156	-37.268440
2738.919840	17389.693333	576.172852	-15.642032
2738.919840	17389.693333	574.935547	-4.268363
2738.919840	17389.693333	573.698242	30.986734
2738.919840	17389.693333	572.460938	60.536724
2738.919840	17389.693333	571.222656	34.351437
2738.919840	17389.693333	569.984375	74.113647
2738.919840	17389.693333	568.746094	100.215347
2738.919840	17389.693333	567.506836	99.029182
2738.919840	17389.693333	566.267578	30.805325
2738.919840	17389.693333	565.028320	120.500214
2738.919840	17389.693333	563.789063	73.871071
2738.919840	17389.693333	562.548828	65.862801
2738.919840	17389.693333	561.309570	76.015923
2738.919840	17389.693333	560.068359	182.633163
2738.919840	17389.693333	558.828125	182.536102
2738.919840	17389.693333	557.586914	199.452545
2738.919840	17389.693333	556.345703	117.679077
2738.919840	17389.693333	555.104492	84.696548
2738.919840	17389.693333	553.863281	31.316380
2738.919840	17389.693333	552.621094	41.430233
2738.919840	17389.693333	551.378906	62.866936
2738.919840	17389.693333	550.136719	101.284576
2738.919840	17389.693333	548.893555	49.059185
2738.919840	17389.693333	547.650391	77.259827
2738.919840	17389.693333	546.407227	52.225262
2738.919840	17389.693333	545.164063	12.479305
2738.919840	17389.693333	543.919922	-1.223627
2738.919840	17389.693333	542.675781	-116.767090
2738.919840	17389.693333	541.431641	-41.074532
2738.919840	17389.693333	540.186523	-47.988731
2738.919840	17389.693333	538.941406	-16.457682
2738.919840	17389.693333	537.696289	76.104919
2738.919840	17389.693333	536.451172	-78.925064
2738.919840	17389.693333	535.205078	-33.866035
2738.919840	17389.693333	533.959961	-40.807175
2738.919840	17389.693333	532.712891	-28.548145
2738.919840	17389.693333	531.466797	-17.431152
2738.919840	17389.693333	530.219727	-36.812611
2738.919840	17389.693333	528.972656	-126.184448
2738.919840	17389.693333	527.725586	-72.186935
2738.919840	17389.693333	526.478516	-32.889572
2738.919840	17389.693333	525.230469	-94.023895
2738.919840	17389.693333	523.982422	-107.766396
2738.919840	17389.693333	522.734375	-66.255409
2738.919840	17389.693333	521.485352	-174.719604
2738.919840	17389.693333	520.236328	-180.570816
2738.919840	17389.693333	518.987305	-128.953247
2738.919840	17389.693333	517.737305	-153.983063
2738.919840	17389.693333	516.488281	-126.067924
2738.919840	17389.693333	515.238281	-62.133572
2738.919840	17389.693333	513.988281	-96.198036
2738.919840	17389.693333	512.737305	32.976734
2738.919840	17389.693333	511.486328	-14.618751
2738.919840	17389.693333	510.235352	-16.068216
2738.919840	17389.693333	508.984375	-49.028145
2738.919840	17389.693333	507.732422	59.737980
2738.919840	17389.693333	506.480469	105.472137
2738.919840	17389.693333	505.228516	79.220444
2738.919840	17389.693333	503.976563	4.633999
2738.919840	17389.693333	502.723633	9.858917
2738.919840	17389.693333	501.470703	82.483353
2738.919840	17389.693333	500.217773	40.485031
2738.919840	17389.693333	498.963867	16.461176
2738.919840	17389.693333	497.709961	40.717220
2738.919840	17389.693333	496.456055	33.516010
2738.919840	17389.693333	495.202148	165.477310
2738.919840	17389.693333	493.947266	48.256844
2738.919840	17389.693333	492.692383	33.163448
2738.919840	17389.693333	491.437500	111.157181
2738.919840	17389.693333	490.181641	69.112930
2738.919840	17389.693333	488.926758	40.524303
2738.919840	17389.693333	487.670898	80.307442
2738.919840	17389.693333	486.414063	64.023376
2738.919840	17389.693333	485.158203	8.513887
2738.919840	17389.693333	483.901367	13.500658
2738.919840	17389.693333	482.644531	133.821793
2738.919840	17389.693333	481.386719	48.046291
2738.919840	17389.693333	480.128906	35.053272
2738.919840	17389.693333	478.871094	39.953484
2738.919840	17389.693333	477.613281	-41.330311
2738.919840	17389.693333	476.355469	81.010353
2738.919840	17389.693333	475.096680	26.553091
2738.919840	17389.693333	473.837891	-62.569111
2738.919840	17389.693333	472.578125	-17.513594
2738.919840	17389.693333	471.319336	75.562515
2738.919840	17389.693333	470.059570	15.471139
2738.919840	17389.693333	468.799805	70.461929
2738.919840	17389.693333	467.539063	98.593185
2738.919840	17389.693333	466.278320	66.377258
2738.919840	17389.693333	465.017578	65.410965
2738.919840	17389.693333	463.756836	155.955658
2738.919840	17389.693333	462.495117	188.394623
2738.919840	17389.693333	461.233398	157.185013
2738.919840	17389.693333	459.971680	190.662766
2738.919840	17389.693333	458.709961	127.056412
2738.919840	17389.693333	457.447266	145.962891
2738.919840	17389.693333	456.184570	142.528748
2738.919840	17389.693333	454.921875	124.569305
2738.919840	17389.693333	453.658203	172.330246
2738.919840	17389.693333	452.394531	96.360443
2738.919840	17389.693333	451.130859	147.370605
2738.919840	17389.693333	449.867188	121.474274
2738.919840	17389.693333	448.602539	146.764481
2738.919840	17389.693333	447.337891	137.491745
2738.919840	17389.693333	446.073242	157.114670
2738.919840	17389.693333	444.807617	115.482910
2738.919840	17389.693333	443.542969	150.582840
2738.919840	17389.693333	442.276367	201.188690
2738.919840	17389.693333	441.010742	267.290314
2738.919840	17389.693333	439.744141	267.716492
2738.919840	17389.693333	438.478516	273.646576
2738.919840	17389.693333	437.210938	260.625610
2738.919840	17389.693333	435.944336	200.889832
2738.919840	17389.693333	434.676758	239.980377
2738.919840	17389.693333	433.409180	237.902512
2738.919840	17389.693333	432.141602	266.850677
2738.919840	17389.693333	430.873047	259.088043
2738.919840	17389.693333	429.604492	166.914352
2738.919840	17389.693333	428.335938	202.314331
2738.919840	17389.693333	427.067383	213.221924
2738.919840	17389.693333	425.797852	212.958511
2738.919840	17389.693333	424.528320	221.490738
2738.919840	17389.693333	423.258789	202.224976
2738.919840	17389.693333	421.988281	-27.708162
2738.919840	17389.693333	420.717773	63.737988
2738.919840	17389.693333	419.447266	96.339775
2738.919840	17389.693333	418.175781	-67.219421
2738.919840	17389.693333	416.905273	188.917313
2738.919840	17389.693333	415.633789	125.978470
2738.919840	17389.693333	414.362305	179.199188
2738.919840	17389.693333	413.089844	178.066971
2738.919840	17389.693333	411.817383	131.467819
2738.919840	17389.693333	410.544922	114.651215
2738.919840	17389.693333	409.272461	118.747398
2738.919840	17389.693333	407.999023	56.382381
2738.919840	17389.693333	406.725586	155.333298
2738.919840	17389.693333	405.452148	142.490891
2738.919840	17389.693333	404.177734	177.045578
2738.919840	17389.693333	402.903320	146.276947
2738.919840	17389.693333	401.628906	104.346954
2738.919840	17389.693333	400.354492	140.707520
2738.919840	17389.693333	399.079102	133.854477
2738.919840	17389.693333	397.803711	204.130875
2738.919840	17389.693333	396.528320	156.148010
2738.919840	17389.693333	395.251953	102.516838
2738.919840	17389.693333	393.976563	137.007080
2738.919840	17389.693333	392.700195	20.229084
2738.919840	17389.693333	391.422852	45.574635
2738.919840	17389.693333	390.145508	37.670540
2738.919840	17389.693333	388.869141	-17.790085
2738.919840	17389.693333	387.590820	27.965206
2738.919840	17389.693333	386.313477	82.336189
2738.919840	17389.693333	385.035156	47.277695
2738.919840	17389.693333	383.756836	41.774521
2738.919840	17389.693333	382.478516	11.856715
2738.919840	17389.693333	381.199219	45.586128
2738.919840	17389.693333	379.919922	81.294312
2738.919840	17389.693333	378.640625	-57.063290
2738.919840	17389.693333	377.360352	-86.685440
2738.919840	17389.693333	376.080078	-85.726845
2738.919840	17389.693333	374.799805	-39.919933
2738.919840	17389.693333	373.519531	43.005657
2738.919840	17389.693333	372.238281	-41.408386
2738.919840	17389.693333	370.957031	4.721461
2738.919840	17389.693333	369.675781	0.040636
2738.919840	17389.693333	368.394531	-44.441303
2738.919840	17389.693333	367.112305	-70.513130
2738.919840	17389.693333	365.830078	-23.296032
2738.919840	17389.693333	364.546875	-71.882736
2738.919840	17389.693333	363.264648	16.436739
2738.919840	17389.693333	361.981445	-11.884277
2738.919840	17389.693333	360.698242	-2.109328
2738.919840	17389.693333	359.414063	-107.810234
2738.919840	17389.693333	358.129883	-50.423756
2738.919840	17389.693333	356.845703	-81.087753
2738.919840	17389.693333	355.561523	-132.901184
2738.919840	17389.693333	354.276367	-80.958549
2738.919840	17389.693333	352.991211	-68.833046
2738.919840	17389.693333	351.706055	8.633653
2738.919840	17389.693333	350.420898	-41.326088
2738.919840	17389.693333	349.134766	94.446274
2738.919840	17389.693333	347.848633	54.644970
2738.919840	17389.693333	346.561523	50.556934
2738.919840	17389.693333	345.275391	17.622055
2738.919840	17389.693333	343.988281	34.580624
2738.919840	17389.693333	342.700195	104.668266
2738.919840	17389.693333	341.413086	27.789049
2738.919840	17389.693333	340.125000	14.966353
2738.919840	17389.693333	338.836914	-43.124382
2738.919840	17389.693333	337.548828	53.479652
2738.919840	17389.693333	336.259766	26.102533
2738.919840	17389.693333	334.970703	33.183758
2738.919840	17389.693333	333.681641	59.401772
2738.919840	17389.693333	332.391602	79.609589
2738.919840	17389.693333	331.101563	112.367729
2738.919840	17389.693333	329.811523	104.187447
2738.919840	17389.693333	328.521484	145.629562
2738.919840	17389.693333	327.230469	102.478546
2738.919840	17389.693333	325.939453	159.076340
2738.919840	17389.693333	324.648438	159.445435
2738.919840	17389.693333	323.356445	199.507813
2738.919840	17389.693333	322.064453	186.613297
2738.919840	17389.693333	320.772461	217.746979
2738.919840	17389.693333	319.480469	73.925430
2738.919840	17389.693333	318.187500	62.331310
2738.919840	17389.693333	316.894531	58.760563
2738.919840	17389.693333	315.601563	38.155689
2738.919840	17389.693333	314.307617	59.260414
2738.919840	17389.693333	313.013672	-10.693602
2738.919840	17389.693333	311.719727	4.565377
2738.919840	17389.693333	310.425781	-37.509075
2738.919840	17389.693333	309.130859	-12.962333
2738.919840	17389.693333	307.835938	-76.202827
2738.919840	17389.693333	306.541016	-18.509829
2738.919840	17389.693333	305.245117	60.022125
2738.919840	17389.693333	303.949219	-42.684479
2738.919840	17389.693333	302.653320	24.301567
2738.919840	17389.693333	301.356445	-20.433140
2738.919840	17389.693333	300.060547	-79.067482
2738.919840	17389.693333	298.763672	-5.131993
