#X		#Y		#Wave		#Intensity
2710.295106	17473.102333	2000.043945	-189.499969
2710.295106	17473.102333	1999.080078	275.207367
2710.295106	17473.102333	1998.116211	-122.839417
2710.295106	17473.102333	1997.151367	-184.369858
2710.295106	17473.102333	1996.186523	-80.521980
2710.295106	17473.102333	1995.222656	-26.896458
2710.295106	17473.102333	1994.256836	-253.758728
2710.295106	17473.102333	1993.291992	51.274105
2710.295106	17473.102333	1992.327148	88.230766
2710.295106	17473.102333	1991.361328	382.072754
2710.295106	17473.102333	1990.395508	-89.483208
2710.295106	17473.102333	1989.429688	86.935143
2710.295106	17473.102333	1988.463867	223.209396
2710.295106	17473.102333	1987.497070	398.537659
2710.295106	17473.102333	1986.531250	110.861778
2710.295106	17473.102333	1985.564453	156.662292
2710.295106	17473.102333	1984.597656	68.517952
2710.295106	17473.102333	1983.630859	-39.777527
2710.295106	17473.102333	1982.664063	41.858234
2710.295106	17473.102333	1981.696289	251.567719
2710.295106	17473.102333	1980.728516	-80.173584
2710.295106	17473.102333	1979.761719	-130.576584
2710.295106	17473.102333	1978.792969	38.486176
2710.295106	17473.102333	1977.825195	91.117096
2710.295106	17473.102333	1976.857422	-58.998905
2710.295106	17473.102333	1975.888672	136.175003
2710.295106	17473.102333	1974.919922	192.807663
2710.295106	17473.102333	1973.951172	66.577942
2710.295106	17473.102333	1972.982422	107.873283
2710.295106	17473.102333	1972.013672	262.350372
2710.295106	17473.102333	1971.043945	-118.533051
2710.295106	17473.102333	1970.075195	-220.921219
2710.295106	17473.102333	1969.105469	154.698059
2710.295106	17473.102333	1968.135742	76.528435
2710.295106	17473.102333	1967.165039	131.246338
2710.295106	17473.102333	1966.195313	163.592743
2710.295106	17473.102333	1965.224609	318.907166
2710.295106	17473.102333	1964.253906	161.256195
2710.295106	17473.102333	1963.283203	136.463715
2710.295106	17473.102333	1962.312500	217.388504
2710.295106	17473.102333	1961.341797	347.371460
2710.295106	17473.102333	1960.370117	-39.574184
2710.295106	17473.102333	1959.399414	85.243912
2710.295106	17473.102333	1958.427734	-282.059387
2710.295106	17473.102333	1957.455078	349.171906
2710.295106	17473.102333	1956.483398	185.848724
2710.295106	17473.102333	1955.511719	371.598053
2710.295106	17473.102333	1954.539063	80.345070
2710.295106	17473.102333	1953.566406	401.053345
2710.295106	17473.102333	1952.593750	38.508770
2710.295106	17473.102333	1951.621094	-365.725647
2710.295106	17473.102333	1950.647461	-342.493439
2710.295106	17473.102333	1949.674805	-164.606995
2710.295106	17473.102333	1948.701172	-40.847912
2710.295106	17473.102333	1947.727539	-47.277042
2710.295106	17473.102333	1946.753906	-4.648909
2710.295106	17473.102333	1945.780273	160.629425
2710.295106	17473.102333	1944.805664	-29.925766
2710.295106	17473.102333	1943.831055	176.954056
2710.295106	17473.102333	1942.856445	-136.189575
2710.295106	17473.102333	1941.881836	109.840950
2710.295106	17473.102333	1940.907227	235.647308
2710.295106	17473.102333	1939.932617	32.952106
2710.295106	17473.102333	1938.957031	232.243073
2710.295106	17473.102333	1937.981445	142.340408
2710.295106	17473.102333	1937.005859	-224.344391
2710.295106	17473.102333	1936.030273	63.086330
2710.295106	17473.102333	1935.054688	396.951935
2710.295106	17473.102333	1934.078125	35.364323
2710.295106	17473.102333	1933.101563	85.185776
2710.295106	17473.102333	1932.125000	215.778107
2710.295106	17473.102333	1931.148438	126.114311
2710.295106	17473.102333	1930.171875	131.926971
2710.295106	17473.102333	1929.194336	-11.446048
2710.295106	17473.102333	1928.217773	-218.323074
2710.295106	17473.102333	1927.240234	39.498634
2710.295106	17473.102333	1926.262695	143.239426
2710.295106	17473.102333	1925.284180	36.766014
2710.295106	17473.102333	1924.306641	79.444763
2710.295106	17473.102333	1923.328125	-46.447624
2710.295106	17473.102333	1922.350586	120.898148
2710.295106	17473.102333	1921.372070	-305.301880
2710.295106	17473.102333	1920.392578	-264.878845
2710.295106	17473.102333	1919.414063	97.858665
2710.295106	17473.102333	1918.434570	89.454758
2710.295106	17473.102333	1917.456055	129.909073
2710.295106	17473.102333	1916.476563	-246.882828
2710.295106	17473.102333	1915.497070	74.274124
2710.295106	17473.102333	1914.516602	-129.094131
2710.295106	17473.102333	1913.537109	38.358940
2710.295106	17473.102333	1912.556641	22.913549
2710.295106	17473.102333	1911.576172	-343.542480
2710.295106	17473.102333	1910.595703	-24.894289
2710.295106	17473.102333	1909.615234	64.597816
2710.295106	17473.102333	1908.633789	46.887180
2710.295106	17473.102333	1907.653320	-126.684708
2710.295106	17473.102333	1906.671875	28.658400
2710.295106	17473.102333	1905.690430	-105.805870
2710.295106	17473.102333	1904.708984	54.421509
2710.295106	17473.102333	1903.727539	134.292618
2710.295106	17473.102333	1902.745117	116.817146
2710.295106	17473.102333	1901.762695	60.447987
2710.295106	17473.102333	1900.780273	33.328388
2710.295106	17473.102333	1899.797852	-309.968781
2710.295106	17473.102333	1898.815430	468.047180
2710.295106	17473.102333	1897.832031	151.600647
2710.295106	17473.102333	1896.849609	22.496235
2710.295106	17473.102333	1895.866211	-155.146133
2710.295106	17473.102333	1894.882813	243.254639
2710.295106	17473.102333	1893.898438	143.432434
2710.295106	17473.102333	1892.915039	-123.951118
2710.295106	17473.102333	1891.930664	-116.758583
2710.295106	17473.102333	1890.947266	-82.840263
2710.295106	17473.102333	1889.962891	99.181496
2710.295106	17473.102333	1888.977539	-189.779297
2710.295106	17473.102333	1887.993164	-148.547821
2710.295106	17473.102333	1887.007813	-15.115636
2710.295106	17473.102333	1886.023438	11.525932
2710.295106	17473.102333	1885.038086	-83.122543
2710.295106	17473.102333	1884.051758	-44.348503
2710.295106	17473.102333	1883.066406	-160.772339
2710.295106	17473.102333	1882.081055	-357.156738
2710.295106	17473.102333	1881.094727	-461.367889
2710.295106	17473.102333	1880.108398	-197.194870
2710.295106	17473.102333	1879.122070	-156.040512
2710.295106	17473.102333	1878.135742	-39.817509
2710.295106	17473.102333	1877.148438	-81.085617
2710.295106	17473.102333	1876.162109	-20.648994
2710.295106	17473.102333	1875.174805	204.377228
2710.295106	17473.102333	1874.187500	12.944153
2710.295106	17473.102333	1873.199219	-38.070713
2710.295106	17473.102333	1872.211914	162.557846
2710.295106	17473.102333	1871.223633	186.470261
2710.295106	17473.102333	1870.236328	-77.500740
2710.295106	17473.102333	1869.248047	-41.531292
2710.295106	17473.102333	1868.258789	-82.989502
2710.295106	17473.102333	1867.270508	97.934052
2710.295106	17473.102333	1866.282227	-132.150940
2710.295106	17473.102333	1865.292969	-35.961166
2710.295106	17473.102333	1864.303711	-176.637222
2710.295106	17473.102333	1863.314453	45.034874
2710.295106	17473.102333	1862.324219	37.121441
2710.295106	17473.102333	1861.334961	-81.926979
2710.295106	17473.102333	1860.344727	-0.607762
2710.295106	17473.102333	1859.354492	162.686737
2710.295106	17473.102333	1858.364258	142.432190
2710.295106	17473.102333	1857.374023	73.856155
2710.295106	17473.102333	1856.383789	335.742920
2710.295106	17473.102333	1855.392578	418.960999
2710.295106	17473.102333	1854.401367	96.923080
2710.295106	17473.102333	1853.410156	196.868469
2710.295106	17473.102333	1852.418945	-11.873685
2710.295106	17473.102333	1851.426758	121.621513
2710.295106	17473.102333	1850.435547	160.995605
2710.295106	17473.102333	1849.443359	149.663666
2710.295106	17473.102333	1848.451172	94.876701
2710.295106	17473.102333	1847.458984	100.221733
2710.295106	17473.102333	1846.466797	74.156860
2710.295106	17473.102333	1845.473633	310.411102
2710.295106	17473.102333	1844.480469	101.163689
2710.295106	17473.102333	1843.487305	-67.207375
2710.295106	17473.102333	1842.494141	245.599823
2710.295106	17473.102333	1841.500977	247.838364
2710.295106	17473.102333	1840.506836	79.178192
2710.295106	17473.102333	1839.513672	98.034714
2710.295106	17473.102333	1838.519531	131.182114
2710.295106	17473.102333	1837.525391	82.452789
2710.295106	17473.102333	1836.530273	-72.141960
2710.295106	17473.102333	1835.536133	239.367065
2710.295106	17473.102333	1834.541016	38.878101
2710.295106	17473.102333	1833.545898	104.954597
2710.295106	17473.102333	1832.550781	-6.855295
2710.295106	17473.102333	1831.555664	272.619659
2710.295106	17473.102333	1830.560547	90.904221
2710.295106	17473.102333	1829.564453	266.741302
2710.295106	17473.102333	1828.568359	281.570129
2710.295106	17473.102333	1827.572266	133.081512
2710.295106	17473.102333	1826.576172	-226.615646
2710.295106	17473.102333	1825.580078	27.667585
2710.295106	17473.102333	1824.583008	37.087517
2710.295106	17473.102333	1823.585938	51.133076
2710.295106	17473.102333	1822.588867	79.385880
2710.295106	17473.102333	1821.591797	90.679504
2710.295106	17473.102333	1820.594727	367.773346
2710.295106	17473.102333	1819.596680	-33.415211
2710.295106	17473.102333	1818.599609	37.246712
2710.295106	17473.102333	1817.601563	66.982704
2710.295106	17473.102333	1816.603516	-212.351715
2710.295106	17473.102333	1815.604492	-82.412071
2710.295106	17473.102333	1814.606445	296.221252
2710.295106	17473.102333	1813.607422	284.448273
2710.295106	17473.102333	1812.608398	76.297226
2710.295106	17473.102333	1811.609375	-225.265213
2710.295106	17473.102333	1810.610352	123.626167
2710.295106	17473.102333	1809.610352	173.275864
2710.295106	17473.102333	1808.611328	196.414505
2710.295106	17473.102333	1807.611328	477.486938
2710.295106	17473.102333	1806.611328	442.786377
2710.295106	17473.102333	1805.610352	231.065903
2710.295106	17473.102333	1804.610352	-50.055443
2710.295106	17473.102333	1803.609375	172.686066
2710.295106	17473.102333	1802.608398	445.277954
2710.295106	17473.102333	1801.607422	87.224350
2710.295106	17473.102333	1800.606445	103.873260
2710.295106	17473.102333	1799.605469	51.082436
2710.295106	17473.102333	1798.603516	-168.956772
2710.295106	17473.102333	1797.601563	150.058823
2710.295106	17473.102333	1796.599609	363.772247
2710.295106	17473.102333	1795.597656	-78.667587
2710.295106	17473.102333	1794.595703	41.564102
2710.295106	17473.102333	1793.592773	82.839432
2710.295106	17473.102333	1792.589844	383.673767
2710.295106	17473.102333	1791.587891	250.452469
2710.295106	17473.102333	1790.583984	-123.622505
2710.295106	17473.102333	1789.581055	-47.542667
2710.295106	17473.102333	1788.577148	152.110077
2710.295106	17473.102333	1787.574219	-129.556885
2710.295106	17473.102333	1786.570313	-92.335258
2710.295106	17473.102333	1785.566406	154.106598
2710.295106	17473.102333	1784.561523	55.111790
2710.295106	17473.102333	1783.557617	120.108032
2710.295106	17473.102333	1782.552734	479.825409
2710.295106	17473.102333	1781.547852	294.465759
2710.295106	17473.102333	1780.542969	-197.846741
2710.295106	17473.102333	1779.538086	-88.663719
2710.295106	17473.102333	1778.532227	-1.180291
2710.295106	17473.102333	1777.527344	-151.641510
2710.295106	17473.102333	1776.521484	1.861825
2710.295106	17473.102333	1775.515625	-8.878925
2710.295106	17473.102333	1774.508789	-8.003017
2710.295106	17473.102333	1773.502930	16.385208
2710.295106	17473.102333	1772.496094	-303.806763
2710.295106	17473.102333	1771.489258	47.731102
2710.295106	17473.102333	1770.482422	42.838230
2710.295106	17473.102333	1769.475586	18.709541
2710.295106	17473.102333	1768.467773	-302.270020
2710.295106	17473.102333	1767.460938	192.692856
2710.295106	17473.102333	1766.453125	-17.233292
2710.295106	17473.102333	1765.445313	-184.648849
2710.295106	17473.102333	1764.437500	313.967499
2710.295106	17473.102333	1763.428711	-214.289368
2710.295106	17473.102333	1762.420898	290.741699
2710.295106	17473.102333	1761.412109	207.654800
2710.295106	17473.102333	1760.403320	-114.938126
2710.295106	17473.102333	1759.393555	429.244568
2710.295106	17473.102333	1758.384766	-140.077316
2710.295106	17473.102333	1757.375000	-29.910997
2710.295106	17473.102333	1756.366211	-83.369583
2710.295106	17473.102333	1755.356445	125.636429
2710.295106	17473.102333	1754.345703	128.409286
2710.295106	17473.102333	1753.335938	-55.969181
2710.295106	17473.102333	1752.325195	95.348991
2710.295106	17473.102333	1751.315430	255.831436
2710.295106	17473.102333	1750.304688	-255.571243
2710.295106	17473.102333	1749.292969	180.968796
2710.295106	17473.102333	1748.282227	82.909012
2710.295106	17473.102333	1747.270508	313.102997
2710.295106	17473.102333	1746.259766	141.296387
2710.295106	17473.102333	1745.248047	25.976618
2710.295106	17473.102333	1744.235352	75.756927
2710.295106	17473.102333	1743.223633	-106.137032
2710.295106	17473.102333	1742.211914	191.067841
2710.295106	17473.102333	1741.199219	192.813660
2710.295106	17473.102333	1740.186523	81.022659
2710.295106	17473.102333	1739.173828	-123.005508
2710.295106	17473.102333	1738.160156	83.270309
2710.295106	17473.102333	1737.147461	109.977242
2710.295106	17473.102333	1736.133789	155.264938
2710.295106	17473.102333	1735.120117	-174.612946
2710.295106	17473.102333	1734.106445	-471.608521
2710.295106	17473.102333	1733.091797	-92.318314
2710.295106	17473.102333	1732.078125	-97.505280
2710.295106	17473.102333	1731.063477	-317.359772
2710.295106	17473.102333	1730.048828	-226.437347
2710.295106	17473.102333	1729.034180	-197.025848
2710.295106	17473.102333	1728.019531	124.114204
2710.295106	17473.102333	1727.003906	-237.868713
2710.295106	17473.102333	1725.988281	146.199402
2710.295106	17473.102333	1724.972656	146.286667
2710.295106	17473.102333	1723.957031	-227.974655
2710.295106	17473.102333	1722.941406	14.012542
2710.295106	17473.102333	1721.924805	-83.043663
2710.295106	17473.102333	1720.909180	148.946671
2710.295106	17473.102333	1719.892578	244.224304
2710.295106	17473.102333	1718.875977	101.818520
2710.295106	17473.102333	1717.858398	46.165207
2710.295106	17473.102333	1716.841797	91.373703
2710.295106	17473.102333	1715.824219	-58.683964
2710.295106	17473.102333	1714.806641	-220.653320
2710.295106	17473.102333	1713.789063	93.941956
2710.295106	17473.102333	1712.770508	215.630661
2710.295106	17473.102333	1711.752930	212.664948
2710.295106	17473.102333	1710.734375	110.873962
2710.295106	17473.102333	1709.715820	-136.583908
2710.295106	17473.102333	1708.697266	21.720928
2710.295106	17473.102333	1707.678711	-92.350250
2710.295106	17473.102333	1706.659180	375.001862
2710.295106	17473.102333	1705.640625	91.658859
2710.295106	17473.102333	1704.621094	567.754395
2710.295106	17473.102333	1703.600586	607.461914
2710.295106	17473.102333	1702.581055	103.302742
2710.295106	17473.102333	1701.561523	571.476440
2710.295106	17473.102333	1700.541016	350.529449
2710.295106	17473.102333	1699.520508	515.915283
2710.295106	17473.102333	1698.500000	638.889954
2710.295106	17473.102333	1697.478516	342.515106
2710.295106	17473.102333	1696.458008	518.923889
2710.295106	17473.102333	1695.436523	496.116211
2710.295106	17473.102333	1694.415039	365.495758
2710.295106	17473.102333	1693.393555	545.879272
2710.295106	17473.102333	1692.372070	199.743683
2710.295106	17473.102333	1691.349609	180.917343
2710.295106	17473.102333	1690.327148	648.232544
2710.295106	17473.102333	1689.304688	451.308777
2710.295106	17473.102333	1688.282227	548.769592
2710.295106	17473.102333	1687.259766	388.980743
2710.295106	17473.102333	1686.236328	306.142883
2710.295106	17473.102333	1685.213867	349.338348
2710.295106	17473.102333	1684.190430	695.911377
2710.295106	17473.102333	1683.166016	640.549622
2710.295106	17473.102333	1682.142578	328.291351
2710.295106	17473.102333	1681.119141	517.805908
2710.295106	17473.102333	1680.094727	714.057007
2710.295106	17473.102333	1679.070313	753.759583
2710.295106	17473.102333	1678.045898	664.998352
2710.295106	17473.102333	1677.020508	709.023865
2710.295106	17473.102333	1675.996094	566.379944
2710.295106	17473.102333	1674.970703	724.350037
2710.295106	17473.102333	1673.945313	483.540527
2710.295106	17473.102333	1672.919922	582.926819
2710.295106	17473.102333	1671.893555	616.862427
2710.295106	17473.102333	1670.868164	732.220642
2710.295106	17473.102333	1669.841797	996.426331
2710.295106	17473.102333	1668.815430	915.766357
2710.295106	17473.102333	1667.789063	1060.845093
2710.295106	17473.102333	1666.761719	870.517395
2710.295106	17473.102333	1665.735352	833.778931
2710.295106	17473.102333	1664.708008	915.569275
2710.295106	17473.102333	1663.680664	1264.744141
2710.295106	17473.102333	1662.653320	1113.601318
2710.295106	17473.102333	1661.625000	1334.444702
2710.295106	17473.102333	1660.597656	1020.380188
2710.295106	17473.102333	1659.569336	1185.156982
2710.295106	17473.102333	1658.541016	1359.065063
2710.295106	17473.102333	1657.512695	1435.214722
2710.295106	17473.102333	1656.483398	1434.536377
2710.295106	17473.102333	1655.455078	1194.558716
2710.295106	17473.102333	1654.425781	1219.291992
2710.295106	17473.102333	1653.396484	1527.198608
2710.295106	17473.102333	1652.366211	1530.757324
2710.295106	17473.102333	1651.336914	1638.716309
2710.295106	17473.102333	1650.306641	1556.233887
2710.295106	17473.102333	1649.276367	1754.440308
2710.295106	17473.102333	1648.246094	2168.223389
2710.295106	17473.102333	1647.215820	2113.301270
2710.295106	17473.102333	1646.185547	1981.819092
2710.295106	17473.102333	1645.154297	2476.222656
2710.295106	17473.102333	1644.123047	2421.049072
2710.295106	17473.102333	1643.091797	2453.898926
2710.295106	17473.102333	1642.060547	2521.437500
2710.295106	17473.102333	1641.028320	2813.561279
2710.295106	17473.102333	1639.997070	2600.665771
2710.295106	17473.102333	1638.964844	2952.773682
2710.295106	17473.102333	1637.931641	3385.694824
2710.295106	17473.102333	1636.899414	3255.977051
2710.295106	17473.102333	1635.867188	3230.415527
2710.295106	17473.102333	1634.833984	3510.215332
2710.295106	17473.102333	1633.800781	3720.476318
2710.295106	17473.102333	1632.767578	3699.340088
2710.295106	17473.102333	1631.734375	4133.739746
2710.295106	17473.102333	1630.700195	3798.017334
2710.295106	17473.102333	1629.666016	4209.039551
2710.295106	17473.102333	1628.631836	4226.999512
2710.295106	17473.102333	1627.597656	4697.832031
2710.295106	17473.102333	1626.563477	4759.564941
2710.295106	17473.102333	1625.528320	4913.621094
2710.295106	17473.102333	1624.493164	5058.381348
2710.295106	17473.102333	1623.458008	5055.316895
2710.295106	17473.102333	1622.422852	5356.970703
2710.295106	17473.102333	1621.387695	5183.076172
2710.295106	17473.102333	1620.351563	5606.863281
2710.295106	17473.102333	1619.315430	5790.565918
2710.295106	17473.102333	1618.279297	5598.240723
2710.295106	17473.102333	1617.243164	5560.516113
2710.295106	17473.102333	1616.207031	5294.567383
2710.295106	17473.102333	1615.169922	5049.461426
2710.295106	17473.102333	1614.132813	5214.734375
2710.295106	17473.102333	1613.095703	5435.276855
2710.295106	17473.102333	1612.058594	5204.205078
2710.295106	17473.102333	1611.020508	5281.890625
2710.295106	17473.102333	1609.983398	5511.623047
2710.295106	17473.102333	1608.945313	5474.173340
2710.295106	17473.102333	1607.907227	5282.543945
2710.295106	17473.102333	1606.868164	5302.758301
2710.295106	17473.102333	1605.830078	5495.648926
2710.295106	17473.102333	1604.791016	5467.608398
2710.295106	17473.102333	1603.751953	5754.783203
2710.295106	17473.102333	1602.712891	5299.046387
2710.295106	17473.102333	1601.673828	5531.089844
2710.295106	17473.102333	1600.633789	5533.171387
2710.295106	17473.102333	1599.594727	5641.095215
2710.295106	17473.102333	1598.554688	5666.286621
2710.295106	17473.102333	1597.513672	5379.029785
2710.295106	17473.102333	1596.473633	5372.260742
2710.295106	17473.102333	1595.433594	5195.621094
2710.295106	17473.102333	1594.392578	5301.542480
2710.295106	17473.102333	1593.351563	4920.794922
2710.295106	17473.102333	1592.310547	5483.701660
2710.295106	17473.102333	1591.268555	5254.686523
2710.295106	17473.102333	1590.227539	5409.082031
2710.295106	17473.102333	1589.185547	5476.308105
2710.295106	17473.102333	1588.143555	5438.106445
2710.295106	17473.102333	1587.100586	5223.420898
2710.295106	17473.102333	1586.058594	5242.821777
2710.295106	17473.102333	1585.015625	5216.451172
2710.295106	17473.102333	1583.972656	5128.325195
2710.295106	17473.102333	1582.929688	4930.371582
2710.295106	17473.102333	1581.886719	5002.944824
2710.295106	17473.102333	1580.843750	5135.169434
2710.295106	17473.102333	1579.799805	5146.062988
2710.295106	17473.102333	1578.755859	4651.090332
2710.295106	17473.102333	1577.711914	4424.276855
2710.295106	17473.102333	1576.666992	4643.938965
2710.295106	17473.102333	1575.623047	4321.386230
2710.295106	17473.102333	1574.578125	3857.224854
2710.295106	17473.102333	1573.533203	3878.304199
2710.295106	17473.102333	1572.488281	4055.033203
2710.295106	17473.102333	1571.443359	4192.973145
2710.295106	17473.102333	1570.397461	3807.491943
2710.295106	17473.102333	1569.351563	3744.574707
2710.295106	17473.102333	1568.305664	3793.814209
2710.295106	17473.102333	1567.259766	3710.689453
2710.295106	17473.102333	1566.213867	3762.527100
2710.295106	17473.102333	1565.166992	3643.195801
2710.295106	17473.102333	1564.120117	3615.418457
2710.295106	17473.102333	1563.073242	3564.994141
2710.295106	17473.102333	1562.026367	3521.613037
2710.295106	17473.102333	1560.978516	3551.417969
2710.295106	17473.102333	1559.930664	3560.857178
2710.295106	17473.102333	1558.883789	3255.726563
2710.295106	17473.102333	1557.834961	3112.758057
2710.295106	17473.102333	1556.787109	3307.529297
2710.295106	17473.102333	1555.739258	3274.444580
2710.295106	17473.102333	1554.690430	3013.608398
2710.295106	17473.102333	1553.641602	3336.448730
2710.295106	17473.102333	1552.592773	3158.120117
2710.295106	17473.102333	1551.542969	3494.836914
2710.295106	17473.102333	1550.494141	3537.865234
2710.295106	17473.102333	1549.444336	2731.729004
2710.295106	17473.102333	1548.394531	3323.925537
2710.295106	17473.102333	1547.344727	3203.675781
2710.295106	17473.102333	1546.293945	2960.769531
2710.295106	17473.102333	1545.244141	3075.415039
2710.295106	17473.102333	1544.193359	2742.072998
2710.295106	17473.102333	1543.142578	3029.973145
2710.295106	17473.102333	1542.090820	2669.902344
2710.295106	17473.102333	1541.040039	2660.329102
2710.295106	17473.102333	1539.988281	2316.832275
2710.295106	17473.102333	1538.936523	2700.910889
2710.295106	17473.102333	1537.884766	2239.852051
2710.295106	17473.102333	1536.833008	2599.270752
2710.295106	17473.102333	1535.780273	2206.994141
2710.295106	17473.102333	1534.727539	2591.699707
2710.295106	17473.102333	1533.674805	2193.244873
2710.295106	17473.102333	1532.622070	2142.471191
2710.295106	17473.102333	1531.569336	2064.732422
2710.295106	17473.102333	1530.515625	1721.777832
2710.295106	17473.102333	1529.461914	1687.721436
2710.295106	17473.102333	1528.408203	1447.533813
2710.295106	17473.102333	1527.354492	1640.806641
2710.295106	17473.102333	1526.299805	1732.212280
2710.295106	17473.102333	1525.246094	1146.114380
2710.295106	17473.102333	1524.191406	1025.067261
2710.295106	17473.102333	1523.136719	1062.929321
2710.295106	17473.102333	1522.081055	958.299561
2710.295106	17473.102333	1521.026367	892.500610
2710.295106	17473.102333	1519.970703	387.664795
2710.295106	17473.102333	1518.915039	480.995056
2710.295106	17473.102333	1517.859375	311.983154
2710.295106	17473.102333	1516.802734	272.284088
2710.295106	17473.102333	1515.747070	248.735229
2710.295106	17473.102333	1514.690430	155.317169
2710.295106	17473.102333	1513.633789	229.582932
2710.295106	17473.102333	1512.577148	236.256577
2710.295106	17473.102333	1511.519531	53.271709
2710.295106	17473.102333	1510.461914	263.953888
2710.295106	17473.102333	1509.405273	-42.681004
2710.295106	17473.102333	1508.346680	-364.767059
2710.295106	17473.102333	1507.289063	-315.931244
2710.295106	17473.102333	1506.231445	-83.876320
2710.295106	17473.102333	1505.172852	-43.592972
2710.295106	17473.102333	1504.114258	-14.325780
2710.295106	17473.102333	1503.055664	6.192066
2710.295106	17473.102333	1501.996094	47.287010
2710.295106	17473.102333	1500.937500	-130.192062
2710.295106	17473.102333	1499.877930	-318.604919
2710.295106	17473.102333	1498.818359	0.841410
2710.295106	17473.102333	1497.757813	-177.925980
2710.295106	17473.102333	1496.698242	33.742161
2710.295106	17473.102333	1495.637695	-221.003967
2710.295106	17473.102333	1494.577148	-162.079636
2710.295106	17473.102333	1493.516602	-64.571815
2710.295106	17473.102333	1492.456055	211.172775
2710.295106	17473.102333	1491.394531	59.147209
2710.295106	17473.102333	1490.333008	83.138084
2710.295106	17473.102333	1489.271484	-36.668228
2710.295106	17473.102333	1488.209961	102.748619
2710.295106	17473.102333	1487.148438	-236.954346
2710.295106	17473.102333	1486.085938	-31.694818
2710.295106	17473.102333	1485.023438	-98.418266
2710.295106	17473.102333	1483.960938	66.870155
2710.295106	17473.102333	1482.898438	389.821503
2710.295106	17473.102333	1481.834961	139.624619
2710.295106	17473.102333	1480.772461	-105.627220
2710.295106	17473.102333	1479.708984	319.232330
2710.295106	17473.102333	1478.644531	386.970367
2710.295106	17473.102333	1477.581055	187.717346
2710.295106	17473.102333	1476.517578	-82.995636
2710.295106	17473.102333	1475.453125	264.242615
2710.295106	17473.102333	1474.388672	180.596649
2710.295106	17473.102333	1473.323242	108.661819
2710.295106	17473.102333	1472.258789	411.893555
2710.295106	17473.102333	1471.193359	91.349541
2710.295106	17473.102333	1470.127930	338.978180
2710.295106	17473.102333	1469.062500	326.299316
2710.295106	17473.102333	1467.997070	534.094543
2710.295106	17473.102333	1466.930664	618.784973
2710.295106	17473.102333	1465.865234	683.611389
2710.295106	17473.102333	1464.798828	757.521667
2710.295106	17473.102333	1463.731445	565.719971
2710.295106	17473.102333	1462.665039	776.988098
2710.295106	17473.102333	1461.597656	775.927979
2710.295106	17473.102333	1460.530273	747.614075
2710.295106	17473.102333	1459.462891	1149.632202
2710.295106	17473.102333	1458.395508	868.330322
2710.295106	17473.102333	1457.327148	1118.053833
2710.295106	17473.102333	1456.259766	1174.233154
2710.295106	17473.102333	1455.191406	1560.184570
2710.295106	17473.102333	1454.123047	1215.585938
2710.295106	17473.102333	1453.053711	1165.166870
2710.295106	17473.102333	1451.985352	1247.796387
2710.295106	17473.102333	1450.916016	1035.879272
2710.295106	17473.102333	1449.846680	1317.755981
2710.295106	17473.102333	1448.776367	1253.079102
2710.295106	17473.102333	1447.707031	786.590332
2710.295106	17473.102333	1446.636719	1113.688721
2710.295106	17473.102333	1445.566406	1019.401062
2710.295106	17473.102333	1444.496094	1226.781738
2710.295106	17473.102333	1443.425781	1470.881348
2710.295106	17473.102333	1442.354492	1230.447632
2710.295106	17473.102333	1441.283203	1379.775757
2710.295106	17473.102333	1440.211914	1227.283203
2710.295106	17473.102333	1439.140625	1269.985107
2710.295106	17473.102333	1438.069336	1162.447632
2710.295106	17473.102333	1436.997070	1086.935669
2710.295106	17473.102333	1435.924805	1138.851807
2710.295106	17473.102333	1434.852539	1311.308960
2710.295106	17473.102333	1433.780273	969.880737
2710.295106	17473.102333	1432.707031	843.333191
2710.295106	17473.102333	1431.633789	726.251404
2710.295106	17473.102333	1430.560547	890.314331
2710.295106	17473.102333	1429.487305	690.611328
2710.295106	17473.102333	1428.413086	390.257080
2710.295106	17473.102333	1427.339844	146.754822
2710.295106	17473.102333	1426.265625	585.838867
2710.295106	17473.102333	1425.191406	82.447739
2710.295106	17473.102333	1424.116211	-29.599541
2710.295106	17473.102333	1423.041992	12.049316
2710.295106	17473.102333	1421.966797	174.564499
2710.295106	17473.102333	1420.891602	220.266083
2710.295106	17473.102333	1419.816406	258.719696
2710.295106	17473.102333	1418.740234	257.819824
2710.295106	17473.102333	1417.665039	69.275146
2710.295106	17473.102333	1416.588867	-15.499179
2710.295106	17473.102333	1415.512695	-97.126030
2710.295106	17473.102333	1414.435547	156.161316
2710.295106	17473.102333	1413.359375	42.572964
2710.295106	17473.102333	1412.282227	114.178688
2710.295106	17473.102333	1411.205078	308.436371
2710.295106	17473.102333	1410.127930	-28.752630
2710.295106	17473.102333	1409.049805	319.141418
2710.295106	17473.102333	1407.972656	74.227974
2710.295106	17473.102333	1406.894531	774.388184
2710.295106	17473.102333	1405.816406	407.742493
2710.295106	17473.102333	1404.737305	203.470078
2710.295106	17473.102333	1403.659180	427.396881
2710.295106	17473.102333	1402.580078	699.331970
2710.295106	17473.102333	1401.500977	838.097656
2710.295106	17473.102333	1400.421875	559.321655
2710.295106	17473.102333	1399.341797	764.793884
2710.295106	17473.102333	1398.262695	861.653748
2710.295106	17473.102333	1397.182617	1151.466797
2710.295106	17473.102333	1396.102539	954.765015
2710.295106	17473.102333	1395.021484	681.268921
2710.295106	17473.102333	1393.941406	883.033569
2710.295106	17473.102333	1392.860352	844.349426
2710.295106	17473.102333	1391.779297	1065.161133
2710.295106	17473.102333	1390.698242	823.584656
2710.295106	17473.102333	1389.616211	1231.486206
2710.295106	17473.102333	1388.535156	1229.812622
2710.295106	17473.102333	1387.453125	1172.454834
2710.295106	17473.102333	1386.371094	808.308838
2710.295106	17473.102333	1385.288086	941.918091
2710.295106	17473.102333	1384.206055	976.356079
2710.295106	17473.102333	1383.123047	1231.546631
2710.295106	17473.102333	1382.040039	1436.396973
2710.295106	17473.102333	1380.957031	1671.338989
2710.295106	17473.102333	1379.873047	1659.659180
2710.295106	17473.102333	1378.789063	1513.646606
2710.295106	17473.102333	1377.705078	1492.991089
2710.295106	17473.102333	1376.621094	1621.601196
2710.295106	17473.102333	1375.537109	1812.963501
2710.295106	17473.102333	1374.452148	1581.061035
2710.295106	17473.102333	1373.367188	1777.919800
2710.295106	17473.102333	1372.282227	1993.401367
2710.295106	17473.102333	1371.197266	1819.078369
2710.295106	17473.102333	1370.112305	1923.308350
2710.295106	17473.102333	1369.026367	2020.786377
2710.295106	17473.102333	1367.940430	2085.751953
2710.295106	17473.102333	1366.854492	1837.855957
2710.295106	17473.102333	1365.767578	1959.352295
2710.295106	17473.102333	1364.681641	2011.336914
2710.295106	17473.102333	1363.594727	2059.859375
2710.295106	17473.102333	1362.507813	2004.165894
2710.295106	17473.102333	1361.419922	1699.089478
2710.295106	17473.102333	1360.333008	1561.290649
2710.295106	17473.102333	1359.245117	1812.184082
2710.295106	17473.102333	1358.157227	1771.358398
2710.295106	17473.102333	1357.069336	1730.827637
2710.295106	17473.102333	1355.981445	2065.058350
2710.295106	17473.102333	1354.892578	1769.916870
2710.295106	17473.102333	1353.803711	2046.514038
2710.295106	17473.102333	1352.714844	1808.977051
2710.295106	17473.102333	1351.625000	1911.496704
2710.295106	17473.102333	1350.536133	1915.045288
2710.295106	17473.102333	1349.446289	2092.104004
2710.295106	17473.102333	1348.356445	2039.833740
2710.295106	17473.102333	1347.266602	2002.463135
2710.295106	17473.102333	1346.175781	2455.429932
2710.295106	17473.102333	1345.085938	2583.938721
2710.295106	17473.102333	1343.995117	2692.156250
2710.295106	17473.102333	1342.903320	2483.936768
2710.295106	17473.102333	1341.812500	2296.550293
2710.295106	17473.102333	1340.720703	2287.543213
2710.295106	17473.102333	1339.629883	2082.544189
2710.295106	17473.102333	1338.538086	2322.249268
2710.295106	17473.102333	1337.445313	2176.278076
2710.295106	17473.102333	1336.353516	2209.820557
2710.295106	17473.102333	1335.260742	1844.729858
2710.295106	17473.102333	1334.167969	1967.238525
2710.295106	17473.102333	1333.075195	2291.985107
2710.295106	17473.102333	1331.981445	2071.300293
2710.295106	17473.102333	1330.888672	2030.903320
2710.295106	17473.102333	1329.794922	2041.332886
2710.295106	17473.102333	1328.701172	2287.906494
2710.295106	17473.102333	1327.606445	2184.705811
2710.295106	17473.102333	1326.512695	2168.811279
2710.295106	17473.102333	1325.417969	2205.177734
2710.295106	17473.102333	1324.323242	2475.301025
2710.295106	17473.102333	1323.227539	2177.677490
2710.295106	17473.102333	1322.132813	2122.738525
2710.295106	17473.102333	1321.037109	1939.931641
2710.295106	17473.102333	1319.941406	2181.771973
2710.295106	17473.102333	1318.845703	2184.960693
2710.295106	17473.102333	1317.750000	2023.124634
2710.295106	17473.102333	1316.653320	2085.620117
2710.295106	17473.102333	1315.556641	2162.074951
2710.295106	17473.102333	1314.459961	2015.174438
2710.295106	17473.102333	1313.363281	1928.350098
2710.295106	17473.102333	1312.265625	1983.818604
2710.295106	17473.102333	1311.167969	1857.175537
2710.295106	17473.102333	1310.070313	1909.262695
2710.295106	17473.102333	1308.972656	1505.425415
2710.295106	17473.102333	1307.874023	1717.396484
2710.295106	17473.102333	1306.776367	1553.118286
2710.295106	17473.102333	1305.677734	1496.060425
2710.295106	17473.102333	1304.579102	1287.880249
2710.295106	17473.102333	1303.479492	1327.080688
2710.295106	17473.102333	1302.380859	1356.905640
2710.295106	17473.102333	1301.281250	1179.374634
2710.295106	17473.102333	1300.181641	1057.839966
2710.295106	17473.102333	1299.081055	910.328186
2710.295106	17473.102333	1297.981445	1051.176270
2710.295106	17473.102333	1296.880859	841.216980
2710.295106	17473.102333	1295.780273	1146.640137
2710.295106	17473.102333	1294.679688	752.668152
2710.295106	17473.102333	1293.578125	924.406311
2710.295106	17473.102333	1292.476563	709.030396
2710.295106	17473.102333	1291.375000	693.252991
2710.295106	17473.102333	1290.273438	899.134399
2710.295106	17473.102333	1289.171875	848.516296
2710.295106	17473.102333	1288.069336	547.967468
2710.295106	17473.102333	1286.966797	648.237244
2710.295106	17473.102333	1285.864258	727.503113
2710.295106	17473.102333	1284.761719	653.251160
2710.295106	17473.102333	1283.658203	704.156189
2710.295106	17473.102333	1282.554688	684.230713
2710.295106	17473.102333	1281.451172	520.953003
2710.295106	17473.102333	1280.347656	358.094421
2710.295106	17473.102333	1279.244141	482.949677
2710.295106	17473.102333	1278.139648	526.041565
2710.295106	17473.102333	1277.035156	343.009216
2710.295106	17473.102333	1275.930664	485.909058
2710.295106	17473.102333	1274.825195	623.102051
2710.295106	17473.102333	1273.720703	360.910706
2710.295106	17473.102333	1272.615234	599.014282
2710.295106	17473.102333	1271.508789	479.168762
2710.295106	17473.102333	1270.403320	805.489075
2710.295106	17473.102333	1269.297852	436.203552
2710.295106	17473.102333	1268.191406	432.878845
2710.295106	17473.102333	1267.084961	658.768494
2710.295106	17473.102333	1265.977539	379.861084
2710.295106	17473.102333	1264.871094	637.526733
2710.295106	17473.102333	1263.763672	332.852203
2710.295106	17473.102333	1262.656250	274.911163
2710.295106	17473.102333	1261.548828	429.568726
2710.295106	17473.102333	1260.440430	278.239594
2710.295106	17473.102333	1259.333008	544.097961
2710.295106	17473.102333	1258.224609	377.744904
2710.295106	17473.102333	1257.115234	380.936432
2710.295106	17473.102333	1256.006836	640.086548
2710.295106	17473.102333	1254.897461	627.738220
2710.295106	17473.102333	1253.788086	501.765320
2710.295106	17473.102333	1252.678711	540.052612
2710.295106	17473.102333	1251.569336	549.744568
2710.295106	17473.102333	1250.458984	732.549377
2710.295106	17473.102333	1249.349609	657.986084
2710.295106	17473.102333	1248.239258	803.121582
2710.295106	17473.102333	1247.127930	827.534119
2710.295106	17473.102333	1246.017578	593.830383
2710.295106	17473.102333	1244.906250	589.345154
2710.295106	17473.102333	1243.794922	527.522339
2710.295106	17473.102333	1242.683594	578.588501
2710.295106	17473.102333	1241.571289	764.164368
2710.295106	17473.102333	1240.459961	590.545776
2710.295106	17473.102333	1239.347656	484.784637
2710.295106	17473.102333	1238.234375	386.336182
2710.295106	17473.102333	1237.122070	474.630829
2710.295106	17473.102333	1236.008789	491.462921
2710.295106	17473.102333	1234.896484	600.868286
2710.295106	17473.102333	1233.782227	387.934143
2710.295106	17473.102333	1232.668945	255.430847
2710.295106	17473.102333	1231.555664	482.161011
2710.295106	17473.102333	1230.441406	238.396027
2710.295106	17473.102333	1229.327148	321.802246
2710.295106	17473.102333	1228.211914	384.668732
2710.295106	17473.102333	1227.097656	283.997894
2710.295106	17473.102333	1225.982422	292.527863
2710.295106	17473.102333	1224.867188	160.395721
2710.295106	17473.102333	1223.751953	65.869171
2710.295106	17473.102333	1222.635742	147.729553
2710.295106	17473.102333	1221.520508	-4.337117
2710.295106	17473.102333	1220.404297	189.321442
2710.295106	17473.102333	1219.287109	60.435940
2710.295106	17473.102333	1218.170898	92.524452
2710.295106	17473.102333	1217.053711	-48.207966
2710.295106	17473.102333	1215.936523	-101.383972
2710.295106	17473.102333	1214.819336	162.891251
2710.295106	17473.102333	1213.702148	149.397278
2710.295106	17473.102333	1212.583984	-103.789597
2710.295106	17473.102333	1211.465820	190.797897
2710.295106	17473.102333	1210.347656	77.181557
2710.295106	17473.102333	1209.229492	175.568756
2710.295106	17473.102333	1208.110352	119.193985
2710.295106	17473.102333	1206.992188	212.050262
2710.295106	17473.102333	1205.873047	185.637451
2710.295106	17473.102333	1204.752930	139.262527
2710.295106	17473.102333	1203.633789	-31.714155
2710.295106	17473.102333	1202.513672	44.453297
2710.295106	17473.102333	1201.393555	71.337868
2710.295106	17473.102333	1200.273438	-145.483826
2710.295106	17473.102333	1199.152344	-71.679726
2710.295106	17473.102333	1198.032227	-21.055180
2710.295106	17473.102333	1196.911133	-83.257065
2710.295106	17473.102333	1195.790039	-303.022736
2710.295106	17473.102333	1194.667969	-45.535843
2710.295106	17473.102333	1193.545898	-158.531693
2710.295106	17473.102333	1192.424805	-110.102898
2710.295106	17473.102333	1191.301758	-184.744873
2710.295106	17473.102333	1190.179688	-43.033360
2710.295106	17473.102333	1189.056641	-416.099945
2710.295106	17473.102333	1187.933594	-1.527407
2710.295106	17473.102333	1186.810547	9.995430
2710.295106	17473.102333	1185.687500	106.266052
2710.295106	17473.102333	1184.563477	20.852589
2710.295106	17473.102333	1183.440430	30.716377
2710.295106	17473.102333	1182.316406	167.877777
2710.295106	17473.102333	1181.191406	230.999435
2710.295106	17473.102333	1180.067383	470.468781
2710.295106	17473.102333	1178.942383	179.425095
2710.295106	17473.102333	1177.817383	145.387680
2710.295106	17473.102333	1176.692383	234.107285
2710.295106	17473.102333	1175.566406	201.145889
2710.295106	17473.102333	1174.440430	23.511280
2710.295106	17473.102333	1173.314453	219.964005
2710.295106	17473.102333	1172.188477	359.426727
2710.295106	17473.102333	1171.062500	129.257706
2710.295106	17473.102333	1169.935547	210.516769
2710.295106	17473.102333	1168.808594	67.212029
2710.295106	17473.102333	1167.681641	59.483017
2710.295106	17473.102333	1166.553711	20.996876
2710.295106	17473.102333	1165.426758	121.900414
2710.295106	17473.102333	1164.298828	-33.771820
2710.295106	17473.102333	1163.170898	-172.099243
2710.295106	17473.102333	1162.041992	-123.422722
2710.295106	17473.102333	1160.914063	-236.848785
2710.295106	17473.102333	1159.785156	-205.798416
2710.295106	17473.102333	1158.656250	-189.001114
2710.295106	17473.102333	1157.526367	-453.889740
2710.295106	17473.102333	1156.397461	-386.687408
2710.295106	17473.102333	1155.267578	-362.366394
2710.295106	17473.102333	1154.137695	-515.206604
2710.295106	17473.102333	1153.006836	-479.234924
2710.295106	17473.102333	1151.876953	-566.355469
2710.295106	17473.102333	1150.746094	-381.298828
2710.295106	17473.102333	1149.615234	-297.479340
2710.295106	17473.102333	1148.484375	-296.376373
2710.295106	17473.102333	1147.352539	-424.282684
2710.295106	17473.102333	1146.220703	-363.321350
2710.295106	17473.102333	1145.088867	-120.284203
2710.295106	17473.102333	1143.957031	-336.689606
2710.295106	17473.102333	1142.825195	113.647240
2710.295106	17473.102333	1141.692383	-160.465164
2710.295106	17473.102333	1140.559570	355.495056
2710.295106	17473.102333	1139.426758	324.382660
2710.295106	17473.102333	1138.292969	152.218872
2710.295106	17473.102333	1137.159180	151.314880
2710.295106	17473.102333	1136.025391	304.115326
2710.295106	17473.102333	1134.891602	179.115631
2710.295106	17473.102333	1133.757813	111.656967
2710.295106	17473.102333	1132.623047	151.217239
2710.295106	17473.102333	1131.488281	155.711639
2710.295106	17473.102333	1130.353516	174.116135
2710.295106	17473.102333	1129.217773	350.840088
2710.295106	17473.102333	1128.083008	491.316833
2710.295106	17473.102333	1126.947266	288.006287
2710.295106	17473.102333	1125.811523	407.273285
2710.295106	17473.102333	1124.674805	242.651947
2710.295106	17473.102333	1123.539063	-10.896317
2710.295106	17473.102333	1122.402344	-56.507942
2710.295106	17473.102333	1121.265625	-7.313742
2710.295106	17473.102333	1120.127930	20.731800
2710.295106	17473.102333	1118.990234	17.644560
2710.295106	17473.102333	1117.853516	174.114609
2710.295106	17473.102333	1116.714844	-8.324580
2710.295106	17473.102333	1115.577148	-84.609680
2710.295106	17473.102333	1114.439453	2.732451
2710.295106	17473.102333	1113.300781	-112.001175
2710.295106	17473.102333	1112.162109	6.536013
2710.295106	17473.102333	1111.022461	118.941658
2710.295106	17473.102333	1109.883789	-53.256104
2710.295106	17473.102333	1108.744141	-13.064794
2710.295106	17473.102333	1107.604492	159.559830
2710.295106	17473.102333	1106.463867	197.642822
2710.295106	17473.102333	1105.324219	180.148682
2710.295106	17473.102333	1104.183594	161.549637
2710.295106	17473.102333	1103.042969	244.997787
2710.295106	17473.102333	1101.902344	378.469452
2710.295106	17473.102333	1100.760742	416.473633
2710.295106	17473.102333	1099.619141	435.918610
2710.295106	17473.102333	1098.477539	533.608826
2710.295106	17473.102333	1097.335938	650.692566
2710.295106	17473.102333	1096.193359	347.090637
2710.295106	17473.102333	1095.051758	554.650085
2710.295106	17473.102333	1093.909180	672.177673
2710.295106	17473.102333	1092.765625	464.057648
2710.295106	17473.102333	1091.623047	624.977539
2710.295106	17473.102333	1090.479492	472.632172
2710.295106	17473.102333	1089.335938	497.676849
2710.295106	17473.102333	1088.192383	274.257904
2710.295106	17473.102333	1087.047852	195.746750
2710.295106	17473.102333	1085.903320	266.105560
2710.295106	17473.102333	1084.758789	443.027679
2710.295106	17473.102333	1083.614258	120.050110
2710.295106	17473.102333	1082.469727	-19.143599
2710.295106	17473.102333	1081.324219	24.028427
2710.295106	17473.102333	1080.178711	153.294586
2710.295106	17473.102333	1079.033203	-23.321709
2710.295106	17473.102333	1077.886719	109.134216
2710.295106	17473.102333	1076.740234	68.215294
2710.295106	17473.102333	1075.593750	100.847305
2710.295106	17473.102333	1074.447266	108.987305
2710.295106	17473.102333	1073.300781	360.318909
2710.295106	17473.102333	1072.153320	134.554184
2710.295106	17473.102333	1071.005859	-84.589363
2710.295106	17473.102333	1069.858398	304.484039
2710.295106	17473.102333	1068.709961	414.505737
2710.295106	17473.102333	1067.561523	47.174011
2710.295106	17473.102333	1066.413086	213.988953
2710.295106	17473.102333	1065.264648	57.933086
2710.295106	17473.102333	1064.116211	413.791656
2710.295106	17473.102333	1062.966797	328.375671
2710.295106	17473.102333	1061.817383	188.493301
2710.295106	17473.102333	1060.667969	170.295090
2710.295106	17473.102333	1059.517578	367.224579
2710.295106	17473.102333	1058.368164	-112.241753
2710.295106	17473.102333	1057.217773	105.165825
2710.295106	17473.102333	1056.067383	244.990387
2710.295106	17473.102333	1054.916016	-52.893227
2710.295106	17473.102333	1053.764648	-80.476891
2710.295106	17473.102333	1052.613281	58.032551
2710.295106	17473.102333	1051.461914	92.955605
2710.295106	17473.102333	1050.310547	46.950668
2710.295106	17473.102333	1049.158203	93.671463
2710.295106	17473.102333	1048.005859	115.417633
2710.295106	17473.102333	1046.853516	-101.029358
2710.295106	17473.102333	1045.700195	240.759354
2710.295106	17473.102333	1044.547852	-30.835072
2710.295106	17473.102333	1043.394531	140.144379
2710.295106	17473.102333	1042.240234	87.685966
2710.295106	17473.102333	1041.086914	184.710495
2710.295106	17473.102333	1039.932617	353.563110
2710.295106	17473.102333	1038.778320	503.227814
2710.295106	17473.102333	1037.624023	454.921692
2710.295106	17473.102333	1036.469727	629.754456
2710.295106	17473.102333	1035.314453	533.906006
2710.295106	17473.102333	1034.159180	814.921448
2710.295106	17473.102333	1033.003906	993.916199
2710.295106	17473.102333	1031.847656	1036.517334
2710.295106	17473.102333	1030.692383	829.538025
2710.295106	17473.102333	1029.536133	791.716248
2710.295106	17473.102333	1028.378906	823.292419
2710.295106	17473.102333	1027.222656	773.046936
2710.295106	17473.102333	1026.065430	374.604065
2710.295106	17473.102333	1024.908203	303.706818
2710.295106	17473.102333	1023.750977	-38.128876
2710.295106	17473.102333	1022.593750	327.337555
2710.295106	17473.102333	1021.435547	296.568359
2710.295106	17473.102333	1020.277344	275.263885
2710.295106	17473.102333	1019.119141	110.127625
2710.295106	17473.102333	1017.959961	-76.110893
2710.295106	17473.102333	1016.800781	65.346642
2710.295106	17473.102333	1015.641602	189.731049
2710.295106	17473.102333	1014.482422	83.183304
2710.295106	17473.102333	1013.323242	64.996727
2710.295106	17473.102333	1012.163086	-31.665943
2710.295106	17473.102333	1011.002930	-21.390734
2710.295106	17473.102333	1009.842773	53.883263
2710.295106	17473.102333	1008.681641	-57.388500
2710.295106	17473.102333	1007.520508	-235.813263
2710.295106	17473.102333	1006.359375	-41.361370
2710.295106	17473.102333	1005.198242	-19.440651
2710.295106	17473.102333	1004.037109	129.955109
2710.295106	17473.102333	1002.875000	307.837616
2710.295106	17473.102333	1001.712891	171.014069
2710.295106	17473.102333	1000.550781	113.881355
2710.295106	17473.102333	999.387695	148.890350
2710.295106	17473.102333	998.224609	-87.774475
2710.295106	17473.102333	997.061523	-35.933086
2710.295106	17473.102333	995.898438	55.946144
2710.295106	17473.102333	994.734375	100.096977
2710.295106	17473.102333	993.571289	-30.515440
2710.295106	17473.102333	992.407227	-120.902557
2710.295106	17473.102333	991.242188	-119.486115
2710.295106	17473.102333	990.078125	-26.739952
2710.295106	17473.102333	988.913086	-84.304893
2710.295106	17473.102333	987.748047	-50.433262
2710.295106	17473.102333	986.583008	-91.052429
2710.295106	17473.102333	985.416992	176.326584
2710.295106	17473.102333	984.250977	-303.726044
2710.295106	17473.102333	983.084961	-229.565399
2710.295106	17473.102333	981.918945	-83.405998
2710.295106	17473.102333	980.751953	-149.571671
2710.295106	17473.102333	979.584961	-12.970457
2710.295106	17473.102333	978.417969	80.472229
2710.295106	17473.102333	977.250977	67.834862
2710.295106	17473.102333	976.083008	-356.491882
2710.295106	17473.102333	974.915039	44.656532
2710.295106	17473.102333	973.747070	120.385925
2710.295106	17473.102333	972.579102	81.036469
2710.295106	17473.102333	971.410156	79.152832
2710.295106	17473.102333	970.242188	-82.257683
2710.295106	17473.102333	969.072266	203.766144
2710.295106	17473.102333	967.903320	369.214905
2710.295106	17473.102333	966.733398	336.907684
2710.295106	17473.102333	965.563477	247.665848
2710.295106	17473.102333	964.393555	170.729950
2710.295106	17473.102333	963.223633	408.227264
2710.295106	17473.102333	962.052734	426.244781
2710.295106	17473.102333	960.881836	535.973267
2710.295106	17473.102333	959.710938	1052.594727
2710.295106	17473.102333	958.540039	1009.470764
2710.295106	17473.102333	957.368164	1026.141113
2710.295106	17473.102333	956.196289	1445.418091
2710.295106	17473.102333	955.024414	1344.354614
2710.295106	17473.102333	953.851563	1073.919922
2710.295106	17473.102333	952.679688	968.383301
2710.295106	17473.102333	951.506836	939.841187
2710.295106	17473.102333	950.333984	787.381348
2710.295106	17473.102333	949.160156	493.230713
2710.295106	17473.102333	947.986328	-16.173187
2710.295106	17473.102333	946.812500	289.158203
2710.295106	17473.102333	945.638672	410.938019
2710.295106	17473.102333	944.464844	258.631317
2710.295106	17473.102333	943.290039	-11.271796
2710.295106	17473.102333	942.115234	157.147079
2710.295106	17473.102333	940.940430	136.159622
2710.295106	17473.102333	939.764648	182.845581
2710.295106	17473.102333	938.588867	358.414520
2710.295106	17473.102333	937.413086	250.520996
2710.295106	17473.102333	936.237305	-66.131721
2710.295106	17473.102333	935.060547	-24.026726
2710.295106	17473.102333	933.883789	93.399376
2710.295106	17473.102333	932.707031	263.076447
2710.295106	17473.102333	931.530273	162.377670
2710.295106	17473.102333	930.352539	339.397797
2710.295106	17473.102333	929.175781	167.293457
2710.295106	17473.102333	927.998047	242.021423
2710.295106	17473.102333	926.819336	210.526962
2710.295106	17473.102333	925.641602	242.631149
2710.295106	17473.102333	924.462891	236.130188
2710.295106	17473.102333	923.284180	156.347794
2710.295106	17473.102333	922.104492	149.749252
2710.295106	17473.102333	920.924805	0.550972
2710.295106	17473.102333	919.746094	17.334883
2710.295106	17473.102333	919.551758	125.657997
2710.295106	17473.102333	918.386719	35.872131
2710.295106	17473.102333	917.220703	-26.987692
2710.295106	17473.102333	916.054688	-118.767311
2710.295106	17473.102333	914.887695	-35.455021
2710.295106	17473.102333	913.721680	-11.908116
2710.295106	17473.102333	912.554688	55.810726
2710.295106	17473.102333	911.387695	271.512177
2710.295106	17473.102333	910.220703	239.010681
2710.295106	17473.102333	909.052734	194.925003
2710.295106	17473.102333	907.885742	-291.292908
2710.295106	17473.102333	906.717773	-164.376358
2710.295106	17473.102333	905.548828	-72.157585
2710.295106	17473.102333	904.380859	-41.531948
2710.295106	17473.102333	903.211914	69.678947
2710.295106	17473.102333	902.042969	6.044051
2710.295106	17473.102333	900.874023	312.854340
2710.295106	17473.102333	899.704102	189.559982
2710.295106	17473.102333	898.535156	135.305359
2710.295106	17473.102333	897.365234	2.354068
2710.295106	17473.102333	896.194336	375.770294
2710.295106	17473.102333	895.024414	213.905807
2710.295106	17473.102333	893.853516	230.351913
2710.295106	17473.102333	892.682617	196.877258
2710.295106	17473.102333	891.511719	356.909485
2710.295106	17473.102333	890.340820	260.034424
2710.295106	17473.102333	889.168945	385.363678
2710.295106	17473.102333	887.997070	-29.570171
2710.295106	17473.102333	886.825195	158.806961
2710.295106	17473.102333	885.653320	61.754696
2710.295106	17473.102333	884.480469	-291.822662
2710.295106	17473.102333	883.307617	-76.937241
2710.295106	17473.102333	882.134766	-82.259125
2710.295106	17473.102333	880.961914	220.340439
2710.295106	17473.102333	879.788086	-152.410355
2710.295106	17473.102333	878.614258	-60.412052
2710.295106	17473.102333	877.440430	260.889862
2710.295106	17473.102333	876.266602	247.475632
2710.295106	17473.102333	875.091797	-157.768600
2710.295106	17473.102333	873.916992	59.952145
2710.295106	17473.102333	872.742188	97.938454
2710.295106	17473.102333	871.567383	-57.069664
2710.295106	17473.102333	870.391602	194.637817
2710.295106	17473.102333	869.215820	163.613937
2710.295106	17473.102333	868.040039	-144.243057
2710.295106	17473.102333	866.864258	93.724754
2710.295106	17473.102333	865.687500	136.916550
2710.295106	17473.102333	864.510742	-54.620213
2710.295106	17473.102333	863.333984	-53.538136
2710.295106	17473.102333	862.157227	-8.685142
2710.295106	17473.102333	860.979492	114.239960
2710.295106	17473.102333	859.802734	-31.723532
2710.295106	17473.102333	858.625000	9.046486
2710.295106	17473.102333	857.446289	114.502632
2710.295106	17473.102333	856.268555	-92.567337
2710.295106	17473.102333	855.089844	-50.147228
2710.295106	17473.102333	853.911133	-186.810089
2710.295106	17473.102333	852.731445	-194.044342
2710.295106	17473.102333	851.552734	44.145390
2710.295106	17473.102333	850.373047	40.499268
2710.295106	17473.102333	849.193359	-187.723434
2710.295106	17473.102333	848.013672	-145.845322
2710.295106	17473.102333	846.833008	48.070583
2710.295106	17473.102333	845.652344	-214.487732
2710.295106	17473.102333	844.471680	-222.309692
2710.295106	17473.102333	843.291016	-157.995239
2710.295106	17473.102333	842.110352	-261.009583
2710.295106	17473.102333	840.928711	-221.580200
2710.295106	17473.102333	839.747070	117.835922
2710.295106	17473.102333	838.564453	-82.268181
2710.295106	17473.102333	837.382813	-126.709831
2710.295106	17473.102333	836.200195	-273.717499
2710.295106	17473.102333	835.017578	-141.783051
2710.295106	17473.102333	833.834961	-131.426376
2710.295106	17473.102333	832.651367	-206.523972
2710.295106	17473.102333	831.467773	-44.610416
2710.295106	17473.102333	830.284180	-182.457581
2710.295106	17473.102333	829.100586	-208.489685
2710.295106	17473.102333	827.916992	-380.552826
2710.295106	17473.102333	826.732422	-321.437958
2710.295106	17473.102333	825.547852	-270.021118
2710.295106	17473.102333	824.363281	-61.497948
2710.295106	17473.102333	823.177734	-228.136292
2710.295106	17473.102333	821.992188	161.879517
2710.295106	17473.102333	820.806641	-192.347366
2710.295106	17473.102333	819.621094	-124.454102
2710.295106	17473.102333	818.434570	-64.249817
2710.295106	17473.102333	817.249023	-204.719070
2710.295106	17473.102333	816.062500	-248.753265
2710.295106	17473.102333	814.875000	-160.485901
2710.295106	17473.102333	813.688477	73.225967
2710.295106	17473.102333	812.500977	132.836090
2710.295106	17473.102333	811.313477	-68.495346
2710.295106	17473.102333	810.125977	-90.337120
2710.295106	17473.102333	808.937500	-27.252949
2710.295106	17473.102333	807.749023	-243.836319
2710.295106	17473.102333	806.560547	-128.077866
2710.295106	17473.102333	805.372070	-248.470169
2710.295106	17473.102333	804.182617	-74.444489
2710.295106	17473.102333	802.994141	99.399513
2710.295106	17473.102333	801.803711	74.961922
2710.295106	17473.102333	800.614258	56.080162
2710.295106	17473.102333	799.424805	291.717438
2710.295106	17473.102333	798.234375	329.162720
2710.295106	17473.102333	797.043945	127.055794
2710.295106	17473.102333	795.852539	47.447212
2710.295106	17473.102333	794.662109	493.531525
2710.295106	17473.102333	793.470703	208.294937
2710.295106	17473.102333	792.279297	493.834564
2710.295106	17473.102333	791.087891	123.747742
2710.295106	17473.102333	789.895508	222.563080
2710.295106	17473.102333	788.703125	317.460083
2710.295106	17473.102333	787.510742	303.041931
2710.295106	17473.102333	786.318359	126.687164
2710.295106	17473.102333	785.125000	98.928024
2710.295106	17473.102333	783.931641	148.188507
2710.295106	17473.102333	782.738281	182.271027
2710.295106	17473.102333	781.544922	197.425293
2710.295106	17473.102333	780.350586	90.276924
2710.295106	17473.102333	779.156250	135.291321
2710.295106	17473.102333	777.961914	-15.244690
2710.295106	17473.102333	776.767578	354.551453
2710.295106	17473.102333	775.572266	299.597961
2710.295106	17473.102333	774.376953	250.184906
2710.295106	17473.102333	773.181641	187.536636
2710.295106	17473.102333	771.986328	310.629486
2710.295106	17473.102333	770.790039	202.725082
2710.295106	17473.102333	769.593750	164.172501
2710.295106	17473.102333	768.397461	163.037933
2710.295106	17473.102333	767.201172	43.629787
2710.295106	17473.102333	766.003906	79.791382
2710.295106	17473.102333	764.806641	368.913208
2710.295106	17473.102333	763.609375	299.793945
2710.295106	17473.102333	762.412109	183.738144
2710.295106	17473.102333	761.213867	127.569237
2710.295106	17473.102333	760.015625	159.344177
2710.295106	17473.102333	758.817383	284.627319
2710.295106	17473.102333	757.618164	183.183273
2710.295106	17473.102333	756.419922	296.939453
2710.295106	17473.102333	755.220703	363.741516
2710.295106	17473.102333	754.021484	336.834473
2710.295106	17473.102333	752.821289	466.972809
2710.295106	17473.102333	751.621094	391.186951
2710.295106	17473.102333	750.420898	601.431885
2710.295106	17473.102333	749.220703	405.752625
2710.295106	17473.102333	748.020508	449.301483
2710.295106	17473.102333	746.819336	559.994629
2710.295106	17473.102333	745.618164	298.689270
2710.295106	17473.102333	744.416992	627.697876
2710.295106	17473.102333	743.214844	732.323181
2710.295106	17473.102333	742.012695	801.305481
2710.295106	17473.102333	740.810547	601.299133
2710.295106	17473.102333	739.608398	877.228088
2710.295106	17473.102333	738.406250	925.248779
2710.295106	17473.102333	737.203125	1480.620483
2710.295106	17473.102333	736.000000	1968.488403
2710.295106	17473.102333	734.795898	2249.020020
2710.295106	17473.102333	733.592773	2844.429688
2710.295106	17473.102333	732.388672	2971.553955
2710.295106	17473.102333	731.184570	2820.796143
2710.295106	17473.102333	729.979492	2552.587402
2710.295106	17473.102333	728.775391	2334.669922
2710.295106	17473.102333	727.570313	2053.397461
2710.295106	17473.102333	726.365234	1420.154297
2710.295106	17473.102333	725.160156	1053.307861
2710.295106	17473.102333	723.954102	1042.040527
2710.295106	17473.102333	722.748047	812.910889
2710.295106	17473.102333	721.541992	732.618530
2710.295106	17473.102333	720.334961	473.650208
2710.295106	17473.102333	719.128906	441.586426
2710.295106	17473.102333	717.921875	463.347504
2710.295106	17473.102333	716.714844	527.742554
2710.295106	17473.102333	715.506836	487.904541
2710.295106	17473.102333	714.298828	353.191681
2710.295106	17473.102333	713.090820	400.502960
2710.295106	17473.102333	711.882813	124.460121
2710.295106	17473.102333	710.674805	-4.862000
2710.295106	17473.102333	709.465820	261.261078
2710.295106	17473.102333	708.256836	200.426331
2710.295106	17473.102333	707.047852	211.892334
2710.295106	17473.102333	705.837891	46.955616
2710.295106	17473.102333	704.627930	202.938141
2710.295106	17473.102333	703.417969	-90.133911
2710.295106	17473.102333	702.208008	-90.183556
2710.295106	17473.102333	700.998047	85.797874
2710.295106	17473.102333	699.787109	118.862465
2710.295106	17473.102333	698.576172	281.537842
2710.295106	17473.102333	697.364258	-35.870121
2710.295106	17473.102333	696.153320	-173.550568
2710.295106	17473.102333	694.941406	29.515551
2710.295106	17473.102333	693.729492	141.657059
2710.295106	17473.102333	692.516602	283.271423
2710.295106	17473.102333	691.304688	-78.741829
2710.295106	17473.102333	690.091797	293.981476
2710.295106	17473.102333	688.878906	420.372192
2710.295106	17473.102333	687.665039	58.259216
2710.295106	17473.102333	686.451172	435.970093
2710.295106	17473.102333	685.237305	369.658386
2710.295106	17473.102333	684.023438	484.448334
2710.295106	17473.102333	682.809570	443.841217
2710.295106	17473.102333	681.594727	478.921539
2710.295106	17473.102333	680.379883	609.962708
2710.295106	17473.102333	679.165039	582.010986
2710.295106	17473.102333	677.949219	432.098022
2710.295106	17473.102333	676.733398	400.323700
2710.295106	17473.102333	675.517578	215.265579
2710.295106	17473.102333	674.301758	478.665375
2710.295106	17473.102333	673.084961	815.675720
2710.295106	17473.102333	671.869141	641.466492
2710.295106	17473.102333	670.651367	570.529541
2710.295106	17473.102333	669.434570	840.684692
2710.295106	17473.102333	668.216797	607.344910
2710.295106	17473.102333	667.000000	600.745056
2710.295106	17473.102333	665.781250	767.290649
2710.295106	17473.102333	664.563477	872.897888
2710.295106	17473.102333	663.344727	711.291870
2710.295106	17473.102333	662.125977	1115.071777
2710.295106	17473.102333	660.907227	828.141479
2710.295106	17473.102333	659.688477	668.286133
2710.295106	17473.102333	658.468750	668.552551
2710.295106	17473.102333	657.249023	856.448303
2710.295106	17473.102333	656.029297	816.080688
2710.295106	17473.102333	654.808594	895.223145
2710.295106	17473.102333	653.587891	854.746582
2710.295106	17473.102333	652.367188	821.586670
2710.295106	17473.102333	651.146484	1008.966064
2710.295106	17473.102333	649.924805	1163.132690
2710.295106	17473.102333	648.704102	898.268738
2710.295106	17473.102333	647.482422	909.014404
2710.295106	17473.102333	646.259766	590.955750
2710.295106	17473.102333	645.037109	1046.032593
2710.295106	17473.102333	643.815430	922.599121
2710.295106	17473.102333	642.591797	799.171997
2710.295106	17473.102333	641.369141	668.426392
2710.295106	17473.102333	640.145508	858.760315
2710.295106	17473.102333	638.921875	1039.812988
2710.295106	17473.102333	637.698242	864.987305
2710.295106	17473.102333	636.474609	607.703308
2710.295106	17473.102333	635.250000	860.099731
2710.295106	17473.102333	634.025391	738.495789
2710.295106	17473.102333	632.800781	604.096924
2710.295106	17473.102333	631.575195	792.153137
2710.295106	17473.102333	630.349609	426.989655
2710.295106	17473.102333	629.124023	180.993607
2710.295106	17473.102333	627.898438	619.798401
2710.295106	17473.102333	626.671875	401.300537
2710.295106	17473.102333	625.445313	400.659271
2710.295106	17473.102333	624.218750	526.258057
2710.295106	17473.102333	622.992188	258.523224
2710.295106	17473.102333	621.764648	-190.154419
2710.295106	17473.102333	620.537109	70.798531
2710.295106	17473.102333	619.309570	210.999924
2710.295106	17473.102333	618.081055	-29.009014
2710.295106	17473.102333	616.852539	-115.408722
2710.295106	17473.102333	615.624023	-181.661362
2710.295106	17473.102333	614.395508	-63.389267
2710.295106	17473.102333	613.166992	-58.365116
2710.295106	17473.102333	611.937500	-4.028001
2710.295106	17473.102333	610.708008	-327.532959
2710.295106	17473.102333	609.477539	-198.285812
2710.295106	17473.102333	608.248047	-187.654175
2710.295106	17473.102333	607.017578	-58.423054
2710.295106	17473.102333	605.787109	-230.136215
2710.295106	17473.102333	604.555664	-20.646566
2710.295106	17473.102333	603.325195	-99.234062
2710.295106	17473.102333	602.093750	-135.825974
2710.295106	17473.102333	600.861328	261.336487
2710.295106	17473.102333	599.629883	53.531696
2710.295106	17473.102333	598.397461	-4.772779
2710.295106	17473.102333	597.165039	-12.003748
2710.295106	17473.102333	595.932617	33.628716
2710.295106	17473.102333	594.699219	148.473282
2710.295106	17473.102333	593.465820	465.345215
2710.295106	17473.102333	592.232422	236.294220
2710.295106	17473.102333	590.999023	187.508621
2710.295106	17473.102333	589.764648	202.472107
2710.295106	17473.102333	588.530273	257.511414
2710.295106	17473.102333	587.295898	23.551207
2710.295106	17473.102333	586.061523	227.811066
2710.295106	17473.102333	584.826172	61.358898
2710.295106	17473.102333	583.590820	14.978174
2710.295106	17473.102333	582.355469	-187.504135
2710.295106	17473.102333	581.119141	-137.377335
2710.295106	17473.102333	579.882813	-110.778160
2710.295106	17473.102333	578.646484	-125.838654
2710.295106	17473.102333	577.410156	96.957542
2710.295106	17473.102333	576.172852	22.186609
2710.295106	17473.102333	574.935547	335.775879
2710.295106	17473.102333	573.698242	134.245590
2710.295106	17473.102333	572.460938	409.822906
2710.295106	17473.102333	571.222656	253.918289
2710.295106	17473.102333	569.984375	96.386360
2710.295106	17473.102333	568.746094	156.503067
2710.295106	17473.102333	567.506836	117.071625
2710.295106	17473.102333	566.267578	133.936523
2710.295106	17473.102333	565.028320	6.043519
2710.295106	17473.102333	563.789063	345.478973
2710.295106	17473.102333	562.548828	549.134277
2710.295106	17473.102333	561.309570	521.180969
2710.295106	17473.102333	560.068359	75.392334
2710.295106	17473.102333	558.828125	91.249504
2710.295106	17473.102333	557.586914	123.523575
2710.295106	17473.102333	556.345703	-73.725380
2710.295106	17473.102333	555.104492	-4.975801
2710.295106	17473.102333	553.863281	-21.059673
2710.295106	17473.102333	552.621094	255.772354
2710.295106	17473.102333	551.378906	-164.766052
2710.295106	17473.102333	550.136719	150.223404
2710.295106	17473.102333	548.893555	-54.884731
2710.295106	17473.102333	547.650391	157.347244
2710.295106	17473.102333	546.407227	252.311584
2710.295106	17473.102333	545.164063	65.847687
2710.295106	17473.102333	543.919922	76.312759
2710.295106	17473.102333	542.675781	-15.889500
2710.295106	17473.102333	541.431641	-178.228500
2710.295106	17473.102333	540.186523	124.918755
2710.295106	17473.102333	538.941406	-130.786880
2710.295106	17473.102333	537.696289	-63.563118
2710.295106	17473.102333	536.451172	84.899574
2710.295106	17473.102333	535.205078	20.870836
2710.295106	17473.102333	533.959961	-284.336426
2710.295106	17473.102333	532.712891	-93.971436
2710.295106	17473.102333	531.466797	-69.162704
2710.295106	17473.102333	530.219727	-54.988708
2710.295106	17473.102333	528.972656	18.750536
2710.295106	17473.102333	527.725586	-110.696724
2710.295106	17473.102333	526.478516	132.487946
2710.295106	17473.102333	525.230469	39.404499
2710.295106	17473.102333	523.982422	-132.586014
2710.295106	17473.102333	522.734375	-232.407730
2710.295106	17473.102333	521.485352	-240.333694
2710.295106	17473.102333	520.236328	-215.732208
2710.295106	17473.102333	518.987305	-106.516106
2710.295106	17473.102333	517.737305	-196.561951
2710.295106	17473.102333	516.488281	-131.945343
2710.295106	17473.102333	515.238281	-11.514452
2710.295106	17473.102333	513.988281	-50.734722
2710.295106	17473.102333	512.737305	57.411713
2710.295106	17473.102333	511.486328	41.868977
2710.295106	17473.102333	510.235352	67.762215
2710.295106	17473.102333	508.984375	79.464432
2710.295106	17473.102333	507.732422	89.538254
2710.295106	17473.102333	506.480469	-25.731636
2710.295106	17473.102333	505.228516	61.759644
2710.295106	17473.102333	503.976563	-60.305084
2710.295106	17473.102333	502.723633	66.890434
2710.295106	17473.102333	501.470703	-26.147738
2710.295106	17473.102333	500.217773	156.805588
2710.295106	17473.102333	498.963867	124.964806
2710.295106	17473.102333	497.709961	177.417023
2710.295106	17473.102333	496.456055	33.111397
2710.295106	17473.102333	495.202148	198.565201
2710.295106	17473.102333	493.947266	212.015778
2710.295106	17473.102333	492.692383	325.750092
2710.295106	17473.102333	491.437500	271.460449
2710.295106	17473.102333	490.181641	392.526367
2710.295106	17473.102333	488.926758	408.181000
2710.295106	17473.102333	487.670898	675.918579
2710.295106	17473.102333	486.414063	477.319244
2710.295106	17473.102333	485.158203	502.177490
2710.295106	17473.102333	483.901367	582.483154
2710.295106	17473.102333	482.644531	477.135681
2710.295106	17473.102333	481.386719	255.878296
2710.295106	17473.102333	480.128906	557.717102
2710.295106	17473.102333	478.871094	736.363159
2710.295106	17473.102333	477.613281	624.187500
2710.295106	17473.102333	476.355469	920.548950
2710.295106	17473.102333	475.096680	849.476624
2710.295106	17473.102333	473.837891	571.648621
2710.295106	17473.102333	472.578125	857.220276
2710.295106	17473.102333	471.319336	780.903625
2710.295106	17473.102333	470.059570	863.193726
2710.295106	17473.102333	468.799805	772.644104
2710.295106	17473.102333	467.539063	662.526001
2710.295106	17473.102333	466.278320	951.257507
2710.295106	17473.102333	465.017578	917.608459
2710.295106	17473.102333	463.756836	1036.975342
2710.295106	17473.102333	462.495117	1150.885254
2710.295106	17473.102333	461.233398	942.661316
2710.295106	17473.102333	459.971680	1271.571655
2710.295106	17473.102333	458.709961	1178.786743
2710.295106	17473.102333	457.447266	991.696899
2710.295106	17473.102333	456.184570	840.098328
2710.295106	17473.102333	454.921875	1084.698975
2710.295106	17473.102333	453.658203	1398.321411
2710.295106	17473.102333	452.394531	1340.372070
2710.295106	17473.102333	451.130859	1468.719482
2710.295106	17473.102333	449.867188	1385.503784
2710.295106	17473.102333	448.602539	1279.017334
2710.295106	17473.102333	447.337891	1459.837158
2710.295106	17473.102333	446.073242	1501.904419
2710.295106	17473.102333	444.807617	1309.499634
2710.295106	17473.102333	443.542969	1579.781006
2710.295106	17473.102333	442.276367	1512.709473
2710.295106	17473.102333	441.010742	1477.224121
2710.295106	17473.102333	439.744141	1452.022339
2710.295106	17473.102333	438.478516	1516.817017
2710.295106	17473.102333	437.210938	1522.707764
2710.295106	17473.102333	435.944336	1531.699585
2710.295106	17473.102333	434.676758	1503.041626
2710.295106	17473.102333	433.409180	1537.655518
2710.295106	17473.102333	432.141602	1637.241821
2710.295106	17473.102333	430.873047	1132.756958
2710.295106	17473.102333	429.604492	1367.543701
2710.295106	17473.102333	428.335938	1785.624878
2710.295106	17473.102333	427.067383	1504.300415
2710.295106	17473.102333	425.797852	1745.863892
2710.295106	17473.102333	424.528320	1636.614502
2710.295106	17473.102333	423.258789	1846.634888
2710.295106	17473.102333	421.988281	1686.510254
2710.295106	17473.102333	420.717773	1599.901978
2710.295106	17473.102333	419.447266	1782.795532
2710.295106	17473.102333	418.175781	1544.486572
2710.295106	17473.102333	416.905273	1799.796143
2710.295106	17473.102333	415.633789	1852.872681
2710.295106	17473.102333	414.362305	1927.951172
2710.295106	17473.102333	413.089844	1889.110962
2710.295106	17473.102333	411.817383	2022.174683
2710.295106	17473.102333	410.544922	1817.294434
2710.295106	17473.102333	409.272461	1897.091553
2710.295106	17473.102333	407.999023	1744.803223
2710.295106	17473.102333	406.725586	1882.253784
2710.295106	17473.102333	405.452148	2046.656372
2710.295106	17473.102333	404.177734	1813.361572
2710.295106	17473.102333	402.903320	1795.549683
2710.295106	17473.102333	401.628906	2028.259155
2710.295106	17473.102333	400.354492	1939.089844
2710.295106	17473.102333	399.079102	2221.715332
2710.295106	17473.102333	397.803711	2001.221924
2710.295106	17473.102333	396.528320	1902.500000
2710.295106	17473.102333	395.251953	1761.808472
2710.295106	17473.102333	393.976563	2136.670898
2710.295106	17473.102333	392.700195	1679.797974
2710.295106	17473.102333	391.422852	1727.697510
2710.295106	17473.102333	390.145508	1738.689575
2710.295106	17473.102333	388.869141	1635.459717
2710.295106	17473.102333	387.590820	1790.382202
2710.295106	17473.102333	386.313477	1876.627930
2710.295106	17473.102333	385.035156	1769.450073
2710.295106	17473.102333	383.756836	1863.962891
2710.295106	17473.102333	382.478516	1815.949951
2710.295106	17473.102333	381.199219	1941.283813
2710.295106	17473.102333	379.919922	1797.695190
2710.295106	17473.102333	378.640625	1841.362549
2710.295106	17473.102333	377.360352	1730.087402
2710.295106	17473.102333	376.080078	2040.795288
2710.295106	17473.102333	374.799805	1844.071167
2710.295106	17473.102333	373.519531	1809.673096
2710.295106	17473.102333	372.238281	2010.964111
2710.295106	17473.102333	370.957031	1740.036377
2710.295106	17473.102333	369.675781	1843.071533
2710.295106	17473.102333	368.394531	1950.281372
2710.295106	17473.102333	367.112305	1765.670044
2710.295106	17473.102333	365.830078	1800.490723
2710.295106	17473.102333	364.546875	1557.490112
2710.295106	17473.102333	363.264648	1887.165405
2710.295106	17473.102333	361.981445	1632.748779
2710.295106	17473.102333	360.698242	1569.311157
2710.295106	17473.102333	359.414063	1423.826294
2710.295106	17473.102333	358.129883	1402.595459
2710.295106	17473.102333	356.845703	1542.154175
2710.295106	17473.102333	355.561523	1314.643555
2710.295106	17473.102333	354.276367	1331.536865
2710.295106	17473.102333	352.991211	1313.225586
2710.295106	17473.102333	351.706055	1151.383545
2710.295106	17473.102333	350.420898	1402.898315
2710.295106	17473.102333	349.134766	1325.541138
2710.295106	17473.102333	347.848633	1245.830078
2710.295106	17473.102333	346.561523	1315.345093
2710.295106	17473.102333	345.275391	1223.623413
2710.295106	17473.102333	343.988281	916.404968
2710.295106	17473.102333	342.700195	1155.604370
2710.295106	17473.102333	341.413086	860.279236
2710.295106	17473.102333	340.125000	854.736145
2710.295106	17473.102333	338.836914	847.827820
2710.295106	17473.102333	337.548828	1182.602661
2710.295106	17473.102333	336.259766	1081.870605
2710.295106	17473.102333	334.970703	868.038635
2710.295106	17473.102333	333.681641	668.143921
2710.295106	17473.102333	332.391602	622.892700
2710.295106	17473.102333	331.101563	415.514496
2710.295106	17473.102333	329.811523	505.261505
2710.295106	17473.102333	328.521484	389.167297
2710.295106	17473.102333	327.230469	2.745423
2710.295106	17473.102333	325.939453	302.372803
2710.295106	17473.102333	324.648438	272.411072
2710.295106	17473.102333	323.356445	149.101868
2710.295106	17473.102333	322.064453	187.928986
2710.295106	17473.102333	320.772461	121.158089
2710.295106	17473.102333	319.480469	158.849716
2710.295106	17473.102333	318.187500	-117.827682
2710.295106	17473.102333	316.894531	183.597061
2710.295106	17473.102333	315.601563	-81.068100
2710.295106	17473.102333	314.307617	-92.849190
2710.295106	17473.102333	313.013672	-216.151016
2710.295106	17473.102333	311.719727	-211.711380
2710.295106	17473.102333	310.425781	-15.615970
2710.295106	17473.102333	309.130859	-271.526337
2710.295106	17473.102333	307.835938	-228.615524
2710.295106	17473.102333	306.541016	-136.767288
2710.295106	17473.102333	305.245117	-91.705894
2710.295106	17473.102333	303.949219	20.984276
2710.295106	17473.102333	302.653320	98.921944
2710.295106	17473.102333	301.356445	55.125420
2710.295106	17473.102333	300.060547	437.003448
2710.295106	17473.102333	298.763672	468.274994
