#X		#Y		#Wave		#Intensity
2824.775160	17460.371000	2000.043945	-79.938499
2824.775160	17460.371000	1999.080078	-132.023727
2824.775160	17460.371000	1998.116211	-67.024773
2824.775160	17460.371000	1997.151367	-56.998993
2824.775160	17460.371000	1996.186523	86.392883
2824.775160	17460.371000	1995.222656	-80.345306
2824.775160	17460.371000	1994.256836	-2.205607
2824.775160	17460.371000	1993.291992	-3.733990
2824.775160	17460.371000	1992.327148	-20.493790
2824.775160	17460.371000	1991.361328	56.459152
2824.775160	17460.371000	1990.395508	128.078949
2824.775160	17460.371000	1989.429688	-90.185486
2824.775160	17460.371000	1988.463867	-24.188196
2824.775160	17460.371000	1987.497070	95.886734
2824.775160	17460.371000	1986.531250	193.342606
2824.775160	17460.371000	1985.564453	75.346939
2824.775160	17460.371000	1984.597656	93.074287
2824.775160	17460.371000	1983.630859	-60.035080
2824.775160	17460.371000	1982.664063	-94.737419
2824.775160	17460.371000	1981.696289	85.275291
2824.775160	17460.371000	1980.728516	54.988998
2824.775160	17460.371000	1979.761719	34.347012
2824.775160	17460.371000	1978.792969	156.710999
2824.775160	17460.371000	1977.825195	54.124393
2824.775160	17460.371000	1976.857422	198.210114
2824.775160	17460.371000	1975.888672	107.569977
2824.775160	17460.371000	1974.919922	46.373840
2824.775160	17460.371000	1973.951172	142.904175
2824.775160	17460.371000	1972.982422	32.012142
2824.775160	17460.371000	1972.013672	138.011093
2824.775160	17460.371000	1971.043945	150.103073
2824.775160	17460.371000	1970.075195	83.136185
2824.775160	17460.371000	1969.105469	-45.582390
2824.775160	17460.371000	1968.135742	210.043518
2824.775160	17460.371000	1967.165039	219.038849
2824.775160	17460.371000	1966.195313	87.475906
2824.775160	17460.371000	1965.224609	160.263046
2824.775160	17460.371000	1964.253906	161.486099
2824.775160	17460.371000	1963.283203	160.128784
2824.775160	17460.371000	1962.312500	217.740555
2824.775160	17460.371000	1961.341797	63.563091
2824.775160	17460.371000	1960.370117	-9.453353
2824.775160	17460.371000	1959.399414	-3.808223
2824.775160	17460.371000	1958.427734	-44.990856
2824.775160	17460.371000	1957.455078	-29.677425
2824.775160	17460.371000	1956.483398	189.640533
2824.775160	17460.371000	1955.511719	231.795166
2824.775160	17460.371000	1954.539063	5.942901
2824.775160	17460.371000	1953.566406	6.202763
2824.775160	17460.371000	1952.593750	116.970879
2824.775160	17460.371000	1951.621094	18.829281
2824.775160	17460.371000	1950.647461	188.393097
2824.775160	17460.371000	1949.674805	50.884109
2824.775160	17460.371000	1948.701172	195.735062
2824.775160	17460.371000	1947.727539	99.922920
2824.775160	17460.371000	1946.753906	55.651154
2824.775160	17460.371000	1945.780273	1.547891
2824.775160	17460.371000	1944.805664	256.565674
2824.775160	17460.371000	1943.831055	65.023445
2824.775160	17460.371000	1942.856445	86.898590
2824.775160	17460.371000	1941.881836	-38.377514
2824.775160	17460.371000	1940.907227	-23.881912
2824.775160	17460.371000	1939.932617	110.700829
2824.775160	17460.371000	1938.957031	-9.649224
2824.775160	17460.371000	1937.981445	-22.152241
2824.775160	17460.371000	1937.005859	-39.555622
2824.775160	17460.371000	1936.030273	-12.867609
2824.775160	17460.371000	1935.054688	-150.263062
2824.775160	17460.371000	1934.078125	-113.770210
2824.775160	17460.371000	1933.101563	-25.880259
2824.775160	17460.371000	1932.125000	-55.496361
2824.775160	17460.371000	1931.148438	-82.645325
2824.775160	17460.371000	1930.171875	-4.571822
2824.775160	17460.371000	1929.194336	71.037262
2824.775160	17460.371000	1928.217773	92.828651
2824.775160	17460.371000	1927.240234	58.386066
2824.775160	17460.371000	1926.262695	55.755234
2824.775160	17460.371000	1925.284180	128.915985
2824.775160	17460.371000	1924.306641	-88.746681
2824.775160	17460.371000	1923.328125	-52.196087
2824.775160	17460.371000	1922.350586	-5.863883
2824.775160	17460.371000	1921.372070	-13.260845
2824.775160	17460.371000	1920.392578	52.628815
2824.775160	17460.371000	1919.414063	15.975126
2824.775160	17460.371000	1918.434570	-3.551606
2824.775160	17460.371000	1917.456055	89.227669
2824.775160	17460.371000	1916.476563	128.314758
2824.775160	17460.371000	1915.497070	-0.925874
2824.775160	17460.371000	1914.516602	11.389337
2824.775160	17460.371000	1913.537109	172.499481
2824.775160	17460.371000	1912.556641	-105.328033
2824.775160	17460.371000	1911.576172	-39.274548
2824.775160	17460.371000	1910.595703	-236.459824
2824.775160	17460.371000	1909.615234	-106.980217
2824.775160	17460.371000	1908.633789	49.284470
2824.775160	17460.371000	1907.653320	147.056946
2824.775160	17460.371000	1906.671875	-15.788442
2824.775160	17460.371000	1905.690430	-205.328110
2824.775160	17460.371000	1904.708984	33.749489
2824.775160	17460.371000	1903.727539	2.564917
2824.775160	17460.371000	1902.745117	136.924286
2824.775160	17460.371000	1901.762695	100.930496
2824.775160	17460.371000	1900.780273	99.042847
2824.775160	17460.371000	1899.797852	-126.598282
2824.775160	17460.371000	1898.815430	-57.850586
2824.775160	17460.371000	1897.832031	190.837067
2824.775160	17460.371000	1896.849609	145.300827
2824.775160	17460.371000	1895.866211	-48.456818
2824.775160	17460.371000	1894.882813	-6.383817
2824.775160	17460.371000	1893.898438	67.289665
2824.775160	17460.371000	1892.915039	-172.411652
2824.775160	17460.371000	1891.930664	-3.952513
2824.775160	17460.371000	1890.947266	-51.652649
2824.775160	17460.371000	1889.962891	-65.317093
2824.775160	17460.371000	1888.977539	-10.980656
2824.775160	17460.371000	1887.993164	-82.842712
2824.775160	17460.371000	1887.007813	100.135498
2824.775160	17460.371000	1886.023438	84.129898
2824.775160	17460.371000	1885.038086	94.836029
2824.775160	17460.371000	1884.051758	-1.147303
2824.775160	17460.371000	1883.066406	-63.126328
2824.775160	17460.371000	1882.081055	-62.029633
2824.775160	17460.371000	1881.094727	-19.707617
2824.775160	17460.371000	1880.108398	39.580811
2824.775160	17460.371000	1879.122070	-27.126291
2824.775160	17460.371000	1878.135742	-6.582396
2824.775160	17460.371000	1877.148438	-10.249752
2824.775160	17460.371000	1876.162109	-93.812500
2824.775160	17460.371000	1875.174805	69.623268
2824.775160	17460.371000	1874.187500	87.771538
2824.775160	17460.371000	1873.199219	23.638269
2824.775160	17460.371000	1872.211914	49.070389
2824.775160	17460.371000	1871.223633	-70.655365
2824.775160	17460.371000	1870.236328	3.178930
2824.775160	17460.371000	1869.248047	28.625408
2824.775160	17460.371000	1868.258789	68.575920
2824.775160	17460.371000	1867.270508	-9.940660
2824.775160	17460.371000	1866.282227	63.848156
2824.775160	17460.371000	1865.292969	-60.546864
2824.775160	17460.371000	1864.303711	-124.492081
2824.775160	17460.371000	1863.314453	-91.787148
2824.775160	17460.371000	1862.324219	-136.382263
2824.775160	17460.371000	1861.334961	103.976425
2824.775160	17460.371000	1860.344727	-13.076007
2824.775160	17460.371000	1859.354492	116.122322
2824.775160	17460.371000	1858.364258	83.567123
2824.775160	17460.371000	1857.374023	48.602734
2824.775160	17460.371000	1856.383789	47.416256
2824.775160	17460.371000	1855.392578	82.399651
2824.775160	17460.371000	1854.401367	71.537064
2824.775160	17460.371000	1853.410156	-64.714394
2824.775160	17460.371000	1852.418945	-82.807297
2824.775160	17460.371000	1851.426758	164.214676
2824.775160	17460.371000	1850.435547	-20.224058
2824.775160	17460.371000	1849.443359	151.965836
2824.775160	17460.371000	1848.451172	42.232437
2824.775160	17460.371000	1847.458984	2.361429
2824.775160	17460.371000	1846.466797	80.471519
2824.775160	17460.371000	1845.473633	-19.629068
2824.775160	17460.371000	1844.480469	104.137222
2824.775160	17460.371000	1843.487305	40.113213
2824.775160	17460.371000	1842.494141	-129.787003
2824.775160	17460.371000	1841.500977	61.199333
2824.775160	17460.371000	1840.506836	6.746512
2824.775160	17460.371000	1839.513672	-14.053026
2824.775160	17460.371000	1838.519531	186.318665
2824.775160	17460.371000	1837.525391	-41.314056
2824.775160	17460.371000	1836.530273	-184.779480
2824.775160	17460.371000	1835.536133	41.827637
2824.775160	17460.371000	1834.541016	4.030332
2824.775160	17460.371000	1833.545898	45.472939
2824.775160	17460.371000	1832.550781	-76.455307
2824.775160	17460.371000	1831.555664	56.141193
2824.775160	17460.371000	1830.560547	66.203941
2824.775160	17460.371000	1829.564453	148.221771
2824.775160	17460.371000	1828.568359	-24.221277
2824.775160	17460.371000	1827.572266	-35.893166
2824.775160	17460.371000	1826.576172	79.528496
2824.775160	17460.371000	1825.580078	134.891006
2824.775160	17460.371000	1824.583008	-152.737411
2824.775160	17460.371000	1823.585938	-87.874496
2824.775160	17460.371000	1822.588867	34.436443
2824.775160	17460.371000	1821.591797	-13.520231
2824.775160	17460.371000	1820.594727	-1.614947
2824.775160	17460.371000	1819.596680	62.929256
2824.775160	17460.371000	1818.599609	81.876366
2824.775160	17460.371000	1817.601563	26.510546
2824.775160	17460.371000	1816.603516	220.115799
2824.775160	17460.371000	1815.604492	178.973755
2824.775160	17460.371000	1814.606445	152.140945
2824.775160	17460.371000	1813.607422	197.038284
2824.775160	17460.371000	1812.608398	270.558472
2824.775160	17460.371000	1811.609375	140.647583
2824.775160	17460.371000	1810.610352	53.762478
2824.775160	17460.371000	1809.610352	26.614634
2824.775160	17460.371000	1808.611328	95.033455
2824.775160	17460.371000	1807.611328	237.447891
2824.775160	17460.371000	1806.611328	193.320450
2824.775160	17460.371000	1805.610352	55.941013
2824.775160	17460.371000	1804.610352	123.986313
2824.775160	17460.371000	1803.609375	-39.763706
2824.775160	17460.371000	1802.608398	111.689026
2824.775160	17460.371000	1801.607422	62.442104
2824.775160	17460.371000	1800.606445	127.712296
2824.775160	17460.371000	1799.605469	192.871658
2824.775160	17460.371000	1798.603516	-61.841206
2824.775160	17460.371000	1797.601563	205.945297
2824.775160	17460.371000	1796.599609	172.987045
2824.775160	17460.371000	1795.597656	149.491135
2824.775160	17460.371000	1794.595703	-12.385154
2824.775160	17460.371000	1793.592773	161.848892
2824.775160	17460.371000	1792.589844	264.417419
2824.775160	17460.371000	1791.587891	57.054211
2824.775160	17460.371000	1790.583984	118.906525
2824.775160	17460.371000	1789.581055	1.979262
2824.775160	17460.371000	1788.577148	87.444115
2824.775160	17460.371000	1787.574219	60.862370
2824.775160	17460.371000	1786.570313	105.613876
2824.775160	17460.371000	1785.566406	47.892776
2824.775160	17460.371000	1784.561523	-17.049665
2824.775160	17460.371000	1783.557617	-20.198214
2824.775160	17460.371000	1782.552734	64.573853
2824.775160	17460.371000	1781.547852	84.989464
2824.775160	17460.371000	1780.542969	-6.477435
2824.775160	17460.371000	1779.538086	35.136883
2824.775160	17460.371000	1778.532227	43.345409
2824.775160	17460.371000	1777.527344	49.073845
2824.775160	17460.371000	1776.521484	-95.018456
2824.775160	17460.371000	1775.515625	252.643204
2824.775160	17460.371000	1774.508789	34.710651
2824.775160	17460.371000	1773.502930	42.380489
2824.775160	17460.371000	1772.496094	85.552559
2824.775160	17460.371000	1771.489258	-16.218964
2824.775160	17460.371000	1770.482422	48.092319
2824.775160	17460.371000	1769.475586	19.715956
2824.775160	17460.371000	1768.467773	83.771042
2824.775160	17460.371000	1767.460938	166.674774
2824.775160	17460.371000	1766.453125	-92.111641
2824.775160	17460.371000	1765.445313	30.878834
2824.775160	17460.371000	1764.437500	-104.718880
2824.775160	17460.371000	1763.428711	-100.526360
2824.775160	17460.371000	1762.420898	-39.561760
2824.775160	17460.371000	1761.412109	241.630280
2824.775160	17460.371000	1760.403320	302.273285
2824.775160	17460.371000	1759.393555	78.534882
2824.775160	17460.371000	1758.384766	-14.975193
2824.775160	17460.371000	1757.375000	28.759653
2824.775160	17460.371000	1756.366211	62.900391
2824.775160	17460.371000	1755.356445	54.303562
2824.775160	17460.371000	1754.345703	92.915977
2824.775160	17460.371000	1753.335938	46.230354
2824.775160	17460.371000	1752.325195	165.025024
2824.775160	17460.371000	1751.315430	-26.155548
2824.775160	17460.371000	1750.304688	-70.780991
2824.775160	17460.371000	1749.292969	73.619522
2824.775160	17460.371000	1748.282227	42.942242
2824.775160	17460.371000	1747.270508	109.046051
2824.775160	17460.371000	1746.259766	-77.803177
2824.775160	17460.371000	1745.248047	-16.658581
2824.775160	17460.371000	1744.235352	103.385330
2824.775160	17460.371000	1743.223633	-22.315022
2824.775160	17460.371000	1742.211914	-18.228418
2824.775160	17460.371000	1741.199219	-155.901718
2824.775160	17460.371000	1740.186523	-159.112244
2824.775160	17460.371000	1739.173828	33.413113
2824.775160	17460.371000	1738.160156	15.770782
2824.775160	17460.371000	1737.147461	-9.048088
2824.775160	17460.371000	1736.133789	-144.821564
2824.775160	17460.371000	1735.120117	-33.084625
2824.775160	17460.371000	1734.106445	-44.091919
2824.775160	17460.371000	1733.091797	-158.924210
2824.775160	17460.371000	1732.078125	-87.655075
2824.775160	17460.371000	1731.063477	-18.894148
2824.775160	17460.371000	1730.048828	-37.431152
2824.775160	17460.371000	1729.034180	12.224483
2824.775160	17460.371000	1728.019531	146.515503
2824.775160	17460.371000	1727.003906	167.627731
2824.775160	17460.371000	1725.988281	94.465752
2824.775160	17460.371000	1724.972656	-96.447540
2824.775160	17460.371000	1723.957031	-52.111721
2824.775160	17460.371000	1722.941406	-54.954060
2824.775160	17460.371000	1721.924805	71.442253
2824.775160	17460.371000	1720.909180	89.517372
2824.775160	17460.371000	1719.892578	58.090729
2824.775160	17460.371000	1718.875977	-248.460541
2824.775160	17460.371000	1717.858398	138.292740
2824.775160	17460.371000	1716.841797	130.041611
2824.775160	17460.371000	1715.824219	121.673119
2824.775160	17460.371000	1714.806641	-154.568909
2824.775160	17460.371000	1713.789063	-130.220001
2824.775160	17460.371000	1712.770508	20.790201
2824.775160	17460.371000	1711.752930	-110.053207
2824.775160	17460.371000	1710.734375	17.211107
2824.775160	17460.371000	1709.715820	-95.032806
2824.775160	17460.371000	1708.697266	-29.032303
2824.775160	17460.371000	1707.678711	32.147892
2824.775160	17460.371000	1706.659180	65.044464
2824.775160	17460.371000	1705.640625	41.561714
2824.775160	17460.371000	1704.621094	137.534912
2824.775160	17460.371000	1703.600586	205.230194
2824.775160	17460.371000	1702.581055	141.576859
2824.775160	17460.371000	1701.561523	9.900541
2824.775160	17460.371000	1700.541016	79.622246
2824.775160	17460.371000	1699.520508	350.636871
2824.775160	17460.371000	1698.500000	12.621074
2824.775160	17460.371000	1697.478516	96.040512
2824.775160	17460.371000	1696.458008	216.795410
2824.775160	17460.371000	1695.436523	159.532059
2824.775160	17460.371000	1694.415039	130.273819
2824.775160	17460.371000	1693.393555	173.453247
2824.775160	17460.371000	1692.372070	317.097626
2824.775160	17460.371000	1691.349609	168.267929
2824.775160	17460.371000	1690.327148	339.717407
2824.775160	17460.371000	1689.304688	515.684326
2824.775160	17460.371000	1688.282227	385.326904
2824.775160	17460.371000	1687.259766	542.345337
2824.775160	17460.371000	1686.236328	229.613739
2824.775160	17460.371000	1685.213867	274.306763
2824.775160	17460.371000	1684.190430	372.596344
2824.775160	17460.371000	1683.166016	421.715729
2824.775160	17460.371000	1682.142578	393.708221
2824.775160	17460.371000	1681.119141	108.887291
2824.775160	17460.371000	1680.094727	419.137421
2824.775160	17460.371000	1679.070313	327.892517
2824.775160	17460.371000	1678.045898	619.157654
2824.775160	17460.371000	1677.020508	457.768188
2824.775160	17460.371000	1675.996094	333.685455
2824.775160	17460.371000	1674.970703	540.605530
2824.775160	17460.371000	1673.945313	451.350525
2824.775160	17460.371000	1672.919922	536.834656
2824.775160	17460.371000	1671.893555	356.582520
2824.775160	17460.371000	1670.868164	460.542419
2824.775160	17460.371000	1669.841797	494.503662
2824.775160	17460.371000	1668.815430	700.698853
2824.775160	17460.371000	1667.789063	559.847839
2824.775160	17460.371000	1666.761719	439.918488
2824.775160	17460.371000	1665.735352	524.782471
2824.775160	17460.371000	1664.708008	714.239380
2824.775160	17460.371000	1663.680664	608.109009
2824.775160	17460.371000	1662.653320	604.297852
2824.775160	17460.371000	1661.625000	639.942383
2824.775160	17460.371000	1660.597656	526.726440
2824.775160	17460.371000	1659.569336	485.540955
2824.775160	17460.371000	1658.541016	534.953979
2824.775160	17460.371000	1657.512695	533.169006
2824.775160	17460.371000	1656.483398	594.040100
2824.775160	17460.371000	1655.455078	578.195984
2824.775160	17460.371000	1654.425781	650.537659
2824.775160	17460.371000	1653.396484	606.705994
2824.775160	17460.371000	1652.366211	456.038208
2824.775160	17460.371000	1651.336914	386.628296
2824.775160	17460.371000	1650.306641	514.425842
2824.775160	17460.371000	1649.276367	646.767151
2824.775160	17460.371000	1648.246094	709.422058
2824.775160	17460.371000	1647.215820	901.883118
2824.775160	17460.371000	1646.185547	713.953430
2824.775160	17460.371000	1645.154297	975.785522
2824.775160	17460.371000	1644.123047	734.504883
2824.775160	17460.371000	1643.091797	975.294556
2824.775160	17460.371000	1642.060547	1021.330627
2824.775160	17460.371000	1641.028320	1064.979492
2824.775160	17460.371000	1639.997070	990.473572
2824.775160	17460.371000	1638.964844	983.099609
2824.775160	17460.371000	1637.931641	1017.351196
2824.775160	17460.371000	1636.899414	877.972717
2824.775160	17460.371000	1635.867188	1263.951416
2824.775160	17460.371000	1634.833984	1147.642700
2824.775160	17460.371000	1633.800781	1193.285767
2824.775160	17460.371000	1632.767578	1111.674927
2824.775160	17460.371000	1631.734375	1060.133789
2824.775160	17460.371000	1630.700195	1334.565674
2824.775160	17460.371000	1629.666016	1430.879761
2824.775160	17460.371000	1628.631836	1573.357544
2824.775160	17460.371000	1627.597656	1567.879517
2824.775160	17460.371000	1626.563477	1513.871704
2824.775160	17460.371000	1625.528320	1646.942627
2824.775160	17460.371000	1624.493164	1505.138916
2824.775160	17460.371000	1623.458008	1649.675903
2824.775160	17460.371000	1622.422852	1480.201660
2824.775160	17460.371000	1621.387695	1320.013306
2824.775160	17460.371000	1620.351563	1517.526733
2824.775160	17460.371000	1619.315430	1484.248901
2824.775160	17460.371000	1618.279297	1485.577637
2824.775160	17460.371000	1617.243164	1489.206909
2824.775160	17460.371000	1616.207031	1746.459106
2824.775160	17460.371000	1615.169922	1441.108765
2824.775160	17460.371000	1614.132813	1493.122681
2824.775160	17460.371000	1613.095703	1443.724854
2824.775160	17460.371000	1612.058594	1405.867920
2824.775160	17460.371000	1611.020508	1492.401489
2824.775160	17460.371000	1609.983398	1590.436157
2824.775160	17460.371000	1608.945313	1568.690308
2824.775160	17460.371000	1607.907227	1652.857300
2824.775160	17460.371000	1606.868164	1661.029663
2824.775160	17460.371000	1605.830078	1561.068237
2824.775160	17460.371000	1604.791016	1909.792969
2824.775160	17460.371000	1603.751953	1623.504395
2824.775160	17460.371000	1602.712891	1776.620117
2824.775160	17460.371000	1601.673828	1794.025024
2824.775160	17460.371000	1600.633789	1694.176514
2824.775160	17460.371000	1599.594727	1633.476929
2824.775160	17460.371000	1598.554688	1680.816650
2824.775160	17460.371000	1597.513672	1774.095581
2824.775160	17460.371000	1596.473633	1849.000366
2824.775160	17460.371000	1595.433594	1719.489868
2824.775160	17460.371000	1594.392578	1817.374023
2824.775160	17460.371000	1593.351563	1490.515747
2824.775160	17460.371000	1592.310547	1728.480713
2824.775160	17460.371000	1591.268555	1743.758789
2824.775160	17460.371000	1590.227539	1720.070068
2824.775160	17460.371000	1589.185547	1739.995850
2824.775160	17460.371000	1588.143555	1679.672363
2824.775160	17460.371000	1587.100586	1559.769897
2824.775160	17460.371000	1586.058594	1531.674683
2824.775160	17460.371000	1585.015625	1544.875366
2824.775160	17460.371000	1583.972656	1560.401489
2824.775160	17460.371000	1582.929688	1465.978149
2824.775160	17460.371000	1581.886719	1442.652466
2824.775160	17460.371000	1580.843750	1609.487183
2824.775160	17460.371000	1579.799805	1453.395386
2824.775160	17460.371000	1578.755859	1510.340820
2824.775160	17460.371000	1577.711914	1402.495605
2824.775160	17460.371000	1576.666992	1278.705444
2824.775160	17460.371000	1575.623047	1393.004761
2824.775160	17460.371000	1574.578125	1333.425171
2824.775160	17460.371000	1573.533203	1475.206787
2824.775160	17460.371000	1572.488281	1502.643799
2824.775160	17460.371000	1571.443359	1383.794922
2824.775160	17460.371000	1570.397461	1324.469238
2824.775160	17460.371000	1569.351563	1566.915894
2824.775160	17460.371000	1568.305664	1537.402100
2824.775160	17460.371000	1567.259766	1846.086914
2824.775160	17460.371000	1566.213867	1697.875244
2824.775160	17460.371000	1565.166992	1652.538818
2824.775160	17460.371000	1564.120117	1993.160767
2824.775160	17460.371000	1563.073242	1941.066650
2824.775160	17460.371000	1562.026367	1758.963501
2824.775160	17460.371000	1560.978516	1841.691162
2824.775160	17460.371000	1559.930664	1595.921143
2824.775160	17460.371000	1558.883789	1715.300415
2824.775160	17460.371000	1557.834961	1720.646729
2824.775160	17460.371000	1556.787109	1479.821411
2824.775160	17460.371000	1555.739258	1344.032349
2824.775160	17460.371000	1554.690430	1445.399780
2824.775160	17460.371000	1553.641602	1375.894775
2824.775160	17460.371000	1552.592773	1254.092651
2824.775160	17460.371000	1551.542969	1168.851196
2824.775160	17460.371000	1550.494141	1213.551880
2824.775160	17460.371000	1549.444336	1429.078247
2824.775160	17460.371000	1548.394531	1396.458496
2824.775160	17460.371000	1547.344727	1029.345093
2824.775160	17460.371000	1546.293945	992.420227
2824.775160	17460.371000	1545.244141	898.728882
2824.775160	17460.371000	1544.193359	873.391479
2824.775160	17460.371000	1543.142578	850.426025
2824.775160	17460.371000	1542.090820	1064.029785
2824.775160	17460.371000	1541.040039	1170.801636
2824.775160	17460.371000	1539.988281	1109.409546
2824.775160	17460.371000	1538.936523	1075.405396
2824.775160	17460.371000	1537.884766	1009.698120
2824.775160	17460.371000	1536.833008	773.739136
2824.775160	17460.371000	1535.780273	833.210449
2824.775160	17460.371000	1534.727539	801.925232
2824.775160	17460.371000	1533.674805	666.317993
2824.775160	17460.371000	1532.622070	823.671875
2824.775160	17460.371000	1531.569336	810.858826
2824.775160	17460.371000	1530.515625	868.476624
2824.775160	17460.371000	1529.461914	558.676514
2824.775160	17460.371000	1528.408203	680.031738
2824.775160	17460.371000	1527.354492	715.273621
2824.775160	17460.371000	1526.299805	557.885864
2824.775160	17460.371000	1525.246094	579.747437
2824.775160	17460.371000	1524.191406	805.658997
2824.775160	17460.371000	1523.136719	723.437378
2824.775160	17460.371000	1522.081055	747.818542
2824.775160	17460.371000	1521.026367	776.838806
2824.775160	17460.371000	1519.970703	473.070160
2824.775160	17460.371000	1518.915039	595.168701
2824.775160	17460.371000	1517.859375	746.757263
2824.775160	17460.371000	1516.802734	529.498291
2824.775160	17460.371000	1515.747070	737.830994
2824.775160	17460.371000	1514.690430	898.679199
2824.775160	17460.371000	1513.633789	865.065430
2824.775160	17460.371000	1512.577148	833.842102
2824.775160	17460.371000	1511.519531	924.825256
2824.775160	17460.371000	1510.461914	850.878174
2824.775160	17460.371000	1509.405273	609.848816
2824.775160	17460.371000	1508.346680	750.877380
2824.775160	17460.371000	1507.289063	751.913879
2824.775160	17460.371000	1506.231445	615.294128
2824.775160	17460.371000	1505.172852	614.332031
2824.775160	17460.371000	1504.114258	629.295227
2824.775160	17460.371000	1503.055664	472.821045
2824.775160	17460.371000	1501.996094	490.299835
2824.775160	17460.371000	1500.937500	320.622681
2824.775160	17460.371000	1499.877930	498.546326
2824.775160	17460.371000	1498.818359	525.405151
2824.775160	17460.371000	1497.757813	484.718933
2824.775160	17460.371000	1496.698242	284.106171
2824.775160	17460.371000	1495.637695	530.015991
2824.775160	17460.371000	1494.577148	322.958984
2824.775160	17460.371000	1493.516602	440.582184
2824.775160	17460.371000	1492.456055	337.510986
2824.775160	17460.371000	1491.394531	455.335083
2824.775160	17460.371000	1490.333008	519.195496
2824.775160	17460.371000	1489.271484	628.191162
2824.775160	17460.371000	1488.209961	590.956360
2824.775160	17460.371000	1487.148438	295.051117
2824.775160	17460.371000	1486.085938	622.675903
2824.775160	17460.371000	1485.023438	765.827515
2824.775160	17460.371000	1483.960938	839.328491
2824.775160	17460.371000	1482.898438	667.815063
2824.775160	17460.371000	1481.834961	617.903198
2824.775160	17460.371000	1480.772461	765.968384
2824.775160	17460.371000	1479.708984	716.326416
2824.775160	17460.371000	1478.644531	707.242737
2824.775160	17460.371000	1477.581055	774.736389
2824.775160	17460.371000	1476.517578	669.408142
2824.775160	17460.371000	1475.453125	508.112946
2824.775160	17460.371000	1474.388672	825.107849
2824.775160	17460.371000	1473.323242	765.105591
2824.775160	17460.371000	1472.258789	671.620972
2824.775160	17460.371000	1471.193359	858.629150
2824.775160	17460.371000	1470.127930	696.061401
2824.775160	17460.371000	1469.062500	820.503784
2824.775160	17460.371000	1467.997070	591.043457
2824.775160	17460.371000	1466.930664	744.673035
2824.775160	17460.371000	1465.865234	580.678284
2824.775160	17460.371000	1464.798828	824.433167
2824.775160	17460.371000	1463.731445	763.545593
2824.775160	17460.371000	1462.665039	543.901123
2824.775160	17460.371000	1461.597656	448.029724
2824.775160	17460.371000	1460.530273	622.395569
2824.775160	17460.371000	1459.462891	538.055420
2824.775160	17460.371000	1458.395508	654.865723
2824.775160	17460.371000	1457.327148	847.265503
2824.775160	17460.371000	1456.259766	676.263733
2824.775160	17460.371000	1455.191406	888.781433
2824.775160	17460.371000	1454.123047	816.093567
2824.775160	17460.371000	1453.053711	839.303589
2824.775160	17460.371000	1451.985352	914.546326
2824.775160	17460.371000	1450.916016	744.143250
2824.775160	17460.371000	1449.846680	1125.550293
2824.775160	17460.371000	1448.776367	704.053223
2824.775160	17460.371000	1447.707031	903.397888
2824.775160	17460.371000	1446.636719	889.498657
2824.775160	17460.371000	1445.566406	927.861694
2824.775160	17460.371000	1444.496094	971.211487
2824.775160	17460.371000	1443.425781	855.512695
2824.775160	17460.371000	1442.354492	770.862305
2824.775160	17460.371000	1441.283203	808.444580
2824.775160	17460.371000	1440.211914	952.584656
2824.775160	17460.371000	1439.140625	982.854492
2824.775160	17460.371000	1438.069336	1166.575317
2824.775160	17460.371000	1436.997070	853.841614
2824.775160	17460.371000	1435.924805	790.760803
2824.775160	17460.371000	1434.852539	616.757568
2824.775160	17460.371000	1433.780273	510.686127
2824.775160	17460.371000	1432.707031	703.480347
2824.775160	17460.371000	1431.633789	520.946350
2824.775160	17460.371000	1430.560547	522.902283
2824.775160	17460.371000	1429.487305	569.538147
2824.775160	17460.371000	1428.413086	591.771851
2824.775160	17460.371000	1427.339844	395.890076
2824.775160	17460.371000	1426.265625	217.247345
2824.775160	17460.371000	1425.191406	316.899872
2824.775160	17460.371000	1424.116211	325.658478
2824.775160	17460.371000	1423.041992	46.955311
2824.775160	17460.371000	1421.966797	287.405609
2824.775160	17460.371000	1420.891602	192.724243
2824.775160	17460.371000	1419.816406	114.184227
2824.775160	17460.371000	1418.740234	10.455398
2824.775160	17460.371000	1417.665039	-199.982635
2824.775160	17460.371000	1416.588867	-143.128616
2824.775160	17460.371000	1415.512695	12.773598
2824.775160	17460.371000	1414.435547	20.232151
2824.775160	17460.371000	1413.359375	-27.357384
2824.775160	17460.371000	1412.282227	47.950565
2824.775160	17460.371000	1411.205078	174.327591
2824.775160	17460.371000	1410.127930	180.274200
2824.775160	17460.371000	1409.049805	95.779579
2824.775160	17460.371000	1407.972656	111.985085
2824.775160	17460.371000	1406.894531	143.641159
2824.775160	17460.371000	1405.816406	328.101379
2824.775160	17460.371000	1404.737305	359.395386
2824.775160	17460.371000	1403.659180	333.140137
2824.775160	17460.371000	1402.580078	280.086945
2824.775160	17460.371000	1401.500977	299.563477
2824.775160	17460.371000	1400.421875	482.630707
2824.775160	17460.371000	1399.341797	490.741669
2824.775160	17460.371000	1398.262695	487.402679
2824.775160	17460.371000	1397.182617	477.624054
2824.775160	17460.371000	1396.102539	351.492584
2824.775160	17460.371000	1395.021484	270.011505
2824.775160	17460.371000	1393.941406	492.672516
2824.775160	17460.371000	1392.860352	275.016144
2824.775160	17460.371000	1391.779297	275.264343
2824.775160	17460.371000	1390.698242	362.722137
2824.775160	17460.371000	1389.616211	400.123840
2824.775160	17460.371000	1388.535156	380.892517
2824.775160	17460.371000	1387.453125	406.519958
2824.775160	17460.371000	1386.371094	548.866272
2824.775160	17460.371000	1385.288086	478.913147
2824.775160	17460.371000	1384.206055	555.166809
2824.775160	17460.371000	1383.123047	620.280945
2824.775160	17460.371000	1382.040039	573.544922
2824.775160	17460.371000	1380.957031	464.059509
2824.775160	17460.371000	1379.873047	507.073608
2824.775160	17460.371000	1378.789063	625.399536
2824.775160	17460.371000	1377.705078	731.773926
2824.775160	17460.371000	1376.621094	851.750549
2824.775160	17460.371000	1375.537109	684.131531
2824.775160	17460.371000	1374.452148	887.786194
2824.775160	17460.371000	1373.367188	916.517639
2824.775160	17460.371000	1372.282227	859.815247
2824.775160	17460.371000	1371.197266	948.272034
2824.775160	17460.371000	1370.112305	781.935913
2824.775160	17460.371000	1369.026367	913.931824
2824.775160	17460.371000	1367.940430	838.871704
2824.775160	17460.371000	1366.854492	850.635559
2824.775160	17460.371000	1365.767578	845.594666
2824.775160	17460.371000	1364.681641	791.214111
2824.775160	17460.371000	1363.594727	729.308533
2824.775160	17460.371000	1362.507813	807.276489
2824.775160	17460.371000	1361.419922	1002.542297
2824.775160	17460.371000	1360.333008	664.748047
2824.775160	17460.371000	1359.245117	829.823242
2824.775160	17460.371000	1358.157227	893.476746
2824.775160	17460.371000	1357.069336	921.286682
2824.775160	17460.371000	1355.981445	803.855713
2824.775160	17460.371000	1354.892578	1055.860596
2824.775160	17460.371000	1353.803711	889.809387
2824.775160	17460.371000	1352.714844	961.926819
2824.775160	17460.371000	1351.625000	1143.792358
2824.775160	17460.371000	1350.536133	974.176025
2824.775160	17460.371000	1349.446289	1076.533569
2824.775160	17460.371000	1348.356445	1014.207642
2824.775160	17460.371000	1347.266602	1278.805664
2824.775160	17460.371000	1346.175781	1353.226563
2824.775160	17460.371000	1345.085938	1595.008545
2824.775160	17460.371000	1343.995117	1732.011230
2824.775160	17460.371000	1342.903320	1737.897949
2824.775160	17460.371000	1341.812500	1750.098755
2824.775160	17460.371000	1340.720703	1896.537231
2824.775160	17460.371000	1339.629883	1989.392090
2824.775160	17460.371000	1338.538086	1975.186157
2824.775160	17460.371000	1337.445313	1640.784790
2824.775160	17460.371000	1336.353516	1742.087769
2824.775160	17460.371000	1335.260742	1770.883911
2824.775160	17460.371000	1334.167969	1705.518677
2824.775160	17460.371000	1333.075195	1806.474243
2824.775160	17460.371000	1331.981445	1813.914673
2824.775160	17460.371000	1330.888672	1941.683105
2824.775160	17460.371000	1329.794922	1998.142456
2824.775160	17460.371000	1328.701172	2002.449097
2824.775160	17460.371000	1327.606445	2360.518066
2824.775160	17460.371000	1326.512695	2335.888428
2824.775160	17460.371000	1325.417969	2683.392334
2824.775160	17460.371000	1324.323242	2730.176270
2824.775160	17460.371000	1323.227539	2928.713867
2824.775160	17460.371000	1322.132813	3004.235352
2824.775160	17460.371000	1321.037109	2907.309326
2824.775160	17460.371000	1319.941406	2916.941650
2824.775160	17460.371000	1318.845703	2845.513916
2824.775160	17460.371000	1317.750000	2614.664551
2824.775160	17460.371000	1316.653320	2671.646484
2824.775160	17460.371000	1315.556641	2647.749756
2824.775160	17460.371000	1314.459961	2574.192383
2824.775160	17460.371000	1313.363281	2551.695068
2824.775160	17460.371000	1312.265625	2357.498535
2824.775160	17460.371000	1311.167969	2261.516113
2824.775160	17460.371000	1310.070313	1855.046509
2824.775160	17460.371000	1308.972656	1533.297852
2824.775160	17460.371000	1307.874023	1399.193970
2824.775160	17460.371000	1306.776367	1296.107544
2824.775160	17460.371000	1305.677734	1134.798584
2824.775160	17460.371000	1304.579102	1176.258179
2824.775160	17460.371000	1303.479492	738.333130
2824.775160	17460.371000	1302.380859	782.937012
2824.775160	17460.371000	1301.281250	875.355408
2824.775160	17460.371000	1300.181641	527.440491
2824.775160	17460.371000	1299.081055	788.712280
2824.775160	17460.371000	1297.981445	713.437378
2824.775160	17460.371000	1296.880859	657.224976
2824.775160	17460.371000	1295.780273	681.202576
2824.775160	17460.371000	1294.679688	710.208862
2824.775160	17460.371000	1293.578125	725.922302
2824.775160	17460.371000	1292.476563	592.235657
2824.775160	17460.371000	1291.375000	666.498474
2824.775160	17460.371000	1290.273438	709.465637
2824.775160	17460.371000	1289.171875	824.857666
2824.775160	17460.371000	1288.069336	640.699890
2824.775160	17460.371000	1286.966797	815.431763
2824.775160	17460.371000	1285.864258	944.255432
2824.775160	17460.371000	1284.761719	909.928650
2824.775160	17460.371000	1283.658203	879.088013
2824.775160	17460.371000	1282.554688	954.580200
2824.775160	17460.371000	1281.451172	987.459900
2824.775160	17460.371000	1280.347656	895.934937
2824.775160	17460.371000	1279.244141	820.448730
2824.775160	17460.371000	1278.139648	528.586243
2824.775160	17460.371000	1277.035156	675.470459
2824.775160	17460.371000	1275.930664	626.269165
2824.775160	17460.371000	1274.825195	602.296143
2824.775160	17460.371000	1273.720703	641.197327
2824.775160	17460.371000	1272.615234	360.954559
2824.775160	17460.371000	1271.508789	456.647980
2824.775160	17460.371000	1270.403320	412.436127
2824.775160	17460.371000	1269.297852	409.476501
2824.775160	17460.371000	1268.191406	378.767426
2824.775160	17460.371000	1267.084961	494.985352
2824.775160	17460.371000	1265.977539	357.113983
2824.775160	17460.371000	1264.871094	436.944519
2824.775160	17460.371000	1263.763672	261.636932
2824.775160	17460.371000	1262.656250	304.543365
2824.775160	17460.371000	1261.548828	250.844406
2824.775160	17460.371000	1260.440430	232.153824
2824.775160	17460.371000	1259.333008	194.350525
2824.775160	17460.371000	1258.224609	205.867142
2824.775160	17460.371000	1257.115234	184.111877
2824.775160	17460.371000	1256.006836	192.953827
2824.775160	17460.371000	1254.897461	94.103996
2824.775160	17460.371000	1253.788086	156.845078
2824.775160	17460.371000	1252.678711	20.214180
2824.775160	17460.371000	1251.569336	8.895892
2824.775160	17460.371000	1250.458984	-85.533035
2824.775160	17460.371000	1249.349609	-23.294409
2824.775160	17460.371000	1248.239258	142.675430
2824.775160	17460.371000	1247.127930	53.226139
2824.775160	17460.371000	1246.017578	21.139793
2824.775160	17460.371000	1244.906250	-71.844124
2824.775160	17460.371000	1243.794922	110.657639
2824.775160	17460.371000	1242.683594	95.484970
2824.775160	17460.371000	1241.571289	27.582840
2824.775160	17460.371000	1240.459961	104.707962
2824.775160	17460.371000	1239.347656	-20.823992
2824.775160	17460.371000	1238.234375	1.417705
2824.775160	17460.371000	1237.122070	-15.133458
2824.775160	17460.371000	1236.008789	-4.035827
2824.775160	17460.371000	1234.896484	77.881416
2824.775160	17460.371000	1233.782227	19.972591
2824.775160	17460.371000	1232.668945	154.129654
2824.775160	17460.371000	1231.555664	110.132576
2824.775160	17460.371000	1230.441406	145.809128
2824.775160	17460.371000	1229.327148	318.864929
2824.775160	17460.371000	1228.211914	357.463715
2824.775160	17460.371000	1227.097656	288.758881
2824.775160	17460.371000	1225.982422	503.544495
2824.775160	17460.371000	1224.867188	428.636597
2824.775160	17460.371000	1223.751953	443.271698
2824.775160	17460.371000	1222.635742	477.427887
2824.775160	17460.371000	1221.520508	278.464752
2824.775160	17460.371000	1220.404297	232.080673
2824.775160	17460.371000	1219.287109	184.555969
2824.775160	17460.371000	1218.170898	300.898804
2824.775160	17460.371000	1217.053711	149.949051
2824.775160	17460.371000	1215.936523	205.245499
2824.775160	17460.371000	1214.819336	87.994423
2824.775160	17460.371000	1213.702148	213.575912
2824.775160	17460.371000	1212.583984	81.442596
2824.775160	17460.371000	1211.465820	70.034798
2824.775160	17460.371000	1210.347656	14.312691
2824.775160	17460.371000	1209.229492	-114.154152
2824.775160	17460.371000	1208.110352	52.611263
2824.775160	17460.371000	1206.992188	24.404652
2824.775160	17460.371000	1205.873047	13.356524
2824.775160	17460.371000	1204.752930	88.886993
2824.775160	17460.371000	1203.633789	-73.447334
2824.775160	17460.371000	1202.513672	-2.455518
2824.775160	17460.371000	1201.393555	-34.848347
2824.775160	17460.371000	1200.273438	-52.294483
2824.775160	17460.371000	1199.152344	-40.471371
2824.775160	17460.371000	1198.032227	-170.322098
2824.775160	17460.371000	1196.911133	-218.085632
2824.775160	17460.371000	1195.790039	-24.106392
2824.775160	17460.371000	1194.667969	-111.727928
2824.775160	17460.371000	1193.545898	-102.230118
2824.775160	17460.371000	1192.424805	-10.419092
2824.775160	17460.371000	1191.301758	-51.429806
2824.775160	17460.371000	1190.179688	-123.076797
2824.775160	17460.371000	1189.056641	-68.210739
2824.775160	17460.371000	1187.933594	7.611319
2824.775160	17460.371000	1186.810547	-1.298716
2824.775160	17460.371000	1185.687500	20.349581
2824.775160	17460.371000	1184.563477	44.030796
2824.775160	17460.371000	1183.440430	86.504913
2824.775160	17460.371000	1182.316406	102.131836
2824.775160	17460.371000	1181.191406	101.773193
2824.775160	17460.371000	1180.067383	135.524170
2824.775160	17460.371000	1178.942383	188.988617
2824.775160	17460.371000	1177.817383	174.509293
2824.775160	17460.371000	1176.692383	174.323944
2824.775160	17460.371000	1175.566406	4.032907
2824.775160	17460.371000	1174.440430	40.820877
2824.775160	17460.371000	1173.314453	-22.302879
2824.775160	17460.371000	1172.188477	41.386726
2824.775160	17460.371000	1171.062500	204.694870
2824.775160	17460.371000	1169.935547	28.437557
2824.775160	17460.371000	1168.808594	-30.463964
2824.775160	17460.371000	1167.681641	21.438095
2824.775160	17460.371000	1166.553711	292.646149
2824.775160	17460.371000	1165.426758	122.764328
2824.775160	17460.371000	1164.298828	109.906288
2824.775160	17460.371000	1163.170898	114.429085
2824.775160	17460.371000	1162.041992	64.498085
2824.775160	17460.371000	1160.914063	142.139679
2824.775160	17460.371000	1159.785156	213.192780
2824.775160	17460.371000	1158.656250	41.292976
2824.775160	17460.371000	1157.526367	-23.369110
2824.775160	17460.371000	1156.397461	-3.114375
2824.775160	17460.371000	1155.267578	28.155558
2824.775160	17460.371000	1154.137695	-170.849304
2824.775160	17460.371000	1153.006836	-99.517586
2824.775160	17460.371000	1151.876953	52.688614
2824.775160	17460.371000	1150.746094	15.045070
2824.775160	17460.371000	1149.615234	-48.515331
2824.775160	17460.371000	1148.484375	6.488546
2824.775160	17460.371000	1147.352539	-186.048935
2824.775160	17460.371000	1146.220703	-144.385147
2824.775160	17460.371000	1145.088867	59.111462
2824.775160	17460.371000	1143.957031	-112.494949
2824.775160	17460.371000	1142.825195	-90.817924
2824.775160	17460.371000	1141.692383	-139.665436
2824.775160	17460.371000	1140.559570	-46.267254
2824.775160	17460.371000	1139.426758	-88.711502
2824.775160	17460.371000	1138.292969	-111.054329
2824.775160	17460.371000	1137.159180	-25.261639
2824.775160	17460.371000	1136.025391	-64.787758
2824.775160	17460.371000	1134.891602	-21.182703
2824.775160	17460.371000	1133.757813	55.602150
2824.775160	17460.371000	1132.623047	-116.036430
2824.775160	17460.371000	1131.488281	-25.881445
2824.775160	17460.371000	1130.353516	-101.605919
2824.775160	17460.371000	1129.217773	-63.467510
2824.775160	17460.371000	1128.083008	-35.412395
2824.775160	17460.371000	1126.947266	70.289360
2824.775160	17460.371000	1125.811523	105.539627
2824.775160	17460.371000	1124.674805	-58.667473
2824.775160	17460.371000	1123.539063	94.360031
2824.775160	17460.371000	1122.402344	9.823371
2824.775160	17460.371000	1121.265625	-25.094091
2824.775160	17460.371000	1120.127930	-18.653290
2824.775160	17460.371000	1118.990234	66.227692
2824.775160	17460.371000	1117.853516	-74.241074
2824.775160	17460.371000	1116.714844	-26.131542
2824.775160	17460.371000	1115.577148	-34.838715
2824.775160	17460.371000	1114.439453	-25.845264
2824.775160	17460.371000	1113.300781	-41.290325
2824.775160	17460.371000	1112.162109	10.098814
2824.775160	17460.371000	1111.022461	-119.437180
2824.775160	17460.371000	1109.883789	18.841871
2824.775160	17460.371000	1108.744141	88.564766
2824.775160	17460.371000	1107.604492	8.344303
2824.775160	17460.371000	1106.463867	73.707092
2824.775160	17460.371000	1105.324219	-2.045671
2824.775160	17460.371000	1104.183594	127.468315
2824.775160	17460.371000	1103.042969	64.118919
2824.775160	17460.371000	1101.902344	65.056572
2824.775160	17460.371000	1100.760742	195.105499
2824.775160	17460.371000	1099.619141	160.033218
2824.775160	17460.371000	1098.477539	218.175720
2824.775160	17460.371000	1097.335938	127.541840
2824.775160	17460.371000	1096.193359	197.552322
2824.775160	17460.371000	1095.051758	254.988861
2824.775160	17460.371000	1093.909180	212.476059
2824.775160	17460.371000	1092.765625	280.161285
2824.775160	17460.371000	1091.623047	285.736725
2824.775160	17460.371000	1090.479492	187.718323
2824.775160	17460.371000	1089.335938	253.863327
2824.775160	17460.371000	1088.192383	224.235367
2824.775160	17460.371000	1087.047852	317.927673
2824.775160	17460.371000	1085.903320	188.961380
2824.775160	17460.371000	1084.758789	351.518280
2824.775160	17460.371000	1083.614258	107.951057
2824.775160	17460.371000	1082.469727	159.792068
2824.775160	17460.371000	1081.324219	342.348206
2824.775160	17460.371000	1080.178711	332.937775
2824.775160	17460.371000	1079.033203	389.071716
2824.775160	17460.371000	1077.886719	240.283310
2824.775160	17460.371000	1076.740234	153.061981
2824.775160	17460.371000	1075.593750	262.962555
2824.775160	17460.371000	1074.447266	239.579041
2824.775160	17460.371000	1073.300781	273.493622
2824.775160	17460.371000	1072.153320	343.889771
2824.775160	17460.371000	1071.005859	263.847015
2824.775160	17460.371000	1069.858398	184.828491
2824.775160	17460.371000	1068.709961	246.728470
2824.775160	17460.371000	1067.561523	270.942078
2824.775160	17460.371000	1066.413086	83.414848
2824.775160	17460.371000	1065.264648	174.683182
2824.775160	17460.371000	1064.116211	204.195526
2824.775160	17460.371000	1062.966797	317.859650
2824.775160	17460.371000	1061.817383	309.372711
2824.775160	17460.371000	1060.667969	100.403915
2824.775160	17460.371000	1059.517578	187.088394
2824.775160	17460.371000	1058.368164	279.452545
2824.775160	17460.371000	1057.217773	147.934280
2824.775160	17460.371000	1056.067383	176.890244
2824.775160	17460.371000	1054.916016	129.722977
2824.775160	17460.371000	1053.764648	186.073395
2824.775160	17460.371000	1052.613281	224.363647
2824.775160	17460.371000	1051.461914	84.369461
2824.775160	17460.371000	1050.310547	287.984680
2824.775160	17460.371000	1049.158203	231.134094
2824.775160	17460.371000	1048.005859	45.882710
2824.775160	17460.371000	1046.853516	149.778702
2824.775160	17460.371000	1045.700195	235.628586
2824.775160	17460.371000	1044.547852	160.894470
2824.775160	17460.371000	1043.394531	174.372635
2824.775160	17460.371000	1042.240234	270.540833
2824.775160	17460.371000	1041.086914	120.135849
2824.775160	17460.371000	1039.932617	55.867786
2824.775160	17460.371000	1038.778320	139.133072
2824.775160	17460.371000	1037.624023	337.588318
2824.775160	17460.371000	1036.469727	320.577637
2824.775160	17460.371000	1035.314453	407.196228
2824.775160	17460.371000	1034.159180	456.829010
2824.775160	17460.371000	1033.003906	620.718567
2824.775160	17460.371000	1031.847656	740.248047
2824.775160	17460.371000	1030.692383	614.571167
2824.775160	17460.371000	1029.536133	615.225281
2824.775160	17460.371000	1028.378906	740.601379
2824.775160	17460.371000	1027.222656	558.130615
2824.775160	17460.371000	1026.065430	588.604187
2824.775160	17460.371000	1024.908203	433.178833
2824.775160	17460.371000	1023.750977	195.893982
2824.775160	17460.371000	1022.593750	262.794983
2824.775160	17460.371000	1021.435547	460.160156
2824.775160	17460.371000	1020.277344	210.388687
2824.775160	17460.371000	1019.119141	223.866684
2824.775160	17460.371000	1017.959961	261.946625
2824.775160	17460.371000	1016.800781	163.712311
2824.775160	17460.371000	1015.641602	75.544044
2824.775160	17460.371000	1014.482422	-63.401989
2824.775160	17460.371000	1013.323242	138.605576
2824.775160	17460.371000	1012.163086	144.189056
2824.775160	17460.371000	1011.002930	208.264008
2824.775160	17460.371000	1009.842773	261.981232
2824.775160	17460.371000	1008.681641	229.693939
2824.775160	17460.371000	1007.520508	224.900269
2824.775160	17460.371000	1006.359375	163.065506
2824.775160	17460.371000	1005.198242	210.643219
2824.775160	17460.371000	1004.037109	255.760773
2824.775160	17460.371000	1002.875000	159.862000
2824.775160	17460.371000	1001.712891	190.510681
2824.775160	17460.371000	1000.550781	179.547119
2824.775160	17460.371000	999.387695	198.362305
2824.775160	17460.371000	998.224609	18.847290
2824.775160	17460.371000	997.061523	94.660698
2824.775160	17460.371000	995.898438	-40.156025
2824.775160	17460.371000	994.734375	123.276299
2824.775160	17460.371000	993.571289	51.208897
2824.775160	17460.371000	992.407227	-42.118908
2824.775160	17460.371000	991.242188	-110.137924
2824.775160	17460.371000	990.078125	-80.922913
2824.775160	17460.371000	988.913086	-22.426628
2824.775160	17460.371000	987.748047	-4.656183
2824.775160	17460.371000	986.583008	200.729187
2824.775160	17460.371000	985.416992	-113.877914
2824.775160	17460.371000	984.250977	93.978378
2824.775160	17460.371000	983.084961	37.965485
2824.775160	17460.371000	981.918945	24.488625
2824.775160	17460.371000	980.751953	-1.061663
2824.775160	17460.371000	979.584961	50.228115
2824.775160	17460.371000	978.417969	38.001938
2824.775160	17460.371000	977.250977	56.930645
2824.775160	17460.371000	976.083008	-68.746208
2824.775160	17460.371000	974.915039	-17.900181
2824.775160	17460.371000	973.747070	4.554105
2824.775160	17460.371000	972.579102	90.537971
2824.775160	17460.371000	971.410156	-8.789690
2824.775160	17460.371000	970.242188	74.776558
2824.775160	17460.371000	969.072266	172.006882
2824.775160	17460.371000	967.903320	185.309692
2824.775160	17460.371000	966.733398	230.841553
2824.775160	17460.371000	965.563477	194.167145
2824.775160	17460.371000	964.393555	187.465561
2824.775160	17460.371000	963.223633	156.809479
2824.775160	17460.371000	962.052734	94.518745
2824.775160	17460.371000	960.881836	189.489120
2824.775160	17460.371000	959.710938	295.665375
2824.775160	17460.371000	958.540039	301.065460
2824.775160	17460.371000	957.368164	283.811829
2824.775160	17460.371000	956.196289	76.920494
2824.775160	17460.371000	955.024414	78.545639
2824.775160	17460.371000	953.851563	70.087021
2824.775160	17460.371000	952.679688	56.749203
2824.775160	17460.371000	951.506836	80.606667
2824.775160	17460.371000	950.333984	-1.647770
2824.775160	17460.371000	949.160156	144.448059
2824.775160	17460.371000	947.986328	143.857986
2824.775160	17460.371000	946.812500	100.908073
2824.775160	17460.371000	945.638672	190.630417
2824.775160	17460.371000	944.464844	-5.761227
2824.775160	17460.371000	943.290039	-26.386351
2824.775160	17460.371000	942.115234	49.734100
2824.775160	17460.371000	940.940430	9.130745
2824.775160	17460.371000	939.764648	46.707489
2824.775160	17460.371000	938.588867	122.283257
2824.775160	17460.371000	937.413086	-10.335940
2824.775160	17460.371000	936.237305	15.444464
2824.775160	17460.371000	935.060547	84.992653
2824.775160	17460.371000	933.883789	6.499674
2824.775160	17460.371000	932.707031	-106.044899
2824.775160	17460.371000	931.530273	69.510139
2824.775160	17460.371000	930.352539	175.034851
2824.775160	17460.371000	929.175781	198.432602
2824.775160	17460.371000	927.998047	119.876778
2824.775160	17460.371000	926.819336	129.292465
2824.775160	17460.371000	925.641602	118.704178
2824.775160	17460.371000	924.462891	92.119202
2824.775160	17460.371000	923.284180	153.477188
2824.775160	17460.371000	922.104492	242.780914
2824.775160	17460.371000	920.924805	228.126266
2824.775160	17460.371000	919.746094	231.099472
2824.775160	17460.371000	919.551758	78.100060
2824.775160	17460.371000	918.386719	49.439468
2824.775160	17460.371000	917.220703	154.582413
2824.775160	17460.371000	916.054688	247.691238
2824.775160	17460.371000	914.887695	91.226585
2824.775160	17460.371000	913.721680	172.312775
2824.775160	17460.371000	912.554688	87.739525
2824.775160	17460.371000	911.387695	206.679443
2824.775160	17460.371000	910.220703	102.166443
2824.775160	17460.371000	909.052734	173.176254
2824.775160	17460.371000	907.885742	122.524162
2824.775160	17460.371000	906.717773	14.077397
2824.775160	17460.371000	905.548828	-54.473431
2824.775160	17460.371000	904.380859	30.418934
2824.775160	17460.371000	903.211914	-66.016037
2824.775160	17460.371000	902.042969	-30.965565
2824.775160	17460.371000	900.874023	6.052949
2824.775160	17460.371000	899.704102	104.769028
2824.775160	17460.371000	898.535156	183.528809
2824.775160	17460.371000	897.365234	146.822403
2824.775160	17460.371000	896.194336	82.269073
2824.775160	17460.371000	895.024414	222.631012
2824.775160	17460.371000	893.853516	249.561829
2824.775160	17460.371000	892.682617	83.589165
2824.775160	17460.371000	891.511719	130.402603
2824.775160	17460.371000	890.340820	67.866043
2824.775160	17460.371000	889.168945	74.905167
2824.775160	17460.371000	887.997070	109.749779
2824.775160	17460.371000	886.825195	148.545486
2824.775160	17460.371000	885.653320	240.942276
2824.775160	17460.371000	884.480469	51.332134
2824.775160	17460.371000	883.307617	34.509773
2824.775160	17460.371000	882.134766	65.323425
2824.775160	17460.371000	880.961914	32.614952
2824.775160	17460.371000	879.788086	200.303619
2824.775160	17460.371000	878.614258	129.880432
2824.775160	17460.371000	877.440430	3.948968
2824.775160	17460.371000	876.266602	14.876472
2824.775160	17460.371000	875.091797	73.373642
2824.775160	17460.371000	873.916992	175.444183
2824.775160	17460.371000	872.742188	33.728294
2824.775160	17460.371000	871.567383	30.747944
2824.775160	17460.371000	870.391602	-57.409740
2824.775160	17460.371000	869.215820	22.795094
2824.775160	17460.371000	868.040039	21.781393
2824.775160	17460.371000	866.864258	-96.034332
2824.775160	17460.371000	865.687500	-146.514252
2824.775160	17460.371000	864.510742	-109.914383
2824.775160	17460.371000	863.333984	37.452240
2824.775160	17460.371000	862.157227	-72.383148
2824.775160	17460.371000	860.979492	9.644488
2824.775160	17460.371000	859.802734	-82.359207
2824.775160	17460.371000	858.625000	-205.957977
2824.775160	17460.371000	857.446289	-210.930695
2824.775160	17460.371000	856.268555	-83.522789
2824.775160	17460.371000	855.089844	-205.088593
2824.775160	17460.371000	853.911133	-69.846535
2824.775160	17460.371000	852.731445	-59.071526
2824.775160	17460.371000	851.552734	-180.589508
2824.775160	17460.371000	850.373047	-106.646500
2824.775160	17460.371000	849.193359	-210.355972
2824.775160	17460.371000	848.013672	-193.672119
2824.775160	17460.371000	846.833008	-147.409927
2824.775160	17460.371000	845.652344	-51.868420
2824.775160	17460.371000	844.471680	98.838997
2824.775160	17460.371000	843.291016	-174.390350
2824.775160	17460.371000	842.110352	-49.360287
2824.775160	17460.371000	840.928711	-149.043106
2824.775160	17460.371000	839.747070	-73.341331
2824.775160	17460.371000	838.564453	20.051527
2824.775160	17460.371000	837.382813	14.922889
2824.775160	17460.371000	836.200195	-39.436871
2824.775160	17460.371000	835.017578	-87.877541
2824.775160	17460.371000	833.834961	-150.085327
2824.775160	17460.371000	832.651367	-163.079498
2824.775160	17460.371000	831.467773	6.891749
2824.775160	17460.371000	830.284180	-17.951580
2824.775160	17460.371000	829.100586	61.435242
2824.775160	17460.371000	827.916992	-87.300034
2824.775160	17460.371000	826.732422	-0.087388
2824.775160	17460.371000	825.547852	-60.326385
2824.775160	17460.371000	824.363281	-38.021641
2824.775160	17460.371000	823.177734	-78.602196
2824.775160	17460.371000	821.992188	28.135422
2824.775160	17460.371000	820.806641	-161.712357
2824.775160	17460.371000	819.621094	84.373283
2824.775160	17460.371000	818.434570	-95.615379
2824.775160	17460.371000	817.249023	7.063866
2824.775160	17460.371000	816.062500	123.424629
2824.775160	17460.371000	814.875000	2.354803
2824.775160	17460.371000	813.688477	42.149864
2824.775160	17460.371000	812.500977	58.384869
2824.775160	17460.371000	811.313477	82.441551
2824.775160	17460.371000	810.125977	112.354294
2824.775160	17460.371000	808.937500	59.934105
2824.775160	17460.371000	807.749023	-127.672607
2824.775160	17460.371000	806.560547	154.921539
2824.775160	17460.371000	805.372070	4.553680
2824.775160	17460.371000	804.182617	-26.321718
2824.775160	17460.371000	802.994141	64.174995
2824.775160	17460.371000	801.803711	68.500130
2824.775160	17460.371000	800.614258	109.985817
2824.775160	17460.371000	799.424805	-1.168368
2824.775160	17460.371000	798.234375	1.160428
2824.775160	17460.371000	797.043945	144.278366
2824.775160	17460.371000	795.852539	-29.432476
2824.775160	17460.371000	794.662109	25.627466
2824.775160	17460.371000	793.470703	41.558132
2824.775160	17460.371000	792.279297	88.727737
2824.775160	17460.371000	791.087891	184.699402
2824.775160	17460.371000	789.895508	71.615891
2824.775160	17460.371000	788.703125	194.852264
2824.775160	17460.371000	787.510742	152.060532
2824.775160	17460.371000	786.318359	72.176346
2824.775160	17460.371000	785.125000	13.773549
2824.775160	17460.371000	783.931641	33.422089
2824.775160	17460.371000	782.738281	51.089378
2824.775160	17460.371000	781.544922	2.412750
2824.775160	17460.371000	780.350586	23.935167
2824.775160	17460.371000	779.156250	101.963478
2824.775160	17460.371000	777.961914	-178.716080
2824.775160	17460.371000	776.767578	-61.750355
2824.775160	17460.371000	775.572266	53.195522
2824.775160	17460.371000	774.376953	29.762445
2824.775160	17460.371000	773.181641	17.998867
2824.775160	17460.371000	771.986328	89.942490
2824.775160	17460.371000	770.790039	-89.300903
2824.775160	17460.371000	769.593750	-97.216812
2824.775160	17460.371000	768.397461	-52.615185
2824.775160	17460.371000	767.201172	1.668143
2824.775160	17460.371000	766.003906	18.944422
2824.775160	17460.371000	764.806641	129.532928
2824.775160	17460.371000	763.609375	127.275566
2824.775160	17460.371000	762.412109	91.942940
2824.775160	17460.371000	761.213867	85.750008
2824.775160	17460.371000	760.015625	71.757362
2824.775160	17460.371000	758.817383	77.167252
2824.775160	17460.371000	757.618164	65.064674
2824.775160	17460.371000	756.419922	107.308220
2824.775160	17460.371000	755.220703	213.573624
2824.775160	17460.371000	754.021484	143.122787
2824.775160	17460.371000	752.821289	146.416092
2824.775160	17460.371000	751.621094	163.257446
2824.775160	17460.371000	750.420898	57.846191
2824.775160	17460.371000	749.220703	222.033005
2824.775160	17460.371000	748.020508	236.808731
2824.775160	17460.371000	746.819336	220.525726
2824.775160	17460.371000	745.618164	186.770737
2824.775160	17460.371000	744.416992	302.209930
2824.775160	17460.371000	743.214844	289.693604
2824.775160	17460.371000	742.012695	275.209991
2824.775160	17460.371000	740.810547	510.523865
2824.775160	17460.371000	739.608398	544.333069
2824.775160	17460.371000	738.406250	671.011353
2824.775160	17460.371000	737.203125	787.922974
2824.775160	17460.371000	736.000000	1007.303894
2824.775160	17460.371000	734.795898	1344.569214
2824.775160	17460.371000	733.592773	1555.928711
2824.775160	17460.371000	732.388672	1440.344604
2824.775160	17460.371000	731.184570	1423.373901
2824.775160	17460.371000	729.979492	1348.380737
2824.775160	17460.371000	728.775391	1093.644531
2824.775160	17460.371000	727.570313	889.212219
2824.775160	17460.371000	726.365234	735.052002
2824.775160	17460.371000	725.160156	588.640137
2824.775160	17460.371000	723.954102	621.830933
2824.775160	17460.371000	722.748047	293.944611
2824.775160	17460.371000	721.541992	421.677216
2824.775160	17460.371000	720.334961	474.052826
2824.775160	17460.371000	719.128906	354.648285
2824.775160	17460.371000	717.921875	331.699585
2824.775160	17460.371000	716.714844	409.002319
2824.775160	17460.371000	715.506836	216.285049
2824.775160	17460.371000	714.298828	268.430420
2824.775160	17460.371000	713.090820	218.359039
2824.775160	17460.371000	711.882813	293.515961
2824.775160	17460.371000	710.674805	189.427292
2824.775160	17460.371000	709.465820	204.756989
2824.775160	17460.371000	708.256836	208.480179
2824.775160	17460.371000	707.047852	148.620041
2824.775160	17460.371000	705.837891	219.633453
2824.775160	17460.371000	704.627930	169.325211
2824.775160	17460.371000	703.417969	224.818146
2824.775160	17460.371000	702.208008	187.902115
2824.775160	17460.371000	700.998047	349.056366
2824.775160	17460.371000	699.787109	227.425629
2824.775160	17460.371000	698.576172	86.573723
2824.775160	17460.371000	697.364258	195.605728
2824.775160	17460.371000	696.153320	323.762085
2824.775160	17460.371000	694.941406	457.579315
2824.775160	17460.371000	693.729492	278.184875
2824.775160	17460.371000	692.516602	438.744293
2824.775160	17460.371000	691.304688	347.656067
2824.775160	17460.371000	690.091797	369.817261
2824.775160	17460.371000	688.878906	374.646576
2824.775160	17460.371000	687.665039	291.155090
2824.775160	17460.371000	686.451172	322.757751
2824.775160	17460.371000	685.237305	271.819641
2824.775160	17460.371000	684.023438	387.690796
2824.775160	17460.371000	682.809570	261.888245
2824.775160	17460.371000	681.594727	385.278931
2824.775160	17460.371000	680.379883	213.433197
2824.775160	17460.371000	679.165039	120.167458
2824.775160	17460.371000	677.949219	90.106331
2824.775160	17460.371000	676.733398	287.922424
2824.775160	17460.371000	675.517578	242.418991
2824.775160	17460.371000	674.301758	332.809875
2824.775160	17460.371000	673.084961	415.454437
2824.775160	17460.371000	671.869141	346.838562
2824.775160	17460.371000	670.651367	280.111084
2824.775160	17460.371000	669.434570	337.696472
2824.775160	17460.371000	668.216797	249.861710
2824.775160	17460.371000	667.000000	217.463593
2824.775160	17460.371000	665.781250	395.303833
2824.775160	17460.371000	664.563477	477.459351
2824.775160	17460.371000	663.344727	595.833984
2824.775160	17460.371000	662.125977	408.442780
2824.775160	17460.371000	660.907227	517.132080
2824.775160	17460.371000	659.688477	348.832642
2824.775160	17460.371000	658.468750	486.024689
2824.775160	17460.371000	657.249023	460.861603
2824.775160	17460.371000	656.029297	552.072083
2824.775160	17460.371000	654.808594	500.092743
2824.775160	17460.371000	653.587891	434.732941
2824.775160	17460.371000	652.367188	344.558838
2824.775160	17460.371000	651.146484	233.399231
2824.775160	17460.371000	649.924805	432.975830
2824.775160	17460.371000	648.704102	312.217621
2824.775160	17460.371000	647.482422	267.683380
2824.775160	17460.371000	646.259766	295.514435
2824.775160	17460.371000	645.037109	300.429169
2824.775160	17460.371000	643.815430	131.999634
2824.775160	17460.371000	642.591797	262.511444
2824.775160	17460.371000	641.369141	231.121109
2824.775160	17460.371000	640.145508	249.177567
2824.775160	17460.371000	638.921875	208.195374
2824.775160	17460.371000	637.698242	338.396118
2824.775160	17460.371000	636.474609	259.282135
2824.775160	17460.371000	635.250000	377.915222
2824.775160	17460.371000	634.025391	258.811066
2824.775160	17460.371000	632.800781	284.169312
2824.775160	17460.371000	631.575195	341.776306
2824.775160	17460.371000	630.349609	501.912018
2824.775160	17460.371000	629.124023	549.864563
2824.775160	17460.371000	627.898438	426.833710
2824.775160	17460.371000	626.671875	402.543610
2824.775160	17460.371000	625.445313	260.526917
2824.775160	17460.371000	624.218750	391.830139
2824.775160	17460.371000	622.992188	230.819504
2824.775160	17460.371000	621.764648	196.941879
2824.775160	17460.371000	620.537109	278.738861
2824.775160	17460.371000	619.309570	89.290131
2824.775160	17460.371000	618.081055	78.096703
2824.775160	17460.371000	616.852539	169.227646
2824.775160	17460.371000	615.624023	220.486359
2824.775160	17460.371000	614.395508	120.111313
2824.775160	17460.371000	613.166992	266.002594
2824.775160	17460.371000	611.937500	190.207993
2824.775160	17460.371000	610.708008	78.434990
2824.775160	17460.371000	609.477539	65.114174
2824.775160	17460.371000	608.248047	89.623360
2824.775160	17460.371000	607.017578	165.178940
2824.775160	17460.371000	605.787109	187.698532
2824.775160	17460.371000	604.555664	145.864624
2824.775160	17460.371000	603.325195	168.318954
2824.775160	17460.371000	602.093750	130.229950
2824.775160	17460.371000	600.861328	156.395233
2824.775160	17460.371000	599.629883	78.582695
2824.775160	17460.371000	598.397461	100.915268
2824.775160	17460.371000	597.165039	143.992920
2824.775160	17460.371000	595.932617	9.492797
2824.775160	17460.371000	594.699219	-38.117001
2824.775160	17460.371000	593.465820	-21.542070
2824.775160	17460.371000	592.232422	162.988037
2824.775160	17460.371000	590.999023	-128.120483
2824.775160	17460.371000	589.764648	58.195667
2824.775160	17460.371000	588.530273	-81.908630
2824.775160	17460.371000	587.295898	38.276073
2824.775160	17460.371000	586.061523	20.754171
2824.775160	17460.371000	584.826172	95.587990
2824.775160	17460.371000	583.590820	-21.859980
2824.775160	17460.371000	582.355469	-14.911983
2824.775160	17460.371000	581.119141	-79.570137
2824.775160	17460.371000	579.882813	-27.439180
2824.775160	17460.371000	578.646484	-114.686531
2824.775160	17460.371000	577.410156	-92.714462
2824.775160	17460.371000	576.172852	81.697571
2824.775160	17460.371000	574.935547	30.206135
2824.775160	17460.371000	573.698242	78.446091
2824.775160	17460.371000	572.460938	-27.585386
2824.775160	17460.371000	571.222656	-13.219969
2824.775160	17460.371000	569.984375	183.518784
2824.775160	17460.371000	568.746094	143.311646
2824.775160	17460.371000	567.506836	86.201492
2824.775160	17460.371000	566.267578	57.300529
2824.775160	17460.371000	565.028320	143.009293
2824.775160	17460.371000	563.789063	10.808887
2824.775160	17460.371000	562.548828	-141.991669
2824.775160	17460.371000	561.309570	101.416832
2824.775160	17460.371000	560.068359	104.460663
2824.775160	17460.371000	558.828125	2.422393
2824.775160	17460.371000	557.586914	161.226578
2824.775160	17460.371000	556.345703	94.873131
2824.775160	17460.371000	555.104492	-25.829187
2824.775160	17460.371000	553.863281	-3.967585
2824.775160	17460.371000	552.621094	122.871536
2824.775160	17460.371000	551.378906	67.871155
2824.775160	17460.371000	550.136719	7.287805
2824.775160	17460.371000	548.893555	-10.169458
2824.775160	17460.371000	547.650391	36.080257
2824.775160	17460.371000	546.407227	50.494171
2824.775160	17460.371000	545.164063	21.860052
2824.775160	17460.371000	543.919922	-29.206240
2824.775160	17460.371000	542.675781	76.968887
2824.775160	17460.371000	541.431641	50.280144
2824.775160	17460.371000	540.186523	-10.047689
2824.775160	17460.371000	538.941406	26.926008
2824.775160	17460.371000	537.696289	155.530975
2824.775160	17460.371000	536.451172	69.126266
2824.775160	17460.371000	535.205078	156.601746
2824.775160	17460.371000	533.959961	92.715195
2824.775160	17460.371000	532.712891	21.407545
2824.775160	17460.371000	531.466797	77.176567
2824.775160	17460.371000	530.219727	-85.534912
2824.775160	17460.371000	528.972656	-16.633703
2824.775160	17460.371000	527.725586	-74.656342
2824.775160	17460.371000	526.478516	-194.202377
2824.775160	17460.371000	525.230469	-46.852962
2824.775160	17460.371000	523.982422	-201.723572
2824.775160	17460.371000	522.734375	51.947037
2824.775160	17460.371000	521.485352	-48.727898
2824.775160	17460.371000	520.236328	-102.713112
2824.775160	17460.371000	518.987305	-186.453476
2824.775160	17460.371000	517.737305	-154.586670
2824.775160	17460.371000	516.488281	-156.220276
2824.775160	17460.371000	515.238281	-14.390861
2824.775160	17460.371000	513.988281	-105.351036
2824.775160	17460.371000	512.737305	-17.494789
2824.775160	17460.371000	511.486328	21.974951
2824.775160	17460.371000	510.235352	-148.816528
2824.775160	17460.371000	508.984375	-159.473434
2824.775160	17460.371000	507.732422	-114.272530
2824.775160	17460.371000	506.480469	-85.777840
2824.775160	17460.371000	505.228516	-72.118584
2824.775160	17460.371000	503.976563	-23.092472
2824.775160	17460.371000	502.723633	-20.501591
2824.775160	17460.371000	501.470703	39.746464
2824.775160	17460.371000	500.217773	-124.771606
2824.775160	17460.371000	498.963867	17.305220
2824.775160	17460.371000	497.709961	-5.897204
2824.775160	17460.371000	496.456055	21.094194
2824.775160	17460.371000	495.202148	38.849609
2824.775160	17460.371000	493.947266	26.958603
2824.775160	17460.371000	492.692383	18.840136
2824.775160	17460.371000	491.437500	170.312805
2824.775160	17460.371000	490.181641	8.348012
2824.775160	17460.371000	488.926758	156.164185
2824.775160	17460.371000	487.670898	113.031509
2824.775160	17460.371000	486.414063	218.244598
2824.775160	17460.371000	485.158203	151.143036
2824.775160	17460.371000	483.901367	187.872604
2824.775160	17460.371000	482.644531	219.087341
2824.775160	17460.371000	481.386719	281.826447
2824.775160	17460.371000	480.128906	148.345322
2824.775160	17460.371000	478.871094	55.701275
2824.775160	17460.371000	477.613281	188.929092
2824.775160	17460.371000	476.355469	111.231476
2824.775160	17460.371000	475.096680	-49.619053
2824.775160	17460.371000	473.837891	-5.060046
2824.775160	17460.371000	472.578125	21.043268
2824.775160	17460.371000	471.319336	-10.115750
2824.775160	17460.371000	470.059570	-4.245045
2824.775160	17460.371000	468.799805	75.588936
2824.775160	17460.371000	467.539063	77.847504
2824.775160	17460.371000	466.278320	22.898535
2824.775160	17460.371000	465.017578	60.353230
2824.775160	17460.371000	463.756836	68.302208
2824.775160	17460.371000	462.495117	-38.147408
2824.775160	17460.371000	461.233398	-31.933420
2824.775160	17460.371000	459.971680	27.828465
2824.775160	17460.371000	458.709961	-61.807632
2824.775160	17460.371000	457.447266	10.928269
2824.775160	17460.371000	456.184570	81.829292
2824.775160	17460.371000	454.921875	-51.883743
2824.775160	17460.371000	453.658203	-78.607086
2824.775160	17460.371000	452.394531	-31.579266
2824.775160	17460.371000	451.130859	46.778625
2824.775160	17460.371000	449.867188	25.673311
2824.775160	17460.371000	448.602539	-91.151169
2824.775160	17460.371000	447.337891	-104.801567
2824.775160	17460.371000	446.073242	15.943636
2824.775160	17460.371000	444.807617	178.981979
2824.775160	17460.371000	443.542969	-7.604622
2824.775160	17460.371000	442.276367	37.673191
2824.775160	17460.371000	441.010742	-5.330405
2824.775160	17460.371000	439.744141	21.559885
2824.775160	17460.371000	438.478516	99.915108
2824.775160	17460.371000	437.210938	64.288643
2824.775160	17460.371000	435.944336	-0.723763
2824.775160	17460.371000	434.676758	-130.012283
2824.775160	17460.371000	433.409180	-147.218933
2824.775160	17460.371000	432.141602	-34.056759
2824.775160	17460.371000	430.873047	0.094408
2824.775160	17460.371000	429.604492	-8.007977
2824.775160	17460.371000	428.335938	64.608124
2824.775160	17460.371000	427.067383	-2.273878
2824.775160	17460.371000	425.797852	42.725224
2824.775160	17460.371000	424.528320	172.021973
2824.775160	17460.371000	423.258789	117.867065
2824.775160	17460.371000	421.988281	23.353928
2824.775160	17460.371000	420.717773	104.760979
2824.775160	17460.371000	419.447266	88.957504
2824.775160	17460.371000	418.175781	82.249161
2824.775160	17460.371000	416.905273	26.018482
2824.775160	17460.371000	415.633789	180.305054
2824.775160	17460.371000	414.362305	230.085800
2824.775160	17460.371000	413.089844	67.431961
2824.775160	17460.371000	411.817383	188.381714
2824.775160	17460.371000	410.544922	-40.267323
2824.775160	17460.371000	409.272461	153.590897
2824.775160	17460.371000	407.999023	54.644547
2824.775160	17460.371000	406.725586	140.268234
2824.775160	17460.371000	405.452148	108.727470
2824.775160	17460.371000	404.177734	210.459473
2824.775160	17460.371000	402.903320	293.718323
2824.775160	17460.371000	401.628906	219.675140
2824.775160	17460.371000	400.354492	161.927536
2824.775160	17460.371000	399.079102	65.671997
2824.775160	17460.371000	397.803711	36.810600
2824.775160	17460.371000	396.528320	-25.093948
2824.775160	17460.371000	395.251953	73.389961
2824.775160	17460.371000	393.976563	87.689629
2824.775160	17460.371000	392.700195	-47.817753
2824.775160	17460.371000	391.422852	69.960213
2824.775160	17460.371000	390.145508	3.291167
2824.775160	17460.371000	388.869141	9.297756
2824.775160	17460.371000	387.590820	89.733276
2824.775160	17460.371000	386.313477	-17.817312
2824.775160	17460.371000	385.035156	165.824799
2824.775160	17460.371000	383.756836	117.781342
2824.775160	17460.371000	382.478516	85.817101
2824.775160	17460.371000	381.199219	46.238121
2824.775160	17460.371000	379.919922	77.301674
2824.775160	17460.371000	378.640625	100.704239
2824.775160	17460.371000	377.360352	-7.275312
2824.775160	17460.371000	376.080078	-95.597656
2824.775160	17460.371000	374.799805	44.826275
2824.775160	17460.371000	373.519531	-13.403045
2824.775160	17460.371000	372.238281	20.642996
2824.775160	17460.371000	370.957031	25.138353
2824.775160	17460.371000	369.675781	-99.837067
2824.775160	17460.371000	368.394531	29.052166
2824.775160	17460.371000	367.112305	-120.485992
2824.775160	17460.371000	365.830078	7.309303
2824.775160	17460.371000	364.546875	152.648346
2824.775160	17460.371000	363.264648	-112.784721
2824.775160	17460.371000	361.981445	-70.233917
2824.775160	17460.371000	360.698242	-35.556499
2824.775160	17460.371000	359.414063	43.817799
2824.775160	17460.371000	358.129883	13.724171
2824.775160	17460.371000	356.845703	15.616673
2824.775160	17460.371000	355.561523	-75.606705
2824.775160	17460.371000	354.276367	-95.019020
2824.775160	17460.371000	352.991211	35.226925
2824.775160	17460.371000	351.706055	72.297371
2824.775160	17460.371000	350.420898	-19.987551
2824.775160	17460.371000	349.134766	111.467941
2824.775160	17460.371000	347.848633	-92.816673
2824.775160	17460.371000	346.561523	60.461208
2824.775160	17460.371000	345.275391	35.516869
2824.775160	17460.371000	343.988281	63.949574
2824.775160	17460.371000	342.700195	-62.283714
2824.775160	17460.371000	341.413086	-104.394859
2824.775160	17460.371000	340.125000	-22.733477
2824.775160	17460.371000	338.836914	-108.371719
2824.775160	17460.371000	337.548828	-166.076202
2824.775160	17460.371000	336.259766	89.523178
2824.775160	17460.371000	334.970703	-82.317902
2824.775160	17460.371000	333.681641	-69.187935
2824.775160	17460.371000	332.391602	7.776200
2824.775160	17460.371000	331.101563	-31.971807
2824.775160	17460.371000	329.811523	55.232822
2824.775160	17460.371000	328.521484	132.158829
2824.775160	17460.371000	327.230469	92.326584
2824.775160	17460.371000	325.939453	98.114868
2824.775160	17460.371000	324.648438	-77.719063
2824.775160	17460.371000	323.356445	-47.556034
2824.775160	17460.371000	322.064453	-130.530838
2824.775160	17460.371000	320.772461	60.790718
2824.775160	17460.371000	319.480469	-46.664593
2824.775160	17460.371000	318.187500	-4.310704
2824.775160	17460.371000	316.894531	-183.184998
2824.775160	17460.371000	315.601563	-77.304962
2824.775160	17460.371000	314.307617	100.680534
2824.775160	17460.371000	313.013672	61.008991
2824.775160	17460.371000	311.719727	55.653156
2824.775160	17460.371000	310.425781	-183.452942
2824.775160	17460.371000	309.130859	-17.844839
2824.775160	17460.371000	307.835938	102.735756
2824.775160	17460.371000	306.541016	48.856548
2824.775160	17460.371000	305.245117	5.642763
2824.775160	17460.371000	303.949219	37.772514
2824.775160	17460.371000	302.653320	35.576023
2824.775160	17460.371000	301.356445	-56.696274
2824.775160	17460.371000	300.060547	80.682259
2824.775160	17460.371000	298.763672	127.868225
