#X		#Y		#Wave		#Intensity
2743.795585	17471.878167	2000.043945	-131.728714
2743.795585	17471.878167	1999.080078	-202.799088
2743.795585	17471.878167	1998.116211	-25.982847
2743.795585	17471.878167	1997.151367	-0.904912
2743.795585	17471.878167	1996.186523	157.459274
2743.795585	17471.878167	1995.222656	122.049019
2743.795585	17471.878167	1994.256836	11.897175
2743.795585	17471.878167	1993.291992	-135.819885
2743.795585	17471.878167	1992.327148	92.410927
2743.795585	17471.878167	1991.361328	84.978477
2743.795585	17471.878167	1990.395508	-143.129761
2743.795585	17471.878167	1989.429688	19.419844
2743.795585	17471.878167	1988.463867	206.268250
2743.795585	17471.878167	1987.497070	83.489082
2743.795585	17471.878167	1986.531250	192.868088
2743.795585	17471.878167	1985.564453	22.459732
2743.795585	17471.878167	1984.597656	22.367311
2743.795585	17471.878167	1983.630859	61.505688
2743.795585	17471.878167	1982.664063	-97.377548
2743.795585	17471.878167	1981.696289	77.068794
2743.795585	17471.878167	1980.728516	115.297821
2743.795585	17471.878167	1979.761719	-24.591965
2743.795585	17471.878167	1978.792969	37.809502
2743.795585	17471.878167	1977.825195	270.295837
2743.795585	17471.878167	1976.857422	-80.113770
2743.795585	17471.878167	1975.888672	8.696378
2743.795585	17471.878167	1974.919922	176.217529
2743.795585	17471.878167	1973.951172	32.607986
2743.795585	17471.878167	1972.982422	9.720134
2743.795585	17471.878167	1972.013672	119.827980
2743.795585	17471.878167	1971.043945	-39.055611
2743.795585	17471.878167	1970.075195	-10.688206
2743.795585	17471.878167	1969.105469	-90.948357
2743.795585	17471.878167	1968.135742	126.858086
2743.795585	17471.878167	1967.165039	-15.298581
2743.795585	17471.878167	1966.195313	256.322510
2743.795585	17471.878167	1965.224609	190.277222
2743.795585	17471.878167	1964.253906	89.655945
2743.795585	17471.878167	1963.283203	-102.142395
2743.795585	17471.878167	1962.312500	11.264344
2743.795585	17471.878167	1961.341797	190.978775
2743.795585	17471.878167	1960.370117	26.025572
2743.795585	17471.878167	1959.399414	-11.020251
2743.795585	17471.878167	1958.427734	77.313126
2743.795585	17471.878167	1957.455078	219.640976
2743.795585	17471.878167	1956.483398	246.276520
2743.795585	17471.878167	1955.511719	-41.844574
2743.795585	17471.878167	1954.539063	-42.335968
2743.795585	17471.878167	1953.566406	124.230537
2743.795585	17471.878167	1952.593750	30.234175
2743.795585	17471.878167	1951.621094	-78.511414
2743.795585	17471.878167	1950.647461	117.306000
2743.795585	17471.878167	1949.674805	-70.074066
2743.795585	17471.878167	1948.701172	110.869987
2743.795585	17471.878167	1947.727539	63.424995
2743.795585	17471.878167	1946.753906	28.246531
2743.795585	17471.878167	1945.780273	113.303482
2743.795585	17471.878167	1944.805664	183.591553
2743.795585	17471.878167	1943.831055	185.158768
2743.795585	17471.878167	1942.856445	19.948195
2743.795585	17471.878167	1941.881836	134.329468
2743.795585	17471.878167	1940.907227	-97.007584
2743.795585	17471.878167	1939.932617	81.083740
2743.795585	17471.878167	1938.957031	85.114868
2743.795585	17471.878167	1937.981445	174.911331
2743.795585	17471.878167	1937.005859	22.157530
2743.795585	17471.878167	1936.030273	-15.407618
2743.795585	17471.878167	1935.054688	59.705681
2743.795585	17471.878167	1934.078125	56.458469
2743.795585	17471.878167	1933.101563	227.037888
2743.795585	17471.878167	1932.125000	25.558331
2743.795585	17471.878167	1931.148438	137.399734
2743.795585	17471.878167	1930.171875	-120.207535
2743.795585	17471.878167	1929.194336	-115.956200
2743.795585	17471.878167	1928.217773	88.869576
2743.795585	17471.878167	1927.240234	-63.350052
2743.795585	17471.878167	1926.262695	148.787872
2743.795585	17471.878167	1925.284180	96.896927
2743.795585	17471.878167	1924.306641	-8.703223
2743.795585	17471.878167	1923.328125	10.385981
2743.795585	17471.878167	1922.350586	-87.754456
2743.795585	17471.878167	1921.372070	-88.120529
2743.795585	17471.878167	1920.392578	6.790640
2743.795585	17471.878167	1919.414063	-122.916054
2743.795585	17471.878167	1918.434570	52.605156
2743.795585	17471.878167	1917.456055	-20.842957
2743.795585	17471.878167	1916.476563	-113.743736
2743.795585	17471.878167	1915.497070	-111.417404
2743.795585	17471.878167	1914.516602	59.261772
2743.795585	17471.878167	1913.537109	-50.545715
2743.795585	17471.878167	1912.556641	-79.801720
2743.795585	17471.878167	1911.576172	27.519741
2743.795585	17471.878167	1910.595703	-143.025711
2743.795585	17471.878167	1909.615234	-50.267296
2743.795585	17471.878167	1908.633789	-23.288465
2743.795585	17471.878167	1907.653320	-69.358406
2743.795585	17471.878167	1906.671875	-34.992611
2743.795585	17471.878167	1905.690430	113.856674
2743.795585	17471.878167	1904.708984	223.736847
2743.795585	17471.878167	1903.727539	-128.895599
2743.795585	17471.878167	1902.745117	68.688248
2743.795585	17471.878167	1901.762695	-37.932072
2743.795585	17471.878167	1900.780273	-90.948677
2743.795585	17471.878167	1899.797852	14.203122
2743.795585	17471.878167	1898.815430	90.169968
2743.795585	17471.878167	1897.832031	-123.209000
2743.795585	17471.878167	1896.849609	-69.051193
2743.795585	17471.878167	1895.866211	26.442583
2743.795585	17471.878167	1894.882813	5.286775
2743.795585	17471.878167	1893.898438	178.550934
2743.795585	17471.878167	1892.915039	4.395481
2743.795585	17471.878167	1891.930664	-55.508224
2743.795585	17471.878167	1890.947266	-64.364243
2743.795585	17471.878167	1889.962891	116.189262
2743.795585	17471.878167	1888.977539	17.545628
2743.795585	17471.878167	1887.993164	144.676270
2743.795585	17471.878167	1887.007813	-196.540298
2743.795585	17471.878167	1886.023438	34.954041
2743.795585	17471.878167	1885.038086	-75.632088
2743.795585	17471.878167	1884.051758	-30.943653
2743.795585	17471.878167	1883.066406	151.957153
2743.795585	17471.878167	1882.081055	-57.926723
2743.795585	17471.878167	1881.094727	-131.981003
2743.795585	17471.878167	1880.108398	55.731609
2743.795585	17471.878167	1879.122070	-40.094223
2743.795585	17471.878167	1878.135742	-36.551937
2743.795585	17471.878167	1877.148438	54.191460
2743.795585	17471.878167	1876.162109	33.515759
2743.795585	17471.878167	1875.174805	-178.411423
2743.795585	17471.878167	1874.187500	69.669205
2743.795585	17471.878167	1873.199219	-50.210201
2743.795585	17471.878167	1872.211914	62.250919
2743.795585	17471.878167	1871.223633	65.802147
2743.795585	17471.878167	1870.236328	-51.592903
2743.795585	17471.878167	1869.248047	-72.212997
2743.795585	17471.878167	1868.258789	35.319885
2743.795585	17471.878167	1867.270508	46.105083
2743.795585	17471.878167	1866.282227	-54.307812
2743.795585	17471.878167	1865.292969	188.458878
2743.795585	17471.878167	1864.303711	312.731689
2743.795585	17471.878167	1863.314453	-200.792999
2743.795585	17471.878167	1862.324219	-74.111671
2743.795585	17471.878167	1861.334961	-3.036982
2743.795585	17471.878167	1860.344727	26.945925
2743.795585	17471.878167	1859.354492	73.792534
2743.795585	17471.878167	1858.364258	21.646418
2743.795585	17471.878167	1857.374023	157.701920
2743.795585	17471.878167	1856.383789	-56.133701
2743.795585	17471.878167	1855.392578	-4.596369
2743.795585	17471.878167	1854.401367	37.242165
2743.795585	17471.878167	1853.410156	148.953186
2743.795585	17471.878167	1852.418945	173.800385
2743.795585	17471.878167	1851.426758	174.496902
2743.795585	17471.878167	1850.435547	-36.907024
2743.795585	17471.878167	1849.443359	-36.255630
2743.795585	17471.878167	1848.451172	145.016251
2743.795585	17471.878167	1847.458984	51.613724
2743.795585	17471.878167	1846.466797	32.843437
2743.795585	17471.878167	1845.473633	122.367531
2743.795585	17471.878167	1844.480469	91.452522
2743.795585	17471.878167	1843.487305	161.571121
2743.795585	17471.878167	1842.494141	106.487022
2743.795585	17471.878167	1841.500977	73.015724
2743.795585	17471.878167	1840.506836	166.974365
2743.795585	17471.878167	1839.513672	111.737572
2743.795585	17471.878167	1838.519531	205.526443
2743.795585	17471.878167	1837.525391	258.347229
2743.795585	17471.878167	1836.530273	231.765869
2743.795585	17471.878167	1835.536133	176.288391
2743.795585	17471.878167	1834.541016	-76.247375
2743.795585	17471.878167	1833.545898	168.466858
2743.795585	17471.878167	1832.550781	192.063080
2743.795585	17471.878167	1831.555664	148.341232
2743.795585	17471.878167	1830.560547	150.168701
2743.795585	17471.878167	1829.564453	197.519211
2743.795585	17471.878167	1828.568359	220.769852
2743.795585	17471.878167	1827.572266	99.964775
2743.795585	17471.878167	1826.576172	139.845444
2743.795585	17471.878167	1825.580078	102.872063
2743.795585	17471.878167	1824.583008	171.332474
2743.795585	17471.878167	1823.585938	67.051514
2743.795585	17471.878167	1822.588867	274.339050
2743.795585	17471.878167	1821.591797	181.872192
2743.795585	17471.878167	1820.594727	206.755737
2743.795585	17471.878167	1819.596680	195.593582
2743.795585	17471.878167	1818.599609	78.944603
2743.795585	17471.878167	1817.601563	156.217300
2743.795585	17471.878167	1816.603516	286.033173
2743.795585	17471.878167	1815.604492	-79.851852
2743.795585	17471.878167	1814.606445	-148.911255
2743.795585	17471.878167	1813.607422	-131.907150
2743.795585	17471.878167	1812.608398	157.734573
2743.795585	17471.878167	1811.609375	81.160965
2743.795585	17471.878167	1810.610352	30.811014
2743.795585	17471.878167	1809.610352	121.445007
2743.795585	17471.878167	1808.611328	-0.847579
2743.795585	17471.878167	1807.611328	63.231480
2743.795585	17471.878167	1806.611328	65.030540
2743.795585	17471.878167	1805.610352	85.821236
2743.795585	17471.878167	1804.610352	314.324890
2743.795585	17471.878167	1803.609375	67.302803
2743.795585	17471.878167	1802.608398	199.950531
2743.795585	17471.878167	1801.607422	141.414368
2743.795585	17471.878167	1800.606445	92.323006
2743.795585	17471.878167	1799.605469	100.401871
2743.795585	17471.878167	1798.603516	253.907272
2743.795585	17471.878167	1797.601563	73.210320
2743.795585	17471.878167	1796.599609	207.317764
2743.795585	17471.878167	1795.597656	193.377991
2743.795585	17471.878167	1794.595703	-28.138365
2743.795585	17471.878167	1793.592773	115.042091
2743.795585	17471.878167	1792.589844	-116.185333
2743.795585	17471.878167	1791.587891	86.267609
2743.795585	17471.878167	1790.583984	90.734993
2743.795585	17471.878167	1789.581055	23.601656
2743.795585	17471.878167	1788.577148	251.684067
2743.795585	17471.878167	1787.574219	-13.382547
2743.795585	17471.878167	1786.570313	221.480499
2743.795585	17471.878167	1785.566406	201.409882
2743.795585	17471.878167	1784.561523	281.155518
2743.795585	17471.878167	1783.557617	84.711288
2743.795585	17471.878167	1782.552734	92.787689
2743.795585	17471.878167	1781.547852	105.472221
2743.795585	17471.878167	1780.542969	75.198830
2743.795585	17471.878167	1779.538086	-121.648346
2743.795585	17471.878167	1778.532227	202.037415
2743.795585	17471.878167	1777.527344	154.681442
2743.795585	17471.878167	1776.521484	171.348251
2743.795585	17471.878167	1775.515625	-21.219366
2743.795585	17471.878167	1774.508789	-80.846825
2743.795585	17471.878167	1773.502930	218.024338
2743.795585	17471.878167	1772.496094	120.077690
2743.795585	17471.878167	1771.489258	254.674881
2743.795585	17471.878167	1770.482422	73.377052
2743.795585	17471.878167	1769.475586	8.280571
2743.795585	17471.878167	1768.467773	49.819096
2743.795585	17471.878167	1767.460938	131.524658
2743.795585	17471.878167	1766.453125	125.279434
2743.795585	17471.878167	1765.445313	61.968586
2743.795585	17471.878167	1764.437500	216.651489
2743.795585	17471.878167	1763.428711	62.950653
2743.795585	17471.878167	1762.420898	-116.907898
2743.795585	17471.878167	1761.412109	68.049477
2743.795585	17471.878167	1760.403320	257.519318
2743.795585	17471.878167	1759.393555	145.930359
2743.795585	17471.878167	1758.384766	60.288162
2743.795585	17471.878167	1757.375000	111.842674
2743.795585	17471.878167	1756.366211	40.130428
2743.795585	17471.878167	1755.356445	58.219166
2743.795585	17471.878167	1754.345703	69.035278
2743.795585	17471.878167	1753.335938	8.722711
2743.795585	17471.878167	1752.325195	-68.293198
2743.795585	17471.878167	1751.315430	55.604801
2743.795585	17471.878167	1750.304688	-80.818649
2743.795585	17471.878167	1749.292969	-87.328423
2743.795585	17471.878167	1748.282227	-44.343426
2743.795585	17471.878167	1747.270508	26.816208
2743.795585	17471.878167	1746.259766	52.911892
2743.795585	17471.878167	1745.248047	-36.924885
2743.795585	17471.878167	1744.235352	-44.228390
2743.795585	17471.878167	1743.223633	-94.179626
2743.795585	17471.878167	1742.211914	-40.381771
2743.795585	17471.878167	1741.199219	-107.159264
2743.795585	17471.878167	1740.186523	-4.138248
2743.795585	17471.878167	1739.173828	1.944436
2743.795585	17471.878167	1738.160156	-32.248692
2743.795585	17471.878167	1737.147461	-198.659439
2743.795585	17471.878167	1736.133789	-150.565933
2743.795585	17471.878167	1735.120117	-46.055355
2743.795585	17471.878167	1734.106445	-83.180847
2743.795585	17471.878167	1733.091797	-233.590027
2743.795585	17471.878167	1732.078125	-174.350143
2743.795585	17471.878167	1731.063477	-56.395844
2743.795585	17471.878167	1730.048828	56.652294
2743.795585	17471.878167	1729.034180	122.405342
2743.795585	17471.878167	1728.019531	-33.355690
2743.795585	17471.878167	1727.003906	-130.364075
2743.795585	17471.878167	1725.988281	12.604987
2743.795585	17471.878167	1724.972656	-4.653753
2743.795585	17471.878167	1723.957031	-24.405083
2743.795585	17471.878167	1722.941406	-288.947937
2743.795585	17471.878167	1721.924805	-146.652908
2743.795585	17471.878167	1720.909180	-209.125931
2743.795585	17471.878167	1719.892578	116.199509
2743.795585	17471.878167	1718.875977	-45.325699
2743.795585	17471.878167	1717.858398	63.326881
2743.795585	17471.878167	1716.841797	174.164688
2743.795585	17471.878167	1715.824219	21.683008
2743.795585	17471.878167	1714.806641	-107.389717
2743.795585	17471.878167	1713.789063	150.934860
2743.795585	17471.878167	1712.770508	14.553807
2743.795585	17471.878167	1711.752930	54.168304
2743.795585	17471.878167	1710.734375	-33.123016
2743.795585	17471.878167	1709.715820	8.547678
2743.795585	17471.878167	1708.697266	66.495026
2743.795585	17471.878167	1707.678711	72.682106
2743.795585	17471.878167	1706.659180	193.638184
2743.795585	17471.878167	1705.640625	35.404881
2743.795585	17471.878167	1704.621094	160.754303
2743.795585	17471.878167	1703.600586	192.155136
2743.795585	17471.878167	1702.581055	-64.808273
2743.795585	17471.878167	1701.561523	43.711563
2743.795585	17471.878167	1700.541016	166.103699
2743.795585	17471.878167	1699.520508	269.590851
2743.795585	17471.878167	1698.500000	129.386276
2743.795585	17471.878167	1697.478516	202.147308
2743.795585	17471.878167	1696.458008	398.840576
2743.795585	17471.878167	1695.436523	277.042023
2743.795585	17471.878167	1694.415039	454.676178
2743.795585	17471.878167	1693.393555	706.988586
2743.795585	17471.878167	1692.372070	671.400635
2743.795585	17471.878167	1691.349609	649.728271
2743.795585	17471.878167	1690.327148	782.264709
2743.795585	17471.878167	1689.304688	793.086609
2743.795585	17471.878167	1688.282227	703.299927
2743.795585	17471.878167	1687.259766	837.765564
2743.795585	17471.878167	1686.236328	787.491516
2743.795585	17471.878167	1685.213867	816.570740
2743.795585	17471.878167	1684.190430	696.055786
2743.795585	17471.878167	1683.166016	556.788696
2743.795585	17471.878167	1682.142578	713.972473
2743.795585	17471.878167	1681.119141	656.270264
2743.795585	17471.878167	1680.094727	568.138855
2743.795585	17471.878167	1679.070313	395.955536
2743.795585	17471.878167	1678.045898	566.647766
2743.795585	17471.878167	1677.020508	503.943512
2743.795585	17471.878167	1675.996094	637.060547
2743.795585	17471.878167	1674.970703	679.098755
2743.795585	17471.878167	1673.945313	436.670258
2743.795585	17471.878167	1672.919922	581.098145
2743.795585	17471.878167	1671.893555	511.012390
2743.795585	17471.878167	1670.868164	531.742859
2743.795585	17471.878167	1669.841797	729.375122
2743.795585	17471.878167	1668.815430	517.016907
2743.795585	17471.878167	1667.789063	579.388611
2743.795585	17471.878167	1666.761719	646.296936
2743.795585	17471.878167	1665.735352	440.836884
2743.795585	17471.878167	1664.708008	614.636536
2743.795585	17471.878167	1663.680664	730.139832
2743.795585	17471.878167	1662.653320	461.754822
2743.795585	17471.878167	1661.625000	539.882568
2743.795585	17471.878167	1660.597656	585.385437
2743.795585	17471.878167	1659.569336	688.903564
2743.795585	17471.878167	1658.541016	736.541443
2743.795585	17471.878167	1657.512695	800.367249
2743.795585	17471.878167	1656.483398	715.404907
2743.795585	17471.878167	1655.455078	860.396240
2743.795585	17471.878167	1654.425781	977.389099
2743.795585	17471.878167	1653.396484	811.015625
2743.795585	17471.878167	1652.366211	1146.064209
2743.795585	17471.878167	1651.336914	1019.081665
2743.795585	17471.878167	1650.306641	1096.287598
2743.795585	17471.878167	1649.276367	730.283813
2743.795585	17471.878167	1648.246094	1078.825195
2743.795585	17471.878167	1647.215820	930.887329
2743.795585	17471.878167	1646.185547	984.696594
2743.795585	17471.878167	1645.154297	1142.749268
2743.795585	17471.878167	1644.123047	1163.954102
2743.795585	17471.878167	1643.091797	1159.625610
2743.795585	17471.878167	1642.060547	1391.595581
2743.795585	17471.878167	1641.028320	1130.011719
2743.795585	17471.878167	1639.997070	1336.363770
2743.795585	17471.878167	1638.964844	1320.291626
2743.795585	17471.878167	1637.931641	1239.355713
2743.795585	17471.878167	1636.899414	1274.185547
2743.795585	17471.878167	1635.867188	1429.322388
2743.795585	17471.878167	1634.833984	1292.821899
2743.795585	17471.878167	1633.800781	1452.464966
2743.795585	17471.878167	1632.767578	1602.780151
2743.795585	17471.878167	1631.734375	1470.905762
2743.795585	17471.878167	1630.700195	1681.225830
2743.795585	17471.878167	1629.666016	1657.989136
2743.795585	17471.878167	1628.631836	1715.642944
2743.795585	17471.878167	1627.597656	1542.203735
2743.795585	17471.878167	1626.563477	1662.224121
2743.795585	17471.878167	1625.528320	1890.734619
2743.795585	17471.878167	1624.493164	2213.837646
2743.795585	17471.878167	1623.458008	2185.870605
2743.795585	17471.878167	1622.422852	2037.882690
2743.795585	17471.878167	1621.387695	2081.518311
2743.795585	17471.878167	1620.351563	2365.104492
2743.795585	17471.878167	1619.315430	2124.888428
2743.795585	17471.878167	1618.279297	2459.122559
2743.795585	17471.878167	1617.243164	2468.072754
2743.795585	17471.878167	1616.207031	2389.416504
2743.795585	17471.878167	1615.169922	2485.988037
2743.795585	17471.878167	1614.132813	2467.300781
2743.795585	17471.878167	1613.095703	2538.511963
2743.795585	17471.878167	1612.058594	2727.218750
2743.795585	17471.878167	1611.020508	2418.305420
2743.795585	17471.878167	1609.983398	2245.439209
2743.795585	17471.878167	1608.945313	2470.992920
2743.795585	17471.878167	1607.907227	2507.714844
2743.795585	17471.878167	1606.868164	2316.568604
2743.795585	17471.878167	1605.830078	2291.240234
2743.795585	17471.878167	1604.791016	2537.427979
2743.795585	17471.878167	1603.751953	2659.340332
2743.795585	17471.878167	1602.712891	2509.859863
2743.795585	17471.878167	1601.673828	2631.811523
2743.795585	17471.878167	1600.633789	2307.735352
2743.795585	17471.878167	1599.594727	2655.023926
2743.795585	17471.878167	1598.554688	2604.634766
2743.795585	17471.878167	1597.513672	2797.842529
2743.795585	17471.878167	1596.473633	2690.115234
2743.795585	17471.878167	1595.433594	2743.253174
2743.795585	17471.878167	1594.392578	2830.850586
2743.795585	17471.878167	1593.351563	2636.080322
2743.795585	17471.878167	1592.310547	2811.002441
2743.795585	17471.878167	1591.268555	2524.610352
2743.795585	17471.878167	1590.227539	2566.526367
2743.795585	17471.878167	1589.185547	2830.990967
2743.795585	17471.878167	1588.143555	2655.045898
2743.795585	17471.878167	1587.100586	2447.112061
2743.795585	17471.878167	1586.058594	2762.086670
2743.795585	17471.878167	1585.015625	2591.027344
2743.795585	17471.878167	1583.972656	2314.686279
2743.795585	17471.878167	1582.929688	2324.943848
2743.795585	17471.878167	1581.886719	2312.365967
2743.795585	17471.878167	1580.843750	2297.579834
2743.795585	17471.878167	1579.799805	2445.447998
2743.795585	17471.878167	1578.755859	2213.271240
2743.795585	17471.878167	1577.711914	2251.382813
2743.795585	17471.878167	1576.666992	2145.359619
2743.795585	17471.878167	1575.623047	1977.699951
2743.795585	17471.878167	1574.578125	2176.217041
2743.795585	17471.878167	1573.533203	2194.046875
2743.795585	17471.878167	1572.488281	2136.491455
2743.795585	17471.878167	1571.443359	2293.976563
2743.795585	17471.878167	1570.397461	2449.188232
2743.795585	17471.878167	1569.351563	2126.759766
2743.795585	17471.878167	1568.305664	2311.839355
2743.795585	17471.878167	1567.259766	2172.530029
2743.795585	17471.878167	1566.213867	1962.563599
2743.795585	17471.878167	1565.166992	1901.204834
2743.795585	17471.878167	1564.120117	1954.139526
2743.795585	17471.878167	1563.073242	2103.036865
2743.795585	17471.878167	1562.026367	2073.953125
2743.795585	17471.878167	1560.978516	1967.385864
2743.795585	17471.878167	1559.930664	2025.236938
2743.795585	17471.878167	1558.883789	1629.265381
2743.795585	17471.878167	1557.834961	1593.859985
2743.795585	17471.878167	1556.787109	1367.067383
2743.795585	17471.878167	1555.739258	1607.817627
2743.795585	17471.878167	1554.690430	1663.951904
2743.795585	17471.878167	1553.641602	1656.376221
2743.795585	17471.878167	1552.592773	1434.755859
2743.795585	17471.878167	1551.542969	1596.016113
2743.795585	17471.878167	1550.494141	1390.679688
2743.795585	17471.878167	1549.444336	1613.609497
2743.795585	17471.878167	1548.394531	1879.829102
2743.795585	17471.878167	1547.344727	1834.243042
2743.795585	17471.878167	1546.293945	1754.651245
2743.795585	17471.878167	1545.244141	1930.059204
2743.795585	17471.878167	1544.193359	1937.178955
2743.795585	17471.878167	1543.142578	2110.453125
2743.795585	17471.878167	1542.090820	1963.158569
2743.795585	17471.878167	1541.040039	1975.212158
2743.795585	17471.878167	1539.988281	1825.996338
2743.795585	17471.878167	1538.936523	1924.684082
2743.795585	17471.878167	1537.884766	1780.354370
2743.795585	17471.878167	1536.833008	1761.162720
2743.795585	17471.878167	1535.780273	1646.710938
2743.795585	17471.878167	1534.727539	1541.530396
2743.795585	17471.878167	1533.674805	1500.100708
2743.795585	17471.878167	1532.622070	1390.733398
2743.795585	17471.878167	1531.569336	1165.816284
2743.795585	17471.878167	1530.515625	1231.543457
2743.795585	17471.878167	1529.461914	1354.103882
2743.795585	17471.878167	1528.408203	1116.141968
2743.795585	17471.878167	1527.354492	1091.578735
2743.795585	17471.878167	1526.299805	1239.464233
2743.795585	17471.878167	1525.246094	1081.450073
2743.795585	17471.878167	1524.191406	866.980530
2743.795585	17471.878167	1523.136719	1144.428101
2743.795585	17471.878167	1522.081055	1252.006592
2743.795585	17471.878167	1521.026367	1047.149536
2743.795585	17471.878167	1519.970703	831.193970
2743.795585	17471.878167	1518.915039	1038.852539
2743.795585	17471.878167	1517.859375	913.841797
2743.795585	17471.878167	1516.802734	924.813721
2743.795585	17471.878167	1515.747070	935.952332
2743.795585	17471.878167	1514.690430	750.420105
2743.795585	17471.878167	1513.633789	784.515869
2743.795585	17471.878167	1512.577148	744.134888
2743.795585	17471.878167	1511.519531	391.919952
2743.795585	17471.878167	1510.461914	577.990723
2743.795585	17471.878167	1509.405273	502.005066
2743.795585	17471.878167	1508.346680	505.275909
2743.795585	17471.878167	1507.289063	490.649872
2743.795585	17471.878167	1506.231445	512.333435
2743.795585	17471.878167	1505.172852	409.965546
2743.795585	17471.878167	1504.114258	310.062073
2743.795585	17471.878167	1503.055664	481.243744
2743.795585	17471.878167	1501.996094	241.769913
2743.795585	17471.878167	1500.937500	374.877472
2743.795585	17471.878167	1499.877930	217.074081
2743.795585	17471.878167	1498.818359	456.473389
2743.795585	17471.878167	1497.757813	594.463318
2743.795585	17471.878167	1496.698242	313.221802
2743.795585	17471.878167	1495.637695	370.380707
2743.795585	17471.878167	1494.577148	42.303993
2743.795585	17471.878167	1493.516602	111.108299
2743.795585	17471.878167	1492.456055	105.714897
2743.795585	17471.878167	1491.394531	-97.716942
2743.795585	17471.878167	1490.333008	-98.220451
2743.795585	17471.878167	1489.271484	65.811150
2743.795585	17471.878167	1488.209961	43.118416
2743.795585	17471.878167	1487.148438	97.131317
2743.795585	17471.878167	1486.085938	72.537231
2743.795585	17471.878167	1485.023438	333.842041
2743.795585	17471.878167	1483.960938	469.262817
2743.795585	17471.878167	1482.898438	449.642517
2743.795585	17471.878167	1481.834961	758.453308
2743.795585	17471.878167	1480.772461	775.105164
2743.795585	17471.878167	1479.708984	906.523865
2743.795585	17471.878167	1478.644531	1381.822266
2743.795585	17471.878167	1477.581055	1210.146606
2743.795585	17471.878167	1476.517578	1402.578735
2743.795585	17471.878167	1475.453125	1240.325928
2743.795585	17471.878167	1474.388672	1347.689331
2743.795585	17471.878167	1473.323242	1165.737915
2743.795585	17471.878167	1472.258789	1152.277222
2743.795585	17471.878167	1471.193359	1138.963135
2743.795585	17471.878167	1470.127930	1058.656372
2743.795585	17471.878167	1469.062500	1010.096985
2743.795585	17471.878167	1467.997070	921.296875
2743.795585	17471.878167	1466.930664	1188.952881
2743.795585	17471.878167	1465.865234	1131.600952
2743.795585	17471.878167	1464.798828	1267.533569
2743.795585	17471.878167	1463.731445	1029.784424
2743.795585	17471.878167	1462.665039	978.093201
2743.795585	17471.878167	1461.597656	765.196899
2743.795585	17471.878167	1460.530273	1098.196655
2743.795585	17471.878167	1459.462891	1342.229126
2743.795585	17471.878167	1458.395508	1124.165161
2743.795585	17471.878167	1457.327148	1431.875122
2743.795585	17471.878167	1456.259766	1144.471558
2743.795585	17471.878167	1455.191406	1424.560547
2743.795585	17471.878167	1454.123047	1322.185425
2743.795585	17471.878167	1453.053711	1100.672241
2743.795585	17471.878167	1451.985352	1229.059937
2743.795585	17471.878167	1450.916016	1087.871826
2743.795585	17471.878167	1449.846680	1234.718994
2743.795585	17471.878167	1448.776367	1512.576416
2743.795585	17471.878167	1447.707031	1321.323486
2743.795585	17471.878167	1446.636719	1137.654663
2743.795585	17471.878167	1445.566406	1264.760376
2743.795585	17471.878167	1444.496094	1131.388306
2743.795585	17471.878167	1443.425781	1075.315552
2743.795585	17471.878167	1442.354492	895.763794
2743.795585	17471.878167	1441.283203	1195.682739
2743.795585	17471.878167	1440.211914	1250.780884
2743.795585	17471.878167	1439.140625	912.245239
2743.795585	17471.878167	1438.069336	939.759033
2743.795585	17471.878167	1436.997070	1033.869019
2743.795585	17471.878167	1435.924805	1142.674438
2743.795585	17471.878167	1434.852539	1083.957642
2743.795585	17471.878167	1433.780273	971.685242
2743.795585	17471.878167	1432.707031	987.359558
2743.795585	17471.878167	1431.633789	778.442322
2743.795585	17471.878167	1430.560547	1185.399658
2743.795585	17471.878167	1429.487305	654.642151
2743.795585	17471.878167	1428.413086	900.502136
2743.795585	17471.878167	1427.339844	858.800720
2743.795585	17471.878167	1426.265625	801.751038
2743.795585	17471.878167	1425.191406	882.098694
2743.795585	17471.878167	1424.116211	860.779114
2743.795585	17471.878167	1423.041992	861.390442
2743.795585	17471.878167	1421.966797	795.513245
2743.795585	17471.878167	1420.891602	781.937317
2743.795585	17471.878167	1419.816406	947.560425
2743.795585	17471.878167	1418.740234	852.082397
2743.795585	17471.878167	1417.665039	727.086060
2743.795585	17471.878167	1416.588867	930.485474
2743.795585	17471.878167	1415.512695	609.513977
2743.795585	17471.878167	1414.435547	795.951050
2743.795585	17471.878167	1413.359375	911.099976
2743.795585	17471.878167	1412.282227	1018.292908
2743.795585	17471.878167	1411.205078	894.964661
2743.795585	17471.878167	1410.127930	927.546204
2743.795585	17471.878167	1409.049805	1043.484497
2743.795585	17471.878167	1407.972656	1077.010132
2743.795585	17471.878167	1406.894531	1114.244751
2743.795585	17471.878167	1405.816406	1102.022827
2743.795585	17471.878167	1404.737305	1422.707886
2743.795585	17471.878167	1403.659180	1148.181641
2743.795585	17471.878167	1402.580078	1405.434082
2743.795585	17471.878167	1401.500977	1025.369385
2743.795585	17471.878167	1400.421875	1029.255981
2743.795585	17471.878167	1399.341797	1000.184937
2743.795585	17471.878167	1398.262695	1122.467896
2743.795585	17471.878167	1397.182617	1142.869751
2743.795585	17471.878167	1396.102539	1019.059387
2743.795585	17471.878167	1395.021484	1259.266968
2743.795585	17471.878167	1393.941406	1314.234619
2743.795585	17471.878167	1392.860352	1092.722412
2743.795585	17471.878167	1391.779297	1043.195679
2743.795585	17471.878167	1390.698242	1036.487305
2743.795585	17471.878167	1389.616211	1131.396362
2743.795585	17471.878167	1388.535156	1152.995605
2743.795585	17471.878167	1387.453125	1285.329834
2743.795585	17471.878167	1386.371094	1442.878906
2743.795585	17471.878167	1385.288086	1467.840942
2743.795585	17471.878167	1384.206055	1455.014282
2743.795585	17471.878167	1383.123047	1534.587036
2743.795585	17471.878167	1382.040039	1402.769165
2743.795585	17471.878167	1380.957031	1654.145630
2743.795585	17471.878167	1379.873047	1617.411133
2743.795585	17471.878167	1378.789063	1750.077881
2743.795585	17471.878167	1377.705078	1667.840332
2743.795585	17471.878167	1376.621094	1772.665894
2743.795585	17471.878167	1375.537109	2068.495117
2743.795585	17471.878167	1374.452148	1747.083374
2743.795585	17471.878167	1373.367188	2232.366699
2743.795585	17471.878167	1372.282227	2105.509766
2743.795585	17471.878167	1371.197266	2030.228027
2743.795585	17471.878167	1370.112305	2377.069336
2743.795585	17471.878167	1369.026367	2191.516846
2743.795585	17471.878167	1367.940430	2441.420898
2743.795585	17471.878167	1366.854492	2330.150146
2743.795585	17471.878167	1365.767578	2316.724365
2743.795585	17471.878167	1364.681641	2365.425781
2743.795585	17471.878167	1363.594727	2366.396240
2743.795585	17471.878167	1362.507813	2160.829346
2743.795585	17471.878167	1361.419922	2139.488525
2743.795585	17471.878167	1360.333008	2061.562500
2743.795585	17471.878167	1359.245117	1932.126099
2743.795585	17471.878167	1358.157227	1995.540283
2743.795585	17471.878167	1357.069336	2236.110840
2743.795585	17471.878167	1355.981445	2062.086182
2743.795585	17471.878167	1354.892578	2128.456787
2743.795585	17471.878167	1353.803711	2186.220459
2743.795585	17471.878167	1352.714844	2144.568848
2743.795585	17471.878167	1351.625000	2205.830811
2743.795585	17471.878167	1350.536133	2306.994385
2743.795585	17471.878167	1349.446289	2384.416260
2743.795585	17471.878167	1348.356445	2317.354248
2743.795585	17471.878167	1347.266602	2120.246094
2743.795585	17471.878167	1346.175781	2265.152832
2743.795585	17471.878167	1345.085938	2210.595215
2743.795585	17471.878167	1343.995117	2214.605225
2743.795585	17471.878167	1342.903320	2337.011475
2743.795585	17471.878167	1341.812500	1974.880859
2743.795585	17471.878167	1340.720703	2090.074219
2743.795585	17471.878167	1339.629883	1939.075439
2743.795585	17471.878167	1338.538086	1826.183228
2743.795585	17471.878167	1337.445313	1716.560547
2743.795585	17471.878167	1336.353516	1683.482178
2743.795585	17471.878167	1335.260742	1863.661133
2743.795585	17471.878167	1334.167969	1520.441040
2743.795585	17471.878167	1333.075195	1747.963379
2743.795585	17471.878167	1331.981445	1588.202271
2743.795585	17471.878167	1330.888672	1559.152466
2743.795585	17471.878167	1329.794922	1829.871704
2743.795585	17471.878167	1328.701172	1772.808472
2743.795585	17471.878167	1327.606445	1891.529419
2743.795585	17471.878167	1326.512695	1939.338989
2743.795585	17471.878167	1325.417969	1865.320801
2743.795585	17471.878167	1324.323242	2119.036621
2743.795585	17471.878167	1323.227539	1986.832642
2743.795585	17471.878167	1322.132813	2246.828857
2743.795585	17471.878167	1321.037109	2338.949707
2743.795585	17471.878167	1319.941406	2250.615723
2743.795585	17471.878167	1318.845703	2082.083252
2743.795585	17471.878167	1317.750000	2265.050537
2743.795585	17471.878167	1316.653320	1901.574829
2743.795585	17471.878167	1315.556641	1903.617676
2743.795585	17471.878167	1314.459961	1993.248047
2743.795585	17471.878167	1313.363281	1818.046631
2743.795585	17471.878167	1312.265625	1664.534912
2743.795585	17471.878167	1311.167969	1672.116699
2743.795585	17471.878167	1310.070313	1393.522095
2743.795585	17471.878167	1308.972656	1385.204712
2743.795585	17471.878167	1307.874023	1263.357300
2743.795585	17471.878167	1306.776367	1245.942261
2743.795585	17471.878167	1305.677734	1189.792480
2743.795585	17471.878167	1304.579102	1267.504639
2743.795585	17471.878167	1303.479492	943.455139
2743.795585	17471.878167	1302.380859	846.526978
2743.795585	17471.878167	1301.281250	1053.127686
2743.795585	17471.878167	1300.181641	967.005066
2743.795585	17471.878167	1299.081055	855.094421
2743.795585	17471.878167	1297.981445	692.815369
2743.795585	17471.878167	1296.880859	742.947876
2743.795585	17471.878167	1295.780273	886.327515
2743.795585	17471.878167	1294.679688	781.512695
2743.795585	17471.878167	1293.578125	899.721863
2743.795585	17471.878167	1292.476563	765.680298
2743.795585	17471.878167	1291.375000	612.457886
2743.795585	17471.878167	1290.273438	440.770264
2743.795585	17471.878167	1289.171875	753.093628
2743.795585	17471.878167	1288.069336	710.847900
2743.795585	17471.878167	1286.966797	469.223022
2743.795585	17471.878167	1285.864258	569.841675
2743.795585	17471.878167	1284.761719	478.809998
2743.795585	17471.878167	1283.658203	654.950500
2743.795585	17471.878167	1282.554688	462.393250
2743.795585	17471.878167	1281.451172	529.769897
2743.795585	17471.878167	1280.347656	567.873047
2743.795585	17471.878167	1279.244141	392.978882
2743.795585	17471.878167	1278.139648	545.656006
2743.795585	17471.878167	1277.035156	646.718140
2743.795585	17471.878167	1275.930664	593.771362
2743.795585	17471.878167	1274.825195	528.060303
2743.795585	17471.878167	1273.720703	385.460388
2743.795585	17471.878167	1272.615234	654.875977
2743.795585	17471.878167	1271.508789	551.589050
2743.795585	17471.878167	1270.403320	539.383240
2743.795585	17471.878167	1269.297852	455.177917
2743.795585	17471.878167	1268.191406	561.766541
2743.795585	17471.878167	1267.084961	521.535889
2743.795585	17471.878167	1265.977539	466.560760
2743.795585	17471.878167	1264.871094	547.936096
2743.795585	17471.878167	1263.763672	603.237427
2743.795585	17471.878167	1262.656250	674.857361
2743.795585	17471.878167	1261.548828	619.205933
2743.795585	17471.878167	1260.440430	272.586395
2743.795585	17471.878167	1259.333008	500.918915
2743.795585	17471.878167	1258.224609	489.859192
2743.795585	17471.878167	1257.115234	582.453918
2743.795585	17471.878167	1256.006836	450.553009
2743.795585	17471.878167	1254.897461	409.041595
2743.795585	17471.878167	1253.788086	641.749878
2743.795585	17471.878167	1252.678711	736.516479
2743.795585	17471.878167	1251.569336	695.435120
2743.795585	17471.878167	1250.458984	541.689026
2743.795585	17471.878167	1249.349609	743.993347
2743.795585	17471.878167	1248.239258	697.172791
2743.795585	17471.878167	1247.127930	353.187134
2743.795585	17471.878167	1246.017578	563.486938
2743.795585	17471.878167	1244.906250	596.827576
2743.795585	17471.878167	1243.794922	562.720886
2743.795585	17471.878167	1242.683594	513.812317
2743.795585	17471.878167	1241.571289	744.536072
2743.795585	17471.878167	1240.459961	668.328125
2743.795585	17471.878167	1239.347656	703.872620
2743.795585	17471.878167	1238.234375	548.276733
2743.795585	17471.878167	1237.122070	564.874146
2743.795585	17471.878167	1236.008789	720.163208
2743.795585	17471.878167	1234.896484	500.429718
2743.795585	17471.878167	1233.782227	310.122803
2743.795585	17471.878167	1232.668945	381.244507
2743.795585	17471.878167	1231.555664	397.964386
2743.795585	17471.878167	1230.441406	348.138519
2743.795585	17471.878167	1229.327148	216.954834
2743.795585	17471.878167	1228.211914	396.061310
2743.795585	17471.878167	1227.097656	377.315369
2743.795585	17471.878167	1225.982422	335.794220
2743.795585	17471.878167	1224.867188	239.189819
2743.795585	17471.878167	1223.751953	311.295197
2743.795585	17471.878167	1222.635742	315.777832
2743.795585	17471.878167	1221.520508	362.989502
2743.795585	17471.878167	1220.404297	127.947762
2743.795585	17471.878167	1219.287109	5.663327
2743.795585	17471.878167	1218.170898	203.725494
2743.795585	17471.878167	1217.053711	84.566658
2743.795585	17471.878167	1215.936523	153.269638
2743.795585	17471.878167	1214.819336	144.390259
2743.795585	17471.878167	1213.702148	261.243103
2743.795585	17471.878167	1212.583984	246.530670
2743.795585	17471.878167	1211.465820	287.084930
2743.795585	17471.878167	1210.347656	522.522278
2743.795585	17471.878167	1209.229492	443.484528
2743.795585	17471.878167	1208.110352	463.715088
2743.795585	17471.878167	1206.992188	430.355652
2743.795585	17471.878167	1205.873047	552.948486
2743.795585	17471.878167	1204.752930	297.605957
2743.795585	17471.878167	1203.633789	303.234772
2743.795585	17471.878167	1202.513672	444.973633
2743.795585	17471.878167	1201.393555	178.607040
2743.795585	17471.878167	1200.273438	485.668488
2743.795585	17471.878167	1199.152344	205.259552
2743.795585	17471.878167	1198.032227	335.793152
2743.795585	17471.878167	1196.911133	319.537537
2743.795585	17471.878167	1195.790039	274.954254
2743.795585	17471.878167	1194.667969	396.774597
2743.795585	17471.878167	1193.545898	250.762970
2743.795585	17471.878167	1192.424805	410.718109
2743.795585	17471.878167	1191.301758	381.133850
2743.795585	17471.878167	1190.179688	259.152802
2743.795585	17471.878167	1189.056641	289.865936
2743.795585	17471.878167	1187.933594	360.296692
2743.795585	17471.878167	1186.810547	323.714966
2743.795585	17471.878167	1185.687500	292.534271
2743.795585	17471.878167	1184.563477	124.248329
2743.795585	17471.878167	1183.440430	108.798653
2743.795585	17471.878167	1182.316406	15.105807
2743.795585	17471.878167	1181.191406	214.488464
2743.795585	17471.878167	1180.067383	-41.862511
2743.795585	17471.878167	1178.942383	19.475147
2743.795585	17471.878167	1177.817383	-33.191425
2743.795585	17471.878167	1176.692383	-0.980876
2743.795585	17471.878167	1175.566406	-170.481842
2743.795585	17471.878167	1174.440430	-216.362595
2743.795585	17471.878167	1173.314453	-237.596252
2743.795585	17471.878167	1172.188477	-118.044579
2743.795585	17471.878167	1171.062500	-165.608398
2743.795585	17471.878167	1169.935547	-33.303329
2743.795585	17471.878167	1168.808594	-81.528763
2743.795585	17471.878167	1167.681641	-115.832954
2743.795585	17471.878167	1166.553711	44.286915
2743.795585	17471.878167	1165.426758	-103.372322
2743.795585	17471.878167	1164.298828	-77.619102
2743.795585	17471.878167	1163.170898	-80.791000
2743.795585	17471.878167	1162.041992	-33.593365
2743.795585	17471.878167	1160.914063	-84.016983
2743.795585	17471.878167	1159.785156	107.378342
2743.795585	17471.878167	1158.656250	88.048256
2743.795585	17471.878167	1157.526367	-122.468636
2743.795585	17471.878167	1156.397461	-169.923355
2743.795585	17471.878167	1155.267578	-134.577316
2743.795585	17471.878167	1154.137695	-30.244112
2743.795585	17471.878167	1153.006836	5.023848
2743.795585	17471.878167	1151.876953	27.686956
2743.795585	17471.878167	1150.746094	-11.889637
2743.795585	17471.878167	1149.615234	-31.353260
2743.795585	17471.878167	1148.484375	45.011677
2743.795585	17471.878167	1147.352539	31.266787
2743.795585	17471.878167	1146.220703	-107.401070
2743.795585	17471.878167	1145.088867	-98.419830
2743.795585	17471.878167	1143.957031	98.189796
2743.795585	17471.878167	1142.825195	92.204010
2743.795585	17471.878167	1141.692383	53.063080
2743.795585	17471.878167	1140.559570	185.805771
2743.795585	17471.878167	1139.426758	234.226837
2743.795585	17471.878167	1138.292969	337.371887
2743.795585	17471.878167	1137.159180	234.484970
2743.795585	17471.878167	1136.025391	235.191925
2743.795585	17471.878167	1134.891602	70.656708
2743.795585	17471.878167	1133.757813	374.092102
2743.795585	17471.878167	1132.623047	273.262207
2743.795585	17471.878167	1131.488281	315.878204
2743.795585	17471.878167	1130.353516	309.874573
2743.795585	17471.878167	1129.217773	439.380524
2743.795585	17471.878167	1128.083008	366.541718
2743.795585	17471.878167	1126.947266	153.111664
2743.795585	17471.878167	1125.811523	111.426880
2743.795585	17471.878167	1124.674805	188.534317
2743.795585	17471.878167	1123.539063	124.100693
2743.795585	17471.878167	1122.402344	205.800919
2743.795585	17471.878167	1121.265625	143.951324
2743.795585	17471.878167	1120.127930	196.155243
2743.795585	17471.878167	1118.990234	-4.273769
2743.795585	17471.878167	1117.853516	52.640133
2743.795585	17471.878167	1116.714844	-20.545219
2743.795585	17471.878167	1115.577148	-5.949107
2743.795585	17471.878167	1114.439453	-188.664520
2743.795585	17471.878167	1113.300781	-165.306183
2743.795585	17471.878167	1112.162109	-137.003510
2743.795585	17471.878167	1111.022461	-76.494362
2743.795585	17471.878167	1109.883789	4.366073
2743.795585	17471.878167	1108.744141	-122.065025
2743.795585	17471.878167	1107.604492	133.308762
2743.795585	17471.878167	1106.463867	-46.414677
2743.795585	17471.878167	1105.324219	99.480293
2743.795585	17471.878167	1104.183594	-36.098820
2743.795585	17471.878167	1103.042969	28.003277
2743.795585	17471.878167	1101.902344	203.699799
2743.795585	17471.878167	1100.760742	35.060047
2743.795585	17471.878167	1099.619141	230.474854
2743.795585	17471.878167	1098.477539	192.470749
2743.795585	17471.878167	1097.335938	220.486374
2743.795585	17471.878167	1096.193359	347.734344
2743.795585	17471.878167	1095.051758	254.492035
2743.795585	17471.878167	1093.909180	288.040924
2743.795585	17471.878167	1092.765625	394.174011
2743.795585	17471.878167	1091.623047	361.558624
2743.795585	17471.878167	1090.479492	402.558014
2743.795585	17471.878167	1089.335938	461.795044
2743.795585	17471.878167	1088.192383	342.881226
2743.795585	17471.878167	1087.047852	152.545441
2743.795585	17471.878167	1085.903320	251.266205
2743.795585	17471.878167	1084.758789	174.021301
2743.795585	17471.878167	1083.614258	209.294388
2743.795585	17471.878167	1082.469727	105.402107
2743.795585	17471.878167	1081.324219	44.035923
2743.795585	17471.878167	1080.178711	87.361229
2743.795585	17471.878167	1079.033203	271.803101
2743.795585	17471.878167	1077.886719	307.202240
2743.795585	17471.878167	1076.740234	124.607086
2743.795585	17471.878167	1075.593750	146.879211
2743.795585	17471.878167	1074.447266	166.803101
2743.795585	17471.878167	1073.300781	34.166149
2743.795585	17471.878167	1072.153320	232.755142
2743.795585	17471.878167	1071.005859	35.134384
2743.795585	17471.878167	1069.858398	194.031738
2743.795585	17471.878167	1068.709961	108.075607
2743.795585	17471.878167	1067.561523	317.279724
2743.795585	17471.878167	1066.413086	68.903175
2743.795585	17471.878167	1065.264648	130.297882
2743.795585	17471.878167	1064.116211	90.102852
2743.795585	17471.878167	1062.966797	265.582001
2743.795585	17471.878167	1061.817383	126.349899
2743.795585	17471.878167	1060.667969	211.095398
2743.795585	17471.878167	1059.517578	115.806854
2743.795585	17471.878167	1058.368164	181.306396
2743.795585	17471.878167	1057.217773	79.022522
2743.795585	17471.878167	1056.067383	46.764446
2743.795585	17471.878167	1054.916016	91.271339
2743.795585	17471.878167	1053.764648	202.088852
2743.795585	17471.878167	1052.613281	125.819893
2743.795585	17471.878167	1051.461914	231.513672
2743.795585	17471.878167	1050.310547	115.549484
2743.795585	17471.878167	1049.158203	131.664307
2743.795585	17471.878167	1048.005859	270.511475
2743.795585	17471.878167	1046.853516	20.482019
2743.795585	17471.878167	1045.700195	24.092073
2743.795585	17471.878167	1044.547852	57.242126
2743.795585	17471.878167	1043.394531	48.055832
2743.795585	17471.878167	1042.240234	179.310791
2743.795585	17471.878167	1041.086914	-17.515068
2743.795585	17471.878167	1039.932617	102.063934
2743.795585	17471.878167	1038.778320	154.317749
2743.795585	17471.878167	1037.624023	239.241913
2743.795585	17471.878167	1036.469727	78.906181
2743.795585	17471.878167	1035.314453	144.750107
2743.795585	17471.878167	1034.159180	320.574127
2743.795585	17471.878167	1033.003906	409.661865
2743.795585	17471.878167	1031.847656	267.860962
2743.795585	17471.878167	1030.692383	383.999786
2743.795585	17471.878167	1029.536133	375.623779
2743.795585	17471.878167	1028.378906	286.737122
2743.795585	17471.878167	1027.222656	257.805206
2743.795585	17471.878167	1026.065430	310.726685
2743.795585	17471.878167	1024.908203	206.741806
2743.795585	17471.878167	1023.750977	-83.924385
2743.795585	17471.878167	1022.593750	168.561523
2743.795585	17471.878167	1021.435547	60.473595
2743.795585	17471.878167	1020.277344	178.747528
2743.795585	17471.878167	1019.119141	136.456024
2743.795585	17471.878167	1017.959961	445.662048
2743.795585	17471.878167	1016.800781	189.990936
2743.795585	17471.878167	1015.641602	298.738007
2743.795585	17471.878167	1014.482422	164.023804
2743.795585	17471.878167	1013.323242	43.284302
2743.795585	17471.878167	1012.163086	123.999283
2743.795585	17471.878167	1011.002930	-63.456741
2743.795585	17471.878167	1009.842773	45.107086
2743.795585	17471.878167	1008.681641	-86.387192
2743.795585	17471.878167	1007.520508	-106.691902
2743.795585	17471.878167	1006.359375	37.040066
2743.795585	17471.878167	1005.198242	212.157761
2743.795585	17471.878167	1004.037109	228.753387
2743.795585	17471.878167	1002.875000	25.661911
2743.795585	17471.878167	1001.712891	226.414368
2743.795585	17471.878167	1000.550781	246.160599
2743.795585	17471.878167	999.387695	175.651459
2743.795585	17471.878167	998.224609	42.758911
2743.795585	17471.878167	997.061523	81.112282
2743.795585	17471.878167	995.898438	41.505917
2743.795585	17471.878167	994.734375	95.334084
2743.795585	17471.878167	993.571289	-12.393681
2743.795585	17471.878167	992.407227	-87.243790
2743.795585	17471.878167	991.242188	-54.555790
2743.795585	17471.878167	990.078125	-15.435192
2743.795585	17471.878167	988.913086	-26.832392
2743.795585	17471.878167	987.748047	25.129745
2743.795585	17471.878167	986.583008	-32.500538
2743.795585	17471.878167	985.416992	83.612160
2743.795585	17471.878167	984.250977	-10.367841
2743.795585	17471.878167	983.084961	-206.948944
2743.795585	17471.878167	981.918945	22.049908
2743.795585	17471.878167	980.751953	119.839935
2743.795585	17471.878167	979.584961	-104.528671
2743.795585	17471.878167	978.417969	-131.453979
2743.795585	17471.878167	977.250977	-150.127045
2743.795585	17471.878167	976.083008	87.792168
2743.795585	17471.878167	974.915039	-43.551334
2743.795585	17471.878167	973.747070	-100.798805
2743.795585	17471.878167	972.579102	-73.543640
2743.795585	17471.878167	971.410156	93.757172
2743.795585	17471.878167	970.242188	234.082062
2743.795585	17471.878167	969.072266	119.746834
2743.795585	17471.878167	967.903320	82.200020
2743.795585	17471.878167	966.733398	63.842613
2743.795585	17471.878167	965.563477	232.732880
2743.795585	17471.878167	964.393555	210.881897
2743.795585	17471.878167	963.223633	158.012619
2743.795585	17471.878167	962.052734	157.167831
2743.795585	17471.878167	960.881836	79.530899
2743.795585	17471.878167	959.710938	229.701736
2743.795585	17471.878167	958.540039	59.341751
2743.795585	17471.878167	957.368164	156.977997
2743.795585	17471.878167	956.196289	385.922821
2743.795585	17471.878167	955.024414	233.695053
2743.795585	17471.878167	953.851563	399.659546
2743.795585	17471.878167	952.679688	253.012177
2743.795585	17471.878167	951.506836	196.834885
2743.795585	17471.878167	950.333984	123.733086
2743.795585	17471.878167	949.160156	-8.806419
2743.795585	17471.878167	947.986328	36.275906
2743.795585	17471.878167	946.812500	45.681480
2743.795585	17471.878167	945.638672	-252.949829
2743.795585	17471.878167	944.464844	-180.288666
2743.795585	17471.878167	943.290039	-37.618912
2743.795585	17471.878167	942.115234	-36.841846
2743.795585	17471.878167	940.940430	-66.473877
2743.795585	17471.878167	939.764648	-99.653419
2743.795585	17471.878167	938.588867	0.549321
2743.795585	17471.878167	937.413086	75.126717
2743.795585	17471.878167	936.237305	-25.967918
2743.795585	17471.878167	935.060547	29.586849
2743.795585	17471.878167	933.883789	142.194504
2743.795585	17471.878167	932.707031	-185.979752
2743.795585	17471.878167	931.530273	125.840599
2743.795585	17471.878167	930.352539	22.208344
2743.795585	17471.878167	929.175781	-53.753132
2743.795585	17471.878167	927.998047	77.857445
2743.795585	17471.878167	926.819336	80.218857
2743.795585	17471.878167	925.641602	114.333488
2743.795585	17471.878167	924.462891	38.286079
2743.795585	17471.878167	923.284180	121.030029
2743.795585	17471.878167	922.104492	-54.517815
2743.795585	17471.878167	920.924805	11.246372
2743.795585	17471.878167	919.746094	15.634482
2743.795585	17471.878167	919.551758	84.026833
2743.795585	17471.878167	918.386719	117.900513
2743.795585	17471.878167	917.220703	43.872860
2743.795585	17471.878167	916.054688	56.555550
2743.795585	17471.878167	914.887695	-49.183552
2743.795585	17471.878167	913.721680	-135.878845
2743.795585	17471.878167	912.554688	60.639870
2743.795585	17471.878167	911.387695	231.701126
2743.795585	17471.878167	910.220703	18.188738
2743.795585	17471.878167	909.052734	45.527096
2743.795585	17471.878167	907.885742	-49.648140
2743.795585	17471.878167	906.717773	110.660172
2743.795585	17471.878167	905.548828	-87.955231
2743.795585	17471.878167	904.380859	-26.934786
2743.795585	17471.878167	903.211914	-181.174042
2743.795585	17471.878167	902.042969	227.875336
2743.795585	17471.878167	900.874023	-71.923401
2743.795585	17471.878167	899.704102	-11.034728
2743.795585	17471.878167	898.535156	16.073734
2743.795585	17471.878167	897.365234	89.524757
2743.795585	17471.878167	896.194336	122.886604
2743.795585	17471.878167	895.024414	-1.810206
2743.795585	17471.878167	893.853516	248.486649
2743.795585	17471.878167	892.682617	130.092224
2743.795585	17471.878167	891.511719	53.838451
2743.795585	17471.878167	890.340820	66.014320
2743.795585	17471.878167	889.168945	78.165855
2743.795585	17471.878167	887.997070	136.586655
2743.795585	17471.878167	886.825195	-28.057371
2743.795585	17471.878167	885.653320	148.114532
2743.795585	17471.878167	884.480469	57.102371
2743.795585	17471.878167	883.307617	134.317978
2743.795585	17471.878167	882.134766	36.993622
2743.795585	17471.878167	880.961914	-47.701870
2743.795585	17471.878167	879.788086	2.104461
2743.795585	17471.878167	878.614258	-72.088615
2743.795585	17471.878167	877.440430	-53.852535
2743.795585	17471.878167	876.266602	-79.748016
2743.795585	17471.878167	875.091797	-118.252785
2743.795585	17471.878167	873.916992	-242.832855
2743.795585	17471.878167	872.742188	-14.789190
2743.795585	17471.878167	871.567383	59.956146
2743.795585	17471.878167	870.391602	-119.200661
2743.795585	17471.878167	869.215820	-107.435532
2743.795585	17471.878167	868.040039	-24.400034
2743.795585	17471.878167	866.864258	-16.902981
2743.795585	17471.878167	865.687500	-59.740681
2743.795585	17471.878167	864.510742	12.681520
2743.795585	17471.878167	863.333984	-195.730362
2743.795585	17471.878167	862.157227	-43.754890
2743.795585	17471.878167	860.979492	18.071285
2743.795585	17471.878167	859.802734	-123.281822
2743.795585	17471.878167	858.625000	-15.458600
2743.795585	17471.878167	857.446289	-117.024811
2743.795585	17471.878167	856.268555	-126.497627
2743.795585	17471.878167	855.089844	27.211811
2743.795585	17471.878167	853.911133	-80.661087
2743.795585	17471.878167	852.731445	-79.756676
2743.795585	17471.878167	851.552734	-108.160339
2743.795585	17471.878167	850.373047	-73.858627
2743.795585	17471.878167	849.193359	96.261894
2743.795585	17471.878167	848.013672	-68.080330
2743.795585	17471.878167	846.833008	-86.129349
2743.795585	17471.878167	845.652344	-114.645691
2743.795585	17471.878167	844.471680	-74.260544
2743.795585	17471.878167	843.291016	-46.451767
2743.795585	17471.878167	842.110352	-77.139603
2743.795585	17471.878167	840.928711	-112.019424
2743.795585	17471.878167	839.747070	-144.829208
2743.795585	17471.878167	838.564453	-64.993866
2743.795585	17471.878167	837.382813	-104.123604
2743.795585	17471.878167	836.200195	-114.071861
2743.795585	17471.878167	835.017578	-92.772812
2743.795585	17471.878167	833.834961	63.983143
2743.795585	17471.878167	832.651367	-106.576729
2743.795585	17471.878167	831.467773	-99.980286
2743.795585	17471.878167	830.284180	-51.756214
2743.795585	17471.878167	829.100586	-124.395119
2743.795585	17471.878167	827.916992	-47.102463
2743.795585	17471.878167	826.732422	-26.091574
2743.795585	17471.878167	825.547852	17.771933
2743.795585	17471.878167	824.363281	109.447632
2743.795585	17471.878167	823.177734	-111.065033
2743.795585	17471.878167	821.992188	74.139908
2743.795585	17471.878167	820.806641	-9.077603
2743.795585	17471.878167	819.621094	-19.517765
2743.795585	17471.878167	818.434570	30.300180
2743.795585	17471.878167	817.249023	21.854885
2743.795585	17471.878167	816.062500	75.720535
2743.795585	17471.878167	814.875000	96.280418
2743.795585	17471.878167	813.688477	237.274109
2743.795585	17471.878167	812.500977	85.326370
2743.795585	17471.878167	811.313477	-68.677086
2743.795585	17471.878167	810.125977	-62.804047
2743.795585	17471.878167	808.937500	71.713058
2743.795585	17471.878167	807.749023	98.220985
2743.795585	17471.878167	806.560547	162.020081
2743.795585	17471.878167	805.372070	182.188080
2743.795585	17471.878167	804.182617	-15.455867
2743.795585	17471.878167	802.994141	-49.260395
2743.795585	17471.878167	801.803711	-134.920532
2743.795585	17471.878167	800.614258	115.170967
2743.795585	17471.878167	799.424805	-49.324924
2743.795585	17471.878167	798.234375	26.526011
2743.795585	17471.878167	797.043945	147.865768
2743.795585	17471.878167	795.852539	97.225174
2743.795585	17471.878167	794.662109	100.386971
2743.795585	17471.878167	793.470703	-2.072154
2743.795585	17471.878167	792.279297	160.371780
2743.795585	17471.878167	791.087891	246.139267
2743.795585	17471.878167	789.895508	275.965027
2743.795585	17471.878167	788.703125	61.665169
2743.795585	17471.878167	787.510742	-11.979481
2743.795585	17471.878167	786.318359	104.560936
2743.795585	17471.878167	785.125000	49.437004
2743.795585	17471.878167	783.931641	126.547028
2743.795585	17471.878167	782.738281	137.453094
2743.795585	17471.878167	781.544922	63.605972
2743.795585	17471.878167	780.350586	212.790848
2743.795585	17471.878167	779.156250	126.461845
2743.795585	17471.878167	777.961914	139.207458
2743.795585	17471.878167	776.767578	-19.422920
2743.795585	17471.878167	775.572266	-66.607162
2743.795585	17471.878167	774.376953	195.648117
2743.795585	17471.878167	773.181641	74.066185
2743.795585	17471.878167	771.986328	171.084137
2743.795585	17471.878167	770.790039	22.639154
2743.795585	17471.878167	769.593750	14.377191
2743.795585	17471.878167	768.397461	117.356461
2743.795585	17471.878167	767.201172	141.930099
2743.795585	17471.878167	766.003906	22.222631
2743.795585	17471.878167	764.806641	-17.164728
2743.795585	17471.878167	763.609375	246.125076
2743.795585	17471.878167	762.412109	132.466705
2743.795585	17471.878167	761.213867	8.502078
2743.795585	17471.878167	760.015625	102.680267
2743.795585	17471.878167	758.817383	217.333954
2743.795585	17471.878167	757.618164	146.729904
2743.795585	17471.878167	756.419922	98.719269
2743.795585	17471.878167	755.220703	40.382778
2743.795585	17471.878167	754.021484	187.596558
2743.795585	17471.878167	752.821289	244.245361
2743.795585	17471.878167	751.621094	167.227905
2743.795585	17471.878167	750.420898	416.862244
2743.795585	17471.878167	749.220703	395.176422
2743.795585	17471.878167	748.020508	636.314636
2743.795585	17471.878167	746.819336	359.848022
2743.795585	17471.878167	745.618164	475.533936
2743.795585	17471.878167	744.416992	515.165100
2743.795585	17471.878167	743.214844	493.151245
2743.795585	17471.878167	742.012695	522.370178
2743.795585	17471.878167	740.810547	448.951416
2743.795585	17471.878167	739.608398	625.687805
2743.795585	17471.878167	738.406250	693.616150
2743.795585	17471.878167	737.203125	1202.175415
2743.795585	17471.878167	736.000000	1282.115479
2743.795585	17471.878167	734.795898	1638.572632
2743.795585	17471.878167	733.592773	1828.876587
2743.795585	17471.878167	732.388672	2078.427490
2743.795585	17471.878167	731.184570	1903.919922
2743.795585	17471.878167	729.979492	1985.329712
2743.795585	17471.878167	728.775391	1751.415894
2743.795585	17471.878167	727.570313	1359.949341
2743.795585	17471.878167	726.365234	1081.110107
2743.795585	17471.878167	725.160156	1008.924683
2743.795585	17471.878167	723.954102	830.347900
2743.795585	17471.878167	722.748047	913.504639
2743.795585	17471.878167	721.541992	561.114502
2743.795585	17471.878167	720.334961	550.130432
2743.795585	17471.878167	719.128906	547.256592
2743.795585	17471.878167	717.921875	229.682175
2743.795585	17471.878167	716.714844	179.753891
2743.795585	17471.878167	715.506836	291.106110
2743.795585	17471.878167	714.298828	165.495941
2743.795585	17471.878167	713.090820	117.438004
2743.795585	17471.878167	711.882813	4.021192
2743.795585	17471.878167	710.674805	112.992592
2743.795585	17471.878167	709.465820	227.965836
2743.795585	17471.878167	708.256836	102.143677
2743.795585	17471.878167	707.047852	70.105263
2743.795585	17471.878167	705.837891	192.954330
2743.795585	17471.878167	704.627930	120.000282
2743.795585	17471.878167	703.417969	236.531296
2743.795585	17471.878167	702.208008	61.581673
2743.795585	17471.878167	700.998047	344.973785
2743.795585	17471.878167	699.787109	74.208656
2743.795585	17471.878167	698.576172	86.519814
2743.795585	17471.878167	697.364258	178.146469
2743.795585	17471.878167	696.153320	412.142914
2743.795585	17471.878167	694.941406	314.274475
2743.795585	17471.878167	693.729492	460.517151
2743.795585	17471.878167	692.516602	309.650024
2743.795585	17471.878167	691.304688	345.875336
2743.795585	17471.878167	690.091797	300.684601
2743.795585	17471.878167	688.878906	285.934937
2743.795585	17471.878167	687.665039	275.182648
2743.795585	17471.878167	686.451172	311.101440
2743.795585	17471.878167	685.237305	418.038269
2743.795585	17471.878167	684.023438	299.412445
2743.795585	17471.878167	682.809570	329.006500
2743.795585	17471.878167	681.594727	360.546448
2743.795585	17471.878167	680.379883	542.210266
2743.795585	17471.878167	679.165039	537.028564
2743.795585	17471.878167	677.949219	505.402069
2743.795585	17471.878167	676.733398	579.205200
2743.795585	17471.878167	675.517578	435.906250
2743.795585	17471.878167	674.301758	464.952820
2743.795585	17471.878167	673.084961	414.854919
2743.795585	17471.878167	671.869141	370.799103
2743.795585	17471.878167	670.651367	533.378540
2743.795585	17471.878167	669.434570	728.246216
2743.795585	17471.878167	668.216797	582.675293
2743.795585	17471.878167	667.000000	595.064636
2743.795585	17471.878167	665.781250	651.920044
2743.795585	17471.878167	664.563477	720.840393
2743.795585	17471.878167	663.344727	488.116089
2743.795585	17471.878167	662.125977	694.505188
2743.795585	17471.878167	660.907227	481.994629
2743.795585	17471.878167	659.688477	767.056763
2743.795585	17471.878167	658.468750	534.275330
2743.795585	17471.878167	657.249023	750.347107
2743.795585	17471.878167	656.029297	717.655640
2743.795585	17471.878167	654.808594	521.228882
2743.795585	17471.878167	653.587891	700.623291
2743.795585	17471.878167	652.367188	538.511353
2743.795585	17471.878167	651.146484	479.409576
2743.795585	17471.878167	649.924805	688.815491
2743.795585	17471.878167	648.704102	542.795776
2743.795585	17471.878167	647.482422	592.550964
2743.795585	17471.878167	646.259766	728.995850
2743.795585	17471.878167	645.037109	758.408813
2743.795585	17471.878167	643.815430	331.925873
2743.795585	17471.878167	642.591797	621.441284
2743.795585	17471.878167	641.369141	674.903442
2743.795585	17471.878167	640.145508	440.043701
2743.795585	17471.878167	638.921875	513.574463
2743.795585	17471.878167	637.698242	560.835449
2743.795585	17471.878167	636.474609	434.790527
2743.795585	17471.878167	635.250000	415.490845
2743.795585	17471.878167	634.025391	494.821716
2743.795585	17471.878167	632.800781	507.643524
2743.795585	17471.878167	631.575195	445.941895
2743.795585	17471.878167	630.349609	416.423645
2743.795585	17471.878167	629.124023	441.198151
2743.795585	17471.878167	627.898438	632.873962
2743.795585	17471.878167	626.671875	552.938599
2743.795585	17471.878167	625.445313	549.403687
2743.795585	17471.878167	624.218750	630.261475
2743.795585	17471.878167	622.992188	421.649933
2743.795585	17471.878167	621.764648	608.921753
2743.795585	17471.878167	620.537109	309.933380
2743.795585	17471.878167	619.309570	242.013199
2743.795585	17471.878167	618.081055	115.854736
2743.795585	17471.878167	616.852539	373.173004
2743.795585	17471.878167	615.624023	257.019989
2743.795585	17471.878167	614.395508	299.424225
2743.795585	17471.878167	613.166992	48.861549
2743.795585	17471.878167	611.937500	17.019642
2743.795585	17471.878167	610.708008	235.852921
2743.795585	17471.878167	609.477539	147.794174
2743.795585	17471.878167	608.248047	174.022598
2743.795585	17471.878167	607.017578	310.446503
2743.795585	17471.878167	605.787109	94.131691
2743.795585	17471.878167	604.555664	40.157467
2743.795585	17471.878167	603.325195	-57.866177
2743.795585	17471.878167	602.093750	2.329351
2743.795585	17471.878167	600.861328	-71.656990
2743.795585	17471.878167	599.629883	74.563194
2743.795585	17471.878167	598.397461	-113.496407
2743.795585	17471.878167	597.165039	-11.369414
2743.795585	17471.878167	595.932617	-53.319122
2743.795585	17471.878167	594.699219	-99.261337
2743.795585	17471.878167	593.465820	-43.213058
2743.795585	17471.878167	592.232422	-145.119186
2743.795585	17471.878167	590.999023	-111.074043
2743.795585	17471.878167	589.764648	-202.937729
2743.795585	17471.878167	588.530273	-164.902039
2743.795585	17471.878167	587.295898	28.915304
2743.795585	17471.878167	586.061523	-58.915939
2743.795585	17471.878167	584.826172	194.697296
2743.795585	17471.878167	583.590820	254.586655
2743.795585	17471.878167	582.355469	94.935204
2743.795585	17471.878167	581.119141	88.990341
2743.795585	17471.878167	579.882813	216.713577
2743.795585	17471.878167	578.646484	25.290915
2743.795585	17471.878167	577.410156	47.319473
2743.795585	17471.878167	576.172852	37.452965
2743.795585	17471.878167	574.935547	292.692902
2743.795585	17471.878167	573.698242	338.610016
2743.795585	17471.878167	572.460938	261.005554
2743.795585	17471.878167	571.222656	502.147552
2743.795585	17471.878167	569.984375	275.222992
2743.795585	17471.878167	568.746094	211.683472
2743.795585	17471.878167	567.506836	237.766800
2743.795585	17471.878167	566.267578	166.348358
2743.795585	17471.878167	565.028320	218.353378
2743.795585	17471.878167	563.789063	152.996140
2743.795585	17471.878167	562.548828	127.471558
2743.795585	17471.878167	561.309570	255.106827
2743.795585	17471.878167	560.068359	263.429352
2743.795585	17471.878167	558.828125	293.653717
2743.795585	17471.878167	557.586914	246.397003
2743.795585	17471.878167	556.345703	-9.411004
2743.795585	17471.878167	555.104492	76.579659
2743.795585	17471.878167	553.863281	178.461105
2743.795585	17471.878167	552.621094	232.685303
2743.795585	17471.878167	551.378906	239.289230
2743.795585	17471.878167	550.136719	13.733170
2743.795585	17471.878167	548.893555	-19.216429
2743.795585	17471.878167	547.650391	-131.456299
2743.795585	17471.878167	546.407227	53.904419
2743.795585	17471.878167	545.164063	-32.425087
2743.795585	17471.878167	543.919922	-59.196800
2743.795585	17471.878167	542.675781	132.124908
2743.795585	17471.878167	541.431641	101.472816
2743.795585	17471.878167	540.186523	102.584251
2743.795585	17471.878167	538.941406	202.791534
2743.795585	17471.878167	537.696289	-73.260750
2743.795585	17471.878167	536.451172	128.033920
2743.795585	17471.878167	535.205078	52.162945
2743.795585	17471.878167	533.959961	-17.673630
2743.795585	17471.878167	532.712891	-170.533981
2743.795585	17471.878167	531.466797	56.565727
2743.795585	17471.878167	530.219727	-30.850698
2743.795585	17471.878167	528.972656	119.124596
2743.795585	17471.878167	527.725586	-80.825928
2743.795585	17471.878167	526.478516	59.343403
2743.795585	17471.878167	525.230469	73.042061
2743.795585	17471.878167	523.982422	315.985168
2743.795585	17471.878167	522.734375	21.612822
2743.795585	17471.878167	521.485352	-130.378342
2743.795585	17471.878167	520.236328	-27.531307
2743.795585	17471.878167	518.987305	-149.697113
2743.795585	17471.878167	517.737305	42.058224
2743.795585	17471.878167	516.488281	28.595758
2743.795585	17471.878167	515.238281	-12.411428
2743.795585	17471.878167	513.988281	-11.910150
2743.795585	17471.878167	512.737305	-3.453702
2743.795585	17471.878167	511.486328	-101.388527
2743.795585	17471.878167	510.235352	-90.799408
2743.795585	17471.878167	508.984375	-76.200859
2743.795585	17471.878167	507.732422	-154.139328
2743.795585	17471.878167	506.480469	-92.115997
2743.795585	17471.878167	505.228516	-33.984440
2743.795585	17471.878167	503.976563	-95.910774
2743.795585	17471.878167	502.723633	-2.227576
2743.795585	17471.878167	501.470703	-67.926765
2743.795585	17471.878167	500.217773	-251.585785
2743.795585	17471.878167	498.963867	5.566274
2743.795585	17471.878167	497.709961	-144.452133
2743.795585	17471.878167	496.456055	75.348701
2743.795585	17471.878167	495.202148	-151.150925
2743.795585	17471.878167	493.947266	-112.136200
2743.795585	17471.878167	492.692383	-175.254272
2743.795585	17471.878167	491.437500	-33.947327
2743.795585	17471.878167	490.181641	-20.313730
2743.795585	17471.878167	488.926758	-134.266891
2743.795585	17471.878167	487.670898	16.956266
2743.795585	17471.878167	486.414063	97.509048
2743.795585	17471.878167	485.158203	-6.390691
2743.795585	17471.878167	483.901367	180.216446
2743.795585	17471.878167	482.644531	164.743759
2743.795585	17471.878167	481.386719	108.148300
2743.795585	17471.878167	480.128906	210.469025
2743.795585	17471.878167	478.871094	195.173996
2743.795585	17471.878167	477.613281	79.977219
2743.795585	17471.878167	476.355469	174.564316
2743.795585	17471.878167	475.096680	120.259254
2743.795585	17471.878167	473.837891	67.986015
2743.795585	17471.878167	472.578125	115.657288
2743.795585	17471.878167	471.319336	-53.976978
2743.795585	17471.878167	470.059570	-51.235859
2743.795585	17471.878167	468.799805	-11.271171
2743.795585	17471.878167	467.539063	-22.161753
2743.795585	17471.878167	466.278320	17.849445
2743.795585	17471.878167	465.017578	32.448975
2743.795585	17471.878167	463.756836	52.937519
2743.795585	17471.878167	462.495117	190.739761
2743.795585	17471.878167	461.233398	187.777176
2743.795585	17471.878167	459.971680	212.191864
2743.795585	17471.878167	458.709961	154.555481
2743.795585	17471.878167	457.447266	309.862518
2743.795585	17471.878167	456.184570	187.803421
2743.795585	17471.878167	454.921875	110.707207
2743.795585	17471.878167	453.658203	189.804321
2743.795585	17471.878167	452.394531	83.460472
2743.795585	17471.878167	451.130859	84.469124
2743.795585	17471.878167	449.867188	173.248581
2743.795585	17471.878167	448.602539	193.707367
2743.795585	17471.878167	447.337891	313.580688
2743.795585	17471.878167	446.073242	86.363586
2743.795585	17471.878167	444.807617	24.881954
2743.795585	17471.878167	443.542969	-22.970247
2743.795585	17471.878167	442.276367	81.113060
2743.795585	17471.878167	441.010742	301.972839
2743.795585	17471.878167	439.744141	197.464462
2743.795585	17471.878167	438.478516	264.275452
2743.795585	17471.878167	437.210938	311.520264
2743.795585	17471.878167	435.944336	286.665588
2743.795585	17471.878167	434.676758	88.570633
2743.795585	17471.878167	433.409180	238.679031
2743.795585	17471.878167	432.141602	435.304138
2743.795585	17471.878167	430.873047	308.963715
2743.795585	17471.878167	429.604492	151.463257
2743.795585	17471.878167	428.335938	293.227875
2743.795585	17471.878167	427.067383	96.694160
2743.795585	17471.878167	425.797852	282.831787
2743.795585	17471.878167	424.528320	260.918488
2743.795585	17471.878167	423.258789	139.826736
2743.795585	17471.878167	421.988281	76.870918
2743.795585	17471.878167	420.717773	56.478821
2743.795585	17471.878167	419.447266	51.445126
2743.795585	17471.878167	418.175781	65.625130
2743.795585	17471.878167	416.905273	178.537964
2743.795585	17471.878167	415.633789	62.344254
2743.795585	17471.878167	414.362305	116.615814
2743.795585	17471.878167	413.089844	-15.467466
2743.795585	17471.878167	411.817383	75.154327
2743.795585	17471.878167	410.544922	128.673660
2743.795585	17471.878167	409.272461	50.175331
2743.795585	17471.878167	407.999023	161.249557
2743.795585	17471.878167	406.725586	128.697174
2743.795585	17471.878167	405.452148	281.723328
2743.795585	17471.878167	404.177734	302.750763
2743.795585	17471.878167	402.903320	335.062531
2743.795585	17471.878167	401.628906	258.682343
2743.795585	17471.878167	400.354492	255.495865
2743.795585	17471.878167	399.079102	186.194214
2743.795585	17471.878167	397.803711	251.897278
2743.795585	17471.878167	396.528320	166.405914
2743.795585	17471.878167	395.251953	327.926086
2743.795585	17471.878167	393.976563	102.522148
2743.795585	17471.878167	392.700195	166.553604
2743.795585	17471.878167	391.422852	-19.047070
2743.795585	17471.878167	390.145508	171.516724
2743.795585	17471.878167	388.869141	-1.414340
2743.795585	17471.878167	387.590820	29.815071
2743.795585	17471.878167	386.313477	153.160461
2743.795585	17471.878167	385.035156	-52.063831
2743.795585	17471.878167	383.756836	70.170410
2743.795585	17471.878167	382.478516	8.588396
2743.795585	17471.878167	381.199219	-1.497247
2743.795585	17471.878167	379.919922	64.931183
2743.795585	17471.878167	378.640625	-88.984161
2743.795585	17471.878167	377.360352	-239.623535
2743.795585	17471.878167	376.080078	-121.157402
2743.795585	17471.878167	374.799805	-61.192753
2743.795585	17471.878167	373.519531	103.959015
2743.795585	17471.878167	372.238281	-58.955952
2743.795585	17471.878167	370.957031	-110.900597
2743.795585	17471.878167	369.675781	169.324295
2743.795585	17471.878167	368.394531	40.794483
2743.795585	17471.878167	367.112305	-38.484005
2743.795585	17471.878167	365.830078	-28.164835
2743.795585	17471.878167	364.546875	-199.435471
2743.795585	17471.878167	363.264648	7.191522
2743.795585	17471.878167	361.981445	55.236790
2743.795585	17471.878167	360.698242	231.077850
2743.795585	17471.878167	359.414063	-3.273014
2743.795585	17471.878167	358.129883	-159.743454
2743.795585	17471.878167	356.845703	16.961344
2743.795585	17471.878167	355.561523	148.424881
2743.795585	17471.878167	354.276367	-22.556202
2743.795585	17471.878167	352.991211	-183.015793
2743.795585	17471.878167	351.706055	102.492538
2743.795585	17471.878167	350.420898	93.302513
2743.795585	17471.878167	349.134766	-18.691788
2743.795585	17471.878167	347.848633	50.316040
2743.795585	17471.878167	346.561523	185.144104
2743.795585	17471.878167	345.275391	2.512206
2743.795585	17471.878167	343.988281	107.966492
2743.795585	17471.878167	342.700195	158.411194
2743.795585	17471.878167	341.413086	-163.984283
2743.795585	17471.878167	340.125000	328.010315
2743.795585	17471.878167	338.836914	10.591246
2743.795585	17471.878167	337.548828	-11.470112
2743.795585	17471.878167	336.259766	146.757416
2743.795585	17471.878167	334.970703	163.777298
2743.795585	17471.878167	333.681641	-36.855427
2743.795585	17471.878167	332.391602	-154.864960
2743.795585	17471.878167	331.101563	107.927765
2743.795585	17471.878167	329.811523	130.061569
2743.795585	17471.878167	328.521484	77.904877
2743.795585	17471.878167	327.230469	18.291838
2743.795585	17471.878167	325.939453	144.149277
2743.795585	17471.878167	324.648438	-54.557373
2743.795585	17471.878167	323.356445	-52.665634
2743.795585	17471.878167	322.064453	25.629490
2743.795585	17471.878167	320.772461	-130.831314
2743.795585	17471.878167	319.480469	67.631973
2743.795585	17471.878167	318.187500	77.035164
2743.795585	17471.878167	316.894531	-83.415039
2743.795585	17471.878167	315.601563	242.266266
2743.795585	17471.878167	314.307617	230.129517
2743.795585	17471.878167	313.013672	-64.318039
2743.795585	17471.878167	311.719727	159.367645
2743.795585	17471.878167	310.425781	119.724754
2743.795585	17471.878167	309.130859	-186.994324
2743.795585	17471.878167	307.835938	119.157127
2743.795585	17471.878167	306.541016	-89.325539
2743.795585	17471.878167	305.245117	-275.466705
2743.795585	17471.878167	303.949219	125.924835
2743.795585	17471.878167	302.653320	372.416687
2743.795585	17471.878167	301.356445	256.648834
2743.795585	17471.878167	300.060547	324.760590
2743.795585	17471.878167	298.763672	329.250610
