#X		#Y		#Wave		#Intensity
2834.897606	17457.922667	2000.043945	-21.450737
2834.897606	17457.922667	1999.080078	-28.897362
2834.897606	17457.922667	1998.116211	-12.967365
2834.897606	17457.922667	1997.151367	32.526073
2834.897606	17457.922667	1996.186523	55.538155
2834.897606	17457.922667	1995.222656	150.219467
2834.897606	17457.922667	1994.256836	-64.883415
2834.897606	17457.922667	1993.291992	-2.710032
2834.897606	17457.922667	1992.327148	14.729773
2834.897606	17457.922667	1991.361328	123.613930
2834.897606	17457.922667	1990.395508	-25.071760
2834.897606	17457.922667	1989.429688	-35.262039
2834.897606	17457.922667	1988.463867	-60.419594
2834.897606	17457.922667	1987.497070	55.304474
2834.897606	17457.922667	1986.531250	-113.539963
2834.897606	17457.922667	1985.564453	88.462242
2834.897606	17457.922667	1984.597656	82.615921
2834.897606	17457.922667	1983.630859	247.216217
2834.897606	17457.922667	1982.664063	-8.461868
2834.897606	17457.922667	1981.696289	29.883936
2834.897606	17457.922667	1980.728516	-89.981010
2834.897606	17457.922667	1979.761719	207.520950
2834.897606	17457.922667	1978.792969	-73.022591
2834.897606	17457.922667	1977.825195	73.588264
2834.897606	17457.922667	1976.857422	178.100464
2834.897606	17457.922667	1975.888672	-45.755062
2834.897606	17457.922667	1974.919922	-0.631411
2834.897606	17457.922667	1973.951172	-19.740685
2834.897606	17457.922667	1972.982422	74.558441
2834.897606	17457.922667	1972.013672	163.825668
2834.897606	17457.922667	1971.043945	-15.770369
2834.897606	17457.922667	1970.075195	174.439880
2834.897606	17457.922667	1969.105469	130.362778
2834.897606	17457.922667	1968.135742	64.069305
2834.897606	17457.922667	1967.165039	59.348667
2834.897606	17457.922667	1966.195313	103.852455
2834.897606	17457.922667	1965.224609	25.143082
2834.897606	17457.922667	1964.253906	72.011139
2834.897606	17457.922667	1963.283203	212.381851
2834.897606	17457.922667	1962.312500	217.271683
2834.897606	17457.922667	1961.341797	111.370850
2834.897606	17457.922667	1960.370117	86.678741
2834.897606	17457.922667	1959.399414	-11.842463
2834.897606	17457.922667	1958.427734	-31.644049
2834.897606	17457.922667	1957.455078	54.286114
2834.897606	17457.922667	1956.483398	147.536163
2834.897606	17457.922667	1955.511719	159.599243
2834.897606	17457.922667	1954.539063	4.491304
2834.897606	17457.922667	1953.566406	6.702753
2834.897606	17457.922667	1952.593750	-96.759384
2834.897606	17457.922667	1951.621094	119.159691
2834.897606	17457.922667	1950.647461	-45.723106
2834.897606	17457.922667	1949.674805	93.949730
2834.897606	17457.922667	1948.701172	110.794243
2834.897606	17457.922667	1947.727539	49.067204
2834.897606	17457.922667	1946.753906	65.891991
2834.897606	17457.922667	1945.780273	-133.239441
2834.897606	17457.922667	1944.805664	-23.174633
2834.897606	17457.922667	1943.831055	-30.900154
2834.897606	17457.922667	1942.856445	22.684208
2834.897606	17457.922667	1941.881836	127.737686
2834.897606	17457.922667	1940.907227	-7.507773
2834.897606	17457.922667	1939.932617	14.167019
2834.897606	17457.922667	1938.957031	97.097786
2834.897606	17457.922667	1937.981445	-104.229164
2834.897606	17457.922667	1937.005859	-114.399460
2834.897606	17457.922667	1936.030273	51.785400
2834.897606	17457.922667	1935.054688	46.490170
2834.897606	17457.922667	1934.078125	124.442444
2834.897606	17457.922667	1933.101563	-25.290157
2834.897606	17457.922667	1932.125000	167.684540
2834.897606	17457.922667	1931.148438	-84.768661
2834.897606	17457.922667	1930.171875	-151.183975
2834.897606	17457.922667	1929.194336	-39.004875
2834.897606	17457.922667	1928.217773	-110.284973
2834.897606	17457.922667	1927.240234	38.533539
2834.897606	17457.922667	1926.262695	87.067780
2834.897606	17457.922667	1925.284180	-55.066307
2834.897606	17457.922667	1924.306641	69.238602
2834.897606	17457.922667	1923.328125	51.786327
2834.897606	17457.922667	1922.350586	-14.509770
2834.897606	17457.922667	1921.372070	-22.156954
2834.897606	17457.922667	1920.392578	136.262390
2834.897606	17457.922667	1919.414063	6.526253
2834.897606	17457.922667	1918.434570	64.809914
2834.897606	17457.922667	1917.456055	47.420059
2834.897606	17457.922667	1916.476563	39.802963
2834.897606	17457.922667	1915.497070	220.056244
2834.897606	17457.922667	1914.516602	-9.552097
2834.897606	17457.922667	1913.537109	77.981720
2834.897606	17457.922667	1912.556641	-0.321384
2834.897606	17457.922667	1911.576172	-27.392263
2834.897606	17457.922667	1910.595703	69.864113
2834.897606	17457.922667	1909.615234	-27.869850
2834.897606	17457.922667	1908.633789	23.066811
2834.897606	17457.922667	1907.653320	3.345089
2834.897606	17457.922667	1906.671875	227.199219
2834.897606	17457.922667	1905.690430	66.215233
2834.897606	17457.922667	1904.708984	53.814686
2834.897606	17457.922667	1903.727539	-38.907570
2834.897606	17457.922667	1902.745117	-24.504061
2834.897606	17457.922667	1901.762695	58.032047
2834.897606	17457.922667	1900.780273	23.760878
2834.897606	17457.922667	1899.797852	40.587261
2834.897606	17457.922667	1898.815430	-183.358887
2834.897606	17457.922667	1897.832031	83.952332
2834.897606	17457.922667	1896.849609	32.693039
2834.897606	17457.922667	1895.866211	5.758960
2834.897606	17457.922667	1894.882813	93.054214
2834.897606	17457.922667	1893.898438	-9.203839
2834.897606	17457.922667	1892.915039	104.782799
2834.897606	17457.922667	1891.930664	65.708618
2834.897606	17457.922667	1890.947266	-191.905258
2834.897606	17457.922667	1889.962891	24.016983
2834.897606	17457.922667	1888.977539	-22.311438
2834.897606	17457.922667	1887.993164	67.286827
2834.897606	17457.922667	1887.007813	35.518864
2834.897606	17457.922667	1886.023438	20.741209
2834.897606	17457.922667	1885.038086	5.962182
2834.897606	17457.922667	1884.051758	-8.819414
2834.897606	17457.922667	1883.066406	-120.590317
2834.897606	17457.922667	1882.081055	65.858810
2834.897606	17457.922667	1881.094727	-70.140648
2834.897606	17457.922667	1880.108398	-80.083168
2834.897606	17457.922667	1879.122070	123.185287
2834.897606	17457.922667	1878.135742	-32.158791
2834.897606	17457.922667	1877.148438	-30.027269
2834.897606	17457.922667	1876.162109	141.601959
2834.897606	17457.922667	1875.174805	78.304817
2834.897606	17457.922667	1874.187500	68.271904
2834.897606	17457.922667	1873.199219	-41.001507
2834.897606	17457.922667	1872.211914	-101.853592
2834.897606	17457.922667	1871.223633	-104.637756
2834.897606	17457.922667	1870.236328	-49.385002
2834.897606	17457.922667	1869.248047	-40.121647
2834.897606	17457.922667	1868.258789	2.968812
2834.897606	17457.922667	1867.270508	108.879387
2834.897606	17457.922667	1866.282227	120.465607
2834.897606	17457.922667	1865.292969	112.691322
2834.897606	17457.922667	1864.303711	-23.156099
2834.897606	17457.922667	1863.314453	63.265270
2834.897606	17457.922667	1862.324219	-135.366440
2834.897606	17457.922667	1861.334961	13.777951
2834.897606	17457.922667	1860.344727	49.366543
2834.897606	17457.922667	1859.354492	41.465603
2834.897606	17457.922667	1858.364258	-60.581959
2834.897606	17457.922667	1857.374023	126.933441
2834.897606	17457.922667	1856.383789	-4.099876
2834.897606	17457.922667	1855.392578	118.147873
2834.897606	17457.922667	1854.401367	-0.839441
2834.897606	17457.922667	1853.410156	-100.525063
2834.897606	17457.922667	1852.418945	-151.992371
2834.897606	17457.922667	1851.426758	-54.042057
2834.897606	17457.922667	1850.435547	7.691781
2834.897606	17457.922667	1849.443359	112.733070
2834.897606	17457.922667	1848.451172	17.762657
2834.897606	17457.922667	1847.458984	240.701080
2834.897606	17457.922667	1846.466797	71.020653
2834.897606	17457.922667	1845.473633	-93.822212
2834.897606	17457.922667	1844.480469	131.299759
2834.897606	17457.922667	1843.487305	28.998549
2834.897606	17457.922667	1842.494141	150.466187
2834.897606	17457.922667	1841.500977	38.493347
2834.897606	17457.922667	1840.506836	22.726709
2834.897606	17457.922667	1839.513672	86.282066
2834.897606	17457.922667	1838.519531	19.932528
2834.897606	17457.922667	1837.525391	119.429718
2834.897606	17457.922667	1836.530273	122.703339
2834.897606	17457.922667	1835.536133	166.781677
2834.897606	17457.922667	1834.541016	162.741699
2834.897606	17457.922667	1833.545898	96.200462
2834.897606	17457.922667	1832.550781	29.634239
2834.897606	17457.922667	1831.555664	195.955826
2834.897606	17457.922667	1830.560547	6.857336
2834.897606	17457.922667	1829.564453	57.801392
2834.897606	17457.922667	1828.568359	192.666534
2834.897606	17457.922667	1827.572266	159.472031
2834.897606	17457.922667	1826.576172	61.464718
2834.897606	17457.922667	1825.580078	143.323059
2834.897606	17457.922667	1824.583008	225.091003
2834.897606	17457.922667	1823.585938	102.979889
2834.897606	17457.922667	1822.588867	-64.688217
2834.897606	17457.922667	1821.591797	-100.535606
2834.897606	17457.922667	1820.594727	-35.788551
2834.897606	17457.922667	1819.596680	-21.439962
2834.897606	17457.922667	1818.599609	-102.965080
2834.897606	17457.922667	1817.601563	-64.782684
2834.897606	17457.922667	1816.603516	66.704758
2834.897606	17457.922667	1815.604492	47.258041
2834.897606	17457.922667	1814.606445	37.333099
2834.897606	17457.922667	1813.607422	51.274376
2834.897606	17457.922667	1812.608398	79.501472
2834.897606	17457.922667	1811.609375	66.985939
2834.897606	17457.922667	1810.610352	73.542625
2834.897606	17457.922667	1809.610352	10.681030
2834.897606	17457.922667	1808.611328	17.112278
2834.897606	17457.922667	1807.611328	13.907670
2834.897606	17457.922667	1806.611328	-63.449776
2834.897606	17457.922667	1805.610352	71.806549
2834.897606	17457.922667	1804.610352	65.997696
2834.897606	17457.922667	1803.609375	55.339039
2834.897606	17457.922667	1802.608398	-43.744225
2834.897606	17457.922667	1801.607422	98.286964
2834.897606	17457.922667	1800.606445	53.994125
2834.897606	17457.922667	1799.605469	138.528168
2834.897606	17457.922667	1798.603516	106.025887
2834.897606	17457.922667	1797.601563	-103.086601
2834.897606	17457.922667	1796.599609	-83.200378
2834.897606	17457.922667	1795.597656	48.694397
2834.897606	17457.922667	1794.595703	-62.749378
2834.897606	17457.922667	1793.592773	157.143890
2834.897606	17457.922667	1792.589844	-54.543060
2834.897606	17457.922667	1791.587891	-154.215942
2834.897606	17457.922667	1790.583984	72.484467
2834.897606	17457.922667	1789.581055	25.074678
2834.897606	17457.922667	1788.577148	91.923904
2834.897606	17457.922667	1787.574219	84.855293
2834.897606	17457.922667	1786.570313	-69.906273
2834.897606	17457.922667	1785.566406	49.056534
2834.897606	17457.922667	1784.561523	1.294247
2834.897606	17457.922667	1783.557617	-3.692597
2834.897606	17457.922667	1782.552734	67.366257
2834.897606	17457.922667	1781.547852	-56.725788
2834.897606	17457.922667	1780.542969	-64.322487
2834.897606	17457.922667	1779.538086	-7.799544
2834.897606	17457.922667	1778.532227	-32.210331
2834.897606	17457.922667	1777.527344	-75.701279
2834.897606	17457.922667	1776.521484	4.306114
2834.897606	17457.922667	1775.515625	53.315014
2834.897606	17457.922667	1774.508789	54.708332
2834.897606	17457.922667	1773.502930	-48.473179
2834.897606	17457.922667	1772.496094	2.639924
2834.897606	17457.922667	1771.489258	-41.311630
2834.897606	17457.922667	1770.482422	85.571953
2834.897606	17457.922667	1769.475586	41.456097
2834.897606	17457.922667	1768.467773	73.194031
2834.897606	17457.922667	1767.460938	55.026730
2834.897606	17457.922667	1766.453125	-20.147903
2834.897606	17457.922667	1765.445313	-19.492805
2834.897606	17457.922667	1764.437500	-139.838089
2834.897606	17457.922667	1763.428711	-4.218535
2834.897606	17457.922667	1762.420898	216.593994
2834.897606	17457.922667	1761.412109	233.449326
2834.897606	17457.922667	1760.403320	13.303627
2834.897606	17457.922667	1759.393555	-33.937706
2834.897606	17457.922667	1758.384766	20.596224
2834.897606	17457.922667	1757.375000	34.766396
2834.897606	17457.922667	1756.366211	93.834190
2834.897606	17457.922667	1755.356445	-126.501320
2834.897606	17457.922667	1754.345703	112.238243
2834.897606	17457.922667	1753.335938	173.365051
2834.897606	17457.922667	1752.325195	61.694946
2834.897606	17457.922667	1751.315430	-21.627045
2834.897606	17457.922667	1750.304688	-74.268768
2834.897606	17457.922667	1749.292969	168.536804
2834.897606	17457.922667	1748.282227	165.350723
2834.897606	17457.922667	1747.270508	6.098950
2834.897606	17457.922667	1746.259766	52.398064
2834.897606	17457.922667	1745.248047	37.166916
2834.897606	17457.922667	1744.235352	106.878647
2834.897606	17457.922667	1743.223633	79.670830
2834.897606	17457.922667	1742.211914	-34.965595
2834.897606	17457.922667	1741.199219	143.059174
2834.897606	17457.922667	1740.186523	-4.759805
2834.897606	17457.922667	1739.173828	206.063126
2834.897606	17457.922667	1738.160156	10.932996
2834.897606	17457.922667	1737.147461	13.939999
2834.897606	17457.922667	1736.133789	16.856247
2834.897606	17457.922667	1735.120117	121.078621
2834.897606	17457.922667	1734.106445	93.166565
2834.897606	17457.922667	1733.091797	223.091187
2834.897606	17457.922667	1732.078125	72.473297
2834.897606	17457.922667	1731.063477	-87.600746
2834.897606	17457.922667	1730.048828	20.846458
2834.897606	17457.922667	1729.034180	115.042366
2834.897606	17457.922667	1728.019531	39.586033
2834.897606	17457.922667	1727.003906	154.764648
2834.897606	17457.922667	1725.988281	-38.525620
2834.897606	17457.922667	1724.972656	3.515989
2834.897606	17457.922667	1723.957031	17.230272
2834.897606	17457.922667	1722.941406	122.608925
2834.897606	17457.922667	1721.924805	-9.691036
2834.897606	17457.922667	1720.909180	-43.240032
2834.897606	17457.922667	1719.892578	38.342323
2834.897606	17457.922667	1718.875977	-213.972519
2834.897606	17457.922667	1717.858398	-15.037544
2834.897606	17457.922667	1716.841797	-13.620329
2834.897606	17457.922667	1715.824219	161.560867
2834.897606	17457.922667	1714.806641	-22.770712
2834.897606	17457.922667	1713.789063	-54.457764
2834.897606	17457.922667	1712.770508	141.536133
2834.897606	17457.922667	1711.752930	58.042698
2834.897606	17457.922667	1710.734375	28.482281
2834.897606	17457.922667	1709.715820	310.961273
2834.897606	17457.922667	1708.697266	88.841179
2834.897606	17457.922667	1707.678711	-6.594668
2834.897606	17457.922667	1706.659180	191.083389
2834.897606	17457.922667	1705.640625	-195.225189
2834.897606	17457.922667	1704.621094	145.284958
2834.897606	17457.922667	1703.600586	70.716423
2834.897606	17457.922667	1702.581055	132.042740
2834.897606	17457.922667	1701.561523	139.392227
2834.897606	17457.922667	1700.541016	137.293396
2834.897606	17457.922667	1699.520508	413.842102
2834.897606	17457.922667	1698.500000	404.540039
2834.897606	17457.922667	1697.478516	182.118744
2834.897606	17457.922667	1696.458008	193.808304
2834.897606	17457.922667	1695.436523	294.352661
2834.897606	17457.922667	1694.415039	369.060913
2834.897606	17457.922667	1693.393555	520.880615
2834.897606	17457.922667	1692.372070	235.200211
2834.897606	17457.922667	1691.349609	372.829590
2834.897606	17457.922667	1690.327148	414.487732
2834.897606	17457.922667	1689.304688	638.407898
2834.897606	17457.922667	1688.282227	413.453156
2834.897606	17457.922667	1687.259766	660.544312
2834.897606	17457.922667	1686.236328	550.027100
2834.897606	17457.922667	1685.213867	808.569885
2834.897606	17457.922667	1684.190430	639.578186
2834.897606	17457.922667	1683.166016	638.701172
2834.897606	17457.922667	1682.142578	658.796936
2834.897606	17457.922667	1681.119141	788.533447
2834.897606	17457.922667	1680.094727	558.791443
2834.897606	17457.922667	1679.070313	674.389160
2834.897606	17457.922667	1678.045898	696.589233
2834.897606	17457.922667	1677.020508	665.081787
2834.897606	17457.922667	1675.996094	745.477417
2834.897606	17457.922667	1674.970703	597.316772
2834.897606	17457.922667	1673.945313	719.550049
2834.897606	17457.922667	1672.919922	685.555237
2834.897606	17457.922667	1671.893555	509.392487
2834.897606	17457.922667	1670.868164	680.366089
2834.897606	17457.922667	1669.841797	676.541687
2834.897606	17457.922667	1668.815430	765.823975
2834.897606	17457.922667	1667.789063	685.078064
2834.897606	17457.922667	1666.761719	627.590637
2834.897606	17457.922667	1665.735352	730.682922
2834.897606	17457.922667	1664.708008	610.312866
2834.897606	17457.922667	1663.680664	745.856079
2834.897606	17457.922667	1662.653320	513.818298
2834.897606	17457.922667	1661.625000	698.083740
2834.897606	17457.922667	1660.597656	875.284546
2834.897606	17457.922667	1659.569336	601.406738
2834.897606	17457.922667	1658.541016	831.940186
2834.897606	17457.922667	1657.512695	613.886902
2834.897606	17457.922667	1656.483398	774.562622
2834.897606	17457.922667	1655.455078	914.257935
2834.897606	17457.922667	1654.425781	856.463501
2834.897606	17457.922667	1653.396484	937.978943
2834.897606	17457.922667	1652.366211	873.176636
2834.897606	17457.922667	1651.336914	1072.982056
2834.897606	17457.922667	1650.306641	1003.494080
2834.897606	17457.922667	1649.276367	1029.135620
2834.897606	17457.922667	1648.246094	1010.675232
2834.897606	17457.922667	1647.215820	982.926514
2834.897606	17457.922667	1646.185547	1261.244995
2834.897606	17457.922667	1645.154297	1351.644409
2834.897606	17457.922667	1644.123047	1180.078979
2834.897606	17457.922667	1643.091797	1205.542847
2834.897606	17457.922667	1642.060547	1221.716797
2834.897606	17457.922667	1641.028320	1265.656616
2834.897606	17457.922667	1639.997070	1344.323242
2834.897606	17457.922667	1638.964844	1661.441406
2834.897606	17457.922667	1637.931641	1515.385376
2834.897606	17457.922667	1636.899414	1603.176636
2834.897606	17457.922667	1635.867188	1635.385376
2834.897606	17457.922667	1634.833984	1681.444702
2834.897606	17457.922667	1633.800781	1600.248047
2834.897606	17457.922667	1632.767578	1641.662720
2834.897606	17457.922667	1631.734375	1588.249268
2834.897606	17457.922667	1630.700195	1352.192749
2834.897606	17457.922667	1629.666016	1536.931396
2834.897606	17457.922667	1628.631836	1740.086548
2834.897606	17457.922667	1627.597656	1677.440430
2834.897606	17457.922667	1626.563477	1603.271606
2834.897606	17457.922667	1625.528320	1725.450439
2834.897606	17457.922667	1624.493164	1623.584229
2834.897606	17457.922667	1623.458008	1561.015015
2834.897606	17457.922667	1622.422852	1793.954712
2834.897606	17457.922667	1621.387695	1890.641724
2834.897606	17457.922667	1620.351563	2174.195557
2834.897606	17457.922667	1619.315430	1996.238281
2834.897606	17457.922667	1618.279297	2002.890991
2834.897606	17457.922667	1617.243164	2097.187988
2834.897606	17457.922667	1616.207031	2226.048340
2834.897606	17457.922667	1615.169922	2329.502930
2834.897606	17457.922667	1614.132813	2326.910645
2834.897606	17457.922667	1613.095703	2252.902588
2834.897606	17457.922667	1612.058594	2059.137207
2834.897606	17457.922667	1611.020508	2443.625732
2834.897606	17457.922667	1609.983398	2507.876953
2834.897606	17457.922667	1608.945313	2505.337402
2834.897606	17457.922667	1607.907227	2265.703125
2834.897606	17457.922667	1606.868164	2410.553467
2834.897606	17457.922667	1605.830078	2536.974854
2834.897606	17457.922667	1604.791016	2727.781738
2834.897606	17457.922667	1603.751953	2522.885742
2834.897606	17457.922667	1602.712891	2699.876953
2834.897606	17457.922667	1601.673828	2667.580566
2834.897606	17457.922667	1600.633789	2515.768066
2834.897606	17457.922667	1599.594727	2839.854736
2834.897606	17457.922667	1598.554688	2770.863037
2834.897606	17457.922667	1597.513672	2681.239258
2834.897606	17457.922667	1596.473633	2644.534424
2834.897606	17457.922667	1595.433594	2520.603516
2834.897606	17457.922667	1594.392578	2444.966309
2834.897606	17457.922667	1593.351563	2569.136230
2834.897606	17457.922667	1592.310547	2371.941406
2834.897606	17457.922667	1591.268555	2225.339600
2834.897606	17457.922667	1590.227539	2363.366455
2834.897606	17457.922667	1589.185547	2446.312988
2834.897606	17457.922667	1588.143555	2116.421143
2834.897606	17457.922667	1587.100586	2121.491455
2834.897606	17457.922667	1586.058594	1975.299438
2834.897606	17457.922667	1585.015625	1879.628174
2834.897606	17457.922667	1583.972656	2098.019531
2834.897606	17457.922667	1582.929688	2128.482910
2834.897606	17457.922667	1581.886719	1952.802124
2834.897606	17457.922667	1580.843750	1880.311646
2834.897606	17457.922667	1579.799805	1828.499634
2834.897606	17457.922667	1578.755859	1863.763916
2834.897606	17457.922667	1577.711914	1688.468994
2834.897606	17457.922667	1576.666992	1591.101685
2834.897606	17457.922667	1575.623047	1805.037598
2834.897606	17457.922667	1574.578125	1781.006836
2834.897606	17457.922667	1573.533203	1624.377686
2834.897606	17457.922667	1572.488281	1625.664917
2834.897606	17457.922667	1571.443359	1670.452393
2834.897606	17457.922667	1570.397461	1550.681641
2834.897606	17457.922667	1569.351563	1371.596680
2834.897606	17457.922667	1568.305664	1535.406616
2834.897606	17457.922667	1567.259766	1429.629883
2834.897606	17457.922667	1566.213867	1369.642334
2834.897606	17457.922667	1565.166992	1563.228638
2834.897606	17457.922667	1564.120117	1608.391235
2834.897606	17457.922667	1563.073242	1381.946533
2834.897606	17457.922667	1562.026367	1381.616211
2834.897606	17457.922667	1560.978516	1417.855835
2834.897606	17457.922667	1559.930664	1442.744995
2834.897606	17457.922667	1558.883789	1663.876221
2834.897606	17457.922667	1557.834961	1540.600830
2834.897606	17457.922667	1556.787109	1663.714844
2834.897606	17457.922667	1555.739258	1406.144897
2834.897606	17457.922667	1554.690430	1574.960327
2834.897606	17457.922667	1553.641602	1679.979370
2834.897606	17457.922667	1552.592773	1607.322876
2834.897606	17457.922667	1551.542969	1498.315430
2834.897606	17457.922667	1550.494141	1539.752808
2834.897606	17457.922667	1549.444336	1428.682983
2834.897606	17457.922667	1548.394531	1151.548462
2834.897606	17457.922667	1547.344727	1272.925293
2834.897606	17457.922667	1546.293945	1389.775146
2834.897606	17457.922667	1545.244141	1233.645874
2834.897606	17457.922667	1544.193359	1002.585083
2834.897606	17457.922667	1543.142578	1108.299683
2834.897606	17457.922667	1542.090820	1063.972290
2834.897606	17457.922667	1541.040039	840.159058
2834.897606	17457.922667	1539.988281	1248.399170
2834.897606	17457.922667	1538.936523	1140.702026
2834.897606	17457.922667	1537.884766	787.752014
2834.897606	17457.922667	1536.833008	884.814331
2834.897606	17457.922667	1535.780273	836.563477
2834.897606	17457.922667	1534.727539	831.567810
2834.897606	17457.922667	1533.674805	783.530212
2834.897606	17457.922667	1532.622070	851.366455
2834.897606	17457.922667	1531.569336	631.056641
2834.897606	17457.922667	1530.515625	776.219849
2834.897606	17457.922667	1529.461914	726.329346
2834.897606	17457.922667	1528.408203	812.638733
2834.897606	17457.922667	1527.354492	499.911377
2834.897606	17457.922667	1526.299805	688.438477
2834.897606	17457.922667	1525.246094	419.121979
2834.897606	17457.922667	1524.191406	596.454956
2834.897606	17457.922667	1523.136719	551.768433
2834.897606	17457.922667	1522.081055	468.680267
2834.897606	17457.922667	1521.026367	408.383484
2834.897606	17457.922667	1519.970703	278.004730
2834.897606	17457.922667	1518.915039	134.195984
2834.897606	17457.922667	1517.859375	51.662846
2834.897606	17457.922667	1516.802734	220.465942
2834.897606	17457.922667	1515.747070	169.833435
2834.897606	17457.922667	1514.690430	44.664410
2834.897606	17457.922667	1513.633789	166.184479
2834.897606	17457.922667	1512.577148	57.106064
2834.897606	17457.922667	1511.519531	169.736343
2834.897606	17457.922667	1510.461914	63.167767
2834.897606	17457.922667	1509.405273	-144.944122
2834.897606	17457.922667	1508.346680	19.944796
2834.897606	17457.922667	1507.289063	157.775711
2834.897606	17457.922667	1506.231445	-88.310081
2834.897606	17457.922667	1505.172852	-22.562460
2834.897606	17457.922667	1504.114258	13.917978
2834.897606	17457.922667	1503.055664	70.810371
2834.897606	17457.922667	1501.996094	-39.221802
2834.897606	17457.922667	1500.937500	-72.375259
2834.897606	17457.922667	1499.877930	-19.681774
2834.897606	17457.922667	1498.818359	-86.438789
2834.897606	17457.922667	1497.757813	-173.358414
2834.897606	17457.922667	1496.698242	84.832436
2834.897606	17457.922667	1495.637695	54.496368
2834.897606	17457.922667	1494.577148	-11.772936
2834.897606	17457.922667	1493.516602	-98.180222
2834.897606	17457.922667	1492.456055	90.405685
2834.897606	17457.922667	1491.394531	261.009583
2834.897606	17457.922667	1490.333008	64.596786
2834.897606	17457.922667	1489.271484	163.322830
2834.897606	17457.922667	1488.209961	345.413574
2834.897606	17457.922667	1487.148438	-3.587743
2834.897606	17457.922667	1486.085938	-28.317909
2834.897606	17457.922667	1485.023438	284.533447
2834.897606	17457.922667	1483.960938	233.001724
2834.897606	17457.922667	1482.898438	332.277557
2834.897606	17457.922667	1481.834961	202.299774
2834.897606	17457.922667	1480.772461	274.798920
2834.897606	17457.922667	1479.708984	372.120270
2834.897606	17457.922667	1478.644531	249.305313
2834.897606	17457.922667	1477.581055	328.868134
2834.897606	17457.922667	1476.517578	386.048492
2834.897606	17457.922667	1475.453125	243.460571
2834.897606	17457.922667	1474.388672	267.120575
2834.897606	17457.922667	1473.323242	436.880219
2834.897606	17457.922667	1472.258789	476.601990
2834.897606	17457.922667	1471.193359	671.007874
2834.897606	17457.922667	1470.127930	551.593933
2834.897606	17457.922667	1469.062500	618.290100
2834.897606	17457.922667	1467.997070	808.405884
2834.897606	17457.922667	1466.930664	673.862976
2834.897606	17457.922667	1465.865234	606.587952
2834.897606	17457.922667	1464.798828	783.648743
2834.897606	17457.922667	1463.731445	747.653137
2834.897606	17457.922667	1462.665039	868.731018
2834.897606	17457.922667	1461.597656	685.796692
2834.897606	17457.922667	1460.530273	699.557129
2834.897606	17457.922667	1459.462891	738.007507
2834.897606	17457.922667	1458.395508	790.322510
2834.897606	17457.922667	1457.327148	826.545898
2834.897606	17457.922667	1456.259766	722.201599
2834.897606	17457.922667	1455.191406	614.454346
2834.897606	17457.922667	1454.123047	606.396912
2834.897606	17457.922667	1453.053711	750.006165
2834.897606	17457.922667	1451.985352	817.750427
2834.897606	17457.922667	1450.916016	707.190613
2834.897606	17457.922667	1449.846680	718.400696
2834.897606	17457.922667	1448.776367	762.297180
2834.897606	17457.922667	1447.707031	746.178650
2834.897606	17457.922667	1446.636719	899.024780
2834.897606	17457.922667	1445.566406	858.930542
2834.897606	17457.922667	1444.496094	843.211243
2834.897606	17457.922667	1443.425781	699.103943
2834.897606	17457.922667	1442.354492	999.800293
2834.897606	17457.922667	1441.283203	754.302917
2834.897606	17457.922667	1440.211914	979.621277
2834.897606	17457.922667	1439.140625	828.343140
2834.897606	17457.922667	1438.069336	917.833496
2834.897606	17457.922667	1436.997070	910.973938
2834.897606	17457.922667	1435.924805	681.968628
2834.897606	17457.922667	1434.852539	882.034973
2834.897606	17457.922667	1433.780273	760.837830
2834.897606	17457.922667	1432.707031	683.700562
2834.897606	17457.922667	1431.633789	653.799500
2834.897606	17457.922667	1430.560547	663.728088
2834.897606	17457.922667	1429.487305	555.131470
2834.897606	17457.922667	1428.413086	610.841370
2834.897606	17457.922667	1427.339844	480.873322
2834.897606	17457.922667	1426.265625	415.499420
2834.897606	17457.922667	1425.191406	565.927368
2834.897606	17457.922667	1424.116211	408.998077
2834.897606	17457.922667	1423.041992	451.122650
2834.897606	17457.922667	1421.966797	451.011475
2834.897606	17457.922667	1420.891602	121.234184
2834.897606	17457.922667	1419.816406	258.302094
2834.897606	17457.922667	1418.740234	252.012527
2834.897606	17457.922667	1417.665039	249.651581
2834.897606	17457.922667	1416.588867	193.594681
2834.897606	17457.922667	1415.512695	65.994827
2834.897606	17457.922667	1414.435547	54.769878
2834.897606	17457.922667	1413.359375	92.094650
2834.897606	17457.922667	1412.282227	-12.438788
2834.897606	17457.922667	1411.205078	104.998871
2834.897606	17457.922667	1410.127930	241.531189
2834.897606	17457.922667	1409.049805	247.822571
2834.897606	17457.922667	1407.972656	356.608276
2834.897606	17457.922667	1406.894531	353.333893
2834.897606	17457.922667	1405.816406	373.702209
2834.897606	17457.922667	1404.737305	325.646545
2834.897606	17457.922667	1403.659180	311.544891
2834.897606	17457.922667	1402.580078	272.988129
2834.897606	17457.922667	1401.500977	285.208862
2834.897606	17457.922667	1400.421875	325.316895
2834.897606	17457.922667	1399.341797	247.705978
2834.897606	17457.922667	1398.262695	310.736420
2834.897606	17457.922667	1397.182617	534.409302
2834.897606	17457.922667	1396.102539	321.015198
2834.897606	17457.922667	1395.021484	148.403381
2834.897606	17457.922667	1393.941406	238.744812
2834.897606	17457.922667	1392.860352	52.048157
2834.897606	17457.922667	1391.779297	111.386826
2834.897606	17457.922667	1390.698242	330.123474
2834.897606	17457.922667	1389.616211	167.655579
2834.897606	17457.922667	1388.535156	236.024261
2834.897606	17457.922667	1387.453125	266.234161
2834.897606	17457.922667	1386.371094	340.433441
2834.897606	17457.922667	1385.288086	367.213226
2834.897606	17457.922667	1384.206055	380.451721
2834.897606	17457.922667	1383.123047	459.536194
2834.897606	17457.922667	1382.040039	299.459076
2834.897606	17457.922667	1380.957031	513.424683
2834.897606	17457.922667	1379.873047	552.985596
2834.897606	17457.922667	1378.789063	615.518738
2834.897606	17457.922667	1377.705078	577.577026
2834.897606	17457.922667	1376.621094	510.476196
2834.897606	17457.922667	1375.537109	521.185242
2834.897606	17457.922667	1374.452148	597.733643
2834.897606	17457.922667	1373.367188	540.576904
2834.897606	17457.922667	1372.282227	485.790497
2834.897606	17457.922667	1371.197266	466.095337
2834.897606	17457.922667	1370.112305	609.952515
2834.897606	17457.922667	1369.026367	669.289429
2834.897606	17457.922667	1367.940430	528.355103
2834.897606	17457.922667	1366.854492	754.772705
2834.897606	17457.922667	1365.767578	589.528503
2834.897606	17457.922667	1364.681641	695.679993
2834.897606	17457.922667	1363.594727	558.552002
2834.897606	17457.922667	1362.507813	601.347107
2834.897606	17457.922667	1361.419922	782.071411
2834.897606	17457.922667	1360.333008	638.622620
2834.897606	17457.922667	1359.245117	677.140503
2834.897606	17457.922667	1358.157227	680.948547
2834.897606	17457.922667	1357.069336	615.020447
2834.897606	17457.922667	1355.981445	681.127930
2834.897606	17457.922667	1354.892578	609.251953
2834.897606	17457.922667	1353.803711	678.578857
2834.897606	17457.922667	1352.714844	649.997498
2834.897606	17457.922667	1351.625000	715.682434
2834.897606	17457.922667	1350.536133	793.656921
2834.897606	17457.922667	1349.446289	748.312134
2834.897606	17457.922667	1348.356445	831.358398
2834.897606	17457.922667	1347.266602	1095.321289
2834.897606	17457.922667	1346.175781	933.377625
2834.897606	17457.922667	1345.085938	1088.375122
2834.897606	17457.922667	1343.995117	1043.095337
2834.897606	17457.922667	1342.903320	899.875366
2834.897606	17457.922667	1341.812500	1028.846802
2834.897606	17457.922667	1340.720703	1051.390015
2834.897606	17457.922667	1339.629883	1008.152893
2834.897606	17457.922667	1338.538086	1000.445862
2834.897606	17457.922667	1337.445313	976.452759
2834.897606	17457.922667	1336.353516	996.389404
2834.897606	17457.922667	1335.260742	999.430847
2834.897606	17457.922667	1334.167969	865.611694
2834.897606	17457.922667	1333.075195	1023.763000
2834.897606	17457.922667	1331.981445	985.328125
2834.897606	17457.922667	1330.888672	1012.212646
2834.897606	17457.922667	1329.794922	1158.424194
2834.897606	17457.922667	1328.701172	1331.306763
2834.897606	17457.922667	1327.606445	1482.948242
2834.897606	17457.922667	1326.512695	1427.328125
2834.897606	17457.922667	1325.417969	1638.833252
2834.897606	17457.922667	1324.323242	1817.390381
2834.897606	17457.922667	1323.227539	1979.627686
2834.897606	17457.922667	1322.132813	2037.272339
2834.897606	17457.922667	1321.037109	1867.025024
2834.897606	17457.922667	1319.941406	1974.395264
2834.897606	17457.922667	1318.845703	1767.566650
2834.897606	17457.922667	1317.750000	1781.117310
2834.897606	17457.922667	1316.653320	1620.635742
2834.897606	17457.922667	1315.556641	1618.141968
2834.897606	17457.922667	1314.459961	1566.688721
2834.897606	17457.922667	1313.363281	1429.618774
2834.897606	17457.922667	1312.265625	1497.169067
2834.897606	17457.922667	1311.167969	1304.953369
2834.897606	17457.922667	1310.070313	1229.639526
2834.897606	17457.922667	1308.972656	1101.839844
2834.897606	17457.922667	1307.874023	1047.683228
2834.897606	17457.922667	1306.776367	988.665771
2834.897606	17457.922667	1305.677734	896.208374
2834.897606	17457.922667	1304.579102	808.767151
2834.897606	17457.922667	1303.479492	729.680054
2834.897606	17457.922667	1302.380859	812.108032
2834.897606	17457.922667	1301.281250	734.815918
2834.897606	17457.922667	1300.181641	671.872986
2834.897606	17457.922667	1299.081055	576.719788
2834.897606	17457.922667	1297.981445	749.557190
2834.897606	17457.922667	1296.880859	685.834717
2834.897606	17457.922667	1295.780273	537.518066
2834.897606	17457.922667	1294.679688	633.423584
2834.897606	17457.922667	1293.578125	544.200073
2834.897606	17457.922667	1292.476563	633.068848
2834.897606	17457.922667	1291.375000	515.216431
2834.897606	17457.922667	1290.273438	647.056824
2834.897606	17457.922667	1289.171875	582.545166
2834.897606	17457.922667	1288.069336	547.135986
2834.897606	17457.922667	1286.966797	513.930420
2834.897606	17457.922667	1285.864258	518.699890
2834.897606	17457.922667	1284.761719	588.023560
2834.897606	17457.922667	1283.658203	608.933105
2834.897606	17457.922667	1282.554688	628.191772
2834.897606	17457.922667	1281.451172	685.387451
2834.897606	17457.922667	1280.347656	694.841309
2834.897606	17457.922667	1279.244141	820.068115
2834.897606	17457.922667	1278.139648	788.017639
2834.897606	17457.922667	1277.035156	653.967590
2834.897606	17457.922667	1275.930664	737.004944
2834.897606	17457.922667	1274.825195	556.295349
2834.897606	17457.922667	1273.720703	540.823853
2834.897606	17457.922667	1272.615234	421.644501
2834.897606	17457.922667	1271.508789	440.852081
2834.897606	17457.922667	1270.403320	575.873901
2834.897606	17457.922667	1269.297852	543.046631
2834.897606	17457.922667	1268.191406	425.371033
2834.897606	17457.922667	1267.084961	361.904938
2834.897606	17457.922667	1265.977539	261.627655
2834.897606	17457.922667	1264.871094	298.674438
2834.897606	17457.922667	1263.763672	249.510681
2834.897606	17457.922667	1262.656250	358.954010
2834.897606	17457.922667	1261.548828	395.859955
2834.897606	17457.922667	1260.440430	275.589600
2834.897606	17457.922667	1259.333008	284.620056
2834.897606	17457.922667	1258.224609	273.492859
2834.897606	17457.922667	1257.115234	291.165070
2834.897606	17457.922667	1256.006836	437.841370
2834.897606	17457.922667	1254.897461	324.021271
2834.897606	17457.922667	1253.788086	285.739288
2834.897606	17457.922667	1252.678711	242.555008
2834.897606	17457.922667	1251.569336	212.799561
2834.897606	17457.922667	1250.458984	188.262817
2834.897606	17457.922667	1249.349609	212.492218
2834.897606	17457.922667	1248.239258	52.496090
2834.897606	17457.922667	1247.127930	226.462982
2834.897606	17457.922667	1246.017578	185.756805
2834.897606	17457.922667	1244.906250	213.839966
2834.897606	17457.922667	1243.794922	155.137650
2834.897606	17457.922667	1242.683594	155.951706
2834.897606	17457.922667	1241.571289	65.796555
2834.897606	17457.922667	1240.459961	85.962013
2834.897606	17457.922667	1239.347656	183.697510
2834.897606	17457.922667	1238.234375	234.114456
2834.897606	17457.922667	1237.122070	223.549637
2834.897606	17457.922667	1236.008789	153.842270
2834.897606	17457.922667	1234.896484	162.519638
2834.897606	17457.922667	1233.782227	188.589401
2834.897606	17457.922667	1232.668945	222.018799
2834.897606	17457.922667	1231.555664	229.304626
2834.897606	17457.922667	1230.441406	168.919189
2834.897606	17457.922667	1229.327148	194.058426
2834.897606	17457.922667	1228.211914	110.720963
2834.897606	17457.922667	1227.097656	162.268417
2834.897606	17457.922667	1225.982422	90.521126
2834.897606	17457.922667	1224.867188	235.829437
2834.897606	17457.922667	1223.751953	181.220871
2834.897606	17457.922667	1222.635742	213.526993
2834.897606	17457.922667	1221.520508	176.481735
2834.897606	17457.922667	1220.404297	45.491184
2834.897606	17457.922667	1219.287109	40.197067
2834.897606	17457.922667	1218.170898	229.118637
2834.897606	17457.922667	1217.053711	110.318100
2834.897606	17457.922667	1215.936523	2.218297
2834.897606	17457.922667	1214.819336	52.970833
2834.897606	17457.922667	1213.702148	50.782990
2834.897606	17457.922667	1212.583984	40.544727
2834.897606	17457.922667	1211.465820	113.683922
2834.897606	17457.922667	1210.347656	-10.104817
2834.897606	17457.922667	1209.229492	-51.454037
2834.897606	17457.922667	1208.110352	-1.155515
2834.897606	17457.922667	1206.992188	-48.784046
2834.897606	17457.922667	1205.873047	15.719083
2834.897606	17457.922667	1204.752930	20.482977
2834.897606	17457.922667	1203.633789	18.256310
2834.897606	17457.922667	1202.513672	63.167919
2834.897606	17457.922667	1201.393555	-92.721146
2834.897606	17457.922667	1200.273438	-84.725983
2834.897606	17457.922667	1199.152344	-67.653244
2834.897606	17457.922667	1198.032227	-56.172810
2834.897606	17457.922667	1196.911133	-87.009193
2834.897606	17457.922667	1195.790039	-46.551815
2834.897606	17457.922667	1194.667969	12.573700
2834.897606	17457.922667	1193.545898	-78.290039
2834.897606	17457.922667	1192.424805	-5.974564
2834.897606	17457.922667	1191.301758	-123.257156
2834.897606	17457.922667	1190.179688	38.676399
2834.897606	17457.922667	1189.056641	50.028313
2834.897606	17457.922667	1187.933594	-39.072422
2834.897606	17457.922667	1186.810547	1.391709
2834.897606	17457.922667	1185.687500	-20.088133
2834.897606	17457.922667	1184.563477	-55.846874
2834.897606	17457.922667	1183.440430	-41.015610
2834.897606	17457.922667	1182.316406	-31.681168
2834.897606	17457.922667	1181.191406	-58.031204
2834.897606	17457.922667	1180.067383	-47.824932
2834.897606	17457.922667	1178.942383	1.313458
2834.897606	17457.922667	1177.817383	18.498289
2834.897606	17457.922667	1176.692383	-26.697666
2834.897606	17457.922667	1175.566406	-41.203388
2834.897606	17457.922667	1174.440430	-48.872654
2834.897606	17457.922667	1173.314453	45.231598
2834.897606	17457.922667	1172.188477	-103.465294
2834.897606	17457.922667	1171.062500	-37.836803
2834.897606	17457.922667	1169.935547	62.866112
2834.897606	17457.922667	1168.808594	89.092697
2834.897606	17457.922667	1167.681641	86.765404
2834.897606	17457.922667	1166.553711	-30.061190
2834.897606	17457.922667	1165.426758	84.632423
2834.897606	17457.922667	1164.298828	180.383987
2834.897606	17457.922667	1163.170898	43.192348
2834.897606	17457.922667	1162.041992	191.847763
2834.897606	17457.922667	1160.914063	333.880463
2834.897606	17457.922667	1159.785156	171.309204
2834.897606	17457.922667	1158.656250	192.734192
2834.897606	17457.922667	1157.526367	102.647659
2834.897606	17457.922667	1156.397461	-39.703430
2834.897606	17457.922667	1155.267578	70.617310
2834.897606	17457.922667	1154.137695	29.577982
2834.897606	17457.922667	1153.006836	-70.685822
2834.897606	17457.922667	1151.876953	-83.781136
2834.897606	17457.922667	1150.746094	23.908195
2834.897606	17457.922667	1149.615234	-13.569880
2834.897606	17457.922667	1148.484375	-27.747835
2834.897606	17457.922667	1147.352539	-20.086008
2834.897606	17457.922667	1146.220703	38.166870
2834.897606	17457.922667	1145.088867	-138.542160
2834.897606	17457.922667	1143.957031	-62.256264
2834.897606	17457.922667	1142.825195	-189.148010
2834.897606	17457.922667	1141.692383	-97.146248
2834.897606	17457.922667	1140.559570	79.898582
2834.897606	17457.922667	1139.426758	-131.951187
2834.897606	17457.922667	1138.292969	-12.092325
2834.897606	17457.922667	1137.159180	-111.132896
2834.897606	17457.922667	1136.025391	-182.928024
2834.897606	17457.922667	1134.891602	40.821976
2834.897606	17457.922667	1133.757813	-58.558338
2834.897606	17457.922667	1132.623047	-60.151489
2834.897606	17457.922667	1131.488281	58.155476
2834.897606	17457.922667	1130.353516	58.775558
2834.897606	17457.922667	1129.217773	34.244717
2834.897606	17457.922667	1128.083008	139.298325
2834.897606	17457.922667	1126.947266	7.520088
2834.897606	17457.922667	1125.811523	-91.057266
2834.897606	17457.922667	1124.674805	-8.069833
2834.897606	17457.922667	1123.539063	48.215813
2834.897606	17457.922667	1122.402344	37.727188
2834.897606	17457.922667	1121.265625	-14.385031
2834.897606	17457.922667	1120.127930	14.666685
2834.897606	17457.922667	1118.990234	12.321725
2834.897606	17457.922667	1117.853516	65.131538
2834.897606	17457.922667	1116.714844	65.543861
2834.897606	17457.922667	1115.577148	30.241362
2834.897606	17457.922667	1114.439453	43.610138
2834.897606	17457.922667	1113.300781	129.135178
2834.897606	17457.922667	1112.162109	60.012611
2834.897606	17457.922667	1111.022461	139.949509
2834.897606	17457.922667	1109.883789	55.545063
2834.897606	17457.922667	1108.744141	81.246010
2834.897606	17457.922667	1107.604492	119.489471
2834.897606	17457.922667	1106.463867	82.884666
2834.897606	17457.922667	1105.324219	1.254916
2834.897606	17457.922667	1104.183594	62.331688
2834.897606	17457.922667	1103.042969	145.057739
2834.897606	17457.922667	1101.902344	107.841431
2834.897606	17457.922667	1100.760742	39.765335
2834.897606	17457.922667	1099.619141	26.275356
2834.897606	17457.922667	1098.477539	60.863354
2834.897606	17457.922667	1097.335938	45.291706
2834.897606	17457.922667	1096.193359	115.584213
2834.897606	17457.922667	1095.051758	160.794815
2834.897606	17457.922667	1093.909180	166.709686
2834.897606	17457.922667	1092.765625	98.592995
2834.897606	17457.922667	1091.623047	84.674858
2834.897606	17457.922667	1090.479492	170.255753
2834.897606	17457.922667	1089.335938	227.841263
2834.897606	17457.922667	1088.192383	114.124504
2834.897606	17457.922667	1087.047852	128.133270
2834.897606	17457.922667	1085.903320	175.766907
2834.897606	17457.922667	1084.758789	224.342056
2834.897606	17457.922667	1083.614258	205.736938
2834.897606	17457.922667	1082.469727	185.587067
2834.897606	17457.922667	1081.324219	285.829193
2834.897606	17457.922667	1080.178711	242.052933
2834.897606	17457.922667	1079.033203	238.423096
2834.897606	17457.922667	1077.886719	234.932495
2834.897606	17457.922667	1076.740234	339.775360
2834.897606	17457.922667	1075.593750	286.967651
2834.897606	17457.922667	1074.447266	181.012634
2834.897606	17457.922667	1073.300781	288.118134
2834.897606	17457.922667	1072.153320	114.543839
2834.897606	17457.922667	1071.005859	190.830948
2834.897606	17457.922667	1069.858398	245.613647
2834.897606	17457.922667	1068.709961	153.543488
2834.897606	17457.922667	1067.561523	43.866035
2834.897606	17457.922667	1066.413086	130.634384
2834.897606	17457.922667	1065.264648	230.972458
2834.897606	17457.922667	1064.116211	198.247849
2834.897606	17457.922667	1062.966797	132.139252
2834.897606	17457.922667	1061.817383	180.209900
2834.897606	17457.922667	1060.667969	7.850321
2834.897606	17457.922667	1059.517578	-39.792133
2834.897606	17457.922667	1058.368164	62.900688
2834.897606	17457.922667	1057.217773	110.425659
2834.897606	17457.922667	1056.067383	24.875055
2834.897606	17457.922667	1054.916016	-47.002373
2834.897606	17457.922667	1053.764648	203.883331
2834.897606	17457.922667	1052.613281	135.676163
2834.897606	17457.922667	1051.461914	139.514313
2834.897606	17457.922667	1050.310547	164.418243
2834.897606	17457.922667	1049.158203	51.620880
2834.897606	17457.922667	1048.005859	132.845749
2834.897606	17457.922667	1046.853516	92.477112
2834.897606	17457.922667	1045.700195	136.361557
2834.897606	17457.922667	1044.547852	218.934326
2834.897606	17457.922667	1043.394531	13.421233
2834.897606	17457.922667	1042.240234	-15.130461
2834.897606	17457.922667	1041.086914	156.001404
2834.897606	17457.922667	1039.932617	153.097565
2834.897606	17457.922667	1038.778320	138.109009
2834.897606	17457.922667	1037.624023	245.176865
2834.897606	17457.922667	1036.469727	216.110275
2834.897606	17457.922667	1035.314453	251.380966
2834.897606	17457.922667	1034.159180	123.490372
2834.897606	17457.922667	1033.003906	334.018158
2834.897606	17457.922667	1031.847656	333.368561
2834.897606	17457.922667	1030.692383	270.154633
2834.897606	17457.922667	1029.536133	263.386414
2834.897606	17457.922667	1028.378906	219.459885
2834.897606	17457.922667	1027.222656	242.419510
2834.897606	17457.922667	1026.065430	228.292206
2834.897606	17457.922667	1024.908203	188.211090
2834.897606	17457.922667	1023.750977	128.732910
2834.897606	17457.922667	1022.593750	57.735699
2834.897606	17457.922667	1021.435547	18.690277
2834.897606	17457.922667	1020.277344	120.352028
2834.897606	17457.922667	1019.119141	81.260597
2834.897606	17457.922667	1017.959961	86.584984
2834.897606	17457.922667	1016.800781	31.778416
2834.897606	17457.922667	1015.641602	23.294140
2834.897606	17457.922667	1014.482422	85.287544
2834.897606	17457.922667	1013.323242	42.366665
2834.897606	17457.922667	1012.163086	-9.831404
2834.897606	17457.922667	1011.002930	-29.096407
2834.897606	17457.922667	1009.842773	-11.162592
2834.897606	17457.922667	1008.681641	-31.265011
2834.897606	17457.922667	1007.520508	-21.811476
2834.897606	17457.922667	1006.359375	2.179594
2834.897606	17457.922667	1005.198242	127.860680
2834.897606	17457.922667	1004.037109	-30.983419
2834.897606	17457.922667	1002.875000	-1.387687
2834.897606	17457.922667	1001.712891	179.576157
2834.897606	17457.922667	1000.550781	28.500534
2834.897606	17457.922667	999.387695	114.208298
2834.897606	17457.922667	998.224609	25.179567
2834.897606	17457.922667	997.061523	221.537048
2834.897606	17457.922667	995.898438	106.011841
2834.897606	17457.922667	994.734375	-9.160696
2834.897606	17457.922667	993.571289	24.070133
2834.897606	17457.922667	992.407227	73.195381
2834.897606	17457.922667	991.242188	-135.935257
2834.897606	17457.922667	990.078125	-11.153765
2834.897606	17457.922667	988.913086	-151.405746
2834.897606	17457.922667	987.748047	-112.480865
2834.897606	17457.922667	986.583008	100.893951
2834.897606	17457.922667	985.416992	-124.251656
2834.897606	17457.922667	984.250977	32.091022
2834.897606	17457.922667	983.084961	45.103775
2834.897606	17457.922667	981.918945	27.855597
2834.897606	17457.922667	980.751953	51.626038
2834.897606	17457.922667	979.584961	-92.909607
2834.897606	17457.922667	978.417969	-130.713608
2834.897606	17457.922667	977.250977	36.733723
2834.897606	17457.922667	976.083008	64.940872
2834.897606	17457.922667	974.915039	-51.107243
2834.897606	17457.922667	973.747070	53.458656
2834.897606	17457.922667	972.579102	302.251007
2834.897606	17457.922667	971.410156	182.309509
2834.897606	17457.922667	970.242188	216.773895
2834.897606	17457.922667	969.072266	303.273193
2834.897606	17457.922667	967.903320	280.753876
2834.897606	17457.922667	966.733398	425.984009
2834.897606	17457.922667	965.563477	367.996033
2834.897606	17457.922667	964.393555	425.468262
2834.897606	17457.922667	963.223633	615.958923
2834.897606	17457.922667	962.052734	550.364014
2834.897606	17457.922667	960.881836	721.074829
2834.897606	17457.922667	959.710938	573.128174
2834.897606	17457.922667	958.540039	619.517212
2834.897606	17457.922667	957.368164	578.874329
2834.897606	17457.922667	956.196289	474.968262
2834.897606	17457.922667	955.024414	291.428986
2834.897606	17457.922667	953.851563	246.198318
2834.897606	17457.922667	952.679688	334.831329
2834.897606	17457.922667	951.506836	219.481125
2834.897606	17457.922667	950.333984	273.126953
2834.897606	17457.922667	949.160156	232.444000
2834.897606	17457.922667	947.986328	183.064819
2834.897606	17457.922667	946.812500	102.252655
2834.897606	17457.922667	945.638672	144.158936
2834.897606	17457.922667	944.464844	327.665527
2834.897606	17457.922667	943.290039	256.327057
2834.897606	17457.922667	942.115234	226.339996
2834.897606	17457.922667	940.940430	148.788834
2834.897606	17457.922667	939.764648	140.355606
2834.897606	17457.922667	938.588867	293.805115
2834.897606	17457.922667	937.413086	365.175995
2834.897606	17457.922667	936.237305	166.903793
2834.897606	17457.922667	935.060547	37.706631
2834.897606	17457.922667	933.883789	182.379593
2834.897606	17457.922667	932.707031	273.076477
2834.897606	17457.922667	931.530273	230.057068
2834.897606	17457.922667	930.352539	195.785553
2834.897606	17457.922667	929.175781	172.210907
2834.897606	17457.922667	927.998047	150.822617
2834.897606	17457.922667	926.819336	189.807175
2834.897606	17457.922667	925.641602	-19.108179
2834.897606	17457.922667	924.462891	6.984988
2834.897606	17457.922667	923.284180	39.534000
2834.897606	17457.922667	922.104492	63.468391
2834.897606	17457.922667	920.924805	50.779900
2834.897606	17457.922667	919.746094	52.449974
2834.897606	17457.922667	919.551758	176.211990
2834.897606	17457.922667	918.386719	-17.364994
2834.897606	17457.922667	917.220703	69.005951
2834.897606	17457.922667	916.054688	64.953690
2834.897606	17457.922667	914.887695	-25.160595
2834.897606	17457.922667	913.721680	-136.744171
2834.897606	17457.922667	912.554688	-13.810439
2834.897606	17457.922667	911.387695	-15.648552
2834.897606	17457.922667	910.220703	-178.734253
2834.897606	17457.922667	909.052734	4.360048
2834.897606	17457.922667	907.885742	-53.326271
2834.897606	17457.922667	906.717773	56.632420
2834.897606	17457.922667	905.548828	-207.257690
2834.897606	17457.922667	904.380859	-41.440201
2834.897606	17457.922667	903.211914	-26.000689
2834.897606	17457.922667	902.042969	43.123112
2834.897606	17457.922667	900.874023	-27.298994
2834.897606	17457.922667	899.704102	41.826115
2834.897606	17457.922667	898.535156	-43.558601
2834.897606	17457.922667	897.365234	-122.456123
2834.897606	17457.922667	896.194336	-40.439419
2834.897606	17457.922667	895.024414	86.591118
2834.897606	17457.922667	893.853516	35.634491
2834.897606	17457.922667	892.682617	-60.300900
2834.897606	17457.922667	891.511719	-136.893082
2834.897606	17457.922667	890.340820	-20.595478
2834.897606	17457.922667	889.168945	207.069839
2834.897606	17457.922667	887.997070	31.996420
2834.897606	17457.922667	886.825195	-110.868309
2834.897606	17457.922667	885.653320	63.202381
2834.897606	17457.922667	884.480469	140.897354
2834.897606	17457.922667	883.307617	30.251678
2834.897606	17457.922667	882.134766	107.955910
2834.897606	17457.922667	880.961914	-26.134859
2834.897606	17457.922667	879.788086	15.226864
2834.897606	17457.922667	878.614258	0.993036
2834.897606	17457.922667	877.440430	-32.458328
2834.897606	17457.922667	876.266602	83.742966
2834.897606	17457.922667	875.091797	63.147652
2834.897606	17457.922667	873.916992	213.504456
2834.897606	17457.922667	872.742188	113.890091
2834.897606	17457.922667	871.567383	80.540924
2834.897606	17457.922667	870.391602	66.442749
2834.897606	17457.922667	869.215820	97.199677
2834.897606	17457.922667	868.040039	4.167673
2834.897606	17457.922667	866.864258	45.630905
2834.897606	17457.922667	865.687500	-109.186035
2834.897606	17457.922667	864.510742	58.172916
2834.897606	17457.922667	863.333984	57.002636
2834.897606	17457.922667	862.157227	47.322609
2834.897606	17457.922667	860.979492	93.091820
2834.897606	17457.922667	859.802734	8.847683
2834.897606	17457.922667	858.625000	84.474541
2834.897606	17457.922667	857.446289	42.915211
2834.897606	17457.922667	856.268555	12.038541
2834.897606	17457.922667	855.089844	-1.768644
2834.897606	17457.922667	853.911133	78.129173
2834.897606	17457.922667	852.731445	-18.668865
2834.897606	17457.922667	851.552734	59.106327
2834.897606	17457.922667	850.373047	-120.599281
2834.897606	17457.922667	849.193359	-85.347038
2834.897606	17457.922667	848.013672	-22.441824
2834.897606	17457.922667	846.833008	-148.804489
2834.897606	17457.922667	845.652344	111.848740
2834.897606	17457.922667	844.471680	-8.079508
2834.897606	17457.922667	843.291016	-104.565536
2834.897606	17457.922667	842.110352	45.477833
2834.897606	17457.922667	840.928711	-53.070454
2834.897606	17457.922667	839.747070	-102.712379
2834.897606	17457.922667	838.564453	2.695666
2834.897606	17457.922667	837.382813	97.457474
2834.897606	17457.922667	836.200195	7.532378
2834.897606	17457.922667	835.017578	-54.753567
2834.897606	17457.922667	833.834961	-83.052528
2834.897606	17457.922667	832.651367	20.195610
2834.897606	17457.922667	831.467773	8.888600
2834.897606	17457.922667	830.284180	-4.520771
2834.897606	17457.922667	829.100586	-34.871719
2834.897606	17457.922667	827.916992	129.798767
2834.897606	17457.922667	826.732422	-29.805155
2834.897606	17457.922667	825.547852	128.466599
2834.897606	17457.922667	824.363281	134.172256
2834.897606	17457.922667	823.177734	184.362106
2834.897606	17457.922667	821.992188	60.919624
2834.897606	17457.922667	820.806641	-9.539426
2834.897606	17457.922667	819.621094	63.960114
2834.897606	17457.922667	818.434570	-36.073914
2834.897606	17457.922667	817.249023	-42.973965
2834.897606	17457.922667	816.062500	83.394730
2834.897606	17457.922667	814.875000	169.541473
2834.897606	17457.922667	813.688477	304.286102
2834.897606	17457.922667	812.500977	259.306824
2834.897606	17457.922667	811.313477	222.805786
2834.897606	17457.922667	810.125977	167.309326
2834.897606	17457.922667	808.937500	151.981476
2834.897606	17457.922667	807.749023	261.278717
2834.897606	17457.922667	806.560547	374.758636
2834.897606	17457.922667	805.372070	342.520264
2834.897606	17457.922667	804.182617	196.317459
2834.897606	17457.922667	802.994141	140.920609
2834.897606	17457.922667	801.803711	178.390228
2834.897606	17457.922667	800.614258	91.383369
2834.897606	17457.922667	799.424805	149.937546
2834.897606	17457.922667	798.234375	240.099045
2834.897606	17457.922667	797.043945	235.355011
2834.897606	17457.922667	795.852539	190.567642
2834.897606	17457.922667	794.662109	82.574615
2834.897606	17457.922667	793.470703	130.535019
2834.897606	17457.922667	792.279297	115.279701
2834.897606	17457.922667	791.087891	108.450584
2834.897606	17457.922667	789.895508	295.333618
2834.897606	17457.922667	788.703125	290.567780
2834.897606	17457.922667	787.510742	180.564468
2834.897606	17457.922667	786.318359	314.692627
2834.897606	17457.922667	785.125000	166.849976
2834.897606	17457.922667	783.931641	132.642242
2834.897606	17457.922667	782.738281	195.176147
2834.897606	17457.922667	781.544922	186.189240
2834.897606	17457.922667	780.350586	366.383850
2834.897606	17457.922667	779.156250	224.943878
2834.897606	17457.922667	777.961914	188.610733
2834.897606	17457.922667	776.767578	177.489136
2834.897606	17457.922667	775.572266	321.785278
2834.897606	17457.922667	774.376953	266.518463
2834.897606	17457.922667	773.181641	375.016541
2834.897606	17457.922667	771.986328	288.246033
2834.897606	17457.922667	770.790039	264.455017
2834.897606	17457.922667	769.593750	150.436783
2834.897606	17457.922667	768.397461	355.298920
2834.897606	17457.922667	767.201172	320.968353
2834.897606	17457.922667	766.003906	360.024139
2834.897606	17457.922667	764.806641	246.006210
2834.897606	17457.922667	763.609375	299.691559
2834.897606	17457.922667	762.412109	351.236572
2834.897606	17457.922667	761.213867	268.654358
2834.897606	17457.922667	760.015625	326.423737
2834.897606	17457.922667	758.817383	361.108398
2834.897606	17457.922667	757.618164	349.692017
2834.897606	17457.922667	756.419922	365.465393
2834.897606	17457.922667	755.220703	349.813721
2834.897606	17457.922667	754.021484	401.099304
2834.897606	17457.922667	752.821289	487.901367
2834.897606	17457.922667	751.621094	649.934814
2834.897606	17457.922667	750.420898	682.217834
2834.897606	17457.922667	749.220703	716.546936
2834.897606	17457.922667	748.020508	681.848938
2834.897606	17457.922667	746.819336	697.290894
2834.897606	17457.922667	745.618164	913.276245
2834.897606	17457.922667	744.416992	870.102051
2834.897606	17457.922667	743.214844	937.604614
2834.897606	17457.922667	742.012695	911.077087
2834.897606	17457.922667	740.810547	1072.413696
2834.897606	17457.922667	739.608398	1133.456787
2834.897606	17457.922667	738.406250	1190.260620
2834.897606	17457.922667	737.203125	1532.834351
2834.897606	17457.922667	736.000000	1616.567871
2834.897606	17457.922667	734.795898	1800.329224
2834.897606	17457.922667	733.592773	1806.738281
2834.897606	17457.922667	732.388672	1813.102417
2834.897606	17457.922667	731.184570	1915.291260
2834.897606	17457.922667	729.979492	1838.189209
2834.897606	17457.922667	728.775391	1615.239380
2834.897606	17457.922667	727.570313	1419.413208
2834.897606	17457.922667	726.365234	1254.856567
2834.897606	17457.922667	725.160156	1231.896118
2834.897606	17457.922667	723.954102	967.433167
2834.897606	17457.922667	722.748047	959.009949
2834.897606	17457.922667	721.541992	1004.635864
2834.897606	17457.922667	720.334961	887.929382
2834.897606	17457.922667	719.128906	694.262817
2834.897606	17457.922667	717.921875	764.706848
2834.897606	17457.922667	716.714844	608.458313
2834.897606	17457.922667	715.506836	687.093445
2834.897606	17457.922667	714.298828	811.355469
2834.897606	17457.922667	713.090820	669.567383
2834.897606	17457.922667	711.882813	585.940674
2834.897606	17457.922667	710.674805	539.671387
2834.897606	17457.922667	709.465820	669.851196
2834.897606	17457.922667	708.256836	554.955994
2834.897606	17457.922667	707.047852	514.763794
2834.897606	17457.922667	705.837891	632.228516
2834.897606	17457.922667	704.627930	475.731079
2834.897606	17457.922667	703.417969	526.651001
2834.897606	17457.922667	702.208008	453.059326
2834.897606	17457.922667	700.998047	449.924072
2834.897606	17457.922667	699.787109	535.856079
2834.897606	17457.922667	698.576172	422.729706
2834.897606	17457.922667	697.364258	402.821686
2834.897606	17457.922667	696.153320	399.424469
2834.897606	17457.922667	694.941406	511.940887
2834.897606	17457.922667	693.729492	531.157166
2834.897606	17457.922667	692.516602	645.524719
2834.897606	17457.922667	691.304688	556.928711
2834.897606	17457.922667	690.091797	697.998047
2834.897606	17457.922667	688.878906	818.244019
2834.897606	17457.922667	687.665039	785.292969
2834.897606	17457.922667	686.451172	837.071777
2834.897606	17457.922667	685.237305	874.278076
2834.897606	17457.922667	684.023438	1126.381348
2834.897606	17457.922667	682.809570	964.945190
2834.897606	17457.922667	681.594727	1047.326538
2834.897606	17457.922667	680.379883	1115.131836
2834.897606	17457.922667	679.165039	1073.359253
2834.897606	17457.922667	677.949219	1095.538330
2834.897606	17457.922667	676.733398	1233.245239
2834.897606	17457.922667	675.517578	1238.704834
2834.897606	17457.922667	674.301758	1157.403564
2834.897606	17457.922667	673.084961	1292.699219
2834.897606	17457.922667	671.869141	1229.819824
2834.897606	17457.922667	670.651367	1189.567871
2834.897606	17457.922667	669.434570	1268.845093
2834.897606	17457.922667	668.216797	1249.048096
2834.897606	17457.922667	667.000000	1128.179565
2834.897606	17457.922667	665.781250	1110.308472
2834.897606	17457.922667	664.563477	1170.649414
2834.897606	17457.922667	663.344727	1134.064941
2834.897606	17457.922667	662.125977	1299.228271
2834.897606	17457.922667	660.907227	1145.097534
2834.897606	17457.922667	659.688477	1139.156738
2834.897606	17457.922667	658.468750	1203.102905
2834.897606	17457.922667	657.249023	1244.299438
2834.897606	17457.922667	656.029297	1196.929688
2834.897606	17457.922667	654.808594	1130.977051
2834.897606	17457.922667	653.587891	1305.555664
2834.897606	17457.922667	652.367188	1366.895386
2834.897606	17457.922667	651.146484	1253.403564
2834.897606	17457.922667	649.924805	1291.940308
2834.897606	17457.922667	648.704102	1389.956177
2834.897606	17457.922667	647.482422	1150.953247
2834.897606	17457.922667	646.259766	1380.210449
2834.897606	17457.922667	645.037109	1200.672119
2834.897606	17457.922667	643.815430	1374.214844
2834.897606	17457.922667	642.591797	1303.348145
2834.897606	17457.922667	641.369141	1304.242920
2834.897606	17457.922667	640.145508	1352.229126
2834.897606	17457.922667	638.921875	1254.473511
2834.897606	17457.922667	637.698242	1197.681519
2834.897606	17457.922667	636.474609	1017.807007
2834.897606	17457.922667	635.250000	915.807739
2834.897606	17457.922667	634.025391	1057.639160
2834.897606	17457.922667	632.800781	949.345764
2834.897606	17457.922667	631.575195	959.818420
2834.897606	17457.922667	630.349609	773.579224
2834.897606	17457.922667	629.124023	826.904297
2834.897606	17457.922667	627.898438	1066.414551
2834.897606	17457.922667	626.671875	1082.628418
2834.897606	17457.922667	625.445313	1035.309204
2834.897606	17457.922667	624.218750	987.920166
2834.897606	17457.922667	622.992188	973.189636
2834.897606	17457.922667	621.764648	823.399170
2834.897606	17457.922667	620.537109	847.376343
2834.897606	17457.922667	619.309570	936.668945
2834.897606	17457.922667	618.081055	845.981750
2834.897606	17457.922667	616.852539	820.631348
2834.897606	17457.922667	615.624023	764.562134
2834.897606	17457.922667	614.395508	767.660950
2834.897606	17457.922667	613.166992	817.639282
2834.897606	17457.922667	611.937500	836.882813
2834.897606	17457.922667	610.708008	792.757996
2834.897606	17457.922667	609.477539	722.033203
2834.897606	17457.922667	608.248047	777.757568
2834.897606	17457.922667	607.017578	1008.798340
2834.897606	17457.922667	605.787109	827.695679
2834.897606	17457.922667	604.555664	978.938477
2834.897606	17457.922667	603.325195	940.455444
2834.897606	17457.922667	602.093750	1014.000549
2834.897606	17457.922667	600.861328	1113.920288
2834.897606	17457.922667	599.629883	936.657837
2834.897606	17457.922667	598.397461	899.928894
2834.897606	17457.922667	597.165039	785.756165
2834.897606	17457.922667	595.932617	681.736267
2834.897606	17457.922667	594.699219	878.937073
2834.897606	17457.922667	593.465820	687.279053
2834.897606	17457.922667	592.232422	841.520508
2834.897606	17457.922667	590.999023	800.339783
2834.897606	17457.922667	589.764648	752.999023
2834.897606	17457.922667	588.530273	854.043457
2834.897606	17457.922667	587.295898	910.252075
2834.897606	17457.922667	586.061523	838.322815
2834.897606	17457.922667	584.826172	804.961548
2834.897606	17457.922667	583.590820	645.588867
2834.897606	17457.922667	582.355469	612.154236
2834.897606	17457.922667	581.119141	598.972900
2834.897606	17457.922667	579.882813	733.948975
2834.897606	17457.922667	578.646484	761.223938
2834.897606	17457.922667	577.410156	419.068268
2834.897606	17457.922667	576.172852	527.437683
2834.897606	17457.922667	574.935547	449.075043
2834.897606	17457.922667	573.698242	577.563782
2834.897606	17457.922667	572.460938	626.862976
2834.897606	17457.922667	571.222656	495.655334
2834.897606	17457.922667	569.984375	808.334778
2834.897606	17457.922667	568.746094	537.222290
2834.897606	17457.922667	567.506836	754.436584
2834.897606	17457.922667	566.267578	698.062195
2834.897606	17457.922667	565.028320	704.447021
2834.897606	17457.922667	563.789063	571.083435
2834.897606	17457.922667	562.548828	575.379700
2834.897606	17457.922667	561.309570	638.332886
2834.897606	17457.922667	560.068359	604.085754
2834.897606	17457.922667	558.828125	634.559570
2834.897606	17457.922667	557.586914	630.596985
2834.897606	17457.922667	556.345703	660.979736
2834.897606	17457.922667	555.104492	495.218475
2834.897606	17457.922667	553.863281	584.174866
2834.897606	17457.922667	552.621094	450.771790
2834.897606	17457.922667	551.378906	456.806824
2834.897606	17457.922667	550.136719	418.378052
2834.897606	17457.922667	548.893555	422.347839
2834.897606	17457.922667	547.650391	416.201294
2834.897606	17457.922667	546.407227	290.940430
2834.897606	17457.922667	545.164063	143.518280
2834.897606	17457.922667	543.919922	559.099060
2834.897606	17457.922667	542.675781	460.067383
2834.897606	17457.922667	541.431641	498.219208
2834.897606	17457.922667	540.186523	328.643036
2834.897606	17457.922667	538.941406	457.509247
2834.897606	17457.922667	537.696289	443.208496
2834.897606	17457.922667	536.451172	620.355164
2834.897606	17457.922667	535.205078	593.929810
2834.897606	17457.922667	533.959961	585.654541
2834.897606	17457.922667	532.712891	625.706970
2834.897606	17457.922667	531.466797	613.406250
2834.897606	17457.922667	530.219727	637.347900
2834.897606	17457.922667	528.972656	494.244324
2834.897606	17457.922667	527.725586	632.918396
2834.897606	17457.922667	526.478516	558.304749
2834.897606	17457.922667	525.230469	413.338196
2834.897606	17457.922667	523.982422	443.398163
2834.897606	17457.922667	522.734375	292.527679
2834.897606	17457.922667	521.485352	159.829147
2834.897606	17457.922667	520.236328	125.681801
2834.897606	17457.922667	518.987305	-105.319031
2834.897606	17457.922667	517.737305	-73.056778
2834.897606	17457.922667	516.488281	-6.629127
2834.897606	17457.922667	515.238281	-12.485589
2834.897606	17457.922667	513.988281	72.030304
2834.897606	17457.922667	512.737305	18.059128
2834.897606	17457.922667	511.486328	-37.856010
2834.897606	17457.922667	510.235352	-9.448038
2834.897606	17457.922667	508.984375	14.979787
2834.897606	17457.922667	507.732422	-110.957756
2834.897606	17457.922667	506.480469	-44.330086
2834.897606	17457.922667	505.228516	58.397358
2834.897606	17457.922667	503.976563	86.984703
2834.897606	17457.922667	502.723633	57.504807
2834.897606	17457.922667	501.470703	-48.025600
2834.897606	17457.922667	500.217773	82.861526
2834.897606	17457.922667	498.963867	73.587730
2834.897606	17457.922667	497.709961	-11.690849
2834.897606	17457.922667	496.456055	-84.862236
2834.897606	17457.922667	495.202148	-173.946320
2834.897606	17457.922667	493.947266	-26.871120
2834.897606	17457.922667	492.692383	10.202244
2834.897606	17457.922667	491.437500	-80.650551
2834.897606	17457.922667	490.181641	80.502861
2834.897606	17457.922667	488.926758	-16.181438
2834.897606	17457.922667	487.670898	95.072929
2834.897606	17457.922667	486.414063	116.440720
2834.897606	17457.922667	485.158203	133.884628
2834.897606	17457.922667	483.901367	63.520081
2834.897606	17457.922667	482.644531	135.025391
2834.897606	17457.922667	481.386719	28.909599
2834.897606	17457.922667	480.128906	208.316589
2834.897606	17457.922667	478.871094	98.400047
2834.897606	17457.922667	477.613281	56.439560
2834.897606	17457.922667	476.355469	84.386017
2834.897606	17457.922667	475.096680	-156.800415
2834.897606	17457.922667	473.837891	86.653336
2834.897606	17457.922667	472.578125	-112.410294
2834.897606	17457.922667	471.319336	-0.425873
2834.897606	17457.922667	470.059570	63.773384
2834.897606	17457.922667	468.799805	-112.992256
2834.897606	17457.922667	467.539063	66.874924
2834.897606	17457.922667	466.278320	129.277374
2834.897606	17457.922667	465.017578	-65.053101
2834.897606	17457.922667	463.756836	53.246037
2834.897606	17457.922667	462.495117	40.249397
2834.897606	17457.922667	461.233398	35.299633
2834.897606	17457.922667	459.971680	2.591450
2834.897606	17457.922667	458.709961	89.288193
2834.897606	17457.922667	457.447266	-20.791122
2834.897606	17457.922667	456.184570	-21.422300
2834.897606	17457.922667	454.921875	85.334457
2834.897606	17457.922667	453.658203	-131.721085
2834.897606	17457.922667	452.394531	179.758652
2834.897606	17457.922667	451.130859	36.408379
2834.897606	17457.922667	449.867188	137.407028
2834.897606	17457.922667	448.602539	-9.698441
2834.897606	17457.922667	447.337891	-3.854749
2834.897606	17457.922667	446.073242	33.802120
2834.897606	17457.922667	444.807617	27.862734
2834.897606	17457.922667	443.542969	113.226158
2834.897606	17457.922667	442.276367	-1.665381
2834.897606	17457.922667	441.010742	42.151405
2834.897606	17457.922667	439.744141	26.540663
2834.897606	17457.922667	438.478516	88.274361
2834.897606	17457.922667	437.210938	104.456100
2834.897606	17457.922667	435.944336	-12.030751
2834.897606	17457.922667	434.676758	-3.669216
2834.897606	17457.922667	433.409180	-66.550735
2834.897606	17457.922667	432.141602	-125.413055
2834.897606	17457.922667	430.873047	-63.503815
2834.897606	17457.922667	429.604492	35.995399
2834.897606	17457.922667	428.335938	0.954070
2834.897606	17457.922667	427.067383	56.917217
2834.897606	17457.922667	425.797852	136.588913
2834.897606	17457.922667	424.528320	180.643921
2834.897606	17457.922667	423.258789	54.699284
2834.897606	17457.922667	421.988281	126.399651
2834.897606	17457.922667	420.717773	-25.191839
2834.897606	17457.922667	419.447266	186.691376
2834.897606	17457.922667	418.175781	-75.491478
2834.897606	17457.922667	416.905273	161.906815
2834.897606	17457.922667	415.633789	156.363953
2834.897606	17457.922667	414.362305	188.264877
2834.897606	17457.922667	413.089844	210.221268
2834.897606	17457.922667	411.817383	22.999348
2834.897606	17457.922667	410.544922	102.022728
2834.897606	17457.922667	409.272461	25.152689
2834.897606	17457.922667	407.999023	-71.499741
2834.897606	17457.922667	406.725586	60.403778
2834.897606	17457.922667	405.452148	40.403160
2834.897606	17457.922667	404.177734	-111.716621
2834.897606	17457.922667	402.903320	7.894124
2834.897606	17457.922667	401.628906	72.161392
2834.897606	17457.922667	400.354492	-58.672318
2834.897606	17457.922667	399.079102	-0.672196
2834.897606	17457.922667	397.803711	-72.770454
2834.897606	17457.922667	396.528320	61.542751
2834.897606	17457.922667	395.251953	-1.130062
2834.897606	17457.922667	393.976563	-58.103909
2834.897606	17457.922667	392.700195	-79.913261
2834.897606	17457.922667	391.422852	-39.075478
2834.897606	17457.922667	390.145508	-22.117718
2834.897606	17457.922667	388.869141	-1.525727
2834.897606	17457.922667	387.590820	114.995575
2834.897606	17457.922667	386.313477	60.271484
2834.897606	17457.922667	385.035156	-2.633894
2834.897606	17457.922667	383.756836	-6.978524
2834.897606	17457.922667	382.478516	45.217907
2834.897606	17457.922667	381.199219	-58.041286
2834.897606	17457.922667	379.919922	16.859667
2834.897606	17457.922667	378.640625	-12.671811
2834.897606	17457.922667	377.360352	-68.153130
2834.897606	17457.922667	376.080078	54.325676
2834.897606	17457.922667	374.799805	-27.615330
2834.897606	17457.922667	373.519531	127.086731
2834.897606	17457.922667	372.238281	-159.694443
2834.897606	17457.922667	370.957031	21.261253
2834.897606	17457.922667	369.675781	-31.522263
2834.897606	17457.922667	368.394531	-2.666695
2834.897606	17457.922667	367.112305	-107.603966
2834.897606	17457.922667	365.830078	74.541946
2834.897606	17457.922667	364.546875	93.478317
2834.897606	17457.922667	363.264648	113.645897
2834.897606	17457.922667	361.981445	15.675701
2834.897606	17457.922667	360.698242	49.935745
2834.897606	17457.922667	359.414063	52.067120
2834.897606	17457.922667	358.129883	-38.521965
2834.897606	17457.922667	356.845703	86.970238
2834.897606	17457.922667	355.561523	137.250015
2834.897606	17457.922667	354.276367	-143.579498
2834.897606	17457.922667	352.991211	94.225403
2834.897606	17457.922667	351.706055	39.981903
2834.897606	17457.922667	350.420898	-44.567764
2834.897606	17457.922667	349.134766	-3.327772
2834.897606	17457.922667	347.848633	19.210386
2834.897606	17457.922667	346.561523	159.556076
2834.897606	17457.922667	345.275391	78.265816
2834.897606	17457.922667	343.988281	56.196548
2834.897606	17457.922667	342.700195	71.822227
2834.897606	17457.922667	341.413086	88.091927
2834.897606	17457.922667	340.125000	71.782768
2834.897606	17457.922667	338.836914	61.864162
2834.897606	17457.922667	337.548828	128.409760
2834.897606	17457.922667	336.259766	23.970079
2834.897606	17457.922667	334.970703	176.980515
2834.897606	17457.922667	333.681641	-31.789022
2834.897606	17457.922667	332.391602	-96.183365
2834.897606	17457.922667	331.101563	-37.715969
2834.897606	17457.922667	329.811523	-27.706966
2834.897606	17457.922667	328.521484	-56.451153
2834.897606	17457.922667	327.230469	-5.404535
2834.897606	17457.922667	325.939453	10.666286
2834.897606	17457.922667	324.648438	51.979782
2834.897606	17457.922667	323.356445	178.659012
2834.897606	17457.922667	322.064453	241.037766
2834.897606	17457.922667	320.772461	83.710892
2834.897606	17457.922667	319.480469	27.181263
2834.897606	17457.922667	318.187500	7.199337
2834.897606	17457.922667	316.894531	58.667660
2834.897606	17457.922667	315.601563	22.339298
2834.897606	17457.922667	314.307617	-136.771057
2834.897606	17457.922667	313.013672	145.884003
2834.897606	17457.922667	311.719727	-86.166130
2834.897606	17457.922667	310.425781	99.983658
2834.897606	17457.922667	309.130859	-228.508865
2834.897606	17457.922667	307.835938	-96.449638
2834.897606	17457.922667	306.541016	-75.832260
2834.897606	17457.922667	305.245117	77.367294
2834.897606	17457.922667	303.949219	8.608628
2834.897606	17457.922667	302.653320	103.306900
2834.897606	17457.922667	301.356445	134.686630
2834.897606	17457.922667	300.060547	174.476456
2834.897606	17457.922667	298.763672	212.755005
