#X		#Y		#Wave		#Intensity
2764.466968	17387.000167	2000.043945	76.369080
2764.466968	17387.000167	1999.080078	27.985779
2764.466968	17387.000167	1998.116211	49.780758
2764.466968	17387.000167	1997.151367	-163.669861
2764.466968	17387.000167	1996.186523	79.047318
2764.466968	17387.000167	1995.222656	101.393707
2764.466968	17387.000167	1994.256836	-155.968338
2764.466968	17387.000167	1993.291992	-88.650444
2764.466968	17387.000167	1992.327148	-45.935436
2764.466968	17387.000167	1991.361328	81.100708
2764.466968	17387.000167	1990.395508	82.041168
2764.466968	17387.000167	1989.429688	-99.958755
2764.466968	17387.000167	1988.463867	156.180054
2764.466968	17387.000167	1987.497070	-230.740692
2764.466968	17387.000167	1986.531250	-33.698116
2764.466968	17387.000167	1985.564453	123.866409
2764.466968	17387.000167	1984.597656	207.364197
2764.466968	17387.000167	1983.630859	43.813873
2764.466968	17387.000167	1982.664063	209.155014
2764.466968	17387.000167	1981.696289	129.971603
2764.466968	17387.000167	1980.728516	55.904804
2764.466968	17387.000167	1979.761719	78.339363
2764.466968	17387.000167	1978.792969	-79.367615
2764.466968	17387.000167	1977.825195	-73.920570
2764.466968	17387.000167	1976.857422	20.526546
2764.466968	17387.000167	1975.888672	-42.885681
2764.466968	17387.000167	1974.919922	-4.971965
2764.466968	17387.000167	1973.951172	60.195652
2764.466968	17387.000167	1972.982422	93.397675
2764.466968	17387.000167	1972.013672	69.987869
2764.466968	17387.000167	1971.043945	-24.801670
2764.466968	17387.000167	1970.075195	-8.497686
2764.466968	17387.000167	1969.105469	15.309203
2764.466968	17387.000167	1968.135742	-14.996322
2764.466968	17387.000167	1967.165039	-126.490250
2764.466968	17387.000167	1966.195313	183.420898
2764.466968	17387.000167	1965.224609	210.074219
2764.466968	17387.000167	1964.253906	39.814926
2764.466968	17387.000167	1963.283203	54.377758
2764.466968	17387.000167	1962.312500	22.262129
2764.466968	17387.000167	1961.341797	-115.577461
2764.466968	17387.000167	1960.370117	105.994736
2764.466968	17387.000167	1959.399414	49.564034
2764.466968	17387.000167	1958.427734	35.058872
2764.466968	17387.000167	1957.455078	114.101059
2764.466968	17387.000167	1956.483398	-101.870094
2764.466968	17387.000167	1955.511719	36.335125
2764.466968	17387.000167	1954.539063	-95.810020
2764.466968	17387.000167	1953.566406	8.092486
2764.466968	17387.000167	1952.593750	-109.105263
2764.466968	17387.000167	1951.621094	-5.093148
2764.466968	17387.000167	1950.647461	0.703992
2764.466968	17387.000167	1949.674805	43.402218
2764.466968	17387.000167	1948.701172	218.732468
2764.466968	17387.000167	1947.727539	-145.994507
2764.466968	17387.000167	1946.753906	56.425995
2764.466968	17387.000167	1945.780273	57.611801
2764.466968	17387.000167	1944.805664	-54.004036
2764.466968	17387.000167	1943.831055	25.806021
2764.466968	17387.000167	1942.856445	61.493820
2764.466968	17387.000167	1941.881836	-37.646980
2764.466968	17387.000167	1940.907227	-31.284626
2764.466968	17387.000167	1939.932617	-71.451599
2764.466968	17387.000167	1938.957031	-28.235954
2764.466968	17387.000167	1937.981445	-21.750216
2764.466968	17387.000167	1937.005859	-10.329554
2764.466968	17387.000167	1936.030273	145.633255
2764.466968	17387.000167	1935.054688	-163.710602
2764.466968	17387.000167	1934.078125	107.364540
2764.466968	17387.000167	1933.101563	-177.315475
2764.466968	17387.000167	1932.125000	-116.764458
2764.466968	17387.000167	1931.148438	-122.281364
2764.466968	17387.000167	1930.171875	-157.129959
2764.466968	17387.000167	1929.194336	148.066986
2764.466968	17387.000167	1928.217773	20.286236
2764.466968	17387.000167	1927.240234	100.415192
2764.466968	17387.000167	1926.262695	-34.608078
2764.466968	17387.000167	1925.284180	187.300827
2764.466968	17387.000167	1924.306641	106.101967
2764.466968	17387.000167	1923.328125	46.933926
2764.466968	17387.000167	1922.350586	173.457947
2764.466968	17387.000167	1921.372070	85.004074
2764.466968	17387.000167	1920.392578	-32.714741
2764.466968	17387.000167	1919.414063	-74.700317
2764.466968	17387.000167	1918.434570	37.120609
2764.466968	17387.000167	1917.456055	-51.236183
2764.466968	17387.000167	1916.476563	-15.112416
2764.466968	17387.000167	1915.497070	-88.795540
2764.466968	17387.000167	1914.516602	-16.098425
2764.466968	17387.000167	1913.537109	227.277985
2764.466968	17387.000167	1912.556641	265.732239
2764.466968	17387.000167	1911.576172	-200.489853
2764.466968	17387.000167	1910.595703	162.185181
2764.466968	17387.000167	1909.615234	-104.038322
2764.466968	17387.000167	1908.633789	-126.524010
2764.466968	17387.000167	1907.653320	-139.276276
2764.466968	17387.000167	1906.671875	-169.093933
2764.466968	17387.000167	1905.690430	32.420399
2764.466968	17387.000167	1904.708984	-85.114792
2764.466968	17387.000167	1903.727539	-61.443321
2764.466968	17387.000167	1902.745117	-62.145679
2764.466968	17387.000167	1901.762695	10.123924
2764.466968	17387.000167	1900.780273	87.201797
2764.466968	17387.000167	1899.797852	23.136196
2764.466968	17387.000167	1898.815430	-16.619352
2764.466968	17387.000167	1897.832031	-15.058504
2764.466968	17387.000167	1896.849609	-1.380179
2764.466968	17387.000167	1895.866211	-170.042831
2764.466968	17387.000167	1894.882813	-66.501114
2764.466968	17387.000167	1893.898438	75.837158
2764.466968	17387.000167	1892.915039	-51.572262
2764.466968	17387.000167	1891.930664	127.055077
2764.466968	17387.000167	1890.947266	101.585297
2764.466968	17387.000167	1889.962891	12.953088
2764.466968	17387.000167	1888.977539	193.753616
2764.466968	17387.000167	1887.993164	311.334778
2764.466968	17387.000167	1887.007813	-15.239088
2764.466968	17387.000167	1886.023438	-237.421616
2764.466968	17387.000167	1885.038086	20.702925
2764.466968	17387.000167	1884.051758	-34.173553
2764.466968	17387.000167	1883.066406	114.591377
2764.466968	17387.000167	1882.081055	117.784988
2764.466968	17387.000167	1881.094727	-70.563492
2764.466968	17387.000167	1880.108398	-79.573776
2764.466968	17387.000167	1879.122070	131.843750
2764.466968	17387.000167	1878.135742	-8.138292
2764.466968	17387.000167	1877.148438	38.362679
2764.466968	17387.000167	1876.162109	19.398247
2764.466968	17387.000167	1875.174805	-16.573891
2764.466968	17387.000167	1874.187500	162.837753
2764.466968	17387.000167	1873.199219	22.646416
2764.466968	17387.000167	1872.211914	17.943338
2764.466968	17387.000167	1871.223633	-44.892384
2764.466968	17387.000167	1870.236328	112.336281
2764.466968	17387.000167	1869.248047	49.359745
2764.466968	17387.000167	1868.258789	160.422852
2764.466968	17387.000167	1867.270508	-149.272003
2764.466968	17387.000167	1866.282227	67.982574
2764.466968	17387.000167	1865.292969	-2.493988
2764.466968	17387.000167	1864.303711	127.513901
2764.466968	17387.000167	1863.314453	56.893970
2764.466968	17387.000167	1862.324219	-8.951539
2764.466968	17387.000167	1861.334961	-86.926643
2764.466968	17387.000167	1860.344727	-169.785538
2764.466968	17387.000167	1859.354492	20.068687
2764.466968	17387.000167	1858.364258	-21.920485
2764.466968	17387.000167	1857.374023	22.887701
2764.466968	17387.000167	1856.383789	62.766823
2764.466968	17387.000167	1855.392578	32.593277
2764.466968	17387.000167	1854.401367	98.806267
2764.466968	17387.000167	1853.410156	131.148193
2764.466968	17387.000167	1852.418945	23.570415
2764.466968	17387.000167	1851.426758	142.499832
2764.466968	17387.000167	1850.435547	172.135056
2764.466968	17387.000167	1849.443359	8.918412
2764.466968	17387.000167	1848.451172	163.639359
2764.466968	17387.000167	1847.458984	166.479828
2764.466968	17387.000167	1846.466797	149.959671
2764.466968	17387.000167	1845.473633	77.976006
2764.466968	17387.000167	1844.480469	210.522812
2764.466968	17387.000167	1843.487305	32.471539
2764.466968	17387.000167	1842.494141	58.912411
2764.466968	17387.000167	1841.500977	340.248169
2764.466968	17387.000167	1840.506836	0.824744
2764.466968	17387.000167	1839.513672	60.627163
2764.466968	17387.000167	1838.519531	214.074417
2764.466968	17387.000167	1837.525391	-125.434471
2764.466968	17387.000167	1836.530273	280.144409
2764.466968	17387.000167	1835.536133	87.130829
2764.466968	17387.000167	1834.541016	276.085693
2764.466968	17387.000167	1833.545898	236.669189
2764.466968	17387.000167	1832.550781	276.418030
2764.466968	17387.000167	1831.555664	83.134483
2764.466968	17387.000167	1830.560547	156.298630
2764.466968	17387.000167	1829.564453	78.110001
2764.466968	17387.000167	1828.568359	59.841724
2764.466968	17387.000167	1827.572266	283.808838
2764.466968	17387.000167	1826.576172	-75.348335
2764.466968	17387.000167	1825.580078	64.402046
2764.466968	17387.000167	1824.583008	-170.101227
2764.466968	17387.000167	1823.585938	132.429199
2764.466968	17387.000167	1822.588867	44.009647
2764.466968	17387.000167	1821.591797	17.829294
2764.466968	17387.000167	1820.594727	286.281433
2764.466968	17387.000167	1819.596680	307.758118
2764.466968	17387.000167	1818.599609	-58.914238
2764.466968	17387.000167	1817.601563	27.060347
2764.466968	17387.000167	1816.603516	167.965179
2764.466968	17387.000167	1815.604492	95.641136
2764.466968	17387.000167	1814.606445	97.437073
2764.466968	17387.000167	1813.607422	180.480179
2764.466968	17387.000167	1812.608398	2.589391
2764.466968	17387.000167	1811.609375	116.495071
2764.466968	17387.000167	1810.610352	141.755707
2764.466968	17387.000167	1809.610352	87.978249
2764.466968	17387.000167	1808.611328	158.435730
2764.466968	17387.000167	1807.611328	149.869400
2764.466968	17387.000167	1806.611328	325.214203
2764.466968	17387.000167	1805.610352	-32.466312
2764.466968	17387.000167	1804.610352	49.454384
2764.466968	17387.000167	1803.609375	107.338821
2764.466968	17387.000167	1802.608398	88.672195
2764.466968	17387.000167	1801.607422	100.939865
2764.466968	17387.000167	1800.606445	-63.559299
2764.466968	17387.000167	1799.605469	96.483353
2764.466968	17387.000167	1798.603516	-137.384827
2764.466968	17387.000167	1797.601563	29.537767
2764.466968	17387.000167	1796.599609	124.724861
2764.466968	17387.000167	1795.597656	26.586720
2764.466968	17387.000167	1794.595703	2.291434
2764.466968	17387.000167	1793.592773	92.317535
2764.466968	17387.000167	1792.589844	36.800827
2764.466968	17387.000167	1791.587891	-80.758209
2764.466968	17387.000167	1790.583984	130.403305
2764.466968	17387.000167	1789.581055	-58.825775
2764.466968	17387.000167	1788.577148	-193.324142
2764.466968	17387.000167	1787.574219	-80.219292
2764.466968	17387.000167	1786.570313	-181.553421
2764.466968	17387.000167	1785.566406	-87.767036
2764.466968	17387.000167	1784.561523	-177.392197
2764.466968	17387.000167	1783.557617	-229.013535
2764.466968	17387.000167	1782.552734	23.782063
2764.466968	17387.000167	1781.547852	-130.366364
2764.466968	17387.000167	1780.542969	-284.565948
2764.466968	17387.000167	1779.538086	-141.607330
2764.466968	17387.000167	1778.532227	-141.454788
2764.466968	17387.000167	1777.527344	-3.550038
2764.466968	17387.000167	1776.521484	-200.877609
2764.466968	17387.000167	1775.515625	-94.127831
2764.466968	17387.000167	1774.508789	-54.047523
2764.466968	17387.000167	1773.502930	-80.580475
2764.466968	17387.000167	1772.496094	-216.449295
2764.466968	17387.000167	1771.489258	-302.518646
2764.466968	17387.000167	1770.482422	-122.816444
2764.466968	17387.000167	1769.475586	-166.367615
2764.466968	17387.000167	1768.467773	-107.991776
2764.466968	17387.000167	1767.460938	-44.988865
2764.466968	17387.000167	1766.453125	-226.423416
2764.466968	17387.000167	1765.445313	-21.361607
2764.466968	17387.000167	1764.437500	-110.475777
2764.466968	17387.000167	1763.428711	-130.927765
2764.466968	17387.000167	1762.420898	-120.655136
2764.466968	17387.000167	1761.412109	145.412384
2764.466968	17387.000167	1760.403320	96.183777
2764.466968	17387.000167	1759.393555	-81.048019
2764.466968	17387.000167	1758.384766	-118.578201
2764.466968	17387.000167	1757.375000	-56.761009
2764.466968	17387.000167	1756.366211	87.799202
2764.466968	17387.000167	1755.356445	-9.227747
2764.466968	17387.000167	1754.345703	-18.771210
2764.466968	17387.000167	1753.335938	18.919540
2764.466968	17387.000167	1752.325195	-31.037956
2764.466968	17387.000167	1751.315430	-154.379898
2764.466968	17387.000167	1750.304688	-221.033020
2764.466968	17387.000167	1749.292969	-145.921738
2764.466968	17387.000167	1748.282227	16.534727
2764.466968	17387.000167	1747.270508	-133.128952
2764.466968	17387.000167	1746.259766	-48.900967
2764.466968	17387.000167	1745.248047	-59.305569
2764.466968	17387.000167	1744.235352	164.016098
2764.466968	17387.000167	1743.223633	-87.481224
2764.466968	17387.000167	1742.211914	-72.181488
2764.466968	17387.000167	1741.199219	-163.216019
2764.466968	17387.000167	1740.186523	-15.938485
2764.466968	17387.000167	1739.173828	10.851102
2764.466968	17387.000167	1738.160156	-35.607719
2764.466968	17387.000167	1737.147461	99.499237
2764.466968	17387.000167	1736.133789	5.697086
2764.466968	17387.000167	1735.120117	50.956852
2764.466968	17387.000167	1734.106445	23.033247
2764.466968	17387.000167	1733.091797	94.012146
2764.466968	17387.000167	1732.078125	122.475159
2764.466968	17387.000167	1731.063477	124.912506
2764.466968	17387.000167	1730.048828	56.597382
2764.466968	17387.000167	1729.034180	75.365608
2764.466968	17387.000167	1728.019531	54.014923
2764.466968	17387.000167	1727.003906	143.226501
2764.466968	17387.000167	1725.988281	164.062958
2764.466968	17387.000167	1724.972656	133.037857
2764.466968	17387.000167	1723.957031	144.298584
2764.466968	17387.000167	1722.941406	23.738628
2764.466968	17387.000167	1721.924805	81.885536
2764.466968	17387.000167	1720.909180	292.799164
2764.466968	17387.000167	1719.892578	96.802208
2764.466968	17387.000167	1718.875977	239.298645
2764.466968	17387.000167	1717.858398	181.885147
2764.466968	17387.000167	1716.841797	103.288132
2764.466968	17387.000167	1715.824219	-41.145771
2764.466968	17387.000167	1714.806641	91.567780
2764.466968	17387.000167	1713.789063	48.031311
2764.466968	17387.000167	1712.770508	-155.233002
2764.466968	17387.000167	1711.752930	-34.518604
2764.466968	17387.000167	1710.734375	-85.267502
2764.466968	17387.000167	1709.715820	-173.608322
2764.466968	17387.000167	1708.697266	162.671875
2764.466968	17387.000167	1707.678711	-21.987453
2764.466968	17387.000167	1706.659180	-108.153290
2764.466968	17387.000167	1705.640625	72.973442
2764.466968	17387.000167	1704.621094	64.061417
2764.466968	17387.000167	1703.600586	-3.520336
2764.466968	17387.000167	1702.581055	8.555930
2764.466968	17387.000167	1701.561523	133.033691
2764.466968	17387.000167	1700.541016	100.439415
2764.466968	17387.000167	1699.520508	46.722271
2764.466968	17387.000167	1698.500000	53.853027
2764.466968	17387.000167	1697.478516	77.299454
2764.466968	17387.000167	1696.458008	245.824478
2764.466968	17387.000167	1695.436523	4.664299
2764.466968	17387.000167	1694.415039	196.417740
2764.466968	17387.000167	1693.393555	177.500900
2764.466968	17387.000167	1692.372070	165.559433
2764.466968	17387.000167	1691.349609	268.143860
2764.466968	17387.000167	1690.327148	242.048538
2764.466968	17387.000167	1689.304688	323.447388
2764.466968	17387.000167	1688.282227	311.282959
2764.466968	17387.000167	1687.259766	317.773102
2764.466968	17387.000167	1686.236328	338.219238
2764.466968	17387.000167	1685.213867	566.518005
2764.466968	17387.000167	1684.190430	453.710449
2764.466968	17387.000167	1683.166016	464.640411
2764.466968	17387.000167	1682.142578	391.502533
2764.466968	17387.000167	1681.119141	500.407776
2764.466968	17387.000167	1680.094727	212.513779
2764.466968	17387.000167	1679.070313	209.335007
2764.466968	17387.000167	1678.045898	357.745667
2764.466968	17387.000167	1677.020508	317.140625
2764.466968	17387.000167	1675.996094	551.682739
2764.466968	17387.000167	1674.970703	487.680206
2764.466968	17387.000167	1673.945313	568.185669
2764.466968	17387.000167	1672.919922	543.762817
2764.466968	17387.000167	1671.893555	491.346527
2764.466968	17387.000167	1670.868164	646.266785
2764.466968	17387.000167	1669.841797	549.546448
2764.466968	17387.000167	1668.815430	881.304749
2764.466968	17387.000167	1667.789063	870.671814
2764.466968	17387.000167	1666.761719	906.558899
2764.466968	17387.000167	1665.735352	991.300110
2764.466968	17387.000167	1664.708008	1138.797119
2764.466968	17387.000167	1663.680664	834.903625
2764.466968	17387.000167	1662.653320	956.753601
2764.466968	17387.000167	1661.625000	1162.240723
2764.466968	17387.000167	1660.597656	1253.723633
2764.466968	17387.000167	1659.569336	1022.025818
2764.466968	17387.000167	1658.541016	1090.216797
2764.466968	17387.000167	1657.512695	1302.438354
2764.466968	17387.000167	1656.483398	1324.046021
2764.466968	17387.000167	1655.455078	1475.728760
2764.466968	17387.000167	1654.425781	1441.542358
2764.466968	17387.000167	1653.396484	1305.199707
2764.466968	17387.000167	1652.366211	1389.423950
2764.466968	17387.000167	1651.336914	1285.628174
2764.466968	17387.000167	1650.306641	1404.623291
2764.466968	17387.000167	1649.276367	1419.168213
2764.466968	17387.000167	1648.246094	1473.139160
2764.466968	17387.000167	1647.215820	1288.215088
2764.466968	17387.000167	1646.185547	1499.866821
2764.466968	17387.000167	1645.154297	1586.235352
2764.466968	17387.000167	1644.123047	1540.458496
2764.466968	17387.000167	1643.091797	1626.796143
2764.466968	17387.000167	1642.060547	1428.122681
2764.466968	17387.000167	1641.028320	1502.863159
2764.466968	17387.000167	1639.997070	1549.807739
2764.466968	17387.000167	1638.964844	1480.947754
2764.466968	17387.000167	1637.931641	1386.642212
2764.466968	17387.000167	1636.899414	1482.208252
2764.466968	17387.000167	1635.867188	1510.636353
2764.466968	17387.000167	1634.833984	1483.521851
2764.466968	17387.000167	1633.800781	1757.167480
2764.466968	17387.000167	1632.767578	1653.722778
2764.466968	17387.000167	1631.734375	1890.266968
2764.466968	17387.000167	1630.700195	1925.577148
2764.466968	17387.000167	1629.666016	1919.287720
2764.466968	17387.000167	1628.631836	1908.400269
2764.466968	17387.000167	1627.597656	1966.858887
2764.466968	17387.000167	1626.563477	2032.250977
2764.466968	17387.000167	1625.528320	2206.184570
2764.466968	17387.000167	1624.493164	2278.467773
2764.466968	17387.000167	1623.458008	2274.558350
2764.466968	17387.000167	1622.422852	2240.669678
2764.466968	17387.000167	1621.387695	2342.994873
2764.466968	17387.000167	1620.351563	2433.758301
2764.466968	17387.000167	1619.315430	2469.148682
2764.466968	17387.000167	1618.279297	2506.865479
2764.466968	17387.000167	1617.243164	2316.292969
2764.466968	17387.000167	1616.207031	2556.998535
2764.466968	17387.000167	1615.169922	2580.937256
2764.466968	17387.000167	1614.132813	2867.654541
2764.466968	17387.000167	1613.095703	2734.904297
2764.466968	17387.000167	1612.058594	2498.569580
2764.466968	17387.000167	1611.020508	2720.744141
2764.466968	17387.000167	1609.983398	2724.104004
2764.466968	17387.000167	1608.945313	2580.126221
2764.466968	17387.000167	1607.907227	2804.589844
2764.466968	17387.000167	1606.868164	2934.628418
2764.466968	17387.000167	1605.830078	2726.398438
2764.466968	17387.000167	1604.791016	2762.165527
2764.466968	17387.000167	1603.751953	2954.391602
2764.466968	17387.000167	1602.712891	2990.201416
2764.466968	17387.000167	1601.673828	2917.976074
2764.466968	17387.000167	1600.633789	2917.085449
2764.466968	17387.000167	1599.594727	2750.770752
2764.466968	17387.000167	1598.554688	2860.331055
2764.466968	17387.000167	1597.513672	2742.423828
2764.466968	17387.000167	1596.473633	2665.985596
2764.466968	17387.000167	1595.433594	2568.965088
2764.466968	17387.000167	1594.392578	3032.323975
2764.466968	17387.000167	1593.351563	2795.328613
2764.466968	17387.000167	1592.310547	2519.467285
2764.466968	17387.000167	1591.268555	2686.687256
2764.466968	17387.000167	1590.227539	2968.645752
2764.466968	17387.000167	1589.185547	2853.675049
2764.466968	17387.000167	1588.143555	2729.640381
2764.466968	17387.000167	1587.100586	2775.400635
2764.466968	17387.000167	1586.058594	3016.107666
2764.466968	17387.000167	1585.015625	3029.840088
2764.466968	17387.000167	1583.972656	2947.385010
2764.466968	17387.000167	1582.929688	3105.624023
2764.466968	17387.000167	1581.886719	3082.894043
2764.466968	17387.000167	1580.843750	3367.166992
2764.466968	17387.000167	1579.799805	3072.018066
2764.466968	17387.000167	1578.755859	3509.721680
2764.466968	17387.000167	1577.711914	3171.319824
2764.466968	17387.000167	1576.666992	3341.198486
2764.466968	17387.000167	1575.623047	3360.081055
2764.466968	17387.000167	1574.578125	3182.275391
2764.466968	17387.000167	1573.533203	3057.229492
2764.466968	17387.000167	1572.488281	2939.173340
2764.466968	17387.000167	1571.443359	2926.423584
2764.466968	17387.000167	1570.397461	2932.038818
2764.466968	17387.000167	1569.351563	2626.904297
2764.466968	17387.000167	1568.305664	2591.614502
2764.466968	17387.000167	1567.259766	2503.879395
2764.466968	17387.000167	1566.213867	2548.748779
2764.466968	17387.000167	1565.166992	2337.900391
2764.466968	17387.000167	1564.120117	2243.670898
2764.466968	17387.000167	1563.073242	2252.297852
2764.466968	17387.000167	1562.026367	1898.113892
2764.466968	17387.000167	1560.978516	1934.360718
2764.466968	17387.000167	1559.930664	1961.562378
2764.466968	17387.000167	1558.883789	1972.891724
2764.466968	17387.000167	1557.834961	1975.167236
2764.466968	17387.000167	1556.787109	1959.308472
2764.466968	17387.000167	1555.739258	1904.798584
2764.466968	17387.000167	1554.690430	1984.872681
2764.466968	17387.000167	1553.641602	1837.134277
2764.466968	17387.000167	1552.592773	1921.946411
2764.466968	17387.000167	1551.542969	2018.203979
2764.466968	17387.000167	1550.494141	2121.370850
2764.466968	17387.000167	1549.444336	1921.744507
2764.466968	17387.000167	1548.394531	2002.318726
2764.466968	17387.000167	1547.344727	1757.480835
2764.466968	17387.000167	1546.293945	1785.914185
2764.466968	17387.000167	1545.244141	1991.920410
2764.466968	17387.000167	1544.193359	2134.247559
2764.466968	17387.000167	1543.142578	2197.025146
2764.466968	17387.000167	1542.090820	2000.655640
2764.466968	17387.000167	1541.040039	2077.294434
2764.466968	17387.000167	1539.988281	1981.255615
2764.466968	17387.000167	1538.936523	1864.913452
2764.466968	17387.000167	1537.884766	1430.637939
2764.466968	17387.000167	1536.833008	1684.951050
2764.466968	17387.000167	1535.780273	1521.369263
2764.466968	17387.000167	1534.727539	1539.624756
2764.466968	17387.000167	1533.674805	1430.853027
2764.466968	17387.000167	1532.622070	1363.095825
2764.466968	17387.000167	1531.569336	1424.838013
2764.466968	17387.000167	1530.515625	1486.662964
2764.466968	17387.000167	1529.461914	1144.788574
2764.466968	17387.000167	1528.408203	1340.697021
2764.466968	17387.000167	1527.354492	1055.914185
2764.466968	17387.000167	1526.299805	1070.619629
2764.466968	17387.000167	1525.246094	942.646729
2764.466968	17387.000167	1524.191406	975.741516
2764.466968	17387.000167	1523.136719	1083.716064
2764.466968	17387.000167	1522.081055	1046.779419
2764.466968	17387.000167	1521.026367	1064.347168
2764.466968	17387.000167	1519.970703	1005.032410
2764.466968	17387.000167	1518.915039	1108.874268
2764.466968	17387.000167	1517.859375	1314.661133
2764.466968	17387.000167	1516.802734	1140.279663
2764.466968	17387.000167	1515.747070	1212.733032
2764.466968	17387.000167	1514.690430	979.876587
2764.466968	17387.000167	1513.633789	1084.244873
2764.466968	17387.000167	1512.577148	1034.930176
2764.466968	17387.000167	1511.519531	1103.321411
2764.466968	17387.000167	1510.461914	1070.096191
2764.466968	17387.000167	1509.405273	781.641785
2764.466968	17387.000167	1508.346680	809.754578
2764.466968	17387.000167	1507.289063	969.020752
2764.466968	17387.000167	1506.231445	866.352905
2764.466968	17387.000167	1505.172852	885.793030
2764.466968	17387.000167	1504.114258	794.729004
2764.466968	17387.000167	1503.055664	333.636627
2764.466968	17387.000167	1501.996094	619.872803
2764.466968	17387.000167	1500.937500	664.699768
2764.466968	17387.000167	1499.877930	894.626831
2764.466968	17387.000167	1498.818359	736.649353
2764.466968	17387.000167	1497.757813	718.678345
2764.466968	17387.000167	1496.698242	448.338379
2764.466968	17387.000167	1495.637695	453.246033
2764.466968	17387.000167	1494.577148	629.570068
2764.466968	17387.000167	1493.516602	242.643890
2764.466968	17387.000167	1492.456055	281.791901
2764.466968	17387.000167	1491.394531	190.420959
2764.466968	17387.000167	1490.333008	281.628967
2764.466968	17387.000167	1489.271484	80.248215
2764.466968	17387.000167	1488.209961	277.519196
2764.466968	17387.000167	1487.148438	33.736061
2764.466968	17387.000167	1486.085938	39.950798
2764.466968	17387.000167	1485.023438	-102.176903
2764.466968	17387.000167	1483.960938	95.527969
2764.466968	17387.000167	1482.898438	221.336136
2764.466968	17387.000167	1481.834961	176.363480
2764.466968	17387.000167	1480.772461	216.975586
2764.466968	17387.000167	1479.708984	66.695198
2764.466968	17387.000167	1478.644531	161.517014
2764.466968	17387.000167	1477.581055	92.494240
2764.466968	17387.000167	1476.517578	324.537933
2764.466968	17387.000167	1475.453125	305.097717
2764.466968	17387.000167	1474.388672	438.589722
2764.466968	17387.000167	1473.323242	345.550720
2764.466968	17387.000167	1472.258789	611.529663
2764.466968	17387.000167	1471.193359	552.382385
2764.466968	17387.000167	1470.127930	401.278290
2764.466968	17387.000167	1469.062500	741.425476
2764.466968	17387.000167	1467.997070	613.101379
2764.466968	17387.000167	1466.930664	836.989990
2764.466968	17387.000167	1465.865234	874.862183
2764.466968	17387.000167	1464.798828	603.823364
2764.466968	17387.000167	1463.731445	801.056702
2764.466968	17387.000167	1462.665039	926.195374
2764.466968	17387.000167	1461.597656	787.876953
2764.466968	17387.000167	1460.530273	904.752930
2764.466968	17387.000167	1459.462891	840.461914
2764.466968	17387.000167	1458.395508	692.208984
2764.466968	17387.000167	1457.327148	775.526062
2764.466968	17387.000167	1456.259766	863.414734
2764.466968	17387.000167	1455.191406	802.400879
2764.466968	17387.000167	1454.123047	1060.712280
2764.466968	17387.000167	1453.053711	760.565796
2764.466968	17387.000167	1451.985352	760.226807
2764.466968	17387.000167	1450.916016	755.770813
2764.466968	17387.000167	1449.846680	897.384094
2764.466968	17387.000167	1448.776367	877.750854
2764.466968	17387.000167	1447.707031	694.676270
2764.466968	17387.000167	1446.636719	1056.120850
2764.466968	17387.000167	1445.566406	771.841309
2764.466968	17387.000167	1444.496094	953.142456
2764.466968	17387.000167	1443.425781	798.246582
2764.466968	17387.000167	1442.354492	722.152161
2764.466968	17387.000167	1441.283203	799.023743
2764.466968	17387.000167	1440.211914	707.811401
2764.466968	17387.000167	1439.140625	876.274597
2764.466968	17387.000167	1438.069336	675.116272
2764.466968	17387.000167	1436.997070	569.895996
2764.466968	17387.000167	1435.924805	759.915344
2764.466968	17387.000167	1434.852539	370.142761
2764.466968	17387.000167	1433.780273	567.588806
2764.466968	17387.000167	1432.707031	515.347717
2764.466968	17387.000167	1431.633789	260.705719
2764.466968	17387.000167	1430.560547	443.021057
2764.466968	17387.000167	1429.487305	136.407639
2764.466968	17387.000167	1428.413086	252.551971
2764.466968	17387.000167	1427.339844	233.839035
2764.466968	17387.000167	1426.265625	109.780952
2764.466968	17387.000167	1425.191406	163.454224
2764.466968	17387.000167	1424.116211	266.115204
2764.466968	17387.000167	1423.041992	2.786420
2764.466968	17387.000167	1421.966797	92.153870
2764.466968	17387.000167	1420.891602	47.530815
2764.466968	17387.000167	1419.816406	-14.899534
2764.466968	17387.000167	1418.740234	-46.202515
2764.466968	17387.000167	1417.665039	-63.769985
2764.466968	17387.000167	1416.588867	44.391907
2764.466968	17387.000167	1415.512695	-209.500946
2764.466968	17387.000167	1414.435547	-179.646225
2764.466968	17387.000167	1413.359375	-43.850883
2764.466968	17387.000167	1412.282227	-91.619141
2764.466968	17387.000167	1411.205078	-162.003204
2764.466968	17387.000167	1410.127930	-295.934204
2764.466968	17387.000167	1409.049805	-28.617075
2764.466968	17387.000167	1407.972656	15.734680
2764.466968	17387.000167	1406.894531	-133.182724
2764.466968	17387.000167	1405.816406	-146.973953
2764.466968	17387.000167	1404.737305	78.740532
2764.466968	17387.000167	1403.659180	18.582121
2764.466968	17387.000167	1402.580078	301.861267
2764.466968	17387.000167	1401.500977	195.738388
2764.466968	17387.000167	1400.421875	237.276443
2764.466968	17387.000167	1399.341797	291.409241
2764.466968	17387.000167	1398.262695	192.218842
2764.466968	17387.000167	1397.182617	459.884979
2764.466968	17387.000167	1396.102539	289.368256
2764.466968	17387.000167	1395.021484	330.051208
2764.466968	17387.000167	1393.941406	390.448395
2764.466968	17387.000167	1392.860352	159.608749
2764.466968	17387.000167	1391.779297	390.046021
2764.466968	17387.000167	1390.698242	417.979370
2764.466968	17387.000167	1389.616211	424.637482
2764.466968	17387.000167	1388.535156	387.192017
2764.466968	17387.000167	1387.453125	548.398010
2764.466968	17387.000167	1386.371094	672.547974
2764.466968	17387.000167	1385.288086	773.625000
2764.466968	17387.000167	1384.206055	861.441284
2764.466968	17387.000167	1383.123047	643.708923
2764.466968	17387.000167	1382.040039	1067.343872
2764.466968	17387.000167	1380.957031	1216.474365
2764.466968	17387.000167	1379.873047	1319.469727
2764.466968	17387.000167	1378.789063	1261.565918
2764.466968	17387.000167	1377.705078	1097.956543
2764.466968	17387.000167	1376.621094	1290.452515
2764.466968	17387.000167	1375.537109	1434.917236
2764.466968	17387.000167	1374.452148	1423.223633
2764.466968	17387.000167	1373.367188	1579.803101
2764.466968	17387.000167	1372.282227	1468.867188
2764.466968	17387.000167	1371.197266	1378.606201
2764.466968	17387.000167	1370.112305	1489.775513
2764.466968	17387.000167	1369.026367	1590.888916
2764.466968	17387.000167	1367.940430	1270.874512
2764.466968	17387.000167	1366.854492	1163.040161
2764.466968	17387.000167	1365.767578	1237.602295
2764.466968	17387.000167	1364.681641	1273.618042
2764.466968	17387.000167	1363.594727	1036.423462
2764.466968	17387.000167	1362.507813	1324.709595
2764.466968	17387.000167	1361.419922	1028.208984
2764.466968	17387.000167	1360.333008	963.513062
2764.466968	17387.000167	1359.245117	724.139282
2764.466968	17387.000167	1358.157227	978.940613
2764.466968	17387.000167	1357.069336	659.087036
2764.466968	17387.000167	1355.981445	986.964478
2764.466968	17387.000167	1354.892578	831.880005
2764.466968	17387.000167	1353.803711	918.226257
2764.466968	17387.000167	1352.714844	1026.492676
2764.466968	17387.000167	1351.625000	1116.659302
2764.466968	17387.000167	1350.536133	1075.024048
2764.466968	17387.000167	1349.446289	948.610840
2764.466968	17387.000167	1348.356445	1117.140869
2764.466968	17387.000167	1347.266602	1200.033081
2764.466968	17387.000167	1346.175781	1353.717285
2764.466968	17387.000167	1345.085938	1115.791382
2764.466968	17387.000167	1343.995117	1385.372803
2764.466968	17387.000167	1342.903320	1355.820190
2764.466968	17387.000167	1341.812500	1608.598999
2764.466968	17387.000167	1340.720703	1666.643555
2764.466968	17387.000167	1339.629883	1737.008545
2764.466968	17387.000167	1338.538086	1609.509888
2764.466968	17387.000167	1337.445313	1671.104614
2764.466968	17387.000167	1336.353516	1696.131470
2764.466968	17387.000167	1335.260742	1570.323242
2764.466968	17387.000167	1334.167969	1606.291748
2764.466968	17387.000167	1333.075195	1578.929565
2764.466968	17387.000167	1331.981445	1548.312134
2764.466968	17387.000167	1330.888672	1527.960449
2764.466968	17387.000167	1329.794922	1331.383179
2764.466968	17387.000167	1328.701172	1541.855225
2764.466968	17387.000167	1327.606445	1639.310791
2764.466968	17387.000167	1326.512695	1324.348755
2764.466968	17387.000167	1325.417969	1714.835205
2764.466968	17387.000167	1324.323242	1647.494385
2764.466968	17387.000167	1323.227539	1631.397217
2764.466968	17387.000167	1322.132813	1604.000488
2764.466968	17387.000167	1321.037109	1452.815552
2764.466968	17387.000167	1319.941406	1586.335571
2764.466968	17387.000167	1318.845703	1475.746216
2764.466968	17387.000167	1317.750000	1646.145142
2764.466968	17387.000167	1316.653320	1668.253174
2764.466968	17387.000167	1315.556641	1492.398438
2764.466968	17387.000167	1314.459961	1957.774170
2764.466968	17387.000167	1313.363281	1652.047485
2764.466968	17387.000167	1312.265625	1697.559570
2764.466968	17387.000167	1311.167969	1640.962280
2764.466968	17387.000167	1310.070313	1767.491211
2764.466968	17387.000167	1308.972656	1758.796387
2764.466968	17387.000167	1307.874023	1398.506714
2764.466968	17387.000167	1306.776367	1655.262207
2764.466968	17387.000167	1305.677734	1566.524414
2764.466968	17387.000167	1304.579102	1443.632324
2764.466968	17387.000167	1303.479492	1460.658081
2764.466968	17387.000167	1302.380859	1581.393921
2764.466968	17387.000167	1301.281250	1693.858154
2764.466968	17387.000167	1300.181641	1371.948364
2764.466968	17387.000167	1299.081055	1380.174316
2764.466968	17387.000167	1297.981445	1195.114014
2764.466968	17387.000167	1296.880859	1372.921875
2764.466968	17387.000167	1295.780273	1306.508911
2764.466968	17387.000167	1294.679688	1346.933594
2764.466968	17387.000167	1293.578125	1287.238403
2764.466968	17387.000167	1292.476563	1260.630859
2764.466968	17387.000167	1291.375000	990.982971
2764.466968	17387.000167	1290.273438	962.585693
2764.466968	17387.000167	1289.171875	989.895142
2764.466968	17387.000167	1288.069336	912.904907
2764.466968	17387.000167	1286.966797	888.874268
2764.466968	17387.000167	1285.864258	644.131226
2764.466968	17387.000167	1284.761719	872.146423
2764.466968	17387.000167	1283.658203	735.286804
2764.466968	17387.000167	1282.554688	671.661926
2764.466968	17387.000167	1281.451172	811.474915
2764.466968	17387.000167	1280.347656	695.948303
2764.466968	17387.000167	1279.244141	728.519531
2764.466968	17387.000167	1278.139648	688.278442
2764.466968	17387.000167	1277.035156	705.718140
2764.466968	17387.000167	1275.930664	973.017273
2764.466968	17387.000167	1274.825195	869.866394
2764.466968	17387.000167	1273.720703	812.427307
2764.466968	17387.000167	1272.615234	696.249023
2764.466968	17387.000167	1271.508789	697.129456
2764.466968	17387.000167	1270.403320	661.936279
2764.466968	17387.000167	1269.297852	904.243896
2764.466968	17387.000167	1268.191406	794.704895
2764.466968	17387.000167	1267.084961	790.360901
2764.466968	17387.000167	1265.977539	783.406555
2764.466968	17387.000167	1264.871094	641.180054
2764.466968	17387.000167	1263.763672	775.633179
2764.466968	17387.000167	1262.656250	640.886658
2764.466968	17387.000167	1261.548828	770.056641
2764.466968	17387.000167	1260.440430	635.987244
2764.466968	17387.000167	1259.333008	569.922729
2764.466968	17387.000167	1258.224609	592.357117
2764.466968	17387.000167	1257.115234	654.799133
2764.466968	17387.000167	1256.006836	658.312317
2764.466968	17387.000167	1254.897461	615.016663
2764.466968	17387.000167	1253.788086	756.014282
2764.466968	17387.000167	1252.678711	559.547241
2764.466968	17387.000167	1251.569336	510.818695
2764.466968	17387.000167	1250.458984	563.015686
2764.466968	17387.000167	1249.349609	387.171204
2764.466968	17387.000167	1248.239258	533.503235
2764.466968	17387.000167	1247.127930	730.246155
2764.466968	17387.000167	1246.017578	667.084167
2764.466968	17387.000167	1244.906250	427.145599
2764.466968	17387.000167	1243.794922	485.737335
2764.466968	17387.000167	1242.683594	326.250977
2764.466968	17387.000167	1241.571289	311.929382
2764.466968	17387.000167	1240.459961	400.256561
2764.466968	17387.000167	1239.347656	305.657684
2764.466968	17387.000167	1238.234375	352.311462
2764.466968	17387.000167	1237.122070	272.356201
2764.466968	17387.000167	1236.008789	254.460220
2764.466968	17387.000167	1234.896484	194.394653
2764.466968	17387.000167	1233.782227	434.018036
2764.466968	17387.000167	1232.668945	461.527466
2764.466968	17387.000167	1231.555664	411.481354
2764.466968	17387.000167	1230.441406	298.363739
2764.466968	17387.000167	1229.327148	458.610535
2764.466968	17387.000167	1228.211914	460.235107
2764.466968	17387.000167	1227.097656	499.776184
2764.466968	17387.000167	1225.982422	403.812286
2764.466968	17387.000167	1224.867188	365.846680
2764.466968	17387.000167	1223.751953	365.402863
2764.466968	17387.000167	1222.635742	274.981537
2764.466968	17387.000167	1221.520508	259.591217
2764.466968	17387.000167	1220.404297	200.627762
2764.466968	17387.000167	1219.287109	251.286530
2764.466968	17387.000167	1218.170898	11.715761
2764.466968	17387.000167	1217.053711	42.460678
2764.466968	17387.000167	1215.936523	-39.785889
2764.466968	17387.000167	1214.819336	62.175354
2764.466968	17387.000167	1213.702148	-39.694561
2764.466968	17387.000167	1212.583984	9.143065
2764.466968	17387.000167	1211.465820	-74.254608
2764.466968	17387.000167	1210.347656	-116.376747
2764.466968	17387.000167	1209.229492	-148.358978
2764.466968	17387.000167	1208.110352	-73.998596
2764.466968	17387.000167	1206.992188	-234.342300
2764.466968	17387.000167	1205.873047	-113.627373
2764.466968	17387.000167	1204.752930	-63.497292
2764.466968	17387.000167	1203.633789	-7.163673
2764.466968	17387.000167	1202.513672	88.359734
2764.466968	17387.000167	1201.393555	101.156670
2764.466968	17387.000167	1200.273438	158.071991
2764.466968	17387.000167	1199.152344	-0.059859
2764.466968	17387.000167	1198.032227	205.235291
2764.466968	17387.000167	1196.911133	166.747208
2764.466968	17387.000167	1195.790039	265.364441
2764.466968	17387.000167	1194.667969	229.068802
2764.466968	17387.000167	1193.545898	102.424706
2764.466968	17387.000167	1192.424805	120.588455
2764.466968	17387.000167	1191.301758	55.447323
2764.466968	17387.000167	1190.179688	40.066593
2764.466968	17387.000167	1189.056641	75.181961
2764.466968	17387.000167	1187.933594	-28.182028
2764.466968	17387.000167	1186.810547	-19.100349
2764.466968	17387.000167	1185.687500	3.145971
2764.466968	17387.000167	1184.563477	-10.344304
2764.466968	17387.000167	1183.440430	29.169477
2764.466968	17387.000167	1182.316406	67.274231
2764.466968	17387.000167	1181.191406	-0.642207
2764.466968	17387.000167	1180.067383	82.866127
2764.466968	17387.000167	1178.942383	54.232635
2764.466968	17387.000167	1177.817383	164.209747
2764.466968	17387.000167	1176.692383	23.275290
2764.466968	17387.000167	1175.566406	-2.529840
2764.466968	17387.000167	1174.440430	80.181694
2764.466968	17387.000167	1173.314453	228.156281
2764.466968	17387.000167	1172.188477	102.191101
2764.466968	17387.000167	1171.062500	65.870453
2764.466968	17387.000167	1169.935547	179.144257
2764.466968	17387.000167	1168.808594	66.260437
2764.466968	17387.000167	1167.681641	116.883369
2764.466968	17387.000167	1166.553711	118.957993
2764.466968	17387.000167	1165.426758	77.466530
2764.466968	17387.000167	1164.298828	216.005508
2764.466968	17387.000167	1163.170898	-2.305835
2764.466968	17387.000167	1162.041992	195.215576
2764.466968	17387.000167	1160.914063	153.376556
2764.466968	17387.000167	1159.785156	206.727402
2764.466968	17387.000167	1158.656250	137.633667
2764.466968	17387.000167	1157.526367	104.028252
2764.466968	17387.000167	1156.397461	142.163712
2764.466968	17387.000167	1155.267578	18.366333
2764.466968	17387.000167	1154.137695	184.540970
2764.466968	17387.000167	1153.006836	237.754135
2764.466968	17387.000167	1151.876953	152.087906
2764.466968	17387.000167	1150.746094	41.445366
2764.466968	17387.000167	1149.615234	63.666153
2764.466968	17387.000167	1148.484375	1.250722
2764.466968	17387.000167	1147.352539	130.487076
2764.466968	17387.000167	1146.220703	-77.892426
2764.466968	17387.000167	1145.088867	-127.062088
2764.466968	17387.000167	1143.957031	-98.130791
2764.466968	17387.000167	1142.825195	-104.292381
2764.466968	17387.000167	1141.692383	-116.253227
2764.466968	17387.000167	1140.559570	-96.799210
2764.466968	17387.000167	1139.426758	-189.371201
2764.466968	17387.000167	1138.292969	-91.284119
2764.466968	17387.000167	1137.159180	-37.058029
2764.466968	17387.000167	1136.025391	-300.068359
2764.466968	17387.000167	1134.891602	-117.262802
2764.466968	17387.000167	1133.757813	-137.579269
2764.466968	17387.000167	1132.623047	23.115332
2764.466968	17387.000167	1131.488281	155.612778
2764.466968	17387.000167	1130.353516	-14.934988
2764.466968	17387.000167	1129.217773	-238.440918
2764.466968	17387.000167	1128.083008	-146.765823
2764.466968	17387.000167	1126.947266	-296.393524
2764.466968	17387.000167	1125.811523	-242.550415
2764.466968	17387.000167	1124.674805	-242.399704
2764.466968	17387.000167	1123.539063	-321.605408
2764.466968	17387.000167	1122.402344	-285.997467
2764.466968	17387.000167	1121.265625	-130.818634
2764.466968	17387.000167	1120.127930	-215.747940
2764.466968	17387.000167	1118.990234	-83.498718
2764.466968	17387.000167	1117.853516	-92.166893
2764.466968	17387.000167	1116.714844	-212.066498
2764.466968	17387.000167	1115.577148	-263.616486
2764.466968	17387.000167	1114.439453	-124.429550
2764.466968	17387.000167	1113.300781	-112.228935
2764.466968	17387.000167	1112.162109	-266.183655
2764.466968	17387.000167	1111.022461	-184.607849
2764.466968	17387.000167	1109.883789	-133.041000
2764.466968	17387.000167	1108.744141	-114.517517
2764.466968	17387.000167	1107.604492	-16.373085
2764.466968	17387.000167	1106.463867	97.979240
2764.466968	17387.000167	1105.324219	-133.247482
2764.466968	17387.000167	1104.183594	80.561264
2764.466968	17387.000167	1103.042969	95.374756
2764.466968	17387.000167	1101.902344	173.790451
2764.466968	17387.000167	1100.760742	67.360855
2764.466968	17387.000167	1099.619141	158.057404
2764.466968	17387.000167	1098.477539	84.201210
2764.466968	17387.000167	1097.335938	-26.984247
2764.466968	17387.000167	1096.193359	51.533779
2764.466968	17387.000167	1095.051758	250.277191
2764.466968	17387.000167	1093.909180	220.132858
2764.466968	17387.000167	1092.765625	116.260620
2764.466968	17387.000167	1091.623047	102.095871
2764.466968	17387.000167	1090.479492	93.065163
2764.466968	17387.000167	1089.335938	122.051720
2764.466968	17387.000167	1088.192383	179.098404
2764.466968	17387.000167	1087.047852	242.893753
2764.466968	17387.000167	1085.903320	84.316315
2764.466968	17387.000167	1084.758789	103.501770
2764.466968	17387.000167	1083.614258	110.916847
2764.466968	17387.000167	1082.469727	22.244106
2764.466968	17387.000167	1081.324219	-99.734459
2764.466968	17387.000167	1080.178711	157.984100
2764.466968	17387.000167	1079.033203	107.798180
2764.466968	17387.000167	1077.886719	94.508156
2764.466968	17387.000167	1076.740234	66.165047
2764.466968	17387.000167	1075.593750	139.619415
2764.466968	17387.000167	1074.447266	228.293152
2764.466968	17387.000167	1073.300781	102.552452
2764.466968	17387.000167	1072.153320	180.795059
2764.466968	17387.000167	1071.005859	232.165131
2764.466968	17387.000167	1069.858398	177.363876
2764.466968	17387.000167	1068.709961	116.614021
2764.466968	17387.000167	1067.561523	159.681046
2764.466968	17387.000167	1066.413086	147.337463
2764.466968	17387.000167	1065.264648	84.704430
2764.466968	17387.000167	1064.116211	105.013435
2764.466968	17387.000167	1062.966797	-36.657581
2764.466968	17387.000167	1061.817383	257.720886
2764.466968	17387.000167	1060.667969	176.528778
2764.466968	17387.000167	1059.517578	166.451309
2764.466968	17387.000167	1058.368164	288.861481
2764.466968	17387.000167	1057.217773	117.501564
2764.466968	17387.000167	1056.067383	18.994215
2764.466968	17387.000167	1054.916016	-25.454147
2764.466968	17387.000167	1053.764648	-6.302772
2764.466968	17387.000167	1052.613281	105.543198
2764.466968	17387.000167	1051.461914	109.204018
2764.466968	17387.000167	1050.310547	87.750145
2764.466968	17387.000167	1049.158203	57.664066
2764.466968	17387.000167	1048.005859	259.312103
2764.466968	17387.000167	1046.853516	292.322327
2764.466968	17387.000167	1045.700195	97.641930
2764.466968	17387.000167	1044.547852	83.098679
2764.466968	17387.000167	1043.394531	156.537872
2764.466968	17387.000167	1042.240234	379.801300
2764.466968	17387.000167	1041.086914	220.136093
2764.466968	17387.000167	1039.932617	288.161591
2764.466968	17387.000167	1038.778320	394.559113
2764.466968	17387.000167	1037.624023	315.061279
2764.466968	17387.000167	1036.469727	418.408569
2764.466968	17387.000167	1035.314453	575.547607
2764.466968	17387.000167	1034.159180	672.622925
2764.466968	17387.000167	1033.003906	717.377808
2764.466968	17387.000167	1031.847656	643.692444
2764.466968	17387.000167	1030.692383	501.654999
2764.466968	17387.000167	1029.536133	615.467590
2764.466968	17387.000167	1028.378906	689.768127
2764.466968	17387.000167	1027.222656	525.242737
2764.466968	17387.000167	1026.065430	318.295410
2764.466968	17387.000167	1024.908203	264.198212
2764.466968	17387.000167	1023.750977	287.476807
2764.466968	17387.000167	1022.593750	289.157776
2764.466968	17387.000167	1021.435547	246.983032
2764.466968	17387.000167	1020.277344	187.350784
2764.466968	17387.000167	1019.119141	327.533813
2764.466968	17387.000167	1017.959961	318.074554
2764.466968	17387.000167	1016.800781	432.105835
2764.466968	17387.000167	1015.641602	192.788116
2764.466968	17387.000167	1014.482422	278.289673
2764.466968	17387.000167	1013.323242	235.693817
2764.466968	17387.000167	1012.163086	242.849411
2764.466968	17387.000167	1011.002930	148.348541
2764.466968	17387.000167	1009.842773	119.693504
2764.466968	17387.000167	1008.681641	62.054256
2764.466968	17387.000167	1007.520508	-88.214211
2764.466968	17387.000167	1006.359375	103.156021
2764.466968	17387.000167	1005.198242	-36.627682
2764.466968	17387.000167	1004.037109	95.430145
2764.466968	17387.000167	1002.875000	217.523621
2764.466968	17387.000167	1001.712891	213.253143
2764.466968	17387.000167	1000.550781	288.067322
2764.466968	17387.000167	999.387695	260.476532
2764.466968	17387.000167	998.224609	124.985634
2764.466968	17387.000167	997.061523	156.845993
2764.466968	17387.000167	995.898438	-1.972325
2764.466968	17387.000167	994.734375	37.776211
2764.466968	17387.000167	993.571289	168.208069
2764.466968	17387.000167	992.407227	137.967178
2764.466968	17387.000167	991.242188	107.061569
2764.466968	17387.000167	990.078125	244.112915
2764.466968	17387.000167	988.913086	207.078323
2764.466968	17387.000167	987.748047	259.862610
2764.466968	17387.000167	986.583008	419.115570
2764.466968	17387.000167	985.416992	147.161392
2764.466968	17387.000167	984.250977	287.687317
2764.466968	17387.000167	983.084961	339.045258
2764.466968	17387.000167	981.918945	400.446594
2764.466968	17387.000167	980.751953	391.878387
2764.466968	17387.000167	979.584961	325.354248
2764.466968	17387.000167	978.417969	124.385300
2764.466968	17387.000167	977.250977	248.117462
2764.466968	17387.000167	976.083008	247.809128
2764.466968	17387.000167	974.915039	-23.977087
2764.466968	17387.000167	973.747070	127.266068
2764.466968	17387.000167	972.579102	47.320236
2764.466968	17387.000167	971.410156	77.644791
2764.466968	17387.000167	970.242188	118.557518
2764.466968	17387.000167	969.072266	259.234406
2764.466968	17387.000167	967.903320	136.284439
2764.466968	17387.000167	966.733398	121.345474
2764.466968	17387.000167	965.563477	-43.965775
2764.466968	17387.000167	964.393555	45.558144
2764.466968	17387.000167	963.223633	71.745758
2764.466968	17387.000167	962.052734	-58.350182
2764.466968	17387.000167	960.881836	196.131393
2764.466968	17387.000167	959.710938	154.245575
2764.466968	17387.000167	958.540039	175.053314
2764.466968	17387.000167	957.368164	87.898216
2764.466968	17387.000167	956.196289	1.428611
2764.466968	17387.000167	955.024414	72.847069
2764.466968	17387.000167	953.851563	-36.719757
2764.466968	17387.000167	952.679688	121.194748
2764.466968	17387.000167	951.506836	8.040717
2764.466968	17387.000167	950.333984	-5.404380
2764.466968	17387.000167	949.160156	58.771099
2764.466968	17387.000167	947.986328	-150.107437
2764.466968	17387.000167	946.812500	-81.519066
2764.466968	17387.000167	945.638672	54.434067
2764.466968	17387.000167	944.464844	42.499424
2764.466968	17387.000167	943.290039	51.582588
2764.466968	17387.000167	942.115234	58.339245
2764.466968	17387.000167	940.940430	39.946545
2764.466968	17387.000167	939.764648	-82.464478
2764.466968	17387.000167	938.588867	-136.917694
2764.466968	17387.000167	937.413086	-11.669563
2764.466968	17387.000167	936.237305	122.029335
2764.466968	17387.000167	935.060547	20.697559
2764.466968	17387.000167	933.883789	-59.370255
2764.466968	17387.000167	932.707031	-44.373928
2764.466968	17387.000167	931.530273	114.496498
2764.466968	17387.000167	930.352539	-20.782570
2764.466968	17387.000167	929.175781	-35.443146
2764.466968	17387.000167	927.998047	-172.894135
2764.466968	17387.000167	926.819336	-3.675325
2764.466968	17387.000167	925.641602	-115.755821
2764.466968	17387.000167	924.462891	2.603668
2764.466968	17387.000167	923.284180	-124.354645
2764.466968	17387.000167	922.104492	-31.468092
2764.466968	17387.000167	920.924805	-29.532494
2764.466968	17387.000167	919.746094	-25.809357
2764.466968	17387.000167	919.551758	-27.029541
2764.466968	17387.000167	918.386719	-35.788139
2764.466968	17387.000167	917.220703	-164.955490
2764.466968	17387.000167	916.054688	-85.076317
2764.466968	17387.000167	914.887695	-148.814362
2764.466968	17387.000167	913.721680	-28.945696
2764.466968	17387.000167	912.554688	-288.989563
2764.466968	17387.000167	911.387695	5.893184
2764.466968	17387.000167	910.220703	-121.240471
2764.466968	17387.000167	909.052734	-229.376709
2764.466968	17387.000167	907.885742	-221.544266
2764.466968	17387.000167	906.717773	-405.578125
2764.466968	17387.000167	905.548828	-140.654846
2764.466968	17387.000167	904.380859	27.192131
2764.466968	17387.000167	903.211914	-249.580399
2764.466968	17387.000167	902.042969	-191.374237
2764.466968	17387.000167	900.874023	-72.157860
2764.466968	17387.000167	899.704102	-182.514420
2764.466968	17387.000167	898.535156	-229.712387
2764.466968	17387.000167	897.365234	-108.558006
2764.466968	17387.000167	896.194336	-56.920246
2764.466968	17387.000167	895.024414	32.526318
2764.466968	17387.000167	893.853516	-61.081383
2764.466968	17387.000167	892.682617	103.967354
2764.466968	17387.000167	891.511719	33.443272
2764.466968	17387.000167	890.340820	-104.348709
2764.466968	17387.000167	889.168945	-50.872879
2764.466968	17387.000167	887.997070	-18.462402
2764.466968	17387.000167	886.825195	28.607552
2764.466968	17387.000167	885.653320	73.525673
2764.466968	17387.000167	884.480469	-34.894142
2764.466968	17387.000167	883.307617	-46.728130
2764.466968	17387.000167	882.134766	-79.578629
2764.466968	17387.000167	880.961914	-53.687637
2764.466968	17387.000167	879.788086	-172.608566
2764.466968	17387.000167	878.614258	-54.470314
2764.466968	17387.000167	877.440430	124.408951
2764.466968	17387.000167	876.266602	-76.345612
2764.466968	17387.000167	875.091797	3.873595
2764.466968	17387.000167	873.916992	-4.002667
2764.466968	17387.000167	872.742188	86.585327
2764.466968	17387.000167	871.567383	-38.693329
2764.466968	17387.000167	870.391602	225.666290
2764.466968	17387.000167	869.215820	142.237595
2764.466968	17387.000167	868.040039	178.161377
2764.466968	17387.000167	866.864258	207.760956
2764.466968	17387.000167	865.687500	44.764793
2764.466968	17387.000167	864.510742	206.152634
2764.466968	17387.000167	863.333984	239.824982
2764.466968	17387.000167	862.157227	-23.569637
2764.466968	17387.000167	860.979492	74.908028
2764.466968	17387.000167	859.802734	-127.768707
2764.466968	17387.000167	858.625000	-81.630661
2764.466968	17387.000167	857.446289	-163.028412
2764.466968	17387.000167	856.268555	2.144284
2764.466968	17387.000167	855.089844	8.447279
2764.466968	17387.000167	853.911133	-56.297714
2764.466968	17387.000167	852.731445	-116.867485
2764.466968	17387.000167	851.552734	-189.970062
2764.466968	17387.000167	850.373047	-137.825119
2764.466968	17387.000167	849.193359	-171.297394
2764.466968	17387.000167	848.013672	-148.448380
2764.466968	17387.000167	846.833008	-12.985687
2764.466968	17387.000167	845.652344	-88.264236
2764.466968	17387.000167	844.471680	-159.369949
2764.466968	17387.000167	843.291016	-80.367302
2764.466968	17387.000167	842.110352	-153.588318
2764.466968	17387.000167	840.928711	60.781712
2764.466968	17387.000167	839.747070	110.433838
2764.466968	17387.000167	838.564453	135.039154
2764.466968	17387.000167	837.382813	5.483905
2764.466968	17387.000167	836.200195	159.142456
2764.466968	17387.000167	835.017578	225.270416
2764.466968	17387.000167	833.834961	197.678284
2764.466968	17387.000167	832.651367	-27.626116
2764.466968	17387.000167	831.467773	-3.199616
2764.466968	17387.000167	830.284180	56.547550
2764.466968	17387.000167	829.100586	103.762764
2764.466968	17387.000167	827.916992	250.733047
2764.466968	17387.000167	826.732422	89.944611
2764.466968	17387.000167	825.547852	49.739124
2764.466968	17387.000167	824.363281	61.470005
2764.466968	17387.000167	823.177734	210.285477
2764.466968	17387.000167	821.992188	80.671791
2764.466968	17387.000167	820.806641	324.888611
2764.466968	17387.000167	819.621094	448.548096
2764.466968	17387.000167	818.434570	156.956528
2764.466968	17387.000167	817.249023	191.293884
2764.466968	17387.000167	816.062500	323.111298
2764.466968	17387.000167	814.875000	193.447632
2764.466968	17387.000167	813.688477	186.178238
2764.466968	17387.000167	812.500977	122.890251
2764.466968	17387.000167	811.313477	128.014465
2764.466968	17387.000167	810.125977	0.441310
2764.466968	17387.000167	808.937500	-2.766333
2764.466968	17387.000167	807.749023	81.018669
2764.466968	17387.000167	806.560547	25.939665
2764.466968	17387.000167	805.372070	165.537476
2764.466968	17387.000167	804.182617	118.679543
2764.466968	17387.000167	802.994141	253.991669
2764.466968	17387.000167	801.803711	41.479771
2764.466968	17387.000167	800.614258	236.696106
2764.466968	17387.000167	799.424805	270.416229
2764.466968	17387.000167	798.234375	279.264252
2764.466968	17387.000167	797.043945	236.369461
2764.466968	17387.000167	795.852539	315.452545
2764.466968	17387.000167	794.662109	237.353561
2764.466968	17387.000167	793.470703	347.333466
2764.466968	17387.000167	792.279297	169.999191
2764.466968	17387.000167	791.087891	46.416847
2764.466968	17387.000167	789.895508	243.013046
2764.466968	17387.000167	788.703125	166.890869
2764.466968	17387.000167	787.510742	70.115456
2764.466968	17387.000167	786.318359	35.271503
2764.466968	17387.000167	785.125000	6.594045
2764.466968	17387.000167	783.931641	66.617912
2764.466968	17387.000167	782.738281	-5.454067
2764.466968	17387.000167	781.544922	-104.348747
2764.466968	17387.000167	780.350586	-85.700378
2764.466968	17387.000167	779.156250	50.418560
2764.466968	17387.000167	777.961914	-40.300835
2764.466968	17387.000167	776.767578	110.097176
2764.466968	17387.000167	775.572266	33.743835
2764.466968	17387.000167	774.376953	6.821653
2764.466968	17387.000167	773.181641	70.489487
2764.466968	17387.000167	771.986328	-125.363342
2764.466968	17387.000167	770.790039	51.449917
2764.466968	17387.000167	769.593750	102.592377
2764.466968	17387.000167	768.397461	17.849823
2764.466968	17387.000167	767.201172	81.235596
2764.466968	17387.000167	766.003906	134.265411
2764.466968	17387.000167	764.806641	189.285095
2764.466968	17387.000167	763.609375	57.127327
2764.466968	17387.000167	762.412109	-1.013913
2764.466968	17387.000167	761.213867	-9.850602
2764.466968	17387.000167	760.015625	55.246437
2764.466968	17387.000167	758.817383	163.412598
2764.466968	17387.000167	757.618164	205.759018
2764.466968	17387.000167	756.419922	69.378716
2764.466968	17387.000167	755.220703	253.299973
2764.466968	17387.000167	754.021484	326.249786
2764.466968	17387.000167	752.821289	464.793243
2764.466968	17387.000167	751.621094	404.198456
2764.466968	17387.000167	750.420898	370.249237
2764.466968	17387.000167	749.220703	463.427643
2764.466968	17387.000167	748.020508	591.376892
2764.466968	17387.000167	746.819336	585.961670
2764.466968	17387.000167	745.618164	609.193359
2764.466968	17387.000167	744.416992	738.929199
2764.466968	17387.000167	743.214844	702.598999
2764.466968	17387.000167	742.012695	821.914673
2764.466968	17387.000167	740.810547	785.477356
2764.466968	17387.000167	739.608398	1068.428345
2764.466968	17387.000167	738.406250	1009.330627
2764.466968	17387.000167	737.203125	1259.261597
2764.466968	17387.000167	736.000000	1492.663696
2764.466968	17387.000167	734.795898	1754.554565
2764.466968	17387.000167	733.592773	1848.555054
2764.466968	17387.000167	732.388672	2132.647949
2764.466968	17387.000167	731.184570	2250.952637
2764.466968	17387.000167	729.979492	2252.633057
2764.466968	17387.000167	728.775391	1931.344604
2764.466968	17387.000167	727.570313	1802.204712
2764.466968	17387.000167	726.365234	1568.873657
2764.466968	17387.000167	725.160156	1288.606323
2764.466968	17387.000167	723.954102	1294.282959
2764.466968	17387.000167	722.748047	1201.901367
2764.466968	17387.000167	721.541992	1044.181763
2764.466968	17387.000167	720.334961	1080.339722
2764.466968	17387.000167	719.128906	983.802795
2764.466968	17387.000167	717.921875	834.208069
2764.466968	17387.000167	716.714844	809.024048
2764.466968	17387.000167	715.506836	883.702332
2764.466968	17387.000167	714.298828	870.626648
2764.466968	17387.000167	713.090820	855.457764
2764.466968	17387.000167	711.882813	799.478760
2764.466968	17387.000167	710.674805	861.627686
2764.466968	17387.000167	709.465820	691.477966
2764.466968	17387.000167	708.256836	562.066956
2764.466968	17387.000167	707.047852	660.686340
2764.466968	17387.000167	705.837891	818.232605
2764.466968	17387.000167	704.627930	737.530396
2764.466968	17387.000167	703.417969	701.563782
2764.466968	17387.000167	702.208008	696.063110
2764.466968	17387.000167	700.998047	588.805359
2764.466968	17387.000167	699.787109	412.386139
2764.466968	17387.000167	698.576172	412.853943
2764.466968	17387.000167	697.364258	596.192810
2764.466968	17387.000167	696.153320	574.138000
2764.466968	17387.000167	694.941406	424.020264
2764.466968	17387.000167	693.729492	464.850220
2764.466968	17387.000167	692.516602	627.449585
2764.466968	17387.000167	691.304688	527.981995
2764.466968	17387.000167	690.091797	507.660370
2764.466968	17387.000167	688.878906	661.831604
2764.466968	17387.000167	687.665039	785.429688
2764.466968	17387.000167	686.451172	559.953857
2764.466968	17387.000167	685.237305	807.118896
2764.466968	17387.000167	684.023438	814.815369
2764.466968	17387.000167	682.809570	777.835022
2764.466968	17387.000167	681.594727	923.238708
2764.466968	17387.000167	680.379883	1107.021118
2764.466968	17387.000167	679.165039	990.773987
2764.466968	17387.000167	677.949219	1018.337158
2764.466968	17387.000167	676.733398	1199.751465
2764.466968	17387.000167	675.517578	1127.900757
2764.466968	17387.000167	674.301758	1266.564209
2764.466968	17387.000167	673.084961	1079.215332
2764.466968	17387.000167	671.869141	1126.629883
2764.466968	17387.000167	670.651367	1218.459473
2764.466968	17387.000167	669.434570	1186.793823
2764.466968	17387.000167	668.216797	1126.755371
2764.466968	17387.000167	667.000000	1032.305786
2764.466968	17387.000167	665.781250	1148.061035
2764.466968	17387.000167	664.563477	1201.049072
2764.466968	17387.000167	663.344727	1350.935791
2764.466968	17387.000167	662.125977	1369.374146
2764.466968	17387.000167	660.907227	1129.196533
2764.466968	17387.000167	659.688477	1093.014160
2764.466968	17387.000167	658.468750	1222.333374
2764.466968	17387.000167	657.249023	1165.822144
2764.466968	17387.000167	656.029297	1335.299805
2764.466968	17387.000167	654.808594	1345.234619
2764.466968	17387.000167	653.587891	1530.602051
2764.466968	17387.000167	652.367188	1280.182861
2764.466968	17387.000167	651.146484	1265.726074
2764.466968	17387.000167	649.924805	1305.637207
2764.466968	17387.000167	648.704102	1311.205078
2764.466968	17387.000167	647.482422	1016.441101
2764.466968	17387.000167	646.259766	1126.693237
2764.466968	17387.000167	645.037109	860.158325
2764.466968	17387.000167	643.815430	958.188721
2764.466968	17387.000167	642.591797	1076.237671
2764.466968	17387.000167	641.369141	715.077393
2764.466968	17387.000167	640.145508	843.063660
2764.466968	17387.000167	638.921875	657.032349
2764.466968	17387.000167	637.698242	736.568970
2764.466968	17387.000167	636.474609	616.887817
2764.466968	17387.000167	635.250000	706.323547
2764.466968	17387.000167	634.025391	713.230896
2764.466968	17387.000167	632.800781	812.536194
2764.466968	17387.000167	631.575195	815.271301
2764.466968	17387.000167	630.349609	799.862366
2764.466968	17387.000167	629.124023	792.435974
2764.466968	17387.000167	627.898438	654.411682
2764.466968	17387.000167	626.671875	689.062439
2764.466968	17387.000167	625.445313	649.364563
2764.466968	17387.000167	624.218750	691.915283
2764.466968	17387.000167	622.992188	611.985901
2764.466968	17387.000167	621.764648	714.595276
2764.466968	17387.000167	620.537109	776.989563
2764.466968	17387.000167	619.309570	618.713318
2764.466968	17387.000167	618.081055	701.036560
2764.466968	17387.000167	616.852539	831.380188
2764.466968	17387.000167	615.624023	751.187439
2764.466968	17387.000167	614.395508	923.438599
2764.466968	17387.000167	613.166992	941.317139
2764.466968	17387.000167	611.937500	951.120178
2764.466968	17387.000167	610.708008	948.854980
2764.466968	17387.000167	609.477539	964.554932
2764.466968	17387.000167	608.248047	808.074829
2764.466968	17387.000167	607.017578	663.615356
2764.466968	17387.000167	605.787109	439.143005
2764.466968	17387.000167	604.555664	520.756592
2764.466968	17387.000167	603.325195	470.308228
2764.466968	17387.000167	602.093750	313.863739
2764.466968	17387.000167	600.861328	217.406494
2764.466968	17387.000167	599.629883	198.901108
2764.466968	17387.000167	598.397461	144.389877
2764.466968	17387.000167	597.165039	315.605225
2764.466968	17387.000167	595.932617	314.942749
2764.466968	17387.000167	594.699219	132.523697
2764.466968	17387.000167	593.465820	39.986847
2764.466968	17387.000167	592.232422	-78.492836
2764.466968	17387.000167	590.999023	154.267471
2764.466968	17387.000167	589.764648	195.354797
2764.466968	17387.000167	588.530273	156.604355
2764.466968	17387.000167	587.295898	-39.709164
2764.466968	17387.000167	586.061523	13.267988
2764.466968	17387.000167	584.826172	147.920700
2764.466968	17387.000167	583.590820	142.976929
2764.466968	17387.000167	582.355469	102.144997
2764.466968	17387.000167	581.119141	-96.083778
2764.466968	17387.000167	579.882813	84.185646
2764.466968	17387.000167	578.646484	45.310085
2764.466968	17387.000167	577.410156	217.468613
2764.466968	17387.000167	576.172852	260.146698
2764.466968	17387.000167	574.935547	52.042248
2764.466968	17387.000167	573.698242	60.882233
2764.466968	17387.000167	572.460938	67.714928
2764.466968	17387.000167	571.222656	34.750443
2764.466968	17387.000167	569.984375	87.287354
2764.466968	17387.000167	568.746094	62.263615
2764.466968	17387.000167	567.506836	265.798553
2764.466968	17387.000167	566.267578	282.453491
2764.466968	17387.000167	565.028320	330.883179
2764.466968	17387.000167	563.789063	313.742462
2764.466968	17387.000167	562.548828	280.713165
2764.466968	17387.000167	561.309570	239.762253
2764.466968	17387.000167	560.068359	363.568054
2764.466968	17387.000167	558.828125	276.968933
2764.466968	17387.000167	557.586914	186.435532
2764.466968	17387.000167	556.345703	357.792908
2764.466968	17387.000167	555.104492	414.054321
2764.466968	17387.000167	553.863281	293.826782
2764.466968	17387.000167	552.621094	484.894775
2764.466968	17387.000167	551.378906	261.653687
2764.466968	17387.000167	550.136719	288.199738
2764.466968	17387.000167	548.893555	302.855621
2764.466968	17387.000167	547.650391	462.113312
2764.466968	17387.000167	546.407227	512.405029
2764.466968	17387.000167	545.164063	374.605316
2764.466968	17387.000167	543.919922	292.303589
2764.466968	17387.000167	542.675781	314.947754
2764.466968	17387.000167	541.431641	400.922211
2764.466968	17387.000167	540.186523	419.620026
2764.466968	17387.000167	538.941406	226.716614
2764.466968	17387.000167	537.696289	427.413727
2764.466968	17387.000167	536.451172	321.634766
2764.466968	17387.000167	535.205078	211.972092
2764.466968	17387.000167	533.959961	197.247406
2764.466968	17387.000167	532.712891	-15.013096
2764.466968	17387.000167	531.466797	144.200546
2764.466968	17387.000167	530.219727	90.100044
2764.466968	17387.000167	528.972656	-181.119934
2764.466968	17387.000167	527.725586	-118.584908
2764.466968	17387.000167	526.478516	-160.631378
2764.466968	17387.000167	525.230469	-30.963657
2764.466968	17387.000167	523.982422	-179.453690
2764.466968	17387.000167	522.734375	-120.747604
2764.466968	17387.000167	521.485352	-46.249855
2764.466968	17387.000167	520.236328	-80.162643
2764.466968	17387.000167	518.987305	18.044586
2764.466968	17387.000167	517.737305	-110.358734
2764.466968	17387.000167	516.488281	-43.603996
2764.466968	17387.000167	515.238281	-83.194626
2764.466968	17387.000167	513.988281	-118.774605
2764.466968	17387.000167	512.737305	-175.946518
2764.466968	17387.000167	511.486328	-319.647461
2764.466968	17387.000167	510.235352	-427.803162
2764.466968	17387.000167	508.984375	-358.769073
2764.466968	17387.000167	507.732422	-153.974869
2764.466968	17387.000167	506.480469	-224.552338
2764.466968	17387.000167	505.228516	-175.089493
2764.466968	17387.000167	503.976563	-322.176331
2764.466968	17387.000167	502.723633	-81.939743
2764.466968	17387.000167	501.470703	-205.278564
2764.466968	17387.000167	500.217773	-161.503632
2764.466968	17387.000167	498.963867	-237.503616
2764.466968	17387.000167	497.709961	-177.901230
2764.466968	17387.000167	496.456055	-92.733124
2764.466968	17387.000167	495.202148	4.244321
2764.466968	17387.000167	493.947266	-69.497208
2764.466968	17387.000167	492.692383	55.036232
2764.466968	17387.000167	491.437500	128.580231
2764.466968	17387.000167	490.181641	159.010742
2764.466968	17387.000167	488.926758	283.622253
2764.466968	17387.000167	487.670898	151.431015
2764.466968	17387.000167	486.414063	372.159821
2764.466968	17387.000167	485.158203	228.388687
2764.466968	17387.000167	483.901367	55.356651
2764.466968	17387.000167	482.644531	117.515556
2764.466968	17387.000167	481.386719	91.587852
2764.466968	17387.000167	480.128906	151.887390
2764.466968	17387.000167	478.871094	180.909653
2764.466968	17387.000167	477.613281	98.435204
2764.466968	17387.000167	476.355469	12.149738
2764.466968	17387.000167	475.096680	215.479584
2764.466968	17387.000167	473.837891	58.924316
2764.466968	17387.000167	472.578125	78.477524
2764.466968	17387.000167	471.319336	2.297989
2764.466968	17387.000167	470.059570	270.200958
2764.466968	17387.000167	468.799805	239.073044
2764.466968	17387.000167	467.539063	165.032532
2764.466968	17387.000167	466.278320	120.378754
2764.466968	17387.000167	465.017578	107.044388
2764.466968	17387.000167	463.756836	117.196350
2764.466968	17387.000167	462.495117	152.767029
2764.466968	17387.000167	461.233398	213.740540
2764.466968	17387.000167	459.971680	-78.421692
2764.466968	17387.000167	458.709961	29.481812
2764.466968	17387.000167	457.447266	258.293121
2764.466968	17387.000167	456.184570	9.325677
2764.466968	17387.000167	454.921875	-65.998817
2764.466968	17387.000167	453.658203	277.776520
2764.466968	17387.000167	452.394531	56.337578
2764.466968	17387.000167	451.130859	131.141663
2764.466968	17387.000167	449.867188	85.172279
2764.466968	17387.000167	448.602539	121.025314
2764.466968	17387.000167	447.337891	69.262764
2764.466968	17387.000167	446.073242	116.803085
2764.466968	17387.000167	444.807617	6.689856
2764.466968	17387.000167	443.542969	-97.536385
2764.466968	17387.000167	442.276367	-100.579010
2764.466968	17387.000167	441.010742	114.191658
2764.466968	17387.000167	439.744141	54.688698
2764.466968	17387.000167	438.478516	4.912763
2764.466968	17387.000167	437.210938	69.792252
2764.466968	17387.000167	435.944336	-139.369125
2764.466968	17387.000167	434.676758	-278.547058
2764.466968	17387.000167	433.409180	13.476165
2764.466968	17387.000167	432.141602	14.037457
2764.466968	17387.000167	430.873047	-35.944527
2764.466968	17387.000167	429.604492	65.426003
2764.466968	17387.000167	428.335938	211.309326
2764.466968	17387.000167	427.067383	34.973846
2764.466968	17387.000167	425.797852	126.304665
2764.466968	17387.000167	424.528320	106.950546
2764.466968	17387.000167	423.258789	291.082336
2764.466968	17387.000167	421.988281	110.569344
2764.466968	17387.000167	420.717773	257.542053
2764.466968	17387.000167	419.447266	258.986786
2764.466968	17387.000167	418.175781	147.915100
2764.466968	17387.000167	416.905273	296.271210
2764.466968	17387.000167	415.633789	397.913727
2764.466968	17387.000167	414.362305	319.282532
2764.466968	17387.000167	413.089844	341.135315
2764.466968	17387.000167	411.817383	132.489670
2764.466968	17387.000167	410.544922	105.580452
2764.466968	17387.000167	409.272461	202.247665
2764.466968	17387.000167	407.999023	-132.634048
2764.466968	17387.000167	406.725586	-34.531391
2764.466968	17387.000167	405.452148	59.390537
2764.466968	17387.000167	404.177734	191.631516
2764.466968	17387.000167	402.903320	93.580627
2764.466968	17387.000167	401.628906	242.525620
2764.466968	17387.000167	400.354492	194.074142
2764.466968	17387.000167	399.079102	137.565094
2764.466968	17387.000167	397.803711	105.812492
2764.466968	17387.000167	396.528320	94.922623
2764.466968	17387.000167	395.251953	315.193085
2764.466968	17387.000167	393.976563	127.883560
2764.466968	17387.000167	392.700195	146.597305
2764.466968	17387.000167	391.422852	313.329315
2764.466968	17387.000167	390.145508	273.215668
2764.466968	17387.000167	388.869141	140.110229
2764.466968	17387.000167	387.590820	276.332184
2764.466968	17387.000167	386.313477	126.809532
2764.466968	17387.000167	385.035156	113.553009
2764.466968	17387.000167	383.756836	105.498695
2764.466968	17387.000167	382.478516	35.229706
2764.466968	17387.000167	381.199219	141.460220
2764.466968	17387.000167	379.919922	333.602478
2764.466968	17387.000167	378.640625	88.183098
2764.466968	17387.000167	377.360352	203.833862
2764.466968	17387.000167	376.080078	185.992966
2764.466968	17387.000167	374.799805	63.565083
2764.466968	17387.000167	373.519531	84.602730
2764.466968	17387.000167	372.238281	156.705444
2764.466968	17387.000167	370.957031	99.183128
2764.466968	17387.000167	369.675781	-24.506485
2764.466968	17387.000167	368.394531	-204.743240
2764.466968	17387.000167	367.112305	82.749634
2764.466968	17387.000167	365.830078	-49.414497
2764.466968	17387.000167	364.546875	28.628023
2764.466968	17387.000167	363.264648	-57.500458
2764.466968	17387.000167	361.981445	-77.512268
2764.466968	17387.000167	360.698242	4.985209
2764.466968	17387.000167	359.414063	-88.238556
2764.466968	17387.000167	358.129883	-261.206970
2764.466968	17387.000167	356.845703	-155.398422
2764.466968	17387.000167	355.561523	-75.792099
2764.466968	17387.000167	354.276367	-123.999466
2764.466968	17387.000167	352.991211	-25.981220
2764.466968	17387.000167	351.706055	-34.712227
2764.466968	17387.000167	350.420898	-48.668217
2764.466968	17387.000167	349.134766	39.299282
2764.466968	17387.000167	347.848633	-75.247490
2764.466968	17387.000167	346.561523	68.969574
2764.466968	17387.000167	345.275391	-60.114426
2764.466968	17387.000167	343.988281	-87.498184
2764.466968	17387.000167	342.700195	-275.315094
2764.466968	17387.000167	341.413086	-32.586658
2764.466968	17387.000167	340.125000	-172.197937
2764.466968	17387.000167	338.836914	-101.409515
2764.466968	17387.000167	337.548828	-116.595314
2764.466968	17387.000167	336.259766	-112.721237
2764.466968	17387.000167	334.970703	-108.910240
2764.466968	17387.000167	333.681641	-59.387108
2764.466968	17387.000167	332.391602	45.260162
2764.466968	17387.000167	331.101563	0.744630
2764.466968	17387.000167	329.811523	1.761019
2764.466968	17387.000167	328.521484	168.421890
2764.466968	17387.000167	327.230469	-106.095657
2764.466968	17387.000167	325.939453	63.393932
2764.466968	17387.000167	324.648438	-179.573593
2764.466968	17387.000167	323.356445	-60.899601
2764.466968	17387.000167	322.064453	-28.709484
2764.466968	17387.000167	320.772461	88.479950
2764.466968	17387.000167	319.480469	-63.792709
2764.466968	17387.000167	318.187500	30.662533
2764.466968	17387.000167	316.894531	-108.180481
2764.466968	17387.000167	315.601563	-8.099642
2764.466968	17387.000167	314.307617	-27.236872
2764.466968	17387.000167	313.013672	-98.912048
2764.466968	17387.000167	311.719727	46.994137
2764.466968	17387.000167	310.425781	48.856480
2764.466968	17387.000167	309.130859	269.832306
2764.466968	17387.000167	307.835938	202.132462
2764.466968	17387.000167	306.541016	47.355869
2764.466968	17387.000167	305.245117	293.804749
2764.466968	17387.000167	303.949219	243.897964
2764.466968	17387.000167	302.653320	180.790314
2764.466968	17387.000167	301.356445	108.098106
2764.466968	17387.000167	300.060547	491.145630
2764.466968	17387.000167	298.763672	469.364441
