#X		#Y		#Wave		#Intensity
2857.552606	17454.250167	2000.043945	110.773079
2857.552606	17454.250167	1999.080078	173.371994
2857.552606	17454.250167	1998.116211	-40.667198
2857.552606	17454.250167	1997.151367	-106.029739
2857.552606	17454.250167	1996.186523	115.955467
2857.552606	17454.250167	1995.222656	75.185890
2857.552606	17454.250167	1994.256836	-84.535431
2857.552606	17454.250167	1993.291992	-43.693981
2857.552606	17454.250167	1992.327148	9.436028
2857.552606	17454.250167	1991.361328	69.901268
2857.552606	17454.250167	1990.395508	268.871918
2857.552606	17454.250167	1989.429688	-91.529770
2857.552606	17454.250167	1988.463867	164.171494
2857.552606	17454.250167	1987.497070	214.411957
2857.552606	17454.250167	1986.531250	-14.883461
2857.552606	17454.250167	1985.564453	35.261490
2857.552606	17454.250167	1984.597656	-40.745289
2857.552606	17454.250167	1983.630859	63.663857
2857.552606	17454.250167	1982.664063	-32.184216
2857.552606	17454.250167	1981.696289	-76.153778
2857.552606	17454.250167	1980.728516	-23.803802
2857.552606	17454.250167	1979.761719	40.838089
2857.552606	17454.250167	1978.792969	38.743839
2857.552606	17454.250167	1977.825195	103.279175
2857.552606	17454.250167	1976.857422	24.585279
2857.552606	17454.250167	1975.888672	168.015549
2857.552606	17454.250167	1974.919922	118.892670
2857.552606	17454.250167	1973.951172	119.104927
2857.552606	17454.250167	1972.982422	20.626480
2857.552606	17454.250167	1972.013672	-50.708241
2857.552606	17454.250167	1971.043945	1.251103
2857.552606	17454.250167	1970.075195	8.799187
2857.552606	17454.250167	1969.105469	8.931959
2857.552606	17454.250167	1968.135742	41.088081
2857.552606	17454.250167	1967.165039	100.321411
2857.552606	17454.250167	1966.195313	-35.092522
2857.552606	17454.250167	1965.224609	142.337021
2857.552606	17454.250167	1964.253906	-42.304504
2857.552606	17454.250167	1963.283203	122.734818
2857.552606	17454.250167	1962.312500	-17.537302
2857.552606	17454.250167	1961.341797	-10.090263
2857.552606	17454.250167	1960.370117	-10.032233
2857.552606	17454.250167	1959.399414	-0.133382
2857.552606	17454.250167	1958.427734	-56.655354
2857.552606	17454.250167	1957.455078	-61.510113
2857.552606	17454.250167	1956.483398	184.448029
2857.552606	17454.250167	1955.511719	66.466637
2857.552606	17454.250167	1954.539063	71.431396
2857.552606	17454.250167	1953.566406	132.921890
2857.552606	17454.250167	1952.593750	86.283737
2857.552606	17454.250167	1951.621094	-9.463181
2857.552606	17454.250167	1950.647461	-65.869843
2857.552606	17454.250167	1949.674805	57.019611
2857.552606	17454.250167	1948.701172	47.287426
2857.552606	17454.250167	1947.727539	-38.530560
2857.552606	17454.250167	1946.753906	15.590209
2857.552606	17454.250167	1945.780273	47.616631
2857.552606	17454.250167	1944.805664	77.187485
2857.552606	17454.250167	1943.831055	-64.948685
2857.552606	17454.250167	1942.856445	48.041111
2857.552606	17454.250167	1941.881836	62.919033
2857.552606	17454.250167	1940.907227	146.448669
2857.552606	17454.250167	1939.932617	-120.552238
2857.552606	17454.250167	1938.957031	-63.950897
2857.552606	17454.250167	1937.981445	17.145466
2857.552606	17454.250167	1937.005859	61.479305
2857.552606	17454.250167	1936.030273	2.939524
2857.552606	17454.250167	1935.054688	-13.933152
2857.552606	17454.250167	1934.078125	-20.991863
2857.552606	17454.250167	1933.101563	128.634933
2857.552606	17454.250167	1932.125000	1.655348
2857.552606	17454.250167	1931.148438	-95.897331
2857.552606	17454.250167	1930.171875	-9.905391
2857.552606	17454.250167	1929.194336	-100.052116
2857.552606	17454.250167	1928.217773	157.135574
2857.552606	17454.250167	1927.240234	179.501465
2857.552606	17454.250167	1926.262695	138.310852
2857.552606	17454.250167	1925.284180	155.813004
2857.552606	17454.250167	1924.306641	41.356754
2857.552606	17454.250167	1923.328125	49.126740
2857.552606	17454.250167	1922.350586	-16.378923
2857.552606	17454.250167	1921.372070	-67.191383
2857.552606	17454.250167	1920.392578	-103.319115
2857.552606	17454.250167	1919.414063	138.919434
2857.552606	17454.250167	1918.434570	163.822235
2857.552606	17454.250167	1917.456055	186.288986
2857.552606	17454.250167	1916.476563	196.559570
2857.552606	17454.250167	1915.497070	89.731346
2857.552606	17454.250167	1914.516602	48.816208
2857.552606	17454.250167	1913.537109	90.848923
2857.552606	17454.250167	1912.556641	62.164120
2857.552606	17454.250167	1911.576172	31.064114
2857.552606	17454.250167	1910.595703	-43.887550
2857.552606	17454.250167	1909.615234	73.722748
2857.552606	17454.250167	1908.633789	154.751099
2857.552606	17454.250167	1907.653320	-27.339762
2857.552606	17454.250167	1906.671875	-4.759605
2857.552606	17454.250167	1905.690430	12.950447
2857.552606	17454.250167	1904.708984	-59.423012
2857.552606	17454.250167	1903.727539	-168.275543
2857.552606	17454.250167	1902.745117	-38.566521
2857.552606	17454.250167	1901.762695	59.467514
2857.552606	17454.250167	1900.780273	-49.327335
2857.552606	17454.250167	1899.797852	51.115726
2857.552606	17454.250167	1898.815430	129.638382
2857.552606	17454.250167	1897.832031	-59.335487
2857.552606	17454.250167	1896.849609	16.754669
2857.552606	17454.250167	1895.866211	-147.814102
2857.552606	17454.250167	1894.882813	32.767460
2857.552606	17454.250167	1893.898438	-80.715012
2857.552606	17454.250167	1892.915039	102.218414
2857.552606	17454.250167	1891.930664	-50.094193
2857.552606	17454.250167	1890.947266	-49.362389
2857.552606	17454.250167	1889.962891	-148.177322
2857.552606	17454.250167	1888.977539	-16.348309
2857.552606	17454.250167	1887.993164	8.641168
2857.552606	17454.250167	1887.007813	-99.843056
2857.552606	17454.250167	1886.023438	10.058783
2857.552606	17454.250167	1885.038086	115.063080
2857.552606	17454.250167	1884.051758	93.912743
2857.552606	17454.250167	1883.066406	116.409409
2857.552606	17454.250167	1882.081055	-25.960680
2857.552606	17454.250167	1881.094727	-22.855381
2857.552606	17454.250167	1880.108398	164.416275
2857.552606	17454.250167	1879.122070	102.047859
2857.552606	17454.250167	1878.135742	-110.499985
2857.552606	17454.250167	1877.148438	81.496666
2857.552606	17454.250167	1876.162109	-31.706352
2857.552606	17454.250167	1875.174805	58.492905
2857.552606	17454.250167	1874.187500	-74.054893
2857.552606	17454.250167	1873.199219	100.797935
2857.552606	17454.250167	1872.211914	-53.514462
2857.552606	17454.250167	1871.223633	133.334351
2857.552606	17454.250167	1870.236328	10.486569
2857.552606	17454.250167	1869.248047	42.442883
2857.552606	17454.250167	1868.258789	57.443645
2857.552606	17454.250167	1867.270508	21.653124
2857.552606	17454.250167	1866.282227	184.051941
2857.552606	17454.250167	1865.292969	-71.697227
2857.552606	17454.250167	1864.303711	100.279861
2857.552606	17454.250167	1863.314453	28.188438
2857.552606	17454.250167	1862.324219	-43.899212
2857.552606	17454.250167	1861.334961	7.168725
2857.552606	17454.250167	1860.344727	-19.064949
2857.552606	17454.250167	1859.354492	27.100767
2857.552606	17454.250167	1858.364258	63.568874
2857.552606	17454.250167	1857.374023	112.061226
2857.552606	17454.250167	1856.383789	90.544777
2857.552606	17454.250167	1855.392578	90.715179
2857.552606	17454.250167	1854.401367	163.203247
2857.552606	17454.250167	1853.410156	69.265511
2857.552606	17454.250167	1852.418945	201.935349
2857.552606	17454.250167	1851.426758	204.369720
2857.552606	17454.250167	1850.435547	-101.678864
2857.552606	17454.250167	1849.443359	175.407028
2857.552606	17454.250167	1848.451172	115.113388
2857.552606	17454.250167	1847.458984	307.690399
2857.552606	17454.250167	1846.466797	119.701263
2857.552606	17454.250167	1845.473633	-142.888168
2857.552606	17454.250167	1844.480469	-27.509727
2857.552606	17454.250167	1843.487305	27.621960
2857.552606	17454.250167	1842.494141	46.601345
2857.552606	17454.250167	1841.500977	17.419378
2857.552606	17454.250167	1840.506836	233.540771
2857.552606	17454.250167	1839.513672	81.607536
2857.552606	17454.250167	1838.519531	97.991226
2857.552606	17454.250167	1837.525391	-77.984795
2857.552606	17454.250167	1836.530273	20.050289
2857.552606	17454.250167	1835.536133	144.438553
2857.552606	17454.250167	1834.541016	134.190887
2857.552606	17454.250167	1833.545898	49.436508
2857.552606	17454.250167	1832.550781	70.338272
2857.552606	17454.250167	1831.555664	67.172844
2857.552606	17454.250167	1830.560547	-58.476013
2857.552606	17454.250167	1829.564453	108.703178
2857.552606	17454.250167	1828.568359	59.786171
2857.552606	17454.250167	1827.572266	147.600906
2857.552606	17454.250167	1826.576172	259.320068
2857.552606	17454.250167	1825.580078	126.302872
2857.552606	17454.250167	1824.583008	10.066611
2857.552606	17454.250167	1823.585938	-31.854662
2857.552606	17454.250167	1822.588867	-13.887362
2857.552606	17454.250167	1821.591797	-89.450081
2857.552606	17454.250167	1820.594727	57.805698
2857.552606	17454.250167	1819.596680	39.642166
2857.552606	17454.250167	1818.599609	172.333847
2857.552606	17454.250167	1817.601563	-18.387264
2857.552606	17454.250167	1816.603516	121.331177
2857.552606	17454.250167	1815.604492	-47.882118
2857.552606	17454.250167	1814.606445	-16.035362
2857.552606	17454.250167	1813.607422	-3.407216
2857.552606	17454.250167	1812.608398	128.785095
2857.552606	17454.250167	1811.609375	21.653328
2857.552606	17454.250167	1810.610352	127.360054
2857.552606	17454.250167	1809.610352	34.489746
2857.552606	17454.250167	1808.611328	130.466583
2857.552606	17454.250167	1807.611328	90.092323
2857.552606	17454.250167	1806.611328	133.315155
2857.552606	17454.250167	1805.610352	135.834122
2857.552606	17454.250167	1804.610352	-2.658501
2857.552606	17454.250167	1803.609375	-74.288673
2857.552606	17454.250167	1802.608398	47.475609
2857.552606	17454.250167	1801.607422	-24.268927
2857.552606	17454.250167	1800.606445	71.048088
2857.552606	17454.250167	1799.605469	-79.568871
2857.552606	17454.250167	1798.603516	89.558327
2857.552606	17454.250167	1797.601563	3.272095
2857.552606	17454.250167	1796.599609	76.768829
2857.552606	17454.250167	1795.597656	-43.007996
2857.552606	17454.250167	1794.595703	-29.279943
2857.552606	17454.250167	1793.592773	-82.382332
2857.552606	17454.250167	1792.589844	45.614548
2857.552606	17454.250167	1791.587891	-81.494583
2857.552606	17454.250167	1790.583984	51.073231
2857.552606	17454.250167	1789.581055	59.650127
2857.552606	17454.250167	1788.577148	-108.101105
2857.552606	17454.250167	1787.574219	140.868698
2857.552606	17454.250167	1786.570313	146.822662
2857.552606	17454.250167	1785.566406	-68.674210
2857.552606	17454.250167	1784.561523	-72.352760
2857.552606	17454.250167	1783.557617	-66.580727
2857.552606	17454.250167	1782.552734	-46.614529
2857.552606	17454.250167	1781.547852	44.627281
2857.552606	17454.250167	1780.542969	123.870079
2857.552606	17454.250167	1779.538086	38.948616
2857.552606	17454.250167	1778.532227	15.787457
2857.552606	17454.250167	1777.527344	101.897209
2857.552606	17454.250167	1776.521484	102.346848
2857.552606	17454.250167	1775.515625	78.961960
2857.552606	17454.250167	1774.508789	-108.399055
2857.552606	17454.250167	1773.502930	-1.262573
2857.552606	17454.250167	1772.496094	10.770918
2857.552606	17454.250167	1771.489258	32.220200
2857.552606	17454.250167	1770.482422	-112.568146
2857.552606	17454.250167	1769.475586	-36.672821
2857.552606	17454.250167	1768.467773	-164.942337
2857.552606	17454.250167	1767.460938	-3.817666
2857.552606	17454.250167	1766.453125	43.316704
2857.552606	17454.250167	1765.445313	26.329178
2857.552606	17454.250167	1764.437500	-71.339851
2857.552606	17454.250167	1763.428711	8.730345
2857.552606	17454.250167	1762.420898	-62.981987
2857.552606	17454.250167	1761.412109	-37.598320
2857.552606	17454.250167	1760.403320	106.154465
2857.552606	17454.250167	1759.393555	216.607971
2857.552606	17454.250167	1758.384766	-94.593391
2857.552606	17454.250167	1757.375000	-52.963234
2857.552606	17454.250167	1756.366211	57.232021
2857.552606	17454.250167	1755.356445	-90.685562
2857.552606	17454.250167	1754.345703	76.101273
2857.552606	17454.250167	1753.335938	58.209366
2857.552606	17454.250167	1752.325195	-25.993708
2857.552606	17454.250167	1751.315430	95.524734
2857.552606	17454.250167	1750.304688	13.557300
2857.552606	17454.250167	1749.292969	11.918356
2857.552606	17454.250167	1748.282227	116.577080
2857.552606	17454.250167	1747.270508	178.573242
2857.552606	17454.250167	1746.259766	86.894409
2857.552606	17454.250167	1745.248047	-11.920430
2857.552606	17454.250167	1744.235352	94.703911
2857.552606	17454.250167	1743.223633	52.447819
2857.552606	17454.250167	1742.211914	73.878426
2857.552606	17454.250167	1741.199219	31.482517
2857.552606	17454.250167	1740.186523	-34.574043
2857.552606	17454.250167	1739.173828	-27.531242
2857.552606	17454.250167	1738.160156	-129.097794
2857.552606	17454.250167	1737.147461	54.715714
2857.552606	17454.250167	1736.133789	-39.902981
2857.552606	17454.250167	1735.120117	68.214355
2857.552606	17454.250167	1734.106445	-139.675140
2857.552606	17454.250167	1733.091797	-27.022665
2857.552606	17454.250167	1732.078125	-41.729683
2857.552606	17454.250167	1731.063477	-136.619324
2857.552606	17454.250167	1730.048828	-7.763676
2857.552606	17454.250167	1729.034180	97.417664
2857.552606	17454.250167	1728.019531	-23.564693
2857.552606	17454.250167	1727.003906	3.735682
2857.552606	17454.250167	1725.988281	172.181564
2857.552606	17454.250167	1724.972656	13.375382
2857.552606	17454.250167	1723.957031	198.081696
2857.552606	17454.250167	1722.941406	-10.213256
2857.552606	17454.250167	1721.924805	59.027988
2857.552606	17454.250167	1720.909180	-19.966063
2857.552606	17454.250167	1719.892578	-21.423193
2857.552606	17454.250167	1718.875977	169.803589
2857.552606	17454.250167	1717.858398	-24.552681
2857.552606	17454.250167	1716.841797	-35.614986
2857.552606	17454.250167	1715.824219	-140.721939
2857.552606	17454.250167	1714.806641	-147.205750
2857.552606	17454.250167	1713.789063	-80.954109
2857.552606	17454.250167	1712.770508	25.110493
2857.552606	17454.250167	1711.752930	114.645012
2857.552606	17454.250167	1710.734375	51.511456
2857.552606	17454.250167	1709.715820	211.262726
2857.552606	17454.250167	1708.697266	0.196229
2857.552606	17454.250167	1707.678711	148.038101
2857.552606	17454.250167	1706.659180	96.403130
2857.552606	17454.250167	1705.640625	215.903152
2857.552606	17454.250167	1704.621094	185.246704
2857.552606	17454.250167	1703.600586	260.004486
2857.552606	17454.250167	1702.581055	123.771095
2857.552606	17454.250167	1701.561523	90.620270
2857.552606	17454.250167	1700.541016	113.632362
2857.552606	17454.250167	1699.520508	127.206627
2857.552606	17454.250167	1698.500000	138.373947
2857.552606	17454.250167	1697.478516	121.372765
2857.552606	17454.250167	1696.458008	153.484879
2857.552606	17454.250167	1695.436523	166.793884
2857.552606	17454.250167	1694.415039	219.818512
2857.552606	17454.250167	1693.393555	132.400238
2857.552606	17454.250167	1692.372070	105.773087
2857.552606	17454.250167	1691.349609	256.815887
2857.552606	17454.250167	1690.327148	251.095383
2857.552606	17454.250167	1689.304688	245.322266
2857.552606	17454.250167	1688.282227	106.280403
2857.552606	17454.250167	1687.259766	254.653122
2857.552606	17454.250167	1686.236328	134.235977
2857.552606	17454.250167	1685.213867	217.039520
2857.552606	17454.250167	1684.190430	332.444183
2857.552606	17454.250167	1683.166016	211.917374
2857.552606	17454.250167	1682.142578	238.468918
2857.552606	17454.250167	1681.119141	346.651184
2857.552606	17454.250167	1680.094727	254.046616
2857.552606	17454.250167	1679.070313	343.412048
2857.552606	17454.250167	1678.045898	374.379120
2857.552606	17454.250167	1677.020508	353.969635
2857.552606	17454.250167	1675.996094	265.911713
2857.552606	17454.250167	1674.970703	320.041199
2857.552606	17454.250167	1673.945313	343.805573
2857.552606	17454.250167	1672.919922	248.665573
2857.552606	17454.250167	1671.893555	365.535461
2857.552606	17454.250167	1670.868164	498.635956
2857.552606	17454.250167	1669.841797	317.209778
2857.552606	17454.250167	1668.815430	436.203644
2857.552606	17454.250167	1667.789063	382.828308
2857.552606	17454.250167	1666.761719	296.835785
2857.552606	17454.250167	1665.735352	455.212799
2857.552606	17454.250167	1664.708008	411.046448
2857.552606	17454.250167	1663.680664	543.665527
2857.552606	17454.250167	1662.653320	529.664551
2857.552606	17454.250167	1661.625000	517.947815
2857.552606	17454.250167	1660.597656	524.814758
2857.552606	17454.250167	1659.569336	373.562347
2857.552606	17454.250167	1658.541016	580.250854
2857.552606	17454.250167	1657.512695	566.080322
2857.552606	17454.250167	1656.483398	563.488159
2857.552606	17454.250167	1655.455078	614.302429
2857.552606	17454.250167	1654.425781	681.312866
2857.552606	17454.250167	1653.396484	764.523438
2857.552606	17454.250167	1652.366211	726.947510
2857.552606	17454.250167	1651.336914	735.792297
2857.552606	17454.250167	1650.306641	709.786926
2857.552606	17454.250167	1649.276367	672.167664
2857.552606	17454.250167	1648.246094	646.136658
2857.552606	17454.250167	1647.215820	852.012207
2857.552606	17454.250167	1646.185547	802.723816
2857.552606	17454.250167	1645.154297	792.833740
2857.552606	17454.250167	1644.123047	1170.005249
2857.552606	17454.250167	1643.091797	956.077942
2857.552606	17454.250167	1642.060547	1126.826294
2857.552606	17454.250167	1641.028320	1035.715698
2857.552606	17454.250167	1639.997070	902.947021
2857.552606	17454.250167	1638.964844	927.661926
2857.552606	17454.250167	1637.931641	908.353638
2857.552606	17454.250167	1636.899414	928.399719
2857.552606	17454.250167	1635.867188	920.655151
2857.552606	17454.250167	1634.833984	996.185059
2857.552606	17454.250167	1633.800781	1048.541382
2857.552606	17454.250167	1632.767578	1105.492676
2857.552606	17454.250167	1631.734375	1109.226440
2857.552606	17454.250167	1630.700195	1131.433594
2857.552606	17454.250167	1629.666016	1068.097900
2857.552606	17454.250167	1628.631836	1104.156860
2857.552606	17454.250167	1627.597656	1059.324097
2857.552606	17454.250167	1626.563477	1206.250122
2857.552606	17454.250167	1625.528320	1147.535156
2857.552606	17454.250167	1624.493164	1656.929321
2857.552606	17454.250167	1623.458008	1568.130005
2857.552606	17454.250167	1622.422852	1433.195679
2857.552606	17454.250167	1621.387695	1496.798340
2857.552606	17454.250167	1620.351563	1627.282104
2857.552606	17454.250167	1619.315430	1711.576050
2857.552606	17454.250167	1618.279297	1724.335571
2857.552606	17454.250167	1617.243164	1707.113281
2857.552606	17454.250167	1616.207031	1918.167847
2857.552606	17454.250167	1615.169922	1859.416870
2857.552606	17454.250167	1614.132813	1812.220215
2857.552606	17454.250167	1613.095703	1928.659668
2857.552606	17454.250167	1612.058594	1966.728516
2857.552606	17454.250167	1611.020508	1937.979004
2857.552606	17454.250167	1609.983398	1784.899170
2857.552606	17454.250167	1608.945313	1548.986328
2857.552606	17454.250167	1607.907227	1904.822754
2857.552606	17454.250167	1606.868164	1744.947388
2857.552606	17454.250167	1605.830078	1615.075317
2857.552606	17454.250167	1604.791016	1878.690430
2857.552606	17454.250167	1603.751953	1783.367310
2857.552606	17454.250167	1602.712891	1904.286499
2857.552606	17454.250167	1601.673828	2112.555176
2857.552606	17454.250167	1600.633789	1929.921631
2857.552606	17454.250167	1599.594727	1795.661133
2857.552606	17454.250167	1598.554688	1833.817383
2857.552606	17454.250167	1597.513672	1885.754883
2857.552606	17454.250167	1596.473633	1930.814209
2857.552606	17454.250167	1595.433594	1815.107666
2857.552606	17454.250167	1594.392578	1887.755493
2857.552606	17454.250167	1593.351563	2006.316040
2857.552606	17454.250167	1592.310547	1925.157593
2857.552606	17454.250167	1591.268555	1704.055420
2857.552606	17454.250167	1590.227539	2070.470215
2857.552606	17454.250167	1589.185547	1879.304565
2857.552606	17454.250167	1588.143555	1968.064209
2857.552606	17454.250167	1587.100586	1955.908325
2857.552606	17454.250167	1586.058594	1888.776978
2857.552606	17454.250167	1585.015625	1961.520142
2857.552606	17454.250167	1583.972656	1747.792725
2857.552606	17454.250167	1582.929688	1916.839844
2857.552606	17454.250167	1581.886719	1904.875122
2857.552606	17454.250167	1580.843750	1748.651489
2857.552606	17454.250167	1579.799805	1645.186157
2857.552606	17454.250167	1578.755859	1878.364990
2857.552606	17454.250167	1577.711914	1555.236938
2857.552606	17454.250167	1576.666992	1667.111084
2857.552606	17454.250167	1575.623047	1492.965454
2857.552606	17454.250167	1574.578125	1410.430298
2857.552606	17454.250167	1573.533203	1568.139526
2857.552606	17454.250167	1572.488281	1609.199585
2857.552606	17454.250167	1571.443359	1563.403198
2857.552606	17454.250167	1570.397461	1611.385010
2857.552606	17454.250167	1569.351563	1499.406738
2857.552606	17454.250167	1568.305664	1618.312988
2857.552606	17454.250167	1567.259766	1581.866333
2857.552606	17454.250167	1566.213867	1513.503052
2857.552606	17454.250167	1565.166992	1353.857178
2857.552606	17454.250167	1564.120117	1630.432129
2857.552606	17454.250167	1563.073242	1454.947632
2857.552606	17454.250167	1562.026367	1380.009888
2857.552606	17454.250167	1560.978516	1232.122192
2857.552606	17454.250167	1559.930664	1202.984253
2857.552606	17454.250167	1558.883789	1173.923218
2857.552606	17454.250167	1557.834961	1142.628418
2857.552606	17454.250167	1556.787109	1271.023438
2857.552606	17454.250167	1555.739258	1260.362915
2857.552606	17454.250167	1554.690430	1083.368774
2857.552606	17454.250167	1553.641602	1095.644897
2857.552606	17454.250167	1552.592773	991.779785
2857.552606	17454.250167	1551.542969	999.623901
2857.552606	17454.250167	1550.494141	1034.866455
2857.552606	17454.250167	1549.444336	903.925354
2857.552606	17454.250167	1548.394531	1014.414551
2857.552606	17454.250167	1547.344727	1234.177612
2857.552606	17454.250167	1546.293945	966.916748
2857.552606	17454.250167	1545.244141	793.119385
2857.552606	17454.250167	1544.193359	1133.546875
2857.552606	17454.250167	1543.142578	896.227722
2857.552606	17454.250167	1542.090820	1170.683838
2857.552606	17454.250167	1541.040039	1129.102417
2857.552606	17454.250167	1539.988281	926.216675
2857.552606	17454.250167	1538.936523	889.375488
2857.552606	17454.250167	1537.884766	952.591248
2857.552606	17454.250167	1536.833008	1118.077393
2857.552606	17454.250167	1535.780273	763.459839
2857.552606	17454.250167	1534.727539	908.618164
2857.552606	17454.250167	1533.674805	1024.279663
2857.552606	17454.250167	1532.622070	978.810059
2857.552606	17454.250167	1531.569336	908.470947
2857.552606	17454.250167	1530.515625	747.468384
2857.552606	17454.250167	1529.461914	1067.528320
2857.552606	17454.250167	1528.408203	822.794983
2857.552606	17454.250167	1527.354492	750.573669
2857.552606	17454.250167	1526.299805	871.159607
2857.552606	17454.250167	1525.246094	758.314819
2857.552606	17454.250167	1524.191406	641.054138
2857.552606	17454.250167	1523.136719	707.450623
2857.552606	17454.250167	1522.081055	556.420044
2857.552606	17454.250167	1521.026367	666.003845
2857.552606	17454.250167	1519.970703	612.577881
2857.552606	17454.250167	1518.915039	552.464966
2857.552606	17454.250167	1517.859375	607.900940
2857.552606	17454.250167	1516.802734	430.291199
2857.552606	17454.250167	1515.747070	619.398071
2857.552606	17454.250167	1514.690430	494.058105
2857.552606	17454.250167	1513.633789	592.770386
2857.552606	17454.250167	1512.577148	472.181976
2857.552606	17454.250167	1511.519531	394.678040
2857.552606	17454.250167	1510.461914	455.180237
2857.552606	17454.250167	1509.405273	547.394043
2857.552606	17454.250167	1508.346680	436.288055
2857.552606	17454.250167	1507.289063	490.236511
2857.552606	17454.250167	1506.231445	663.962585
2857.552606	17454.250167	1505.172852	327.352020
2857.552606	17454.250167	1504.114258	386.071991
2857.552606	17454.250167	1503.055664	483.235260
2857.552606	17454.250167	1501.996094	264.486572
2857.552606	17454.250167	1500.937500	533.307434
2857.552606	17454.250167	1499.877930	420.853119
2857.552606	17454.250167	1498.818359	385.224915
2857.552606	17454.250167	1497.757813	406.075684
2857.552606	17454.250167	1496.698242	456.329559
2857.552606	17454.250167	1495.637695	353.370087
2857.552606	17454.250167	1494.577148	333.934814
2857.552606	17454.250167	1493.516602	154.621841
2857.552606	17454.250167	1492.456055	437.306549
2857.552606	17454.250167	1491.394531	188.409836
2857.552606	17454.250167	1490.333008	324.790039
2857.552606	17454.250167	1489.271484	335.132111
2857.552606	17454.250167	1488.209961	219.510574
2857.552606	17454.250167	1487.148438	79.277359
2857.552606	17454.250167	1486.085938	200.211273
2857.552606	17454.250167	1485.023438	1.741390
2857.552606	17454.250167	1483.960938	-129.072403
2857.552606	17454.250167	1482.898438	-75.330360
2857.552606	17454.250167	1481.834961	126.880424
2857.552606	17454.250167	1480.772461	189.746826
2857.552606	17454.250167	1479.708984	59.405010
2857.552606	17454.250167	1478.644531	-115.687408
2857.552606	17454.250167	1477.581055	50.804249
2857.552606	17454.250167	1476.517578	-137.498917
2857.552606	17454.250167	1475.453125	246.922012
2857.552606	17454.250167	1474.388672	29.755844
2857.552606	17454.250167	1473.323242	144.822464
2857.552606	17454.250167	1472.258789	37.985813
2857.552606	17454.250167	1471.193359	117.233185
2857.552606	17454.250167	1470.127930	15.162129
2857.552606	17454.250167	1469.062500	7.244525
2857.552606	17454.250167	1467.997070	243.673935
2857.552606	17454.250167	1466.930664	238.385040
2857.552606	17454.250167	1465.865234	279.998352
2857.552606	17454.250167	1464.798828	489.770905
2857.552606	17454.250167	1463.731445	289.834930
2857.552606	17454.250167	1462.665039	320.378723
2857.552606	17454.250167	1461.597656	561.652954
2857.552606	17454.250167	1460.530273	494.268951
2857.552606	17454.250167	1459.462891	601.514832
2857.552606	17454.250167	1458.395508	420.012817
2857.552606	17454.250167	1457.327148	612.026550
2857.552606	17454.250167	1456.259766	596.317322
2857.552606	17454.250167	1455.191406	489.829254
2857.552606	17454.250167	1454.123047	690.725769
2857.552606	17454.250167	1453.053711	712.294250
2857.552606	17454.250167	1451.985352	700.052917
2857.552606	17454.250167	1450.916016	689.282715
2857.552606	17454.250167	1449.846680	409.038208
2857.552606	17454.250167	1448.776367	699.333679
2857.552606	17454.250167	1447.707031	571.385742
2857.552606	17454.250167	1446.636719	607.518127
2857.552606	17454.250167	1445.566406	651.967468
2857.552606	17454.250167	1444.496094	501.717194
2857.552606	17454.250167	1443.425781	530.204834
2857.552606	17454.250167	1442.354492	392.664032
2857.552606	17454.250167	1441.283203	596.062439
2857.552606	17454.250167	1440.211914	501.813202
2857.552606	17454.250167	1439.140625	405.396698
2857.552606	17454.250167	1438.069336	557.447632
2857.552606	17454.250167	1436.997070	345.825226
2857.552606	17454.250167	1435.924805	243.236771
2857.552606	17454.250167	1434.852539	257.481079
2857.552606	17454.250167	1433.780273	70.315834
2857.552606	17454.250167	1432.707031	36.961933
2857.552606	17454.250167	1431.633789	-91.408882
2857.552606	17454.250167	1430.560547	62.715019
2857.552606	17454.250167	1429.487305	-30.651829
2857.552606	17454.250167	1428.413086	-87.857536
2857.552606	17454.250167	1427.339844	153.151306
2857.552606	17454.250167	1426.265625	125.671814
2857.552606	17454.250167	1425.191406	47.172962
2857.552606	17454.250167	1424.116211	88.561874
2857.552606	17454.250167	1423.041992	184.050308
2857.552606	17454.250167	1421.966797	19.111948
2857.552606	17454.250167	1420.891602	-14.032736
2857.552606	17454.250167	1419.816406	-26.340950
2857.552606	17454.250167	1418.740234	-17.969555
2857.552606	17454.250167	1417.665039	48.143726
2857.552606	17454.250167	1416.588867	36.637596
2857.552606	17454.250167	1415.512695	89.684143
2857.552606	17454.250167	1414.435547	241.525299
2857.552606	17454.250167	1413.359375	85.222534
2857.552606	17454.250167	1412.282227	-167.815186
2857.552606	17454.250167	1411.205078	-18.044100
2857.552606	17454.250167	1410.127930	-63.663696
2857.552606	17454.250167	1409.049805	30.102606
2857.552606	17454.250167	1407.972656	73.784958
2857.552606	17454.250167	1406.894531	188.737640
2857.552606	17454.250167	1405.816406	201.184509
2857.552606	17454.250167	1404.737305	253.674957
2857.552606	17454.250167	1403.659180	88.681702
2857.552606	17454.250167	1402.580078	260.413269
2857.552606	17454.250167	1401.500977	195.155594
2857.552606	17454.250167	1400.421875	378.808777
2857.552606	17454.250167	1399.341797	232.936279
2857.552606	17454.250167	1398.262695	260.518646
2857.552606	17454.250167	1397.182617	245.656921
2857.552606	17454.250167	1396.102539	259.461700
2857.552606	17454.250167	1395.021484	179.015457
2857.552606	17454.250167	1393.941406	321.823212
2857.552606	17454.250167	1392.860352	420.110840
2857.552606	17454.250167	1391.779297	612.062744
2857.552606	17454.250167	1390.698242	604.557434
2857.552606	17454.250167	1389.616211	805.415100
2857.552606	17454.250167	1388.535156	517.823425
2857.552606	17454.250167	1387.453125	593.105835
2857.552606	17454.250167	1386.371094	689.384644
2857.552606	17454.250167	1385.288086	687.598633
2857.552606	17454.250167	1384.206055	631.081177
2857.552606	17454.250167	1383.123047	651.013794
2857.552606	17454.250167	1382.040039	818.667908
2857.552606	17454.250167	1380.957031	756.804810
2857.552606	17454.250167	1379.873047	827.885010
2857.552606	17454.250167	1378.789063	812.580078
2857.552606	17454.250167	1377.705078	804.766541
2857.552606	17454.250167	1376.621094	791.945801
2857.552606	17454.250167	1375.537109	698.010986
2857.552606	17454.250167	1374.452148	745.021606
2857.552606	17454.250167	1373.367188	925.801208
2857.552606	17454.250167	1372.282227	903.061096
2857.552606	17454.250167	1371.197266	1068.897461
2857.552606	17454.250167	1370.112305	1144.849854
2857.552606	17454.250167	1369.026367	1371.920776
2857.552606	17454.250167	1367.940430	1349.818604
2857.552606	17454.250167	1366.854492	1365.563599
2857.552606	17454.250167	1365.767578	1268.381836
2857.552606	17454.250167	1364.681641	1243.187500
2857.552606	17454.250167	1363.594727	1298.614380
2857.552606	17454.250167	1362.507813	1129.385376
2857.552606	17454.250167	1361.419922	983.149841
2857.552606	17454.250167	1360.333008	887.742188
2857.552606	17454.250167	1359.245117	838.244995
2857.552606	17454.250167	1358.157227	977.608337
2857.552606	17454.250167	1357.069336	847.573792
2857.552606	17454.250167	1355.981445	848.736511
2857.552606	17454.250167	1354.892578	707.306946
2857.552606	17454.250167	1353.803711	745.818665
2857.552606	17454.250167	1352.714844	869.584656
2857.552606	17454.250167	1351.625000	772.612366
2857.552606	17454.250167	1350.536133	634.263000
2857.552606	17454.250167	1349.446289	685.152771
2857.552606	17454.250167	1348.356445	808.207581
2857.552606	17454.250167	1347.266602	652.859375
2857.552606	17454.250167	1346.175781	615.390381
2857.552606	17454.250167	1345.085938	748.308594
2857.552606	17454.250167	1343.995117	617.635193
2857.552606	17454.250167	1342.903320	675.456726
2857.552606	17454.250167	1341.812500	732.075439
2857.552606	17454.250167	1340.720703	727.610718
2857.552606	17454.250167	1339.629883	680.411560
2857.552606	17454.250167	1338.538086	661.336731
2857.552606	17454.250167	1337.445313	761.251160
2857.552606	17454.250167	1336.353516	620.933777
2857.552606	17454.250167	1335.260742	843.712830
2857.552606	17454.250167	1334.167969	833.508179
2857.552606	17454.250167	1333.075195	888.239990
2857.552606	17454.250167	1331.981445	754.716858
2857.552606	17454.250167	1330.888672	783.322632
2857.552606	17454.250167	1329.794922	814.296265
2857.552606	17454.250167	1328.701172	803.038635
2857.552606	17454.250167	1327.606445	893.297119
2857.552606	17454.250167	1326.512695	784.047729
2857.552606	17454.250167	1325.417969	822.178406
2857.552606	17454.250167	1324.323242	829.536072
2857.552606	17454.250167	1323.227539	757.699341
2857.552606	17454.250167	1322.132813	752.263855
2857.552606	17454.250167	1321.037109	629.756653
2857.552606	17454.250167	1319.941406	748.984436
2857.552606	17454.250167	1318.845703	711.270691
2857.552606	17454.250167	1317.750000	570.889160
2857.552606	17454.250167	1316.653320	527.710571
2857.552606	17454.250167	1315.556641	568.964355
2857.552606	17454.250167	1314.459961	399.426147
2857.552606	17454.250167	1313.363281	354.534576
2857.552606	17454.250167	1312.265625	343.462494
2857.552606	17454.250167	1311.167969	255.725143
2857.552606	17454.250167	1310.070313	292.473145
2857.552606	17454.250167	1308.972656	171.561142
2857.552606	17454.250167	1307.874023	223.968887
2857.552606	17454.250167	1306.776367	431.216187
2857.552606	17454.250167	1305.677734	206.929214
2857.552606	17454.250167	1304.579102	43.122864
2857.552606	17454.250167	1303.479492	209.370773
2857.552606	17454.250167	1302.380859	221.553665
2857.552606	17454.250167	1301.281250	272.292267
2857.552606	17454.250167	1300.181641	362.584656
2857.552606	17454.250167	1299.081055	202.829849
2857.552606	17454.250167	1297.981445	174.398392
2857.552606	17454.250167	1296.880859	201.729752
2857.552606	17454.250167	1295.780273	316.767120
2857.552606	17454.250167	1294.679688	346.593689
2857.552606	17454.250167	1293.578125	244.565689
2857.552606	17454.250167	1292.476563	325.104675
2857.552606	17454.250167	1291.375000	367.809448
2857.552606	17454.250167	1290.273438	405.534729
2857.552606	17454.250167	1289.171875	322.234711
2857.552606	17454.250167	1288.069336	420.508118
2857.552606	17454.250167	1286.966797	397.716644
2857.552606	17454.250167	1285.864258	354.580231
2857.552606	17454.250167	1284.761719	311.312897
2857.552606	17454.250167	1283.658203	380.157959
2857.552606	17454.250167	1282.554688	360.092224
2857.552606	17454.250167	1281.451172	334.225250
2857.552606	17454.250167	1280.347656	409.896088
2857.552606	17454.250167	1279.244141	448.335358
2857.552606	17454.250167	1278.139648	363.563934
2857.552606	17454.250167	1277.035156	561.610107
2857.552606	17454.250167	1275.930664	394.690979
2857.552606	17454.250167	1274.825195	502.770721
2857.552606	17454.250167	1273.720703	522.824646
2857.552606	17454.250167	1272.615234	500.070282
2857.552606	17454.250167	1271.508789	441.531311
2857.552606	17454.250167	1270.403320	571.629028
2857.552606	17454.250167	1269.297852	546.116943
2857.552606	17454.250167	1268.191406	361.480011
2857.552606	17454.250167	1267.084961	356.055878
2857.552606	17454.250167	1265.977539	310.808075
2857.552606	17454.250167	1264.871094	352.849121
2857.552606	17454.250167	1263.763672	286.937988
2857.552606	17454.250167	1262.656250	257.760895
2857.552606	17454.250167	1261.548828	176.945877
2857.552606	17454.250167	1260.440430	196.978134
2857.552606	17454.250167	1259.333008	148.423004
2857.552606	17454.250167	1258.224609	295.591492
2857.552606	17454.250167	1257.115234	145.808060
2857.552606	17454.250167	1256.006836	234.625198
2857.552606	17454.250167	1254.897461	128.792542
2857.552606	17454.250167	1253.788086	4.207985
2857.552606	17454.250167	1252.678711	267.117798
2857.552606	17454.250167	1251.569336	167.339539
2857.552606	17454.250167	1250.458984	9.146633
2857.552606	17454.250167	1249.349609	125.857002
2857.552606	17454.250167	1248.239258	245.799591
2857.552606	17454.250167	1247.127930	254.555649
2857.552606	17454.250167	1246.017578	113.841476
2857.552606	17454.250167	1244.906250	242.591553
2857.552606	17454.250167	1243.794922	165.373581
2857.552606	17454.250167	1242.683594	212.261948
2857.552606	17454.250167	1241.571289	-16.125078
2857.552606	17454.250167	1240.459961	-33.632854
2857.552606	17454.250167	1239.347656	-6.234967
2857.552606	17454.250167	1238.234375	86.779739
2857.552606	17454.250167	1237.122070	76.798256
2857.552606	17454.250167	1236.008789	132.814835
2857.552606	17454.250167	1234.896484	10.413720
2857.552606	17454.250167	1233.782227	52.282539
2857.552606	17454.250167	1232.668945	31.808262
2857.552606	17454.250167	1231.555664	89.390480
2857.552606	17454.250167	1230.441406	27.341900
2857.552606	17454.250167	1229.327148	-60.666378
2857.552606	17454.250167	1228.211914	3.905900
2857.552606	17454.250167	1227.097656	-69.927406
2857.552606	17454.250167	1225.982422	91.061478
2857.552606	17454.250167	1224.867188	-103.513000
2857.552606	17454.250167	1223.751953	25.931404
2857.552606	17454.250167	1222.635742	-58.738865
2857.552606	17454.250167	1221.520508	-114.511894
2857.552606	17454.250167	1220.404297	-124.931389
2857.552606	17454.250167	1219.287109	5.862240
2857.552606	17454.250167	1218.170898	67.774483
2857.552606	17454.250167	1217.053711	71.847572
2857.552606	17454.250167	1215.936523	153.787781
2857.552606	17454.250167	1214.819336	-18.888048
2857.552606	17454.250167	1213.702148	-60.928703
2857.552606	17454.250167	1212.583984	-55.059555
2857.552606	17454.250167	1211.465820	-64.833076
2857.552606	17454.250167	1210.347656	-103.919930
2857.552606	17454.250167	1209.229492	-30.183126
2857.552606	17454.250167	1208.110352	-16.840256
2857.552606	17454.250167	1206.992188	-37.793293
2857.552606	17454.250167	1205.873047	-69.323349
2857.552606	17454.250167	1204.752930	-69.815941
2857.552606	17454.250167	1203.633789	-84.811646
2857.552606	17454.250167	1202.513672	60.739433
2857.552606	17454.250167	1201.393555	-38.129147
2857.552606	17454.250167	1200.273438	-76.922966
2857.552606	17454.250167	1199.152344	46.156940
2857.552606	17454.250167	1198.032227	84.098457
2857.552606	17454.250167	1196.911133	-141.887512
2857.552606	17454.250167	1195.790039	51.793221
2857.552606	17454.250167	1194.667969	-31.357290
2857.552606	17454.250167	1193.545898	18.607723
2857.552606	17454.250167	1192.424805	123.030617
2857.552606	17454.250167	1191.301758	86.993950
2857.552606	17454.250167	1190.179688	-8.733624
2857.552606	17454.250167	1189.056641	94.972656
2857.552606	17454.250167	1187.933594	121.916115
2857.552606	17454.250167	1186.810547	16.517981
2857.552606	17454.250167	1185.687500	38.892845
2857.552606	17454.250167	1184.563477	26.377565
2857.552606	17454.250167	1183.440430	95.146095
2857.552606	17454.250167	1182.316406	19.308336
2857.552606	17454.250167	1181.191406	41.121403
2857.552606	17454.250167	1180.067383	99.584587
2857.552606	17454.250167	1178.942383	120.191452
2857.552606	17454.250167	1177.817383	166.669373
2857.552606	17454.250167	1176.692383	118.550972
2857.552606	17454.250167	1175.566406	175.526443
2857.552606	17454.250167	1174.440430	189.373077
2857.552606	17454.250167	1173.314453	35.212345
2857.552606	17454.250167	1172.188477	208.405975
2857.552606	17454.250167	1171.062500	144.055893
2857.552606	17454.250167	1169.935547	62.395218
2857.552606	17454.250167	1168.808594	78.603706
2857.552606	17454.250167	1167.681641	-79.758667
2857.552606	17454.250167	1166.553711	85.078217
2857.552606	17454.250167	1165.426758	-30.807463
2857.552606	17454.250167	1164.298828	-86.149353
2857.552606	17454.250167	1163.170898	70.356522
2857.552606	17454.250167	1162.041992	-58.379215
2857.552606	17454.250167	1160.914063	75.192596
2857.552606	17454.250167	1159.785156	-59.394341
2857.552606	17454.250167	1158.656250	-104.000954
2857.552606	17454.250167	1157.526367	-101.235275
2857.552606	17454.250167	1156.397461	2.105452
2857.552606	17454.250167	1155.267578	-69.848633
2857.552606	17454.250167	1154.137695	-33.247364
2857.552606	17454.250167	1153.006836	-53.175453
2857.552606	17454.250167	1151.876953	-29.886877
2857.552606	17454.250167	1150.746094	-68.951462
2857.552606	17454.250167	1149.615234	-111.063316
2857.552606	17454.250167	1148.484375	1.852284
2857.552606	17454.250167	1147.352539	-90.972145
2857.552606	17454.250167	1146.220703	24.900270
2857.552606	17454.250167	1145.088867	-127.014809
2857.552606	17454.250167	1143.957031	-58.494205
2857.552606	17454.250167	1142.825195	-28.204870
2857.552606	17454.250167	1141.692383	-136.696686
2857.552606	17454.250167	1140.559570	-64.528633
2857.552606	17454.250167	1139.426758	0.283705
2857.552606	17454.250167	1138.292969	61.925220
2857.552606	17454.250167	1137.159180	30.226219
2857.552606	17454.250167	1136.025391	26.912355
2857.552606	17454.250167	1134.891602	83.307930
2857.552606	17454.250167	1133.757813	92.875923
2857.552606	17454.250167	1132.623047	0.769782
2857.552606	17454.250167	1131.488281	62.614483
2857.552606	17454.250167	1130.353516	142.311493
2857.552606	17454.250167	1129.217773	130.925293
2857.552606	17454.250167	1128.083008	70.176353
2857.552606	17454.250167	1126.947266	-16.044815
2857.552606	17454.250167	1125.811523	115.200485
2857.552606	17454.250167	1124.674805	42.782730
2857.552606	17454.250167	1123.539063	190.842194
2857.552606	17454.250167	1122.402344	64.110382
2857.552606	17454.250167	1121.265625	50.729797
2857.552606	17454.250167	1120.127930	-80.739304
2857.552606	17454.250167	1118.990234	194.271469
2857.552606	17454.250167	1117.853516	113.060692
2857.552606	17454.250167	1116.714844	145.007767
2857.552606	17454.250167	1115.577148	86.186760
2857.552606	17454.250167	1114.439453	82.517242
2857.552606	17454.250167	1113.300781	150.062164
2857.552606	17454.250167	1112.162109	-20.677160
2857.552606	17454.250167	1111.022461	105.844551
2857.552606	17454.250167	1109.883789	98.239960
2857.552606	17454.250167	1108.744141	117.555916
2857.552606	17454.250167	1107.604492	-97.824692
2857.552606	17454.250167	1106.463867	-18.353817
2857.552606	17454.250167	1105.324219	67.216370
2857.552606	17454.250167	1104.183594	-62.969986
2857.552606	17454.250167	1103.042969	76.860847
2857.552606	17454.250167	1101.902344	-81.918800
2857.552606	17454.250167	1100.760742	-178.112183
2857.552606	17454.250167	1099.619141	-17.857027
2857.552606	17454.250167	1098.477539	22.653095
2857.552606	17454.250167	1097.335938	68.300789
2857.552606	17454.250167	1096.193359	94.542877
2857.552606	17454.250167	1095.051758	322.819061
2857.552606	17454.250167	1093.909180	203.330765
2857.552606	17454.250167	1092.765625	215.074203
2857.552606	17454.250167	1091.623047	199.840500
2857.552606	17454.250167	1090.479492	233.458710
2857.552606	17454.250167	1089.335938	154.799423
2857.552606	17454.250167	1088.192383	204.810226
2857.552606	17454.250167	1087.047852	77.570145
2857.552606	17454.250167	1085.903320	177.935791
2857.552606	17454.250167	1084.758789	228.677536
2857.552606	17454.250167	1083.614258	397.042297
2857.552606	17454.250167	1082.469727	415.971375
2857.552606	17454.250167	1081.324219	401.906830
2857.552606	17454.250167	1080.178711	446.436981
2857.552606	17454.250167	1079.033203	439.932373
2857.552606	17454.250167	1077.886719	516.398376
2857.552606	17454.250167	1076.740234	457.760406
2857.552606	17454.250167	1075.593750	336.958832
2857.552606	17454.250167	1074.447266	495.646423
2857.552606	17454.250167	1073.300781	602.402649
2857.552606	17454.250167	1072.153320	540.439148
2857.552606	17454.250167	1071.005859	469.519714
2857.552606	17454.250167	1069.858398	453.190521
2857.552606	17454.250167	1068.709961	447.955688
2857.552606	17454.250167	1067.561523	387.465698
2857.552606	17454.250167	1066.413086	385.399719
2857.552606	17454.250167	1065.264648	445.536530
2857.552606	17454.250167	1064.116211	516.455200
2857.552606	17454.250167	1062.966797	587.099915
2857.552606	17454.250167	1061.817383	425.237732
2857.552606	17454.250167	1060.667969	306.456543
2857.552606	17454.250167	1059.517578	452.024628
2857.552606	17454.250167	1058.368164	306.904816
2857.552606	17454.250167	1057.217773	274.312378
2857.552606	17454.250167	1056.067383	405.068359
2857.552606	17454.250167	1054.916016	447.063446
2857.552606	17454.250167	1053.764648	427.843384
2857.552606	17454.250167	1052.613281	333.076172
2857.552606	17454.250167	1051.461914	486.267700
2857.552606	17454.250167	1050.310547	290.778839
2857.552606	17454.250167	1049.158203	525.815918
2857.552606	17454.250167	1048.005859	326.326874
2857.552606	17454.250167	1046.853516	357.450409
2857.552606	17454.250167	1045.700195	537.576782
2857.552606	17454.250167	1044.547852	413.707336
2857.552606	17454.250167	1043.394531	313.792908
2857.552606	17454.250167	1042.240234	491.000854
2857.552606	17454.250167	1041.086914	361.862152
2857.552606	17454.250167	1039.932617	323.809784
2857.552606	17454.250167	1038.778320	413.015717
2857.552606	17454.250167	1037.624023	300.995239
2857.552606	17454.250167	1036.469727	426.817261
2857.552606	17454.250167	1035.314453	470.550812
2857.552606	17454.250167	1034.159180	656.417480
2857.552606	17454.250167	1033.003906	622.338745
2857.552606	17454.250167	1031.847656	662.458252
2857.552606	17454.250167	1030.692383	473.657043
2857.552606	17454.250167	1029.536133	693.240173
2857.552606	17454.250167	1028.378906	732.626587
2857.552606	17454.250167	1027.222656	683.976990
2857.552606	17454.250167	1026.065430	349.411560
2857.552606	17454.250167	1024.908203	589.706116
2857.552606	17454.250167	1023.750977	548.527771
2857.552606	17454.250167	1022.593750	562.153992
2857.552606	17454.250167	1021.435547	515.176697
2857.552606	17454.250167	1020.277344	468.481232
2857.552606	17454.250167	1019.119141	581.023315
2857.552606	17454.250167	1017.959961	534.404541
2857.552606	17454.250167	1016.800781	587.760315
2857.552606	17454.250167	1015.641602	457.511261
2857.552606	17454.250167	1014.482422	400.507690
2857.552606	17454.250167	1013.323242	469.075958
2857.552606	17454.250167	1012.163086	592.455444
2857.552606	17454.250167	1011.002930	304.298187
2857.552606	17454.250167	1009.842773	474.967590
2857.552606	17454.250167	1008.681641	368.817719
2857.552606	17454.250167	1007.520508	481.310730
2857.552606	17454.250167	1006.359375	428.548859
2857.552606	17454.250167	1005.198242	250.760880
2857.552606	17454.250167	1004.037109	256.730652
2857.552606	17454.250167	1002.875000	216.852539
2857.552606	17454.250167	1001.712891	176.921967
2857.552606	17454.250167	1000.550781	275.362518
2857.552606	17454.250167	999.387695	297.419952
2857.552606	17454.250167	998.224609	273.869843
2857.552606	17454.250167	997.061523	180.778809
2857.552606	17454.250167	995.898438	195.867813
2857.552606	17454.250167	994.734375	100.307755
2857.552606	17454.250167	993.571289	169.521164
2857.552606	17454.250167	992.407227	210.287048
2857.552606	17454.250167	991.242188	232.190491
2857.552606	17454.250167	990.078125	77.155296
2857.552606	17454.250167	988.913086	69.163826
2857.552606	17454.250167	987.748047	262.346588
2857.552606	17454.250167	986.583008	246.346909
2857.552606	17454.250167	985.416992	241.220581
2857.552606	17454.250167	984.250977	428.553833
2857.552606	17454.250167	983.084961	354.975861
2857.552606	17454.250167	981.918945	305.387817
2857.552606	17454.250167	980.751953	377.366272
2857.552606	17454.250167	979.584961	326.348297
2857.552606	17454.250167	978.417969	284.143707
2857.552606	17454.250167	977.250977	421.583344
2857.552606	17454.250167	976.083008	379.846191
2857.552606	17454.250167	974.915039	445.667358
2857.552606	17454.250167	973.747070	338.877136
2857.552606	17454.250167	972.579102	217.615982
2857.552606	17454.250167	971.410156	102.738014
2857.552606	17454.250167	970.242188	133.164734
2857.552606	17454.250167	969.072266	232.533432
2857.552606	17454.250167	967.903320	240.806046
2857.552606	17454.250167	966.733398	144.965668
2857.552606	17454.250167	965.563477	274.490906
2857.552606	17454.250167	964.393555	213.057831
2857.552606	17454.250167	963.223633	209.548096
2857.552606	17454.250167	962.052734	248.181686
2857.552606	17454.250167	960.881836	236.048218
2857.552606	17454.250167	959.710938	223.368698
2857.552606	17454.250167	958.540039	213.748413
2857.552606	17454.250167	957.368164	331.830994
2857.552606	17454.250167	956.196289	260.680908
2857.552606	17454.250167	955.024414	114.456589
2857.552606	17454.250167	953.851563	203.348480
2857.552606	17454.250167	952.679688	144.879501
2857.552606	17454.250167	951.506836	269.846130
2857.552606	17454.250167	950.333984	138.648392
2857.552606	17454.250167	949.160156	146.792496
2857.552606	17454.250167	947.986328	186.222015
2857.552606	17454.250167	946.812500	39.507122
2857.552606	17454.250167	945.638672	210.241852
2857.552606	17454.250167	944.464844	162.898224
2857.552606	17454.250167	943.290039	315.917267
2857.552606	17454.250167	942.115234	220.957611
2857.552606	17454.250167	940.940430	239.590378
2857.552606	17454.250167	939.764648	-11.466639
2857.552606	17454.250167	938.588867	327.012695
2857.552606	17454.250167	937.413086	286.529175
2857.552606	17454.250167	936.237305	323.224274
2857.552606	17454.250167	935.060547	248.800446
2857.552606	17454.250167	933.883789	206.006454
2857.552606	17454.250167	932.707031	181.342621
2857.552606	17454.250167	931.530273	74.899109
2857.552606	17454.250167	930.352539	276.969086
2857.552606	17454.250167	929.175781	245.356796
2857.552606	17454.250167	927.998047	148.009033
2857.552606	17454.250167	926.819336	188.907974
2857.552606	17454.250167	925.641602	195.724258
2857.552606	17454.250167	924.462891	134.535843
2857.552606	17454.250167	923.284180	145.825195
2857.552606	17454.250167	922.104492	136.698257
2857.552606	17454.250167	920.924805	50.543293
2857.552606	17454.250167	919.746094	51.810295
2857.552606	17454.250167	919.551758	93.628937
2857.552606	17454.250167	918.386719	-55.954624
2857.552606	17454.250167	917.220703	176.919647
2857.552606	17454.250167	916.054688	210.563538
2857.552606	17454.250167	914.887695	60.933300
2857.552606	17454.250167	913.721680	257.342377
2857.552606	17454.250167	912.554688	103.165833
2857.552606	17454.250167	911.387695	64.306435
2857.552606	17454.250167	910.220703	215.280075
2857.552606	17454.250167	909.052734	156.002838
2857.552606	17454.250167	907.885742	53.786488
2857.552606	17454.250167	906.717773	12.563438
2857.552606	17454.250167	905.548828	-49.003029
2857.552606	17454.250167	904.380859	-22.524307
2857.552606	17454.250167	903.211914	-77.358215
2857.552606	17454.250167	902.042969	-132.204819
2857.552606	17454.250167	900.874023	47.610485
2857.552606	17454.250167	899.704102	-50.173729
2857.552606	17454.250167	898.535156	-59.985466
2857.552606	17454.250167	897.365234	160.193634
2857.552606	17454.250167	896.194336	116.455551
2857.552606	17454.250167	895.024414	183.156143
2857.552606	17454.250167	893.853516	-18.397827
2857.552606	17454.250167	892.682617	82.035660
2857.552606	17454.250167	891.511719	186.900742
2857.552606	17454.250167	890.340820	163.306061
2857.552606	17454.250167	889.168945	42.856659
2857.552606	17454.250167	887.997070	111.545151
2857.552606	17454.250167	886.825195	13.600811
2857.552606	17454.250167	885.653320	241.989227
2857.552606	17454.250167	884.480469	103.494011
2857.552606	17454.250167	883.307617	131.493637
2857.552606	17454.250167	882.134766	154.952728
2857.552606	17454.250167	880.961914	47.947678
2857.552606	17454.250167	879.788086	35.380661
2857.552606	17454.250167	878.614258	43.018425
2857.552606	17454.250167	877.440430	-3.313108
2857.552606	17454.250167	876.266602	-24.939865
2857.552606	17454.250167	875.091797	-42.095539
2857.552606	17454.250167	873.916992	-63.765244
2857.552606	17454.250167	872.742188	42.535137
2857.552606	17454.250167	871.567383	-15.122386
2857.552606	17454.250167	870.391602	129.223709
2857.552606	17454.250167	869.215820	-36.201668
2857.552606	17454.250167	868.040039	65.403000
2857.552606	17454.250167	866.864258	-167.293625
2857.552606	17454.250167	865.687500	-5.208041
2857.552606	17454.250167	864.510742	46.913551
2857.552606	17454.250167	863.333984	-125.192291
2857.552606	17454.250167	862.157227	-86.571266
2857.552606	17454.250167	860.979492	173.851715
2857.552606	17454.250167	859.802734	163.051590
2857.552606	17454.250167	858.625000	69.351143
2857.552606	17454.250167	857.446289	-55.691383
2857.552606	17454.250167	856.268555	114.842438
2857.552606	17454.250167	855.089844	39.036476
2857.552606	17454.250167	853.911133	-65.859665
2857.552606	17454.250167	852.731445	-76.758392
2857.552606	17454.250167	851.552734	24.180777
2857.552606	17454.250167	850.373047	-100.857407
2857.552606	17454.250167	849.193359	-114.056374
2857.552606	17454.250167	848.013672	-44.550713
2857.552606	17454.250167	846.833008	-4.159677
2857.552606	17454.250167	845.652344	-95.668694
2857.552606	17454.250167	844.471680	-59.803181
2857.552606	17454.250167	843.291016	-68.656235
2857.552606	17454.250167	842.110352	-144.536789
2857.552606	17454.250167	840.928711	-99.826218
2857.552606	17454.250167	839.747070	-102.043259
2857.552606	17454.250167	838.564453	-64.105957
2857.552606	17454.250167	837.382813	-148.950256
2857.552606	17454.250167	836.200195	-12.894362
2857.552606	17454.250167	835.017578	-99.994545
2857.552606	17454.250167	833.834961	-4.198414
2857.552606	17454.250167	832.651367	-2.119450
2857.552606	17454.250167	831.467773	140.385834
2857.552606	17454.250167	830.284180	160.217468
2857.552606	17454.250167	829.100586	130.991791
2857.552606	17454.250167	827.916992	72.790474
2857.552606	17454.250167	826.732422	217.294846
2857.552606	17454.250167	825.547852	-79.245583
2857.552606	17454.250167	824.363281	103.036995
2857.552606	17454.250167	823.177734	107.126579
2857.552606	17454.250167	821.992188	88.934853
2857.552606	17454.250167	820.806641	313.279785
2857.552606	17454.250167	819.621094	185.992523
2857.552606	17454.250167	818.434570	114.342163
2857.552606	17454.250167	817.249023	118.311302
2857.552606	17454.250167	816.062500	337.925781
2857.552606	17454.250167	814.875000	141.733978
2857.552606	17454.250167	813.688477	212.301117
2857.552606	17454.250167	812.500977	80.609947
2857.552606	17454.250167	811.313477	53.365250
2857.552606	17454.250167	810.125977	268.210663
2857.552606	17454.250167	808.937500	238.671906
2857.552606	17454.250167	807.749023	67.030502
2857.552606	17454.250167	806.560547	17.523312
2857.552606	17454.250167	805.372070	103.390633
2857.552606	17454.250167	804.182617	69.382744
2857.552606	17454.250167	802.994141	30.930889
2857.552606	17454.250167	801.803711	180.992752
2857.552606	17454.250167	800.614258	111.444748
2857.552606	17454.250167	799.424805	-80.031250
2857.552606	17454.250167	798.234375	21.130856
2857.552606	17454.250167	797.043945	157.686310
2857.552606	17454.250167	795.852539	26.072771
2857.552606	17454.250167	794.662109	51.769527
2857.552606	17454.250167	793.470703	75.217232
2857.552606	17454.250167	792.279297	118.561333
2857.552606	17454.250167	791.087891	86.597740
2857.552606	17454.250167	789.895508	185.209320
2857.552606	17454.250167	788.703125	60.260311
2857.552606	17454.250167	787.510742	94.633537
2857.552606	17454.250167	786.318359	58.188381
2857.552606	17454.250167	785.125000	26.158226
2857.552606	17454.250167	783.931641	56.027954
2857.552606	17454.250167	782.738281	-48.980740
2857.552606	17454.250167	781.544922	-32.411793
2857.552606	17454.250167	780.350586	-9.244320
2857.552606	17454.250167	779.156250	60.284462
2857.552606	17454.250167	777.961914	-119.823975
2857.552606	17454.250167	776.767578	13.695008
2857.552606	17454.250167	775.572266	-86.892654
2857.552606	17454.250167	774.376953	-238.230362
2857.552606	17454.250167	773.181641	-113.664825
2857.552606	17454.250167	771.986328	-0.205306
2857.552606	17454.250167	770.790039	35.974098
2857.552606	17454.250167	769.593750	-49.186951
2857.552606	17454.250167	768.397461	-52.747551
2857.552606	17454.250167	767.201172	-164.354202
2857.552606	17454.250167	766.003906	-35.686428
2857.552606	17454.250167	764.806641	-52.537918
2857.552606	17454.250167	763.609375	-56.185543
2857.552606	17454.250167	762.412109	-44.434010
2857.552606	17454.250167	761.213867	-111.994667
2857.552606	17454.250167	760.015625	-93.677238
2857.552606	17454.250167	758.817383	45.686211
2857.552606	17454.250167	757.618164	28.701672
2857.552606	17454.250167	756.419922	9.502786
2857.552606	17454.250167	755.220703	-20.712637
2857.552606	17454.250167	754.021484	-136.720551
2857.552606	17454.250167	752.821289	68.363754
2857.552606	17454.250167	751.621094	-74.045204
2857.552606	17454.250167	750.420898	-7.590536
2857.552606	17454.250167	749.220703	-31.292774
2857.552606	17454.250167	748.020508	39.474514
2857.552606	17454.250167	746.819336	-89.721916
2857.552606	17454.250167	745.618164	215.990051
2857.552606	17454.250167	744.416992	104.331566
2857.552606	17454.250167	743.214844	5.867383
2857.552606	17454.250167	742.012695	199.352966
2857.552606	17454.250167	740.810547	206.200867
2857.552606	17454.250167	739.608398	164.753342
2857.552606	17454.250167	738.406250	261.496704
2857.552606	17454.250167	737.203125	283.607422
2857.552606	17454.250167	736.000000	496.449432
2857.552606	17454.250167	734.795898	498.722626
2857.552606	17454.250167	733.592773	593.028564
2857.552606	17454.250167	732.388672	588.659668
2857.552606	17454.250167	731.184570	726.675232
2857.552606	17454.250167	729.979492	571.093445
2857.552606	17454.250167	728.775391	608.270386
2857.552606	17454.250167	727.570313	279.761963
2857.552606	17454.250167	726.365234	207.483093
2857.552606	17454.250167	725.160156	268.713501
2857.552606	17454.250167	723.954102	154.843369
2857.552606	17454.250167	722.748047	189.756851
2857.552606	17454.250167	721.541992	124.021309
2857.552606	17454.250167	720.334961	222.291992
2857.552606	17454.250167	719.128906	80.009796
2857.552606	17454.250167	717.921875	119.183472
2857.552606	17454.250167	716.714844	66.531746
2857.552606	17454.250167	715.506836	206.146820
2857.552606	17454.250167	714.298828	39.856850
2857.552606	17454.250167	713.090820	92.011436
2857.552606	17454.250167	711.882813	39.310276
2857.552606	17454.250167	710.674805	39.001415
2857.552606	17454.250167	709.465820	101.961151
2857.552606	17454.250167	708.256836	79.766273
2857.552606	17454.250167	707.047852	48.829872
2857.552606	17454.250167	705.837891	33.148319
2857.552606	17454.250167	704.627930	45.798950
2857.552606	17454.250167	703.417969	45.338421
2857.552606	17454.250167	702.208008	51.393211
2857.552606	17454.250167	700.998047	29.088827
2857.552606	17454.250167	699.787109	226.841492
2857.552606	17454.250167	698.576172	158.710083
2857.552606	17454.250167	697.364258	118.894974
2857.552606	17454.250167	696.153320	238.038483
2857.552606	17454.250167	694.941406	333.156525
2857.552606	17454.250167	693.729492	349.850555
2857.552606	17454.250167	692.516602	264.228638
2857.552606	17454.250167	691.304688	396.196350
2857.552606	17454.250167	690.091797	391.038116
2857.552606	17454.250167	688.878906	355.410614
2857.552606	17454.250167	687.665039	282.806641
2857.552606	17454.250167	686.451172	199.339432
2857.552606	17454.250167	685.237305	254.985168
2857.552606	17454.250167	684.023438	221.490021
2857.552606	17454.250167	682.809570	237.954147
2857.552606	17454.250167	681.594727	276.105591
2857.552606	17454.250167	680.379883	47.105640
2857.552606	17454.250167	679.165039	83.062752
2857.552606	17454.250167	677.949219	129.831390
2857.552606	17454.250167	676.733398	124.470863
2857.552606	17454.250167	675.517578	132.108215
2857.552606	17454.250167	674.301758	280.726471
2857.552606	17454.250167	673.084961	253.575562
2857.552606	17454.250167	671.869141	65.951897
2857.552606	17454.250167	670.651367	240.431122
2857.552606	17454.250167	669.434570	243.582382
2857.552606	17454.250167	668.216797	307.384369
2857.552606	17454.250167	667.000000	219.477844
2857.552606	17454.250167	665.781250	229.055984
2857.552606	17454.250167	664.563477	320.907410
2857.552606	17454.250167	663.344727	328.250427
2857.552606	17454.250167	662.125977	155.892120
2857.552606	17454.250167	660.907227	163.222839
2857.552606	17454.250167	659.688477	88.302345
2857.552606	17454.250167	658.468750	71.800835
2857.552606	17454.250167	657.249023	161.270142
2857.552606	17454.250167	656.029297	133.905319
2857.552606	17454.250167	654.808594	279.490814
2857.552606	17454.250167	653.587891	204.513062
2857.552606	17454.250167	652.367188	172.769196
2857.552606	17454.250167	651.146484	63.234074
2857.552606	17454.250167	649.924805	72.533897
2857.552606	17454.250167	648.704102	166.043915
2857.552606	17454.250167	647.482422	56.516815
2857.552606	17454.250167	646.259766	18.255547
2857.552606	17454.250167	645.037109	77.119301
2857.552606	17454.250167	643.815430	-41.007778
2857.552606	17454.250167	642.591797	91.156601
2857.552606	17454.250167	641.369141	106.771660
2857.552606	17454.250167	640.145508	-45.853405
2857.552606	17454.250167	638.921875	-10.850026
2857.552606	17454.250167	637.698242	86.635147
2857.552606	17454.250167	636.474609	69.836823
2857.552606	17454.250167	635.250000	100.429985
2857.552606	17454.250167	634.025391	92.216385
2857.552606	17454.250167	632.800781	12.914639
2857.552606	17454.250167	631.575195	179.110855
2857.552606	17454.250167	630.349609	-104.736900
2857.552606	17454.250167	629.124023	-84.982735
2857.552606	17454.250167	627.898438	-121.203911
2857.552606	17454.250167	626.671875	8.241839
2857.552606	17454.250167	625.445313	83.841461
2857.552606	17454.250167	624.218750	30.358053
2857.552606	17454.250167	622.992188	90.843803
2857.552606	17454.250167	621.764648	39.502495
2857.552606	17454.250167	620.537109	211.694183
2857.552606	17454.250167	619.309570	33.545776
2857.552606	17454.250167	618.081055	3.694174
2857.552606	17454.250167	616.852539	149.972137
2857.552606	17454.250167	615.624023	53.516861
2857.552606	17454.250167	614.395508	36.531456
2857.552606	17454.250167	613.166992	-25.532896
2857.552606	17454.250167	611.937500	-72.561272
2857.552606	17454.250167	610.708008	15.596072
2857.552606	17454.250167	609.477539	9.317252
2857.552606	17454.250167	608.248047	-29.132900
2857.552606	17454.250167	607.017578	-39.701763
2857.552606	17454.250167	605.787109	-80.285446
2857.552606	17454.250167	604.555664	-65.134224
2857.552606	17454.250167	603.325195	121.439156
2857.552606	17454.250167	602.093750	57.261734
2857.552606	17454.250167	600.861328	134.473251
2857.552606	17454.250167	599.629883	140.982651
2857.552606	17454.250167	598.397461	121.790367
2857.552606	17454.250167	597.165039	-75.066078
2857.552606	17454.250167	595.932617	85.563843
2857.552606	17454.250167	594.699219	55.688206
2857.552606	17454.250167	593.465820	-100.389786
2857.552606	17454.250167	592.232422	-91.714912
2857.552606	17454.250167	590.999023	94.438065
2857.552606	17454.250167	589.764648	13.276000
2857.552606	17454.250167	588.530273	103.143623
2857.552606	17454.250167	587.295898	-129.704987
2857.552606	17454.250167	586.061523	47.757671
2857.552606	17454.250167	584.826172	90.574448
2857.552606	17454.250167	583.590820	-20.385015
2857.552606	17454.250167	582.355469	-167.588791
2857.552606	17454.250167	581.119141	11.879042
2857.552606	17454.250167	579.882813	-75.501511
2857.552606	17454.250167	578.646484	-107.358673
2857.552606	17454.250167	577.410156	-4.794755
2857.552606	17454.250167	576.172852	-230.730209
2857.552606	17454.250167	574.935547	38.158710
2857.552606	17454.250167	573.698242	-55.488129
2857.552606	17454.250167	572.460938	-245.001053
2857.552606	17454.250167	571.222656	21.618496
2857.552606	17454.250167	569.984375	-84.716408
2857.552606	17454.250167	568.746094	-54.663227
2857.552606	17454.250167	567.506836	-82.113976
2857.552606	17454.250167	566.267578	71.445946
2857.552606	17454.250167	565.028320	-30.496378
2857.552606	17454.250167	563.789063	-42.989033
2857.552606	17454.250167	562.548828	-134.193481
2857.552606	17454.250167	561.309570	-23.234247
2857.552606	17454.250167	560.068359	11.119149
2857.552606	17454.250167	558.828125	-145.903275
2857.552606	17454.250167	557.586914	101.105858
2857.552606	17454.250167	556.345703	3.685457
2857.552606	17454.250167	555.104492	-127.673492
2857.552606	17454.250167	553.863281	78.870110
2857.552606	17454.250167	552.621094	87.792633
2857.552606	17454.250167	551.378906	-28.566290
2857.552606	17454.250167	550.136719	182.139297
2857.552606	17454.250167	548.893555	93.454216
2857.552606	17454.250167	547.650391	136.422592
2857.552606	17454.250167	546.407227	79.668732
2857.552606	17454.250167	545.164063	27.209949
2857.552606	17454.250167	543.919922	95.698578
2857.552606	17454.250167	542.675781	170.549255
2857.552606	17454.250167	541.431641	86.388191
2857.552606	17454.250167	540.186523	25.607527
2857.552606	17454.250167	538.941406	64.488503
2857.552606	17454.250167	537.696289	-91.541405
2857.552606	17454.250167	536.451172	38.501423
2857.552606	17454.250167	535.205078	30.858797
2857.552606	17454.250167	533.959961	-150.370224
2857.552606	17454.250167	532.712891	-11.832125
2857.552606	17454.250167	531.466797	-76.498207
2857.552606	17454.250167	530.219727	-64.924484
2857.552606	17454.250167	528.972656	-53.318268
2857.552606	17454.250167	527.725586	-71.290749
2857.552606	17454.250167	526.478516	27.090851
2857.552606	17454.250167	525.230469	-187.439316
2857.552606	17454.250167	523.982422	-129.159042
2857.552606	17454.250167	522.734375	62.276020
2857.552606	17454.250167	521.485352	-4.102557
2857.552606	17454.250167	520.236328	-95.759232
2857.552606	17454.250167	518.987305	-16.265244
2857.552606	17454.250167	517.737305	10.447682
2857.552606	17454.250167	516.488281	11.862762
2857.552606	17454.250167	515.238281	63.973919
2857.552606	17454.250167	513.988281	124.547867
2857.552606	17454.250167	512.737305	138.725204
2857.552606	17454.250167	511.486328	93.883369
2857.552606	17454.250167	510.235352	61.759579
2857.552606	17454.250167	508.984375	130.896698
2857.552606	17454.250167	507.732422	166.322586
2857.552606	17454.250167	506.480469	205.995514
2857.552606	17454.250167	505.228516	171.954819
2857.552606	17454.250167	503.976563	226.450790
2857.552606	17454.250167	502.723633	160.923935
2857.552606	17454.250167	501.470703	226.021698
2857.552606	17454.250167	500.217773	232.195923
2857.552606	17454.250167	498.963867	349.964294
2857.552606	17454.250167	497.709961	293.077545
2857.552606	17454.250167	496.456055	181.565536
2857.552606	17454.250167	495.202148	105.907837
2857.552606	17454.250167	493.947266	131.269608
2857.552606	17454.250167	492.692383	314.354401
2857.552606	17454.250167	491.437500	261.985413
2857.552606	17454.250167	490.181641	161.351700
2857.552606	17454.250167	488.926758	209.989365
2857.552606	17454.250167	487.670898	185.131592
2857.552606	17454.250167	486.414063	93.125954
2857.552606	17454.250167	485.158203	171.288391
2857.552606	17454.250167	483.901367	54.231140
2857.552606	17454.250167	482.644531	88.388535
2857.552606	17454.250167	481.386719	74.314377
2857.552606	17454.250167	480.128906	-73.973213
2857.552606	17454.250167	478.871094	-64.839989
2857.552606	17454.250167	477.613281	-175.194244
2857.552606	17454.250167	476.355469	-117.729500
2857.552606	17454.250167	475.096680	143.077194
2857.552606	17454.250167	473.837891	30.787931
2857.552606	17454.250167	472.578125	-68.839531
2857.552606	17454.250167	471.319336	62.043518
2857.552606	17454.250167	470.059570	-123.329895
2857.552606	17454.250167	468.799805	-4.973267
2857.552606	17454.250167	467.539063	159.426208
2857.552606	17454.250167	466.278320	-103.169113
2857.552606	17454.250167	465.017578	42.424137
2857.552606	17454.250167	463.756836	-2.385682
2857.552606	17454.250167	462.495117	302.154480
2857.552606	17454.250167	461.233398	251.101791
2857.552606	17454.250167	459.971680	55.845345
2857.552606	17454.250167	458.709961	59.276108
2857.552606	17454.250167	457.447266	114.978439
2857.552606	17454.250167	456.184570	30.698046
2857.552606	17454.250167	454.921875	136.567810
2857.552606	17454.250167	453.658203	6.420922
2857.552606	17454.250167	452.394531	14.158494
2857.552606	17454.250167	451.130859	-34.452091
2857.552606	17454.250167	449.867188	71.419441
2857.552606	17454.250167	448.602539	56.234356
2857.552606	17454.250167	447.337891	41.068123
2857.552606	17454.250167	446.073242	23.831757
2857.552606	17454.250167	444.807617	19.120520
2857.552606	17454.250167	443.542969	172.863251
2857.552606	17454.250167	442.276367	49.317154
2857.552606	17454.250167	441.010742	86.285553
2857.552606	17454.250167	439.744141	150.317139
2857.552606	17454.250167	438.478516	201.815872
2857.552606	17454.250167	437.210938	59.599960
2857.552606	17454.250167	435.944336	211.010391
2857.552606	17454.250167	434.676758	102.127510
2857.552606	17454.250167	433.409180	151.441498
2857.552606	17454.250167	432.141602	30.085184
2857.552606	17454.250167	430.873047	154.227585
2857.552606	17454.250167	429.604492	222.125092
2857.552606	17454.250167	428.335938	362.734344
2857.552606	17454.250167	427.067383	318.211578
2857.552606	17454.250167	425.797852	290.287079
2857.552606	17454.250167	424.528320	337.132294
2857.552606	17454.250167	423.258789	354.813141
2857.552606	17454.250167	421.988281	254.024170
2857.552606	17454.250167	420.717773	333.885193
2857.552606	17454.250167	419.447266	409.485565
2857.552606	17454.250167	418.175781	200.586548
2857.552606	17454.250167	416.905273	197.155594
2857.552606	17454.250167	415.633789	253.806305
2857.552606	17454.250167	414.362305	150.602249
2857.552606	17454.250167	413.089844	124.076622
2857.552606	17454.250167	411.817383	105.747353
2857.552606	17454.250167	410.544922	-53.662701
2857.552606	17454.250167	409.272461	-53.531429
2857.552606	17454.250167	407.999023	-55.604595
2857.552606	17454.250167	406.725586	112.069839
2857.552606	17454.250167	405.452148	126.249115
2857.552606	17454.250167	404.177734	185.825668
2857.552606	17454.250167	402.903320	-26.008533
2857.552606	17454.250167	401.628906	24.965004
2857.552606	17454.250167	400.354492	94.364960
2857.552606	17454.250167	399.079102	6.296251
2857.552606	17454.250167	397.803711	145.618866
2857.552606	17454.250167	396.528320	5.473765
2857.552606	17454.250167	395.251953	105.028137
2857.552606	17454.250167	393.976563	173.310196
2857.552606	17454.250167	392.700195	261.994446
2857.552606	17454.250167	391.422852	154.087463
2857.552606	17454.250167	390.145508	285.620605
2857.552606	17454.250167	388.869141	32.657951
2857.552606	17454.250167	387.590820	324.687775
2857.552606	17454.250167	386.313477	77.454971
2857.552606	17454.250167	385.035156	28.182299
2857.552606	17454.250167	383.756836	184.989105
2857.552606	17454.250167	382.478516	244.433395
2857.552606	17454.250167	381.199219	51.853355
2857.552606	17454.250167	379.919922	164.234848
2857.552606	17454.250167	378.640625	117.442108
2857.552606	17454.250167	377.360352	169.238831
2857.552606	17454.250167	376.080078	-140.047470
2857.552606	17454.250167	374.799805	102.624207
2857.552606	17454.250167	373.519531	-108.445168
2857.552606	17454.250167	372.238281	50.874729
2857.552606	17454.250167	370.957031	-27.126822
2857.552606	17454.250167	369.675781	-136.436493
2857.552606	17454.250167	368.394531	-5.353790
2857.552606	17454.250167	367.112305	59.319118
2857.552606	17454.250167	365.830078	-6.161249
2857.552606	17454.250167	364.546875	45.097702
2857.552606	17454.250167	363.264648	62.897026
2857.552606	17454.250167	361.981445	147.967804
2857.552606	17454.250167	360.698242	-3.972446
2857.552606	17454.250167	359.414063	-41.365944
2857.552606	17454.250167	358.129883	-136.891617
2857.552606	17454.250167	356.845703	-124.135109
2857.552606	17454.250167	355.561523	-116.145813
2857.552606	17454.250167	354.276367	2.033301
2857.552606	17454.250167	352.991211	117.411987
2857.552606	17454.250167	351.706055	16.514275
2857.552606	17454.250167	350.420898	155.009766
2857.552606	17454.250167	349.134766	85.459938
2857.552606	17454.250167	347.848633	19.260153
2857.552606	17454.250167	346.561523	130.676788
2857.552606	17454.250167	345.275391	-56.050732
2857.552606	17454.250167	343.988281	78.250130
2857.552606	17454.250167	342.700195	21.007906
2857.552606	17454.250167	341.413086	83.791557
2857.552606	17454.250167	340.125000	137.408829
2857.552606	17454.250167	338.836914	-14.751830
2857.552606	17454.250167	337.548828	6.217566
2857.552606	17454.250167	336.259766	-129.430954
2857.552606	17454.250167	334.970703	-20.454891
2857.552606	17454.250167	333.681641	-18.991787
2857.552606	17454.250167	332.391602	187.978806
2857.552606	17454.250167	331.101563	-27.598772
2857.552606	17454.250167	329.811523	-11.116688
2857.552606	17454.250167	328.521484	-73.508652
2857.552606	17454.250167	327.230469	144.955826
2857.552606	17454.250167	325.939453	98.466278
2857.552606	17454.250167	324.648438	52.764946
2857.552606	17454.250167	323.356445	142.602036
2857.552606	17454.250167	322.064453	-124.285126
2857.552606	17454.250167	320.772461	-39.208893
2857.552606	17454.250167	319.480469	105.660355
2857.552606	17454.250167	318.187500	26.529985
2857.552606	17454.250167	316.894531	-158.109268
2857.552606	17454.250167	315.601563	-48.390713
2857.552606	17454.250167	314.307617	10.735258
2857.552606	17454.250167	313.013672	-45.949360
2857.552606	17454.250167	311.719727	32.344891
2857.552606	17454.250167	310.425781	55.938999
2857.552606	17454.250167	309.130859	100.179489
2857.552606	17454.250167	307.835938	-126.278618
2857.552606	17454.250167	306.541016	54.971386
2857.552606	17454.250167	305.245117	36.721886
2857.552606	17454.250167	303.949219	-28.195669
2857.552606	17454.250167	302.653320	-33.949127
2857.552606	17454.250167	301.356445	-55.971508
2857.552606	17454.250167	300.060547	129.613708
2857.552606	17454.250167	298.763672	211.288589
