#X		#Y		#Wave		#Intensity
2806.402819	17369.861833	2000.043945	155.450729
2806.402819	17369.861833	1999.080078	-66.751961
2806.402819	17369.861833	1998.116211	-126.496628
2806.402819	17369.861833	1997.151367	-67.415131
2806.402819	17369.861833	1996.186523	-191.849854
2806.402819	17369.861833	1995.222656	75.027206
2806.402819	17369.861833	1994.256836	29.599627
2806.402819	17369.861833	1993.291992	-110.037857
2806.402819	17369.861833	1992.327148	5.269011
2806.402819	17369.861833	1991.361328	-20.679665
2806.402819	17369.861833	1990.395508	-78.903999
2806.402819	17369.861833	1989.429688	40.950752
2806.402819	17369.861833	1988.463867	116.127892
2806.402819	17369.861833	1987.497070	-6.704283
2806.402819	17369.861833	1986.531250	13.858579
2806.402819	17369.861833	1985.564453	88.724052
2806.402819	17369.861833	1984.597656	-140.598846
2806.402819	17369.861833	1983.630859	-1.625257
2806.402819	17369.861833	1982.664063	228.658798
2806.402819	17369.861833	1981.696289	90.635284
2806.402819	17369.861833	1980.728516	132.934128
2806.402819	17369.861833	1979.761719	101.060448
2806.402819	17369.861833	1978.792969	113.586632
2806.402819	17369.861833	1977.825195	259.379333
2806.402819	17369.861833	1976.857422	279.173340
2806.402819	17369.861833	1975.888672	103.935440
2806.402819	17369.861833	1974.919922	10.148821
2806.402819	17369.861833	1973.951172	81.654572
2806.402819	17369.861833	1972.982422	214.762436
2806.402819	17369.861833	1972.013672	-19.682810
2806.402819	17369.861833	1971.043945	-244.211121
2806.402819	17369.861833	1970.075195	-69.302879
2806.402819	17369.861833	1969.105469	36.496445
2806.402819	17369.861833	1968.135742	-17.955450
2806.402819	17369.861833	1967.165039	218.336380
2806.402819	17369.861833	1966.195313	48.047577
2806.402819	17369.861833	1965.224609	230.014954
2806.402819	17369.861833	1964.253906	27.740423
2806.402819	17369.861833	1963.283203	404.122589
2806.402819	17369.861833	1962.312500	265.870483
2806.402819	17369.861833	1961.341797	117.816093
2806.402819	17369.861833	1960.370117	55.932167
2806.402819	17369.861833	1959.399414	-185.529953
2806.402819	17369.861833	1958.427734	-30.878773
2806.402819	17369.861833	1957.455078	40.092365
2806.402819	17369.861833	1956.483398	-48.791218
2806.402819	17369.861833	1955.511719	9.868559
2806.402819	17369.861833	1954.539063	80.793938
2806.402819	17369.861833	1953.566406	316.353149
2806.402819	17369.861833	1952.593750	372.461426
2806.402819	17369.861833	1951.621094	263.961700
2806.402819	17369.861833	1950.647461	214.454773
2806.402819	17369.861833	1949.674805	-4.467034
2806.402819	17369.861833	1948.701172	181.814804
2806.402819	17369.861833	1947.727539	461.318451
2806.402819	17369.861833	1946.753906	269.495789
2806.402819	17369.861833	1945.780273	-27.761896
2806.402819	17369.861833	1944.805664	62.741619
2806.402819	17369.861833	1943.831055	-195.098892
2806.402819	17369.861833	1942.856445	-97.216545
2806.402819	17369.861833	1941.881836	-45.946888
2806.402819	17369.861833	1940.907227	-33.908733
2806.402819	17369.861833	1939.932617	-78.236565
2806.402819	17369.861833	1938.957031	171.544830
2806.402819	17369.861833	1937.981445	83.114929
2806.402819	17369.861833	1937.005859	-42.014454
2806.402819	17369.861833	1936.030273	185.617661
2806.402819	17369.861833	1935.054688	163.396027
2806.402819	17369.861833	1934.078125	175.473373
2806.402819	17369.861833	1933.101563	104.327660
2806.402819	17369.861833	1932.125000	-32.857704
2806.402819	17369.861833	1931.148438	167.710022
2806.402819	17369.861833	1930.171875	-25.682333
2806.402819	17369.861833	1929.194336	-42.870495
2806.402819	17369.861833	1928.217773	-165.201614
2806.402819	17369.861833	1927.240234	-33.176968
2806.402819	17369.861833	1926.262695	-74.766327
2806.402819	17369.861833	1925.284180	-255.655151
2806.402819	17369.861833	1924.306641	-130.983871
2806.402819	17369.861833	1923.328125	-25.898352
2806.402819	17369.861833	1922.350586	-152.919998
2806.402819	17369.861833	1921.372070	-86.933037
2806.402819	17369.861833	1920.392578	-216.324860
2806.402819	17369.861833	1919.414063	-8.722538
2806.402819	17369.861833	1918.434570	118.247482
2806.402819	17369.861833	1917.456055	201.247101
2806.402819	17369.861833	1916.476563	-130.613846
2806.402819	17369.861833	1915.497070	49.997028
2806.402819	17369.861833	1914.516602	98.819710
2806.402819	17369.861833	1913.537109	30.564747
2806.402819	17369.861833	1912.556641	142.773499
2806.402819	17369.861833	1911.576172	-81.493256
2806.402819	17369.861833	1910.595703	28.255596
2806.402819	17369.861833	1909.615234	-149.606064
2806.402819	17369.861833	1908.633789	-144.664612
2806.402819	17369.861833	1907.653320	140.421173
2806.402819	17369.861833	1906.671875	357.196350
2806.402819	17369.861833	1905.690430	-154.239365
2806.402819	17369.861833	1904.708984	6.495555
2806.402819	17369.861833	1903.727539	72.222130
2806.402819	17369.861833	1902.745117	-17.851313
2806.402819	17369.861833	1901.762695	-159.006042
2806.402819	17369.861833	1900.780273	35.621841
2806.402819	17369.861833	1899.797852	181.511444
2806.402819	17369.861833	1898.815430	-32.606174
2806.402819	17369.861833	1897.832031	229.920471
2806.402819	17369.861833	1896.849609	361.051727
2806.402819	17369.861833	1895.866211	-215.204895
2806.402819	17369.861833	1894.882813	241.560654
2806.402819	17369.861833	1893.898438	183.027084
2806.402819	17369.861833	1892.915039	-79.567818
2806.402819	17369.861833	1891.930664	95.095673
2806.402819	17369.861833	1890.947266	-97.018036
2806.402819	17369.861833	1889.962891	26.539579
2806.402819	17369.861833	1888.977539	133.024704
2806.402819	17369.861833	1887.993164	62.267094
2806.402819	17369.861833	1887.007813	214.742401
2806.402819	17369.861833	1886.023438	-113.242943
2806.402819	17369.861833	1885.038086	70.667419
2806.402819	17369.861833	1884.051758	247.192474
2806.402819	17369.861833	1883.066406	-197.120911
2806.402819	17369.861833	1882.081055	-311.608154
2806.402819	17369.861833	1881.094727	-81.915329
2806.402819	17369.861833	1880.108398	91.906960
2806.402819	17369.861833	1879.122070	59.669579
2806.402819	17369.861833	1878.135742	-144.601776
2806.402819	17369.861833	1877.148438	99.223946
2806.402819	17369.861833	1876.162109	76.533981
2806.402819	17369.861833	1875.174805	-72.099434
2806.402819	17369.861833	1874.187500	89.109291
2806.402819	17369.861833	1873.199219	119.507759
2806.402819	17369.861833	1872.211914	166.774643
2806.402819	17369.861833	1871.223633	-197.320999
2806.402819	17369.861833	1870.236328	183.663406
2806.402819	17369.861833	1869.248047	-144.149796
2806.402819	17369.861833	1868.258789	-39.098415
2806.402819	17369.861833	1867.270508	-79.202377
2806.402819	17369.861833	1866.282227	-27.512762
2806.402819	17369.861833	1865.292969	212.575317
2806.402819	17369.861833	1864.303711	-57.300392
2806.402819	17369.861833	1863.314453	6.210016
2806.402819	17369.861833	1862.324219	-225.036819
2806.402819	17369.861833	1861.334961	-214.796310
2806.402819	17369.861833	1860.344727	-175.673904
2806.402819	17369.861833	1859.354492	41.978264
2806.402819	17369.861833	1858.364258	368.068726
2806.402819	17369.861833	1857.374023	329.595886
2806.402819	17369.861833	1856.383789	18.440882
2806.402819	17369.861833	1855.392578	-34.602642
2806.402819	17369.861833	1854.401367	69.035492
2806.402819	17369.861833	1853.410156	64.043137
2806.402819	17369.861833	1852.418945	206.010498
2806.402819	17369.861833	1851.426758	61.008194
2806.402819	17369.861833	1850.435547	265.384308
2806.402819	17369.861833	1849.443359	385.254211
2806.402819	17369.861833	1848.451172	292.999268
2806.402819	17369.861833	1847.458984	154.916718
2806.402819	17369.861833	1846.466797	125.141762
2806.402819	17369.861833	1845.473633	157.863647
2806.402819	17369.861833	1844.480469	139.919189
2806.402819	17369.861833	1843.487305	157.970947
2806.402819	17369.861833	1842.494141	406.896332
2806.402819	17369.861833	1841.500977	123.957565
2806.402819	17369.861833	1840.506836	16.591438
2806.402819	17369.861833	1839.513672	269.874908
2806.402819	17369.861833	1838.519531	239.229904
2806.402819	17369.861833	1837.525391	302.230347
2806.402819	17369.861833	1836.530273	-36.290817
2806.402819	17369.861833	1835.536133	237.961090
2806.402819	17369.861833	1834.541016	-76.637802
2806.402819	17369.861833	1833.545898	108.391273
2806.402819	17369.861833	1832.550781	326.847778
2806.402819	17369.861833	1831.555664	201.728378
2806.402819	17369.861833	1830.560547	355.010315
2806.402819	17369.861833	1829.564453	402.490570
2806.402819	17369.861833	1828.568359	65.849815
2806.402819	17369.861833	1827.572266	343.442230
2806.402819	17369.861833	1826.576172	-26.909246
2806.402819	17369.861833	1825.580078	482.977783
2806.402819	17369.861833	1824.583008	35.725967
2806.402819	17369.861833	1823.585938	101.583023
2806.402819	17369.861833	1822.588867	315.897369
2806.402819	17369.861833	1821.591797	199.251892
2806.402819	17369.861833	1820.594727	336.508667
2806.402819	17369.861833	1819.596680	289.090576
2806.402819	17369.861833	1818.599609	318.203125
2806.402819	17369.861833	1817.601563	19.060217
2806.402819	17369.861833	1816.603516	268.199738
2806.402819	17369.861833	1815.604492	26.335028
2806.402819	17369.861833	1814.606445	71.637672
2806.402819	17369.861833	1813.607422	40.189663
2806.402819	17369.861833	1812.608398	-228.263458
2806.402819	17369.861833	1811.609375	228.050766
2806.402819	17369.861833	1810.610352	224.836487
2806.402819	17369.861833	1809.610352	1.470414
2806.402819	17369.861833	1808.611328	24.291950
2806.402819	17369.861833	1807.611328	11.084632
2806.402819	17369.861833	1806.611328	31.186769
2806.402819	17369.861833	1805.610352	-27.738317
2806.402819	17369.861833	1804.610352	101.939095
2806.402819	17369.861833	1803.609375	166.909653
2806.402819	17369.861833	1802.608398	-128.903687
2806.402819	17369.861833	1801.607422	-240.917648
2806.402819	17369.861833	1800.606445	-83.302902
2806.402819	17369.861833	1799.605469	-4.671469
2806.402819	17369.861833	1798.603516	274.201569
2806.402819	17369.861833	1797.601563	-119.992371
2806.402819	17369.861833	1796.599609	-91.994148
2806.402819	17369.861833	1795.597656	322.181946
2806.402819	17369.861833	1794.595703	56.468948
2806.402819	17369.861833	1793.592773	2.852802
2806.402819	17369.861833	1792.589844	87.334419
2806.402819	17369.861833	1791.587891	-33.319004
2806.402819	17369.861833	1790.583984	88.911201
2806.402819	17369.861833	1789.581055	120.415558
2806.402819	17369.861833	1788.577148	-31.670366
2806.402819	17369.861833	1787.574219	247.157944
2806.402819	17369.861833	1786.570313	66.195633
2806.402819	17369.861833	1785.566406	27.952671
2806.402819	17369.861833	1784.561523	-0.941658
2806.402819	17369.861833	1783.557617	212.723633
2806.402819	17369.861833	1782.552734	12.170214
2806.402819	17369.861833	1781.547852	-31.493530
2806.402819	17369.861833	1780.542969	179.146225
2806.402819	17369.861833	1779.538086	208.825562
2806.402819	17369.861833	1778.532227	-118.276268
2806.402819	17369.861833	1777.527344	-29.479404
2806.402819	17369.861833	1776.521484	-126.257339
2806.402819	17369.861833	1775.515625	80.936943
2806.402819	17369.861833	1774.508789	-68.452271
2806.402819	17369.861833	1773.502930	12.428184
2806.402819	17369.861833	1772.496094	5.230548
2806.402819	17369.861833	1771.489258	285.121735
2806.402819	17369.861833	1770.482422	201.566574
2806.402819	17369.861833	1769.475586	60.908836
2806.402819	17369.861833	1768.467773	26.886908
2806.402819	17369.861833	1767.460938	-249.253311
2806.402819	17369.861833	1766.453125	-191.054764
2806.402819	17369.861833	1765.445313	-125.941200
2806.402819	17369.861833	1764.437500	-383.474976
2806.402819	17369.861833	1763.428711	1.294459
2806.402819	17369.861833	1762.420898	34.995647
2806.402819	17369.861833	1761.412109	-19.183443
2806.402819	17369.861833	1760.403320	106.535538
2806.402819	17369.861833	1759.393555	106.473701
2806.402819	17369.861833	1758.384766	-208.719498
2806.402819	17369.861833	1757.375000	174.505981
2806.402819	17369.861833	1756.366211	-65.178215
2806.402819	17369.861833	1755.356445	-136.914047
2806.402819	17369.861833	1754.345703	72.786652
2806.402819	17369.861833	1753.335938	59.850491
2806.402819	17369.861833	1752.325195	228.870926
2806.402819	17369.861833	1751.315430	156.433441
2806.402819	17369.861833	1750.304688	-1.290961
2806.402819	17369.861833	1749.292969	-62.218266
2806.402819	17369.861833	1748.282227	-68.912354
2806.402819	17369.861833	1747.270508	-30.892557
2806.402819	17369.861833	1746.259766	101.471275
2806.402819	17369.861833	1745.248047	209.971741
2806.402819	17369.861833	1744.235352	216.677338
2806.402819	17369.861833	1743.223633	192.531738
2806.402819	17369.861833	1742.211914	342.938232
2806.402819	17369.861833	1741.199219	32.791622
2806.402819	17369.861833	1740.186523	199.334915
2806.402819	17369.861833	1739.173828	-47.294430
2806.402819	17369.861833	1738.160156	5.602732
2806.402819	17369.861833	1737.147461	-64.322861
2806.402819	17369.861833	1736.133789	-30.642532
2806.402819	17369.861833	1735.120117	-166.905396
2806.402819	17369.861833	1734.106445	50.328869
2806.402819	17369.861833	1733.091797	-57.963894
2806.402819	17369.861833	1732.078125	-15.543435
2806.402819	17369.861833	1731.063477	99.716759
2806.402819	17369.861833	1730.048828	-310.528442
2806.402819	17369.861833	1729.034180	-89.596413
2806.402819	17369.861833	1728.019531	-0.773294
2806.402819	17369.861833	1727.003906	-100.505844
2806.402819	17369.861833	1725.988281	-193.294754
2806.402819	17369.861833	1724.972656	332.724274
2806.402819	17369.861833	1723.957031	-132.183960
2806.402819	17369.861833	1722.941406	165.122223
2806.402819	17369.861833	1721.924805	139.916199
2806.402819	17369.861833	1720.909180	-179.355301
2806.402819	17369.861833	1719.892578	37.370811
2806.402819	17369.861833	1718.875977	-126.944099
2806.402819	17369.861833	1717.858398	138.718964
2806.402819	17369.861833	1716.841797	93.987587
2806.402819	17369.861833	1715.824219	309.875031
2806.402819	17369.861833	1714.806641	149.716354
2806.402819	17369.861833	1713.789063	388.702271
2806.402819	17369.861833	1712.770508	249.407822
2806.402819	17369.861833	1711.752930	250.897629
2806.402819	17369.861833	1710.734375	195.890747
2806.402819	17369.861833	1709.715820	340.226868
2806.402819	17369.861833	1708.697266	256.790192
2806.402819	17369.861833	1707.678711	363.250061
2806.402819	17369.861833	1706.659180	394.460205
2806.402819	17369.861833	1705.640625	301.272003
2806.402819	17369.861833	1704.621094	290.014465
2806.402819	17369.861833	1703.600586	482.520752
2806.402819	17369.861833	1702.581055	660.787476
2806.402819	17369.861833	1701.561523	524.894775
2806.402819	17369.861833	1700.541016	522.424438
2806.402819	17369.861833	1699.520508	554.959534
2806.402819	17369.861833	1698.500000	652.923706
2806.402819	17369.861833	1697.478516	635.980225
2806.402819	17369.861833	1696.458008	527.656555
2806.402819	17369.861833	1695.436523	945.797363
2806.402819	17369.861833	1694.415039	876.967102
2806.402819	17369.861833	1693.393555	927.354919
2806.402819	17369.861833	1692.372070	942.522888
2806.402819	17369.861833	1691.349609	915.452454
2806.402819	17369.861833	1690.327148	1002.841125
2806.402819	17369.861833	1689.304688	1087.747314
2806.402819	17369.861833	1688.282227	971.516602
2806.402819	17369.861833	1687.259766	1187.033325
2806.402819	17369.861833	1686.236328	1299.538208
2806.402819	17369.861833	1685.213867	1325.496582
2806.402819	17369.861833	1684.190430	1206.522583
2806.402819	17369.861833	1683.166016	1533.434326
2806.402819	17369.861833	1682.142578	1493.636963
2806.402819	17369.861833	1681.119141	1477.095703
2806.402819	17369.861833	1680.094727	1325.091675
2806.402819	17369.861833	1679.070313	1163.718506
2806.402819	17369.861833	1678.045898	1387.202393
2806.402819	17369.861833	1677.020508	1484.543213
2806.402819	17369.861833	1675.996094	1332.286011
2806.402819	17369.861833	1674.970703	1478.381592
2806.402819	17369.861833	1673.945313	1323.652222
2806.402819	17369.861833	1672.919922	1397.279663
2806.402819	17369.861833	1671.893555	1445.140259
2806.402819	17369.861833	1670.868164	1385.771973
2806.402819	17369.861833	1669.841797	1459.078247
2806.402819	17369.861833	1668.815430	1520.635620
2806.402819	17369.861833	1667.789063	1619.344360
2806.402819	17369.861833	1666.761719	1461.868164
2806.402819	17369.861833	1665.735352	1618.588989
2806.402819	17369.861833	1664.708008	1758.866943
2806.402819	17369.861833	1663.680664	1824.579712
2806.402819	17369.861833	1662.653320	1946.024292
2806.402819	17369.861833	1661.625000	2118.492676
2806.402819	17369.861833	1660.597656	1916.531738
2806.402819	17369.861833	1659.569336	1905.178833
2806.402819	17369.861833	1658.541016	2126.184814
2806.402819	17369.861833	1657.512695	2328.462158
2806.402819	17369.861833	1656.483398	2221.589844
2806.402819	17369.861833	1655.455078	2377.212646
2806.402819	17369.861833	1654.425781	2372.457520
2806.402819	17369.861833	1653.396484	2546.440918
2806.402819	17369.861833	1652.366211	2557.784912
2806.402819	17369.861833	1651.336914	2077.064209
2806.402819	17369.861833	1650.306641	1967.745361
2806.402819	17369.861833	1649.276367	2201.802490
2806.402819	17369.861833	1648.246094	2461.247314
2806.402819	17369.861833	1647.215820	2249.765625
2806.402819	17369.861833	1646.185547	2249.340332
2806.402819	17369.861833	1645.154297	2496.911133
2806.402819	17369.861833	1644.123047	2693.368896
2806.402819	17369.861833	1643.091797	3047.305176
2806.402819	17369.861833	1642.060547	2650.395996
2806.402819	17369.861833	1641.028320	2747.001709
2806.402819	17369.861833	1639.997070	3028.861816
2806.402819	17369.861833	1638.964844	2886.817139
2806.402819	17369.861833	1637.931641	3184.658936
2806.402819	17369.861833	1636.899414	3419.906250
2806.402819	17369.861833	1635.867188	3282.459961
2806.402819	17369.861833	1634.833984	3226.012451
2806.402819	17369.861833	1633.800781	3530.463623
2806.402819	17369.861833	1632.767578	3316.704834
2806.402819	17369.861833	1631.734375	3764.388184
2806.402819	17369.861833	1630.700195	4080.084961
2806.402819	17369.861833	1629.666016	3898.679688
2806.402819	17369.861833	1628.631836	3802.862305
2806.402819	17369.861833	1627.597656	3859.591797
2806.402819	17369.861833	1626.563477	4195.843262
2806.402819	17369.861833	1625.528320	4178.557129
2806.402819	17369.861833	1624.493164	4258.281250
2806.402819	17369.861833	1623.458008	4118.651367
2806.402819	17369.861833	1622.422852	4493.869141
2806.402819	17369.861833	1621.387695	4714.328613
2806.402819	17369.861833	1620.351563	4648.566406
2806.402819	17369.861833	1619.315430	4691.289551
2806.402819	17369.861833	1618.279297	4872.417480
2806.402819	17369.861833	1617.243164	4903.606934
2806.402819	17369.861833	1616.207031	5013.209961
2806.402819	17369.861833	1615.169922	5221.903809
2806.402819	17369.861833	1614.132813	5667.949219
2806.402819	17369.861833	1613.095703	5659.901367
2806.402819	17369.861833	1612.058594	5375.426270
2806.402819	17369.861833	1611.020508	6019.377441
2806.402819	17369.861833	1609.983398	6195.637207
2806.402819	17369.861833	1608.945313	6037.975586
2806.402819	17369.861833	1607.907227	6442.144531
2806.402819	17369.861833	1606.868164	6632.127441
2806.402819	17369.861833	1605.830078	6617.306641
2806.402819	17369.861833	1604.791016	6570.312500
2806.402819	17369.861833	1603.751953	6603.907227
2806.402819	17369.861833	1602.712891	6823.841309
2806.402819	17369.861833	1601.673828	6827.606934
2806.402819	17369.861833	1600.633789	6953.255859
2806.402819	17369.861833	1599.594727	6807.725098
2806.402819	17369.861833	1598.554688	6942.661621
2806.402819	17369.861833	1597.513672	6418.169434
2806.402819	17369.861833	1596.473633	6279.913086
2806.402819	17369.861833	1595.433594	5875.364746
2806.402819	17369.861833	1594.392578	6215.027344
2806.402819	17369.861833	1593.351563	5677.627441
2806.402819	17369.861833	1592.310547	5971.454590
2806.402819	17369.861833	1591.268555	5886.560059
2806.402819	17369.861833	1590.227539	5833.936523
2806.402819	17369.861833	1589.185547	5668.991211
2806.402819	17369.861833	1588.143555	5740.445313
2806.402819	17369.861833	1587.100586	5917.425293
2806.402819	17369.861833	1586.058594	5796.407715
2806.402819	17369.861833	1585.015625	5466.916992
2806.402819	17369.861833	1583.972656	5646.439453
2806.402819	17369.861833	1582.929688	5518.953125
2806.402819	17369.861833	1581.886719	5877.296875
2806.402819	17369.861833	1580.843750	5294.227539
2806.402819	17369.861833	1579.799805	5425.957520
2806.402819	17369.861833	1578.755859	5154.786621
2806.402819	17369.861833	1577.711914	5479.005371
2806.402819	17369.861833	1576.666992	5432.426758
2806.402819	17369.861833	1575.623047	5104.560547
2806.402819	17369.861833	1574.578125	5076.616211
2806.402819	17369.861833	1573.533203	5108.277832
2806.402819	17369.861833	1572.488281	5021.136230
2806.402819	17369.861833	1571.443359	4760.387207
2806.402819	17369.861833	1570.397461	4595.857910
2806.402819	17369.861833	1569.351563	4767.499512
2806.402819	17369.861833	1568.305664	4598.730957
2806.402819	17369.861833	1567.259766	4343.350098
2806.402819	17369.861833	1566.213867	4485.654785
2806.402819	17369.861833	1565.166992	4550.372559
2806.402819	17369.861833	1564.120117	4706.541504
2806.402819	17369.861833	1563.073242	4317.194336
2806.402819	17369.861833	1562.026367	4418.861328
2806.402819	17369.861833	1560.978516	4157.785156
2806.402819	17369.861833	1559.930664	4125.112305
2806.402819	17369.861833	1558.883789	4056.133057
2806.402819	17369.861833	1557.834961	3743.263672
2806.402819	17369.861833	1556.787109	3800.083496
2806.402819	17369.861833	1555.739258	3633.628662
2806.402819	17369.861833	1554.690430	3715.816406
2806.402819	17369.861833	1553.641602	3973.602539
2806.402819	17369.861833	1552.592773	3714.264160
2806.402819	17369.861833	1551.542969	3610.072754
2806.402819	17369.861833	1550.494141	3567.604248
2806.402819	17369.861833	1549.444336	3470.652100
2806.402819	17369.861833	1548.394531	3892.967529
2806.402819	17369.861833	1547.344727	3739.435303
2806.402819	17369.861833	1546.293945	3966.153809
2806.402819	17369.861833	1545.244141	4133.828613
2806.402819	17369.861833	1544.193359	4292.495605
2806.402819	17369.861833	1543.142578	4642.326660
2806.402819	17369.861833	1542.090820	4739.782715
2806.402819	17369.861833	1541.040039	4851.045410
2806.402819	17369.861833	1539.988281	5053.351563
2806.402819	17369.861833	1538.936523	5146.687500
2806.402819	17369.861833	1537.884766	5083.402832
2806.402819	17369.861833	1536.833008	4750.010254
2806.402819	17369.861833	1535.780273	4550.924805
2806.402819	17369.861833	1534.727539	4236.305664
2806.402819	17369.861833	1533.674805	4099.092285
2806.402819	17369.861833	1532.622070	3764.656738
2806.402819	17369.861833	1531.569336	3455.516357
2806.402819	17369.861833	1530.515625	3264.670654
2806.402819	17369.861833	1529.461914	2858.596191
2806.402819	17369.861833	1528.408203	2863.405762
2806.402819	17369.861833	1527.354492	2920.575684
2806.402819	17369.861833	1526.299805	2764.802979
2806.402819	17369.861833	1525.246094	2702.256348
2806.402819	17369.861833	1524.191406	2501.688477
2806.402819	17369.861833	1523.136719	2253.830566
2806.402819	17369.861833	1522.081055	2139.927734
2806.402819	17369.861833	1521.026367	1743.189819
2806.402819	17369.861833	1519.970703	1743.093506
2806.402819	17369.861833	1518.915039	1652.656494
2806.402819	17369.861833	1517.859375	1383.655518
2806.402819	17369.861833	1516.802734	1028.971069
2806.402819	17369.861833	1515.747070	1183.770020
2806.402819	17369.861833	1514.690430	956.402222
2806.402819	17369.861833	1513.633789	749.706421
2806.402819	17369.861833	1512.577148	690.310791
2806.402819	17369.861833	1511.519531	739.677063
2806.402819	17369.861833	1510.461914	337.168640
2806.402819	17369.861833	1509.405273	303.446838
2806.402819	17369.861833	1508.346680	371.624146
2806.402819	17369.861833	1507.289063	315.773987
2806.402819	17369.861833	1506.231445	-15.372100
2806.402819	17369.861833	1505.172852	-75.177284
2806.402819	17369.861833	1504.114258	54.933254
2806.402819	17369.861833	1503.055664	252.952774
2806.402819	17369.861833	1501.996094	105.825333
2806.402819	17369.861833	1500.937500	211.730606
2806.402819	17369.861833	1499.877930	4.247272
2806.402819	17369.861833	1498.818359	119.632530
2806.402819	17369.861833	1497.757813	57.055904
2806.402819	17369.861833	1496.698242	-81.890808
2806.402819	17369.861833	1495.637695	-114.599777
2806.402819	17369.861833	1494.577148	163.970322
2806.402819	17369.861833	1493.516602	-163.449142
2806.402819	17369.861833	1492.456055	11.894646
2806.402819	17369.861833	1491.394531	-35.573555
2806.402819	17369.861833	1490.333008	-325.973602
2806.402819	17369.861833	1489.271484	-208.486298
2806.402819	17369.861833	1488.209961	96.047325
2806.402819	17369.861833	1487.148438	-107.912964
2806.402819	17369.861833	1486.085938	-48.277233
2806.402819	17369.861833	1485.023438	25.095078
2806.402819	17369.861833	1483.960938	-101.484772
2806.402819	17369.861833	1482.898438	102.821815
2806.402819	17369.861833	1481.834961	71.230652
2806.402819	17369.861833	1480.772461	273.712738
2806.402819	17369.861833	1479.708984	22.394554
2806.402819	17369.861833	1478.644531	153.398575
2806.402819	17369.861833	1477.581055	113.918823
2806.402819	17369.861833	1476.517578	227.480133
2806.402819	17369.861833	1475.453125	222.225479
2806.402819	17369.861833	1474.388672	603.304504
2806.402819	17369.861833	1473.323242	757.718018
2806.402819	17369.861833	1472.258789	506.276642
2806.402819	17369.861833	1471.193359	769.065796
2806.402819	17369.861833	1470.127930	580.968384
2806.402819	17369.861833	1469.062500	521.293396
2806.402819	17369.861833	1467.997070	1003.924072
2806.402819	17369.861833	1466.930664	1244.804077
2806.402819	17369.861833	1465.865234	1218.893311
2806.402819	17369.861833	1464.798828	1035.246704
2806.402819	17369.861833	1463.731445	1426.621216
2806.402819	17369.861833	1462.665039	1537.690063
2806.402819	17369.861833	1461.597656	1630.070190
2806.402819	17369.861833	1460.530273	1404.509277
2806.402819	17369.861833	1459.462891	1695.814209
2806.402819	17369.861833	1458.395508	1367.868164
2806.402819	17369.861833	1457.327148	1730.929199
2806.402819	17369.861833	1456.259766	1589.655518
2806.402819	17369.861833	1455.191406	1497.475830
2806.402819	17369.861833	1454.123047	1555.710327
2806.402819	17369.861833	1453.053711	1611.649414
2806.402819	17369.861833	1451.985352	1212.826172
2806.402819	17369.861833	1450.916016	1577.417114
2806.402819	17369.861833	1449.846680	1352.153564
2806.402819	17369.861833	1448.776367	1035.449951
2806.402819	17369.861833	1447.707031	955.382080
2806.402819	17369.861833	1446.636719	786.706726
2806.402819	17369.861833	1445.566406	874.974243
2806.402819	17369.861833	1444.496094	764.460022
2806.402819	17369.861833	1443.425781	755.037048
2806.402819	17369.861833	1442.354492	663.382874
2806.402819	17369.861833	1441.283203	1009.363220
2806.402819	17369.861833	1440.211914	812.337280
2806.402819	17369.861833	1439.140625	753.301086
2806.402819	17369.861833	1438.069336	551.428284
2806.402819	17369.861833	1436.997070	558.251099
2806.402819	17369.861833	1435.924805	686.835022
2806.402819	17369.861833	1434.852539	148.439651
2806.402819	17369.861833	1433.780273	401.334198
2806.402819	17369.861833	1432.707031	286.479675
2806.402819	17369.861833	1431.633789	488.825165
2806.402819	17369.861833	1430.560547	306.682892
2806.402819	17369.861833	1429.487305	263.620850
2806.402819	17369.861833	1428.413086	-37.451733
2806.402819	17369.861833	1427.339844	550.333374
2806.402819	17369.861833	1426.265625	62.361614
2806.402819	17369.861833	1425.191406	289.586243
2806.402819	17369.861833	1424.116211	409.419342
2806.402819	17369.861833	1423.041992	410.051300
2806.402819	17369.861833	1421.966797	500.519867
2806.402819	17369.861833	1420.891602	201.542816
2806.402819	17369.861833	1419.816406	474.578674
2806.402819	17369.861833	1418.740234	525.472290
2806.402819	17369.861833	1417.665039	300.401703
2806.402819	17369.861833	1416.588867	471.221436
2806.402819	17369.861833	1415.512695	800.355042
2806.402819	17369.861833	1414.435547	473.347565
2806.402819	17369.861833	1413.359375	695.052612
2806.402819	17369.861833	1412.282227	483.258331
2806.402819	17369.861833	1411.205078	324.674255
2806.402819	17369.861833	1410.127930	573.635681
2806.402819	17369.861833	1409.049805	301.344971
2806.402819	17369.861833	1407.972656	483.875854
2806.402819	17369.861833	1406.894531	666.407593
2806.402819	17369.861833	1405.816406	404.951050
2806.402819	17369.861833	1404.737305	630.639282
2806.402819	17369.861833	1403.659180	679.459961
2806.402819	17369.861833	1402.580078	615.078552
2806.402819	17369.861833	1401.500977	867.413208
2806.402819	17369.861833	1400.421875	924.519531
2806.402819	17369.861833	1399.341797	856.084595
2806.402819	17369.861833	1398.262695	982.446960
2806.402819	17369.861833	1397.182617	989.557617
2806.402819	17369.861833	1396.102539	1139.478027
2806.402819	17369.861833	1395.021484	1043.087158
2806.402819	17369.861833	1393.941406	1046.047852
2806.402819	17369.861833	1392.860352	953.420593
2806.402819	17369.861833	1391.779297	1243.230347
2806.402819	17369.861833	1390.698242	759.175293
2806.402819	17369.861833	1389.616211	1097.178711
2806.402819	17369.861833	1388.535156	1052.106079
2806.402819	17369.861833	1387.453125	974.781616
2806.402819	17369.861833	1386.371094	1318.102295
2806.402819	17369.861833	1385.288086	1316.451050
2806.402819	17369.861833	1384.206055	1134.877075
2806.402819	17369.861833	1383.123047	1442.108765
2806.402819	17369.861833	1382.040039	1220.830933
2806.402819	17369.861833	1380.957031	1825.185181
2806.402819	17369.861833	1379.873047	1555.799683
2806.402819	17369.861833	1378.789063	1781.872314
2806.402819	17369.861833	1377.705078	1927.888062
2806.402819	17369.861833	1376.621094	1955.519775
2806.402819	17369.861833	1375.537109	1995.248413
2806.402819	17369.861833	1374.452148	1948.654541
2806.402819	17369.861833	1373.367188	2000.383911
2806.402819	17369.861833	1372.282227	2131.775146
2806.402819	17369.861833	1371.197266	2023.284058
2806.402819	17369.861833	1370.112305	2104.676758
2806.402819	17369.861833	1369.026367	2134.755615
2806.402819	17369.861833	1367.940430	2330.729248
2806.402819	17369.861833	1366.854492	2317.962158
2806.402819	17369.861833	1365.767578	2447.596680
2806.402819	17369.861833	1364.681641	2294.701172
2806.402819	17369.861833	1363.594727	2511.806152
2806.402819	17369.861833	1362.507813	2295.791992
2806.402819	17369.861833	1361.419922	2073.584961
2806.402819	17369.861833	1360.333008	2368.833740
2806.402819	17369.861833	1359.245117	1990.385254
2806.402819	17369.861833	1358.157227	1832.899780
2806.402819	17369.861833	1357.069336	2037.403198
2806.402819	17369.861833	1355.981445	2116.372314
2806.402819	17369.861833	1354.892578	2208.008545
2806.402819	17369.861833	1353.803711	2257.621582
2806.402819	17369.861833	1352.714844	2431.401123
2806.402819	17369.861833	1351.625000	2059.006104
2806.402819	17369.861833	1350.536133	2632.809570
2806.402819	17369.861833	1349.446289	2449.615479
2806.402819	17369.861833	1348.356445	2489.749756
2806.402819	17369.861833	1347.266602	2600.609131
2806.402819	17369.861833	1346.175781	2785.869385
2806.402819	17369.861833	1345.085938	2696.209961
2806.402819	17369.861833	1343.995117	2643.879883
2806.402819	17369.861833	1342.903320	2854.781982
2806.402819	17369.861833	1341.812500	3049.587402
2806.402819	17369.861833	1340.720703	3295.294189
2806.402819	17369.861833	1339.629883	3414.349609
2806.402819	17369.861833	1338.538086	3352.820801
2806.402819	17369.861833	1337.445313	3516.239502
2806.402819	17369.861833	1336.353516	3583.462402
2806.402819	17369.861833	1335.260742	3785.344727
2806.402819	17369.861833	1334.167969	3573.776611
2806.402819	17369.861833	1333.075195	3408.461182
2806.402819	17369.861833	1331.981445	3324.825928
2806.402819	17369.861833	1330.888672	3351.540039
2806.402819	17369.861833	1329.794922	3678.155762
2806.402819	17369.861833	1328.701172	3358.335693
2806.402819	17369.861833	1327.606445	3501.974609
2806.402819	17369.861833	1326.512695	3461.660400
2806.402819	17369.861833	1325.417969	3309.249023
2806.402819	17369.861833	1324.323242	3538.437744
2806.402819	17369.861833	1323.227539	3409.565186
2806.402819	17369.861833	1322.132813	3735.061768
2806.402819	17369.861833	1321.037109	3387.310059
2806.402819	17369.861833	1319.941406	3428.387451
2806.402819	17369.861833	1318.845703	3684.139648
2806.402819	17369.861833	1317.750000	3501.898682
2806.402819	17369.861833	1316.653320	3763.848145
2806.402819	17369.861833	1315.556641	3204.074219
2806.402819	17369.861833	1314.459961	2943.055908
2806.402819	17369.861833	1313.363281	2851.294434
2806.402819	17369.861833	1312.265625	2536.458740
2806.402819	17369.861833	1311.167969	2149.651855
2806.402819	17369.861833	1310.070313	2448.412842
2806.402819	17369.861833	1308.972656	2375.816162
2806.402819	17369.861833	1307.874023	2146.473877
2806.402819	17369.861833	1306.776367	2010.223999
2806.402819	17369.861833	1305.677734	1709.562744
2806.402819	17369.861833	1304.579102	1673.168579
2806.402819	17369.861833	1303.479492	1833.058594
2806.402819	17369.861833	1302.380859	1523.232300
2806.402819	17369.861833	1301.281250	1594.129517
2806.402819	17369.861833	1300.181641	1528.426758
2806.402819	17369.861833	1299.081055	1458.467529
2806.402819	17369.861833	1297.981445	1268.678101
2806.402819	17369.861833	1296.880859	1099.306030
2806.402819	17369.861833	1295.780273	1156.038818
2806.402819	17369.861833	1294.679688	1335.380493
2806.402819	17369.861833	1293.578125	1190.641724
2806.402819	17369.861833	1292.476563	1321.841797
2806.402819	17369.861833	1291.375000	1366.384888
2806.402819	17369.861833	1290.273438	1454.214233
2806.402819	17369.861833	1289.171875	1413.741943
2806.402819	17369.861833	1288.069336	1224.443115
2806.402819	17369.861833	1286.966797	1576.131592
2806.402819	17369.861833	1285.864258	1343.537720
2806.402819	17369.861833	1284.761719	1229.837036
2806.402819	17369.861833	1283.658203	1456.858765
2806.402819	17369.861833	1282.554688	1376.332275
2806.402819	17369.861833	1281.451172	1386.060181
2806.402819	17369.861833	1280.347656	1124.481689
2806.402819	17369.861833	1279.244141	1313.307617
2806.402819	17369.861833	1278.139648	1462.119507
2806.402819	17369.861833	1277.035156	1550.915771
2806.402819	17369.861833	1275.930664	1233.344849
2806.402819	17369.861833	1274.825195	1561.560425
2806.402819	17369.861833	1273.720703	1385.531738
2806.402819	17369.861833	1272.615234	1162.332520
2806.402819	17369.861833	1271.508789	1080.370972
2806.402819	17369.861833	1270.403320	1193.525879
2806.402819	17369.861833	1269.297852	1310.058838
2806.402819	17369.861833	1268.191406	1087.143677
2806.402819	17369.861833	1267.084961	792.004822
2806.402819	17369.861833	1265.977539	968.052612
2806.402819	17369.861833	1264.871094	944.567383
2806.402819	17369.861833	1263.763672	979.542053
2806.402819	17369.861833	1262.656250	973.950684
2806.402819	17369.861833	1261.548828	927.091919
2806.402819	17369.861833	1260.440430	1051.450684
2806.402819	17369.861833	1259.333008	839.836121
2806.402819	17369.861833	1258.224609	893.276733
2806.402819	17369.861833	1257.115234	950.571411
2806.402819	17369.861833	1256.006836	923.665649
2806.402819	17369.861833	1254.897461	1065.834473
2806.402819	17369.861833	1253.788086	940.895203
2806.402819	17369.861833	1252.678711	833.916138
2806.402819	17369.861833	1251.569336	991.688171
2806.402819	17369.861833	1250.458984	1021.087158
2806.402819	17369.861833	1249.349609	966.136292
2806.402819	17369.861833	1248.239258	836.542725
2806.402819	17369.861833	1247.127930	624.503662
2806.402819	17369.861833	1246.017578	1022.456177
2806.402819	17369.861833	1244.906250	762.144653
2806.402819	17369.861833	1243.794922	802.636230
2806.402819	17369.861833	1242.683594	520.040100
2806.402819	17369.861833	1241.571289	608.371155
2806.402819	17369.861833	1240.459961	537.900269
2806.402819	17369.861833	1239.347656	712.295837
2806.402819	17369.861833	1238.234375	484.682861
2806.402819	17369.861833	1237.122070	484.808624
2806.402819	17369.861833	1236.008789	259.609283
2806.402819	17369.861833	1234.896484	137.045044
2806.402819	17369.861833	1233.782227	125.088547
2806.402819	17369.861833	1232.668945	215.382248
2806.402819	17369.861833	1231.555664	-49.953449
2806.402819	17369.861833	1230.441406	-14.483633
2806.402819	17369.861833	1229.327148	-42.795631
2806.402819	17369.861833	1228.211914	-39.503365
2806.402819	17369.861833	1227.097656	272.527161
2806.402819	17369.861833	1225.982422	283.353302
2806.402819	17369.861833	1224.867188	102.221725
2806.402819	17369.861833	1223.751953	168.302368
2806.402819	17369.861833	1222.635742	298.409058
2806.402819	17369.861833	1221.520508	141.765686
2806.402819	17369.861833	1220.404297	121.003807
2806.402819	17369.861833	1219.287109	47.279671
2806.402819	17369.861833	1218.170898	71.424706
2806.402819	17369.861833	1217.053711	-122.087799
2806.402819	17369.861833	1215.936523	-100.163383
2806.402819	17369.861833	1214.819336	115.951912
2806.402819	17369.861833	1213.702148	101.969101
2806.402819	17369.861833	1212.583984	-139.831299
2806.402819	17369.861833	1211.465820	-75.141823
2806.402819	17369.861833	1210.347656	-138.919403
2806.402819	17369.861833	1209.229492	-417.331909
2806.402819	17369.861833	1208.110352	-129.479752
2806.402819	17369.861833	1206.992188	-125.476257
2806.402819	17369.861833	1205.873047	-287.286041
2806.402819	17369.861833	1204.752930	-166.823151
2806.402819	17369.861833	1203.633789	-211.554169
2806.402819	17369.861833	1202.513672	-31.891178
2806.402819	17369.861833	1201.393555	-240.938461
2806.402819	17369.861833	1200.273438	-54.387230
2806.402819	17369.861833	1199.152344	19.036850
2806.402819	17369.861833	1198.032227	-71.554230
2806.402819	17369.861833	1196.911133	-52.215492
2806.402819	17369.861833	1195.790039	160.460754
2806.402819	17369.861833	1194.667969	177.113968
2806.402819	17369.861833	1193.545898	156.058197
2806.402819	17369.861833	1192.424805	300.654572
2806.402819	17369.861833	1191.301758	228.961334
2806.402819	17369.861833	1190.179688	308.786041
2806.402819	17369.861833	1189.056641	553.127747
2806.402819	17369.861833	1187.933594	638.052734
2806.402819	17369.861833	1186.810547	704.440247
2806.402819	17369.861833	1185.687500	680.937073
2806.402819	17369.861833	1184.563477	588.022156
2806.402819	17369.861833	1183.440430	579.148804
2806.402819	17369.861833	1182.316406	845.192383
2806.402819	17369.861833	1181.191406	822.596436
2806.402819	17369.861833	1180.067383	733.633118
2806.402819	17369.861833	1178.942383	723.626648
2806.402819	17369.861833	1177.817383	681.192810
2806.402819	17369.861833	1176.692383	844.771484
2806.402819	17369.861833	1175.566406	685.846924
2806.402819	17369.861833	1174.440430	658.025574
2806.402819	17369.861833	1173.314453	696.633911
2806.402819	17369.861833	1172.188477	675.197937
2806.402819	17369.861833	1171.062500	918.130188
2806.402819	17369.861833	1169.935547	860.106018
2806.402819	17369.861833	1168.808594	803.533020
2806.402819	17369.861833	1167.681641	1025.784790
2806.402819	17369.861833	1166.553711	896.118408
2806.402819	17369.861833	1165.426758	799.987976
2806.402819	17369.861833	1164.298828	655.588867
2806.402819	17369.861833	1163.170898	574.266602
2806.402819	17369.861833	1162.041992	408.910919
2806.402819	17369.861833	1160.914063	135.273422
2806.402819	17369.861833	1159.785156	130.021545
2806.402819	17369.861833	1158.656250	163.262909
2806.402819	17369.861833	1157.526367	173.039291
2806.402819	17369.861833	1156.397461	103.052315
2806.402819	17369.861833	1155.267578	39.382782
2806.402819	17369.861833	1154.137695	50.986427
2806.402819	17369.861833	1153.006836	185.465225
2806.402819	17369.861833	1151.876953	251.861465
2806.402819	17369.861833	1150.746094	290.882202
2806.402819	17369.861833	1149.615234	424.821533
2806.402819	17369.861833	1148.484375	330.371613
2806.402819	17369.861833	1147.352539	398.399597
2806.402819	17369.861833	1146.220703	591.078857
2806.402819	17369.861833	1145.088867	450.486359
2806.402819	17369.861833	1143.957031	323.814392
2806.402819	17369.861833	1142.825195	434.202484
2806.402819	17369.861833	1141.692383	274.181396
2806.402819	17369.861833	1140.559570	498.380157
2806.402819	17369.861833	1139.426758	534.086792
2806.402819	17369.861833	1138.292969	516.431396
2806.402819	17369.861833	1137.159180	512.799194
2806.402819	17369.861833	1136.025391	681.607117
2806.402819	17369.861833	1134.891602	606.389465
2806.402819	17369.861833	1133.757813	844.944092
2806.402819	17369.861833	1132.623047	697.224731
2806.402819	17369.861833	1131.488281	729.580261
2806.402819	17369.861833	1130.353516	777.617126
2806.402819	17369.861833	1129.217773	680.913879
2806.402819	17369.861833	1128.083008	844.965027
2806.402819	17369.861833	1126.947266	743.836609
2806.402819	17369.861833	1125.811523	701.522583
2806.402819	17369.861833	1124.674805	664.710449
2806.402819	17369.861833	1123.539063	636.456238
2806.402819	17369.861833	1122.402344	440.188416
2806.402819	17369.861833	1121.265625	335.946411
2806.402819	17369.861833	1120.127930	341.763031
2806.402819	17369.861833	1118.990234	126.736519
2806.402819	17369.861833	1117.853516	-63.745205
2806.402819	17369.861833	1116.714844	144.131836
2806.402819	17369.861833	1115.577148	-51.984859
2806.402819	17369.861833	1114.439453	-82.488441
2806.402819	17369.861833	1113.300781	-223.327255
2806.402819	17369.861833	1112.162109	-291.400208
2806.402819	17369.861833	1111.022461	-374.183167
2806.402819	17369.861833	1109.883789	-183.566193
2806.402819	17369.861833	1108.744141	-122.176300
2806.402819	17369.861833	1107.604492	-112.226288
2806.402819	17369.861833	1106.463867	-4.038206
2806.402819	17369.861833	1105.324219	-163.715790
2806.402819	17369.861833	1104.183594	-118.199593
2806.402819	17369.861833	1103.042969	41.727898
2806.402819	17369.861833	1101.902344	-128.103729
2806.402819	17369.861833	1100.760742	49.949711
2806.402819	17369.861833	1099.619141	148.778015
2806.402819	17369.861833	1098.477539	75.158112
2806.402819	17369.861833	1097.335938	141.423569
2806.402819	17369.861833	1096.193359	118.886055
2806.402819	17369.861833	1095.051758	-119.584923
2806.402819	17369.861833	1093.909180	57.796375
2806.402819	17369.861833	1092.765625	138.503815
2806.402819	17369.861833	1091.623047	21.608927
2806.402819	17369.861833	1090.479492	91.783417
2806.402819	17369.861833	1089.335938	23.947750
2806.402819	17369.861833	1088.192383	252.050873
2806.402819	17369.861833	1087.047852	113.799995
2806.402819	17369.861833	1085.903320	108.955894
2806.402819	17369.861833	1084.758789	291.590607
2806.402819	17369.861833	1083.614258	95.352341
2806.402819	17369.861833	1082.469727	269.147186
2806.402819	17369.861833	1081.324219	134.734467
2806.402819	17369.861833	1080.178711	225.678467
2806.402819	17369.861833	1079.033203	440.389191
2806.402819	17369.861833	1077.886719	424.682281
2806.402819	17369.861833	1076.740234	362.866608
2806.402819	17369.861833	1075.593750	487.252594
2806.402819	17369.861833	1074.447266	390.728882
2806.402819	17369.861833	1073.300781	373.109802
2806.402819	17369.861833	1072.153320	564.739746
2806.402819	17369.861833	1071.005859	718.947815
2806.402819	17369.861833	1069.858398	504.044617
2806.402819	17369.861833	1068.709961	891.954102
2806.402819	17369.861833	1067.561523	654.134888
2806.402819	17369.861833	1066.413086	797.897522
2806.402819	17369.861833	1065.264648	543.591675
2806.402819	17369.861833	1064.116211	540.277954
2806.402819	17369.861833	1062.966797	669.364136
2806.402819	17369.861833	1061.817383	864.694336
2806.402819	17369.861833	1060.667969	787.331177
2806.402819	17369.861833	1059.517578	857.465271
2806.402819	17369.861833	1058.368164	1116.553467
2806.402819	17369.861833	1057.217773	820.166382
2806.402819	17369.861833	1056.067383	801.351868
2806.402819	17369.861833	1054.916016	838.425049
2806.402819	17369.861833	1053.764648	877.596436
2806.402819	17369.861833	1052.613281	842.549683
2806.402819	17369.861833	1051.461914	809.812561
2806.402819	17369.861833	1050.310547	654.580444
2806.402819	17369.861833	1049.158203	682.793030
2806.402819	17369.861833	1048.005859	512.975769
2806.402819	17369.861833	1046.853516	751.320496
2806.402819	17369.861833	1045.700195	748.729248
2806.402819	17369.861833	1044.547852	855.744324
2806.402819	17369.861833	1043.394531	813.659790
2806.402819	17369.861833	1042.240234	762.899353
2806.402819	17369.861833	1041.086914	712.926270
2806.402819	17369.861833	1039.932617	905.420349
2806.402819	17369.861833	1038.778320	896.978699
2806.402819	17369.861833	1037.624023	951.914246
2806.402819	17369.861833	1036.469727	797.260620
2806.402819	17369.861833	1035.314453	955.928650
2806.402819	17369.861833	1034.159180	1014.062744
2806.402819	17369.861833	1033.003906	930.202576
2806.402819	17369.861833	1031.847656	761.445984
2806.402819	17369.861833	1030.692383	1199.971558
2806.402819	17369.861833	1029.536133	1093.808472
2806.402819	17369.861833	1028.378906	903.337769
2806.402819	17369.861833	1027.222656	819.594238
2806.402819	17369.861833	1026.065430	927.455994
2806.402819	17369.861833	1024.908203	1027.594116
2806.402819	17369.861833	1023.750977	812.274841
2806.402819	17369.861833	1022.593750	898.783875
2806.402819	17369.861833	1021.435547	1026.454346
2806.402819	17369.861833	1020.277344	1051.106445
2806.402819	17369.861833	1019.119141	936.861938
2806.402819	17369.861833	1017.959961	1193.153076
2806.402819	17369.861833	1016.800781	939.486145
2806.402819	17369.861833	1015.641602	1135.574463
2806.402819	17369.861833	1014.482422	1078.247070
2806.402819	17369.861833	1013.323242	918.256470
2806.402819	17369.861833	1012.163086	803.048157
2806.402819	17369.861833	1011.002930	791.627014
2806.402819	17369.861833	1009.842773	817.591370
2806.402819	17369.861833	1008.681641	423.153992
2806.402819	17369.861833	1007.520508	553.681519
2806.402819	17369.861833	1006.359375	599.256592
2806.402819	17369.861833	1005.198242	884.393738
2806.402819	17369.861833	1004.037109	806.581909
2806.402819	17369.861833	1002.875000	657.256104
2806.402819	17369.861833	1001.712891	894.492371
2806.402819	17369.861833	1000.550781	696.754456
2806.402819	17369.861833	999.387695	809.738647
2806.402819	17369.861833	998.224609	809.835999
2806.402819	17369.861833	997.061523	741.547241
2806.402819	17369.861833	995.898438	540.834167
2806.402819	17369.861833	994.734375	631.863342
2806.402819	17369.861833	993.571289	637.044250
2806.402819	17369.861833	992.407227	536.941589
2806.402819	17369.861833	991.242188	564.049866
2806.402819	17369.861833	990.078125	602.132935
2806.402819	17369.861833	988.913086	436.438263
2806.402819	17369.861833	987.748047	492.936157
2806.402819	17369.861833	986.583008	360.166534
2806.402819	17369.861833	985.416992	240.866409
2806.402819	17369.861833	984.250977	352.263245
2806.402819	17369.861833	983.084961	435.771057
2806.402819	17369.861833	981.918945	328.924866
2806.402819	17369.861833	980.751953	328.642029
2806.402819	17369.861833	979.584961	356.429688
2806.402819	17369.861833	978.417969	-14.010034
2806.402819	17369.861833	977.250977	358.407806
2806.402819	17369.861833	976.083008	134.014114
2806.402819	17369.861833	974.915039	545.488464
2806.402819	17369.861833	973.747070	391.872772
2806.402819	17369.861833	972.579102	471.902405
2806.402819	17369.861833	971.410156	217.423553
2806.402819	17369.861833	970.242188	407.884308
2806.402819	17369.861833	969.072266	609.105225
2806.402819	17369.861833	967.903320	451.915131
2806.402819	17369.861833	966.733398	428.838989
2806.402819	17369.861833	965.563477	572.197815
2806.402819	17369.861833	964.393555	837.962280
2806.402819	17369.861833	963.223633	809.012268
2806.402819	17369.861833	962.052734	657.357361
2806.402819	17369.861833	960.881836	504.119659
2806.402819	17369.861833	959.710938	836.760193
2806.402819	17369.861833	958.540039	1170.603149
2806.402819	17369.861833	957.368164	840.727051
2806.402819	17369.861833	956.196289	750.642090
2806.402819	17369.861833	955.024414	702.825989
2806.402819	17369.861833	953.851563	955.014038
2806.402819	17369.861833	952.679688	724.058655
2806.402819	17369.861833	951.506836	815.738281
2806.402819	17369.861833	950.333984	750.520630
2806.402819	17369.861833	949.160156	881.175964
2806.402819	17369.861833	947.986328	738.314819
2806.402819	17369.861833	946.812500	929.619812
2806.402819	17369.861833	945.638672	630.444519
2806.402819	17369.861833	944.464844	844.458923
2806.402819	17369.861833	943.290039	640.628174
2806.402819	17369.861833	942.115234	718.092529
2806.402819	17369.861833	940.940430	483.558014
2806.402819	17369.861833	939.764648	714.090210
2806.402819	17369.861833	938.588867	891.353027
2806.402819	17369.861833	937.413086	547.269348
2806.402819	17369.861833	936.237305	828.762939
2806.402819	17369.861833	935.060547	765.923645
2806.402819	17369.861833	933.883789	703.169373
2806.402819	17369.861833	932.707031	523.850830
2806.402819	17369.861833	931.530273	586.488525
2806.402819	17369.861833	930.352539	711.770508
2806.402819	17369.861833	929.175781	592.904724
2806.402819	17369.861833	927.998047	452.977081
2806.402819	17369.861833	926.819336	426.904358
2806.402819	17369.861833	925.641602	403.075623
2806.402819	17369.861833	924.462891	181.820465
2806.402819	17369.861833	923.284180	492.292938
2806.402819	17369.861833	922.104492	447.390533
2806.402819	17369.861833	920.924805	567.231262
2806.402819	17369.861833	919.746094	574.184387
2806.402819	17369.861833	919.551758	534.922729
2806.402819	17369.861833	918.386719	582.533325
2806.402819	17369.861833	917.220703	437.519653
2806.402819	17369.861833	916.054688	299.451172
2806.402819	17369.861833	914.887695	599.629211
2806.402819	17369.861833	913.721680	296.843445
2806.402819	17369.861833	912.554688	144.778595
2806.402819	17369.861833	911.387695	426.060913
2806.402819	17369.861833	910.220703	287.798737
2806.402819	17369.861833	909.052734	-12.618012
2806.402819	17369.861833	907.885742	129.368469
2806.402819	17369.861833	906.717773	58.212776
2806.402819	17369.861833	905.548828	325.022064
2806.402819	17369.861833	904.380859	232.897491
2806.402819	17369.861833	903.211914	196.293274
2806.402819	17369.861833	902.042969	124.937668
2806.402819	17369.861833	900.874023	7.289551
2806.402819	17369.861833	899.704102	315.167053
2806.402819	17369.861833	898.535156	-117.049896
2806.402819	17369.861833	897.365234	-167.707413
2806.402819	17369.861833	896.194336	-174.481552
2806.402819	17369.861833	895.024414	-273.746033
2806.402819	17369.861833	893.853516	303.903717
2806.402819	17369.861833	892.682617	54.336895
2806.402819	17369.861833	891.511719	-82.020844
2806.402819	17369.861833	890.340820	201.843964
2806.402819	17369.861833	889.168945	-40.777382
2806.402819	17369.861833	887.997070	48.995224
2806.402819	17369.861833	886.825195	11.768037
2806.402819	17369.861833	885.653320	191.367004
2806.402819	17369.861833	884.480469	-125.060333
2806.402819	17369.861833	883.307617	95.908257
2806.402819	17369.861833	882.134766	226.820404
2806.402819	17369.861833	880.961914	240.070389
2806.402819	17369.861833	879.788086	-7.154419
2806.402819	17369.861833	878.614258	31.395502
2806.402819	17369.861833	877.440430	7.684730
2806.402819	17369.861833	876.266602	124.437584
2806.402819	17369.861833	875.091797	162.807068
2806.402819	17369.861833	873.916992	178.095551
2806.402819	17369.861833	872.742188	135.789063
2806.402819	17369.861833	871.567383	56.636288
2806.402819	17369.861833	870.391602	87.921890
2806.402819	17369.861833	869.215820	61.642685
2806.402819	17369.861833	868.040039	184.830551
2806.402819	17369.861833	866.864258	11.295665
2806.402819	17369.861833	865.687500	267.712158
2806.402819	17369.861833	864.510742	158.516373
2806.402819	17369.861833	863.333984	-74.767639
2806.402819	17369.861833	862.157227	144.633133
2806.402819	17369.861833	860.979492	157.169022
2806.402819	17369.861833	859.802734	155.880447
2806.402819	17369.861833	858.625000	62.713337
2806.402819	17369.861833	857.446289	20.056808
2806.402819	17369.861833	856.268555	-38.686256
2806.402819	17369.861833	855.089844	-95.141426
2806.402819	17369.861833	853.911133	222.363190
2806.402819	17369.861833	852.731445	117.642883
2806.402819	17369.861833	851.552734	97.783325
2806.402819	17369.861833	850.373047	-4.640150
2806.402819	17369.861833	849.193359	-123.102058
2806.402819	17369.861833	848.013672	-243.838303
2806.402819	17369.861833	846.833008	-57.495728
2806.402819	17369.861833	845.652344	-372.991180
2806.402819	17369.861833	844.471680	-147.821335
2806.402819	17369.861833	843.291016	22.264181
2806.402819	17369.861833	842.110352	-137.451065
2806.402819	17369.861833	840.928711	-127.732277
2806.402819	17369.861833	839.747070	5.539908
2806.402819	17369.861833	838.564453	-106.103882
2806.402819	17369.861833	837.382813	129.998688
2806.402819	17369.861833	836.200195	-123.490913
2806.402819	17369.861833	835.017578	48.435383
2806.402819	17369.861833	833.834961	-22.085426
2806.402819	17369.861833	832.651367	145.123596
2806.402819	17369.861833	831.467773	31.138903
2806.402819	17369.861833	830.284180	-178.792191
2806.402819	17369.861833	829.100586	-64.276901
2806.402819	17369.861833	827.916992	-66.316948
2806.402819	17369.861833	826.732422	-116.333252
2806.402819	17369.861833	825.547852	-177.769791
2806.402819	17369.861833	824.363281	5.023971
2806.402819	17369.861833	823.177734	-3.975491
2806.402819	17369.861833	821.992188	-51.783443
2806.402819	17369.861833	820.806641	64.642235
2806.402819	17369.861833	819.621094	-179.348724
2806.402819	17369.861833	818.434570	117.140884
2806.402819	17369.861833	817.249023	-190.643036
2806.402819	17369.861833	816.062500	231.032257
2806.402819	17369.861833	814.875000	-83.530495
2806.402819	17369.861833	813.688477	-135.987671
2806.402819	17369.861833	812.500977	-167.945526
2806.402819	17369.861833	811.313477	-108.822586
2806.402819	17369.861833	810.125977	212.093079
2806.402819	17369.861833	808.937500	-220.640457
2806.402819	17369.861833	807.749023	-113.822525
2806.402819	17369.861833	806.560547	29.332966
2806.402819	17369.861833	805.372070	-11.870303
2806.402819	17369.861833	804.182617	-144.062866
2806.402819	17369.861833	802.994141	-153.429169
2806.402819	17369.861833	801.803711	14.527879
2806.402819	17369.861833	800.614258	86.914543
2806.402819	17369.861833	799.424805	143.337524
2806.402819	17369.861833	798.234375	158.813568
2806.402819	17369.861833	797.043945	176.527786
2806.402819	17369.861833	795.852539	303.230255
2806.402819	17369.861833	794.662109	223.211380
2806.402819	17369.861833	793.470703	111.415741
2806.402819	17369.861833	792.279297	83.623222
2806.402819	17369.861833	791.087891	157.936157
2806.402819	17369.861833	789.895508	191.351547
2806.402819	17369.861833	788.703125	183.894394
2806.402819	17369.861833	787.510742	-134.295883
2806.402819	17369.861833	786.318359	-139.471466
2806.402819	17369.861833	785.125000	-110.666763
2806.402819	17369.861833	783.931641	-79.636993
2806.402819	17369.861833	782.738281	-80.373642
2806.402819	17369.861833	781.544922	-214.809601
2806.402819	17369.861833	780.350586	40.382870
2806.402819	17369.861833	779.156250	123.326546
2806.402819	17369.861833	777.961914	-90.403694
2806.402819	17369.861833	776.767578	-116.188072
2806.402819	17369.861833	775.572266	-171.412842
2806.402819	17369.861833	774.376953	-213.070404
2806.402819	17369.861833	773.181641	-171.037125
2806.402819	17369.861833	771.986328	90.344856
2806.402819	17369.861833	770.790039	-256.721039
2806.402819	17369.861833	769.593750	-264.541595
2806.402819	17369.861833	768.397461	-41.829166
2806.402819	17369.861833	767.201172	-183.095840
2806.402819	17369.861833	766.003906	34.920238
2806.402819	17369.861833	764.806641	-217.063232
2806.402819	17369.861833	763.609375	-37.596519
2806.402819	17369.861833	762.412109	-246.628296
2806.402819	17369.861833	761.213867	32.033829
2806.402819	17369.861833	760.015625	66.771675
2806.402819	17369.861833	758.817383	254.911911
2806.402819	17369.861833	757.618164	111.275726
2806.402819	17369.861833	756.419922	130.072769
2806.402819	17369.861833	755.220703	254.819885
2806.402819	17369.861833	754.021484	176.545486
2806.402819	17369.861833	752.821289	-32.486069
2806.402819	17369.861833	751.621094	130.413864
2806.402819	17369.861833	750.420898	178.281860
2806.402819	17369.861833	749.220703	221.583191
2806.402819	17369.861833	748.020508	341.406189
2806.402819	17369.861833	746.819336	258.460358
2806.402819	17369.861833	745.618164	369.133667
2806.402819	17369.861833	744.416992	394.178467
2806.402819	17369.861833	743.214844	434.922302
2806.402819	17369.861833	742.012695	329.347931
2806.402819	17369.861833	740.810547	646.699951
2806.402819	17369.861833	739.608398	498.299011
2806.402819	17369.861833	738.406250	878.352600
2806.402819	17369.861833	737.203125	1042.371582
2806.402819	17369.861833	736.000000	1853.624023
2806.402819	17369.861833	734.795898	2435.265381
2806.402819	17369.861833	733.592773	2767.220215
2806.402819	17369.861833	732.388672	3231.518799
2806.402819	17369.861833	731.184570	3064.483887
2806.402819	17369.861833	729.979492	3038.927979
2806.402819	17369.861833	728.775391	2636.181152
2806.402819	17369.861833	727.570313	2278.441406
2806.402819	17369.861833	726.365234	1559.514160
2806.402819	17369.861833	725.160156	1242.422119
2806.402819	17369.861833	723.954102	882.791077
2806.402819	17369.861833	722.748047	805.818115
2806.402819	17369.861833	721.541992	426.137451
2806.402819	17369.861833	720.334961	420.911713
2806.402819	17369.861833	719.128906	397.701416
2806.402819	17369.861833	717.921875	282.573608
2806.402819	17369.861833	716.714844	575.157349
2806.402819	17369.861833	715.506836	415.125885
2806.402819	17369.861833	714.298828	140.898407
2806.402819	17369.861833	713.090820	10.008476
2806.402819	17369.861833	711.882813	179.051163
2806.402819	17369.861833	710.674805	182.356934
2806.402819	17369.861833	709.465820	219.159271
2806.402819	17369.861833	708.256836	246.934280
2806.402819	17369.861833	707.047852	258.978241
2806.402819	17369.861833	705.837891	199.399490
2806.402819	17369.861833	704.627930	32.474133
2806.402819	17369.861833	703.417969	153.876358
2806.402819	17369.861833	702.208008	-28.745010
2806.402819	17369.861833	700.998047	58.972717
2806.402819	17369.861833	699.787109	-20.940468
2806.402819	17369.861833	698.576172	57.667767
2806.402819	17369.861833	697.364258	209.852707
2806.402819	17369.861833	696.153320	281.543030
2806.402819	17369.861833	694.941406	288.409424
2806.402819	17369.861833	693.729492	228.262619
2806.402819	17369.861833	692.516602	460.308136
2806.402819	17369.861833	691.304688	513.755371
2806.402819	17369.861833	690.091797	589.403503
2806.402819	17369.861833	688.878906	569.081116
2806.402819	17369.861833	687.665039	479.593140
2806.402819	17369.861833	686.451172	505.949921
2806.402819	17369.861833	685.237305	579.008362
2806.402819	17369.861833	684.023438	749.973145
2806.402819	17369.861833	682.809570	916.335876
2806.402819	17369.861833	681.594727	904.418762
2806.402819	17369.861833	680.379883	919.142822
2806.402819	17369.861833	679.165039	1312.150024
2806.402819	17369.861833	677.949219	1462.362183
2806.402819	17369.861833	676.733398	1441.125000
2806.402819	17369.861833	675.517578	1422.042847
2806.402819	17369.861833	674.301758	1783.160034
2806.402819	17369.861833	673.084961	1697.150024
2806.402819	17369.861833	671.869141	2020.106201
2806.402819	17369.861833	670.651367	2209.496582
2806.402819	17369.861833	669.434570	2105.430664
2806.402819	17369.861833	668.216797	2312.331543
2806.402819	17369.861833	667.000000	2359.150391
2806.402819	17369.861833	665.781250	1904.020630
2806.402819	17369.861833	664.563477	1877.474487
2806.402819	17369.861833	663.344727	1671.067261
2806.402819	17369.861833	662.125977	1668.820801
2806.402819	17369.861833	660.907227	1471.250244
2806.402819	17369.861833	659.688477	1437.824219
2806.402819	17369.861833	658.468750	1475.291748
2806.402819	17369.861833	657.249023	1503.789917
2806.402819	17369.861833	656.029297	1261.741577
2806.402819	17369.861833	654.808594	1334.423706
2806.402819	17369.861833	653.587891	1209.779663
2806.402819	17369.861833	652.367188	1074.024902
2806.402819	17369.861833	651.146484	1135.368286
2806.402819	17369.861833	649.924805	1059.300903
2806.402819	17369.861833	648.704102	1264.357300
2806.402819	17369.861833	647.482422	889.296387
2806.402819	17369.861833	646.259766	1229.119141
2806.402819	17369.861833	645.037109	1192.571777
2806.402819	17369.861833	643.815430	930.321167
2806.402819	17369.861833	642.591797	1077.242310
2806.402819	17369.861833	641.369141	936.563721
2806.402819	17369.861833	640.145508	1016.925659
2806.402819	17369.861833	638.921875	789.943176
2806.402819	17369.861833	637.698242	936.421997
2806.402819	17369.861833	636.474609	769.030334
2806.402819	17369.861833	635.250000	756.237854
2806.402819	17369.861833	634.025391	796.364197
2806.402819	17369.861833	632.800781	708.329346
2806.402819	17369.861833	631.575195	624.656799
2806.402819	17369.861833	630.349609	671.143799
2806.402819	17369.861833	629.124023	827.850220
2806.402819	17369.861833	627.898438	662.325134
2806.402819	17369.861833	626.671875	710.718750
2806.402819	17369.861833	625.445313	756.802429
2806.402819	17369.861833	624.218750	610.978760
2806.402819	17369.861833	622.992188	692.161316
2806.402819	17369.861833	621.764648	522.000000
2806.402819	17369.861833	620.537109	616.213867
2806.402819	17369.861833	619.309570	562.720276
2806.402819	17369.861833	618.081055	220.660309
2806.402819	17369.861833	616.852539	424.716095
2806.402819	17369.861833	615.624023	489.918457
2806.402819	17369.861833	614.395508	651.849976
2806.402819	17369.861833	613.166992	562.783691
2806.402819	17369.861833	611.937500	515.469910
2806.402819	17369.861833	610.708008	417.507172
2806.402819	17369.861833	609.477539	537.205200
2806.402819	17369.861833	608.248047	186.289246
2806.402819	17369.861833	607.017578	169.547119
2806.402819	17369.861833	605.787109	172.514191
2806.402819	17369.861833	604.555664	236.919052
2806.402819	17369.861833	603.325195	-72.210732
2806.402819	17369.861833	602.093750	117.251129
2806.402819	17369.861833	600.861328	75.999641
2806.402819	17369.861833	599.629883	177.391891
2806.402819	17369.861833	598.397461	326.947449
2806.402819	17369.861833	597.165039	184.519699
2806.402819	17369.861833	595.932617	340.450378
2806.402819	17369.861833	594.699219	496.238373
2806.402819	17369.861833	593.465820	355.843719
2806.402819	17369.861833	592.232422	638.588684
2806.402819	17369.861833	590.999023	452.056396
2806.402819	17369.861833	589.764648	381.683075
2806.402819	17369.861833	588.530273	245.542358
2806.402819	17369.861833	587.295898	284.644104
2806.402819	17369.861833	586.061523	78.371338
2806.402819	17369.861833	584.826172	-38.105446
2806.402819	17369.861833	583.590820	94.977119
2806.402819	17369.861833	582.355469	-69.725471
2806.402819	17369.861833	581.119141	-4.653100
2806.402819	17369.861833	579.882813	14.389429
2806.402819	17369.861833	578.646484	24.620174
2806.402819	17369.861833	577.410156	10.735733
2806.402819	17369.861833	576.172852	42.711185
2806.402819	17369.861833	574.935547	41.832787
2806.402819	17369.861833	573.698242	161.105789
2806.402819	17369.861833	572.460938	-60.584671
2806.402819	17369.861833	571.222656	-190.484268
2806.402819	17369.861833	569.984375	125.177841
2806.402819	17369.861833	568.746094	261.604248
2806.402819	17369.861833	567.506836	76.997429
2806.402819	17369.861833	566.267578	29.937017
2806.402819	17369.861833	565.028320	33.045544
2806.402819	17369.861833	563.789063	40.476826
2806.402819	17369.861833	562.548828	146.018265
2806.402819	17369.861833	561.309570	332.174683
2806.402819	17369.861833	560.068359	156.263290
2806.402819	17369.861833	558.828125	-93.714699
2806.402819	17369.861833	557.586914	63.925335
2806.402819	17369.861833	556.345703	123.414650
2806.402819	17369.861833	555.104492	63.032131
2806.402819	17369.861833	553.863281	168.177765
2806.402819	17369.861833	552.621094	314.619354
2806.402819	17369.861833	551.378906	400.014038
2806.402819	17369.861833	550.136719	365.634857
2806.402819	17369.861833	548.893555	453.107025
2806.402819	17369.861833	547.650391	544.871887
2806.402819	17369.861833	546.407227	190.658600
2806.402819	17369.861833	545.164063	375.919861
2806.402819	17369.861833	543.919922	371.916565
2806.402819	17369.861833	542.675781	178.776688
2806.402819	17369.861833	541.431641	120.456841
2806.402819	17369.861833	540.186523	296.816498
2806.402819	17369.861833	538.941406	318.848877
2806.402819	17369.861833	537.696289	164.934387
2806.402819	17369.861833	536.451172	39.308945
2806.402819	17369.861833	535.205078	263.262634
2806.402819	17369.861833	533.959961	200.609390
2806.402819	17369.861833	532.712891	194.389374
2806.402819	17369.861833	531.466797	-28.786226
2806.402819	17369.861833	530.219727	-102.198105
2806.402819	17369.861833	528.972656	-318.710602
2806.402819	17369.861833	527.725586	-34.261806
2806.402819	17369.861833	526.478516	-101.110092
2806.402819	17369.861833	525.230469	-200.440079
2806.402819	17369.861833	523.982422	-115.537163
2806.402819	17369.861833	522.734375	-227.802383
2806.402819	17369.861833	521.485352	140.818848
2806.402819	17369.861833	520.236328	4.741192
2806.402819	17369.861833	518.987305	-92.293915
2806.402819	17369.861833	517.737305	33.664516
2806.402819	17369.861833	516.488281	-214.789948
2806.402819	17369.861833	515.238281	-251.097336
2806.402819	17369.861833	513.988281	-122.973114
2806.402819	17369.861833	512.737305	-148.441986
2806.402819	17369.861833	511.486328	-57.121883
2806.402819	17369.861833	510.235352	86.060295
2806.402819	17369.861833	508.984375	-32.311661
2806.402819	17369.861833	507.732422	-133.331924
2806.402819	17369.861833	506.480469	-379.029877
2806.402819	17369.861833	505.228516	-101.907860
2806.402819	17369.861833	503.976563	-328.024902
2806.402819	17369.861833	502.723633	-171.894333
2806.402819	17369.861833	501.470703	-244.605438
2806.402819	17369.861833	500.217773	-181.305389
2806.402819	17369.861833	498.963867	-310.036957
2806.402819	17369.861833	497.709961	-63.353626
2806.402819	17369.861833	496.456055	-168.281723
2806.402819	17369.861833	495.202148	-167.487305
2806.402819	17369.861833	493.947266	-80.446976
2806.402819	17369.861833	492.692383	38.908340
2806.402819	17369.861833	491.437500	44.035339
2806.402819	17369.861833	490.181641	94.417130
2806.402819	17369.861833	488.926758	-150.269363
2806.402819	17369.861833	487.670898	55.223553
2806.402819	17369.861833	486.414063	-10.624356
2806.402819	17369.861833	485.158203	143.133865
2806.402819	17369.861833	483.901367	-365.973083
2806.402819	17369.861833	482.644531	-149.777603
2806.402819	17369.861833	481.386719	-129.409607
2806.402819	17369.861833	480.128906	-246.672531
2806.402819	17369.861833	478.871094	-108.003471
2806.402819	17369.861833	477.613281	-106.959801
2806.402819	17369.861833	476.355469	-26.385189
2806.402819	17369.861833	475.096680	125.067337
2806.402819	17369.861833	473.837891	-127.415283
2806.402819	17369.861833	472.578125	-162.861389
2806.402819	17369.861833	471.319336	5.716018
2806.402819	17369.861833	470.059570	-16.859831
2806.402819	17369.861833	468.799805	-17.965219
2806.402819	17369.861833	467.539063	2.377634
2806.402819	17369.861833	466.278320	119.250061
2806.402819	17369.861833	465.017578	293.975769
2806.402819	17369.861833	463.756836	245.571609
2806.402819	17369.861833	462.495117	364.405151
2806.402819	17369.861833	461.233398	262.365509
2806.402819	17369.861833	459.971680	314.649567
2806.402819	17369.861833	458.709961	283.313354
2806.402819	17369.861833	457.447266	329.066223
2806.402819	17369.861833	456.184570	199.128479
2806.402819	17369.861833	454.921875	326.158966
2806.402819	17369.861833	453.658203	97.688416
2806.402819	17369.861833	452.394531	397.940399
2806.402819	17369.861833	451.130859	173.707733
2806.402819	17369.861833	449.867188	189.122787
2806.402819	17369.861833	448.602539	251.504150
2806.402819	17369.861833	447.337891	271.002136
2806.402819	17369.861833	446.073242	350.263947
2806.402819	17369.861833	444.807617	279.751526
2806.402819	17369.861833	443.542969	80.936180
2806.402819	17369.861833	442.276367	221.815567
2806.402819	17369.861833	441.010742	42.076759
2806.402819	17369.861833	439.744141	45.954155
2806.402819	17369.861833	438.478516	103.076637
2806.402819	17369.861833	437.210938	516.527222
2806.402819	17369.861833	435.944336	56.676453
2806.402819	17369.861833	434.676758	311.713440
2806.402819	17369.861833	433.409180	216.567032
2806.402819	17369.861833	432.141602	268.447113
2806.402819	17369.861833	430.873047	143.087891
2806.402819	17369.861833	429.604492	36.753418
2806.402819	17369.861833	428.335938	166.845688
2806.402819	17369.861833	427.067383	21.721371
2806.402819	17369.861833	425.797852	227.959991
2806.402819	17369.861833	424.528320	171.820663
2806.402819	17369.861833	423.258789	258.117706
2806.402819	17369.861833	421.988281	-13.653354
2806.402819	17369.861833	420.717773	-140.859207
2806.402819	17369.861833	419.447266	48.793583
2806.402819	17369.861833	418.175781	152.894012
2806.402819	17369.861833	416.905273	324.677307
2806.402819	17369.861833	415.633789	162.058472
2806.402819	17369.861833	414.362305	152.226273
2806.402819	17369.861833	413.089844	127.092651
2806.402819	17369.861833	411.817383	356.613373
2806.402819	17369.861833	410.544922	339.064575
2806.402819	17369.861833	409.272461	304.055817
2806.402819	17369.861833	407.999023	221.823563
2806.402819	17369.861833	406.725586	285.658569
2806.402819	17369.861833	405.452148	427.496735
2806.402819	17369.861833	404.177734	316.081268
2806.402819	17369.861833	402.903320	282.665131
2806.402819	17369.861833	401.628906	146.811264
2806.402819	17369.861833	400.354492	141.919891
2806.402819	17369.861833	399.079102	259.384064
2806.402819	17369.861833	397.803711	200.116043
2806.402819	17369.861833	396.528320	227.094070
2806.402819	17369.861833	395.251953	26.514179
2806.402819	17369.861833	393.976563	-60.281414
2806.402819	17369.861833	392.700195	11.061104
2806.402819	17369.861833	391.422852	181.095398
2806.402819	17369.861833	390.145508	142.668106
2806.402819	17369.861833	388.869141	175.391296
2806.402819	17369.861833	387.590820	-104.026253
2806.402819	17369.861833	386.313477	15.759513
2806.402819	17369.861833	385.035156	85.834053
2806.402819	17369.861833	383.756836	256.414368
2806.402819	17369.861833	382.478516	282.056183
2806.402819	17369.861833	381.199219	283.325897
2806.402819	17369.861833	379.919922	241.198013
2806.402819	17369.861833	378.640625	193.709961
2806.402819	17369.861833	377.360352	22.459930
2806.402819	17369.861833	376.080078	243.019760
2806.402819	17369.861833	374.799805	8.076462
2806.402819	17369.861833	373.519531	126.706757
2806.402819	17369.861833	372.238281	254.458130
2806.402819	17369.861833	370.957031	19.790888
2806.402819	17369.861833	369.675781	-64.266167
2806.402819	17369.861833	368.394531	97.094040
2806.402819	17369.861833	367.112305	-44.849327
2806.402819	17369.861833	365.830078	-152.460114
2806.402819	17369.861833	364.546875	-44.508747
2806.402819	17369.861833	363.264648	192.454834
2806.402819	17369.861833	361.981445	-187.900024
2806.402819	17369.861833	360.698242	-47.286461
2806.402819	17369.861833	359.414063	116.663628
2806.402819	17369.861833	358.129883	110.141579
2806.402819	17369.861833	356.845703	234.336853
2806.402819	17369.861833	355.561523	173.300980
2806.402819	17369.861833	354.276367	198.580643
2806.402819	17369.861833	352.991211	221.721466
2806.402819	17369.861833	351.706055	152.187134
2806.402819	17369.861833	350.420898	267.649109
2806.402819	17369.861833	349.134766	75.737793
2806.402819	17369.861833	347.848633	-46.982525
2806.402819	17369.861833	346.561523	-77.563660
2806.402819	17369.861833	345.275391	-102.180626
2806.402819	17369.861833	343.988281	-87.415787
2806.402819	17369.861833	342.700195	134.696579
2806.402819	17369.861833	341.413086	-217.247635
2806.402819	17369.861833	340.125000	-70.044441
2806.402819	17369.861833	338.836914	-291.091614
2806.402819	17369.861833	337.548828	-317.700867
2806.402819	17369.861833	336.259766	-135.468430
2806.402819	17369.861833	334.970703	-294.225891
2806.402819	17369.861833	333.681641	-191.825089
2806.402819	17369.861833	332.391602	154.619827
2806.402819	17369.861833	331.101563	-282.433807
2806.402819	17369.861833	329.811523	-485.887756
2806.402819	17369.861833	328.521484	-91.327126
2806.402819	17369.861833	327.230469	165.221863
2806.402819	17369.861833	325.939453	7.323204
2806.402819	17369.861833	324.648438	-32.867546
2806.402819	17369.861833	323.356445	232.822128
2806.402819	17369.861833	322.064453	84.036987
2806.402819	17369.861833	320.772461	328.854675
2806.402819	17369.861833	319.480469	96.405624
2806.402819	17369.861833	318.187500	87.636986
2806.402819	17369.861833	316.894531	-99.188988
2806.402819	17369.861833	315.601563	-206.850220
2806.402819	17369.861833	314.307617	-87.193359
2806.402819	17369.861833	313.013672	8.807204
2806.402819	17369.861833	311.719727	-94.496063
2806.402819	17369.861833	310.425781	-18.914909
2806.402819	17369.861833	309.130859	-149.184692
2806.402819	17369.861833	307.835938	-59.117970
2806.402819	17369.861833	306.541016	219.697250
2806.402819	17369.861833	305.245117	60.596478
2806.402819	17369.861833	303.949219	632.644836
2806.402819	17369.861833	302.653320	138.651642
2806.402819	17369.861833	301.356445	458.648987
2806.402819	17369.861833	300.060547	618.269714
2806.402819	17369.861833	298.763672	792.302795
