#X		#Y		#Wave		#Intensity
2860.444734	17454.005333	2000.043945	27.404310
2860.444734	17454.005333	1999.080078	-58.441444
2860.444734	17454.005333	1998.116211	7.769010
2860.444734	17454.005333	1997.151367	170.388351
2860.444734	17454.005333	1996.186523	174.163300
2860.444734	17454.005333	1995.222656	120.753418
2860.444734	17454.005333	1994.256836	30.018448
2860.444734	17454.005333	1993.291992	30.746529
2860.444734	17454.005333	1992.327148	-156.875778
2860.444734	17454.005333	1991.361328	-92.115440
2860.444734	17454.005333	1990.395508	68.969574
2860.444734	17454.005333	1989.429688	130.848633
2860.444734	17454.005333	1988.463867	195.016357
2860.444734	17454.005333	1987.497070	80.908752
2860.444734	17454.005333	1986.531250	-58.039207
2860.444734	17454.005333	1985.564453	45.239536
2860.444734	17454.005333	1984.597656	76.645782
2860.444734	17454.005333	1983.630859	-67.586670
2860.444734	17454.005333	1982.664063	10.518516
2860.444734	17454.005333	1981.696289	16.816721
2860.444734	17454.005333	1980.728516	0.759655
2860.444734	17454.005333	1979.761719	100.677811
2860.444734	17454.005333	1978.792969	86.853783
2860.444734	17454.005333	1977.825195	144.529434
2860.444734	17454.005333	1976.857422	-52.175007
2860.444734	17454.005333	1975.888672	52.198563
2860.444734	17454.005333	1974.919922	-21.227198
2860.444734	17454.005333	1973.951172	132.262848
2860.444734	17454.005333	1972.982422	-104.125572
2860.444734	17454.005333	1972.013672	-54.425552
2860.444734	17454.005333	1971.043945	42.028080
2860.444734	17454.005333	1970.075195	0.315862
2860.444734	17454.005333	1969.105469	7.845074
2860.444734	17454.005333	1968.135742	108.952164
2860.444734	17454.005333	1967.165039	-21.651932
2860.444734	17454.005333	1966.195313	163.058807
2860.444734	17454.005333	1965.224609	303.309631
2860.444734	17454.005333	1964.253906	-24.432278
2860.444734	17454.005333	1963.283203	63.993500
2860.444734	17454.005333	1962.312500	31.718925
2860.444734	17454.005333	1961.341797	144.622955
2860.444734	17454.005333	1960.370117	13.829623
2860.444734	17454.005333	1959.399414	-18.540718
2860.444734	17454.005333	1958.427734	49.916584
2860.444734	17454.005333	1957.455078	19.938944
2860.444734	17454.005333	1956.483398	61.252148
2860.444734	17454.005333	1955.511719	4.184351
2860.444734	17454.005333	1954.539063	65.093796
2860.444734	17454.005333	1953.566406	-149.286133
2860.444734	17454.005333	1952.593750	110.608337
2860.444734	17454.005333	1951.621094	156.661240
2860.444734	17454.005333	1950.647461	3.729481
2860.444734	17454.005333	1949.674805	-28.828562
2860.444734	17454.005333	1948.701172	-100.672943
2860.444734	17454.005333	1947.727539	97.525589
2860.444734	17454.005333	1946.753906	67.388512
2860.444734	17454.005333	1945.780273	118.233002
2860.444734	17454.005333	1944.805664	-108.185074
2860.444734	17454.005333	1943.831055	55.498459
2860.444734	17454.005333	1942.856445	-21.227030
2860.444734	17454.005333	1941.881836	-154.321945
2860.444734	17454.005333	1940.907227	190.694656
2860.444734	17454.005333	1939.932617	3.687428
2860.444734	17454.005333	1938.957031	125.537346
2860.444734	17454.005333	1937.981445	-78.533371
2860.444734	17454.005333	1937.005859	-84.090897
2860.444734	17454.005333	1936.030273	101.406929
2860.444734	17454.005333	1935.054688	46.855736
2860.444734	17454.005333	1934.078125	100.062019
2860.444734	17454.005333	1933.101563	-20.545273
2860.444734	17454.005333	1932.125000	-75.014534
2860.444734	17454.005333	1931.148438	227.814774
2860.444734	17454.005333	1930.171875	24.103159
2860.444734	17454.005333	1929.194336	109.121277
2860.444734	17454.005333	1928.217773	32.709965
2860.444734	17454.005333	1927.240234	203.306183
2860.444734	17454.005333	1926.262695	75.595253
2860.444734	17454.005333	1925.284180	79.938049
2860.444734	17454.005333	1924.306641	8.538375
2860.444734	17454.005333	1923.328125	-21.281132
2860.444734	17454.005333	1922.350586	78.404854
2860.444734	17454.005333	1921.372070	-36.867180
2860.444734	17454.005333	1920.392578	79.912468
2860.444734	17454.005333	1919.414063	-27.955160
2860.444734	17454.005333	1918.434570	181.579132
2860.444734	17454.005333	1917.456055	-18.973822
2860.444734	17454.005333	1916.476563	9.945427
2860.444734	17454.005333	1915.497070	-53.837360
2860.444734	17454.005333	1914.516602	89.761581
2860.444734	17454.005333	1913.537109	130.897812
2860.444734	17454.005333	1912.556641	-54.732029
2860.444734	17454.005333	1911.576172	-40.362938
2860.444734	17454.005333	1910.595703	-130.789871
2860.444734	17454.005333	1909.615234	117.580856
2860.444734	17454.005333	1908.633789	-109.250580
2860.444734	17454.005333	1907.653320	-77.750168
2860.444734	17454.005333	1906.671875	2.470192
2860.444734	17454.005333	1905.690430	248.272827
2860.444734	17454.005333	1904.708984	41.141876
2860.444734	17454.005333	1903.727539	99.444283
2860.444734	17454.005333	1902.745117	-24.794451
2860.444734	17454.005333	1901.762695	-119.768356
2860.444734	17454.005333	1900.780273	-44.384518
2860.444734	17454.005333	1899.797852	-273.068115
2860.444734	17454.005333	1898.815430	72.304031
2860.444734	17454.005333	1897.832031	86.871605
2860.444734	17454.005333	1896.849609	225.437897
2860.444734	17454.005333	1895.866211	1.801272
2860.444734	17454.005333	1894.882813	118.490059
2860.444734	17454.005333	1893.898438	135.530670
2860.444734	17454.005333	1892.915039	65.126045
2860.444734	17454.005333	1891.930664	101.628799
2860.444734	17454.005333	1890.947266	57.996685
2860.444734	17454.005333	1889.962891	143.071579
2860.444734	17454.005333	1888.977539	24.219597
2860.444734	17454.005333	1887.993164	155.406158
2860.444734	17454.005333	1887.007813	-19.191896
2860.444734	17454.005333	1886.023438	46.470375
2860.444734	17454.005333	1885.038086	75.731941
2860.444734	17454.005333	1884.051758	37.084801
2860.444734	17454.005333	1883.066406	-6.387670
2860.444734	17454.005333	1882.081055	131.983871
2860.444734	17454.005333	1881.094727	35.198895
2860.444734	17454.005333	1880.108398	-85.778259
2860.444734	17454.005333	1879.122070	-66.175423
2860.444734	17454.005333	1878.135742	-75.645271
2860.444734	17454.005333	1877.148438	-46.356831
2860.444734	17454.005333	1876.162109	205.707153
2860.444734	17454.005333	1875.174805	38.827068
2860.444734	17454.005333	1874.187500	12.407589
2860.444734	17454.005333	1873.199219	58.603844
2860.444734	17454.005333	1872.211914	-69.439514
2860.444734	17454.005333	1871.223633	61.426994
2860.444734	17454.005333	1870.236328	25.343121
2860.444734	17454.005333	1869.248047	-37.333664
2860.444734	17454.005333	1868.258789	-119.336227
2860.444734	17454.005333	1867.270508	4.173423
2860.444734	17454.005333	1866.282227	30.948973
2860.444734	17454.005333	1865.292969	-0.290583
2860.444734	17454.005333	1864.303711	11.962870
2860.444734	17454.005333	1863.314453	-74.838982
2860.444734	17454.005333	1862.324219	79.901222
2860.444734	17454.005333	1861.334961	-55.197243
2860.444734	17454.005333	1860.344727	75.314713
2860.444734	17454.005333	1859.354492	-132.173447
2860.444734	17454.005333	1858.364258	-1.722750
2860.444734	17454.005333	1857.374023	-66.784378
2860.444734	17454.005333	1856.383789	27.386292
2860.444734	17454.005333	1855.392578	41.907005
2860.444734	17454.005333	1854.401367	29.876759
2860.444734	17454.005333	1853.410156	-73.791389
2860.444734	17454.005333	1852.418945	90.144745
2860.444734	17454.005333	1851.426758	-42.459888
2860.444734	17454.005333	1850.435547	3.286756
2860.444734	17454.005333	1849.443359	-73.882935
2860.444734	17454.005333	1848.451172	87.429459
2860.444734	17454.005333	1847.458984	159.545181
2860.444734	17454.005333	1846.466797	43.786980
2860.444734	17454.005333	1845.473633	79.716705
2860.444734	17454.005333	1844.480469	101.162544
2860.444734	17454.005333	1843.487305	50.373016
2860.444734	17454.005333	1842.494141	35.664501
2860.444734	17454.005333	1841.500977	49.798706
2860.444734	17454.005333	1840.506836	-118.904358
2860.444734	17454.005333	1839.513672	-42.287415
2860.444734	17454.005333	1838.519531	17.434559
2860.444734	17454.005333	1837.525391	-33.479366
2860.444734	17454.005333	1836.530273	131.896667
2860.444734	17454.005333	1835.536133	121.756805
2860.444734	17454.005333	1834.541016	-99.840721
2860.444734	17454.005333	1833.545898	-4.320781
2860.444734	17454.005333	1832.550781	88.721420
2860.444734	17454.005333	1831.555664	42.419697
2860.444734	17454.005333	1830.560547	46.507961
2860.444734	17454.005333	1829.564453	156.161331
2860.444734	17454.005333	1828.568359	78.544029
2860.444734	17454.005333	1827.572266	152.070648
2860.444734	17454.005333	1826.576172	160.752457
2860.444734	17454.005333	1825.580078	35.070492
2860.444734	17454.005333	1824.583008	-40.255417
2860.444734	17454.005333	1823.585938	-17.302988
2860.444734	17454.005333	1822.588867	197.359009
2860.444734	17454.005333	1821.591797	81.152054
2860.444734	17454.005333	1820.594727	-49.439896
2860.444734	17454.005333	1819.596680	337.442963
2860.444734	17454.005333	1818.599609	134.886963
2860.444734	17454.005333	1817.601563	140.701401
2860.444734	17454.005333	1816.603516	199.134628
2860.444734	17454.005333	1815.604492	212.002762
2860.444734	17454.005333	1814.606445	-2.569750
2860.444734	17454.005333	1813.607422	50.897823
2860.444734	17454.005333	1812.608398	295.692657
2860.444734	17454.005333	1811.609375	57.125477
2860.444734	17454.005333	1810.610352	119.939133
2860.444734	17454.005333	1809.610352	27.235126
2860.444734	17454.005333	1808.611328	46.872990
2860.444734	17454.005333	1807.611328	25.802076
2860.444734	17454.005333	1806.611328	-21.612883
2860.444734	17454.005333	1805.610352	267.829987
2860.444734	17454.005333	1804.610352	36.306686
2860.444734	17454.005333	1803.609375	3.048324
2860.444734	17454.005333	1802.608398	96.302734
2860.444734	17454.005333	1801.607422	124.988152
2860.444734	17454.005333	1800.606445	136.884659
2860.444734	17454.005333	1799.605469	172.574585
2860.444734	17454.005333	1798.603516	129.431320
2860.444734	17454.005333	1797.601563	17.045336
2860.444734	17454.005333	1796.599609	112.156235
2860.444734	17454.005333	1795.597656	283.475800
2860.444734	17454.005333	1794.595703	173.293411
2860.444734	17454.005333	1793.592773	70.227333
2860.444734	17454.005333	1792.589844	126.823509
2860.444734	17454.005333	1791.587891	202.392365
2860.444734	17454.005333	1790.583984	215.901184
2860.444734	17454.005333	1789.581055	255.536835
2860.444734	17454.005333	1788.577148	128.354782
2860.444734	17454.005333	1787.574219	132.119400
2860.444734	17454.005333	1786.570313	164.370773
2860.444734	17454.005333	1785.566406	13.241873
2860.444734	17454.005333	1784.561523	95.320595
2860.444734	17454.005333	1783.557617	101.149826
2860.444734	17454.005333	1782.552734	-4.921837
2860.444734	17454.005333	1781.547852	-68.219078
2860.444734	17454.005333	1780.542969	34.895851
2860.444734	17454.005333	1779.538086	354.258942
2860.444734	17454.005333	1778.532227	-215.668732
2860.444734	17454.005333	1777.527344	-22.512259
2860.444734	17454.005333	1776.521484	-26.751503
2860.444734	17454.005333	1775.515625	149.493988
2860.444734	17454.005333	1774.508789	2.526304
2860.444734	17454.005333	1773.502930	85.908081
2860.444734	17454.005333	1772.496094	59.940609
2860.444734	17454.005333	1771.489258	60.013000
2860.444734	17454.005333	1770.482422	24.395468
2860.444734	17454.005333	1769.475586	38.543289
2860.444734	17454.005333	1768.467773	145.129745
2860.444734	17454.005333	1767.460938	9.624288
2860.444734	17454.005333	1766.453125	-35.792809
2860.444734	17454.005333	1765.445313	-112.106850
2860.444734	17454.005333	1764.437500	46.241512
2860.444734	17454.005333	1763.428711	157.027283
2860.444734	17454.005333	1762.420898	4.617271
2860.444734	17454.005333	1761.412109	89.128029
2860.444734	17454.005333	1760.403320	-222.122543
2860.444734	17454.005333	1759.393555	-80.935402
2860.444734	17454.005333	1758.384766	-84.344887
2860.444734	17454.005333	1757.375000	-7.344401
2860.444734	17454.005333	1756.366211	123.992996
2860.444734	17454.005333	1755.356445	56.368908
2860.444734	17454.005333	1754.345703	-11.325871
2860.444734	17454.005333	1753.335938	-86.174591
2860.444734	17454.005333	1752.325195	-99.587929
2860.444734	17454.005333	1751.315430	47.745270
2860.444734	17454.005333	1750.304688	-100.649437
2860.444734	17454.005333	1749.292969	-109.599464
2860.444734	17454.005333	1748.282227	61.012562
2860.444734	17454.005333	1747.270508	63.672665
2860.444734	17454.005333	1746.259766	-63.705532
2860.444734	17454.005333	1745.248047	-65.927322
2860.444734	17454.005333	1744.235352	-82.416718
2860.444734	17454.005333	1743.223633	-101.343529
2860.444734	17454.005333	1742.211914	-11.746457
2860.444734	17454.005333	1741.199219	82.439995
2860.444734	17454.005333	1740.186523	-104.351051
2860.444734	17454.005333	1739.173828	-154.300125
2860.444734	17454.005333	1738.160156	33.951035
2860.444734	17454.005333	1737.147461	-11.466034
2860.444734	17454.005333	1736.133789	-101.771553
2860.444734	17454.005333	1735.120117	-43.587105
2860.444734	17454.005333	1734.106445	-108.098015
2860.444734	17454.005333	1733.091797	25.301670
2860.444734	17454.005333	1732.078125	31.319586
2860.444734	17454.005333	1731.063477	-115.904411
2860.444734	17454.005333	1730.048828	-84.134476
2860.444734	17454.005333	1729.034180	-19.493862
2860.444734	17454.005333	1728.019531	-129.212265
2860.444734	17454.005333	1727.003906	-116.564987
2860.444734	17454.005333	1725.988281	-118.131729
2860.444734	17454.005333	1724.972656	61.422806
2860.444734	17454.005333	1723.957031	92.589203
2860.444734	17454.005333	1722.941406	69.550423
2860.444734	17454.005333	1721.924805	124.041595
2860.444734	17454.005333	1720.909180	-2.634005
2860.444734	17454.005333	1719.892578	129.265884
2860.444734	17454.005333	1718.875977	94.132927
2860.444734	17454.005333	1717.858398	-16.286331
2860.444734	17454.005333	1716.841797	11.896080
2860.444734	17454.005333	1715.824219	-4.661166
2860.444734	17454.005333	1714.806641	-37.738907
2860.444734	17454.005333	1713.789063	114.636963
2860.444734	17454.005333	1712.770508	67.285942
2860.444734	17454.005333	1711.752930	247.588013
2860.444734	17454.005333	1710.734375	78.018555
2860.444734	17454.005333	1709.715820	42.189739
2860.444734	17454.005333	1708.697266	104.831596
2860.444734	17454.005333	1707.678711	197.862640
2860.444734	17454.005333	1706.659180	77.351036
2860.444734	17454.005333	1705.640625	62.332005
2860.444734	17454.005333	1704.621094	141.002777
2860.444734	17454.005333	1703.600586	217.211395
2860.444734	17454.005333	1702.581055	68.351952
2860.444734	17454.005333	1701.561523	249.836258
2860.444734	17454.005333	1700.541016	180.509476
2860.444734	17454.005333	1699.520508	207.160400
2860.444734	17454.005333	1698.500000	217.332657
2860.444734	17454.005333	1697.478516	164.203247
2860.444734	17454.005333	1696.458008	78.260910
2860.444734	17454.005333	1695.436523	315.228088
2860.444734	17454.005333	1694.415039	219.772919
2860.444734	17454.005333	1693.393555	168.730042
2860.444734	17454.005333	1692.372070	524.612915
2860.444734	17454.005333	1691.349609	220.818893
2860.444734	17454.005333	1690.327148	-64.223816
2860.444734	17454.005333	1689.304688	169.720856
2860.444734	17454.005333	1688.282227	57.607784
2860.444734	17454.005333	1687.259766	127.732658
2860.444734	17454.005333	1686.236328	195.415466
2860.444734	17454.005333	1685.213867	220.972610
2860.444734	17454.005333	1684.190430	274.466125
2860.444734	17454.005333	1683.166016	35.999149
2860.444734	17454.005333	1682.142578	112.722481
2860.444734	17454.005333	1681.119141	161.344696
2860.444734	17454.005333	1680.094727	312.549774
2860.444734	17454.005333	1679.070313	99.669983
2860.444734	17454.005333	1678.045898	71.090912
2860.444734	17454.005333	1677.020508	128.741516
2860.444734	17454.005333	1675.996094	151.346527
2860.444734	17454.005333	1674.970703	159.884048
2860.444734	17454.005333	1673.945313	77.456154
2860.444734	17454.005333	1672.919922	78.897751
2860.444734	17454.005333	1671.893555	364.526245
2860.444734	17454.005333	1670.868164	130.520020
2860.444734	17454.005333	1669.841797	24.635042
2860.444734	17454.005333	1668.815430	202.828201
2860.444734	17454.005333	1667.789063	78.239098
2860.444734	17454.005333	1666.761719	214.337326
2860.444734	17454.005333	1665.735352	147.873016
2860.444734	17454.005333	1664.708008	220.979691
2860.444734	17454.005333	1663.680664	159.080307
2860.444734	17454.005333	1662.653320	257.645538
2860.444734	17454.005333	1661.625000	318.904602
2860.444734	17454.005333	1660.597656	298.731110
2860.444734	17454.005333	1659.569336	387.762146
2860.444734	17454.005333	1658.541016	355.860321
2860.444734	17454.005333	1657.512695	361.105743
2860.444734	17454.005333	1656.483398	480.132751
2860.444734	17454.005333	1655.455078	280.864197
2860.444734	17454.005333	1654.425781	434.612579
2860.444734	17454.005333	1653.396484	472.169434
2860.444734	17454.005333	1652.366211	381.980560
2860.444734	17454.005333	1651.336914	623.702454
2860.444734	17454.005333	1650.306641	528.805603
2860.444734	17454.005333	1649.276367	545.273132
2860.444734	17454.005333	1648.246094	459.636414
2860.444734	17454.005333	1647.215820	534.022400
2860.444734	17454.005333	1646.185547	775.297485
2860.444734	17454.005333	1645.154297	803.151367
2860.444734	17454.005333	1644.123047	550.506714
2860.444734	17454.005333	1643.091797	724.330444
2860.444734	17454.005333	1642.060547	754.407898
2860.444734	17454.005333	1641.028320	740.420898
2860.444734	17454.005333	1639.997070	705.582214
2860.444734	17454.005333	1638.964844	899.961487
2860.444734	17454.005333	1637.931641	1052.556763
2860.444734	17454.005333	1636.899414	765.292053
2860.444734	17454.005333	1635.867188	853.023926
2860.444734	17454.005333	1634.833984	762.525940
2860.444734	17454.005333	1633.800781	917.259094
2860.444734	17454.005333	1632.767578	861.439453
2860.444734	17454.005333	1631.734375	981.370850
2860.444734	17454.005333	1630.700195	705.874634
2860.444734	17454.005333	1629.666016	832.680481
2860.444734	17454.005333	1628.631836	977.910645
2860.444734	17454.005333	1627.597656	829.620911
2860.444734	17454.005333	1626.563477	891.604492
2860.444734	17454.005333	1625.528320	1103.673950
2860.444734	17454.005333	1624.493164	1133.217041
2860.444734	17454.005333	1623.458008	1086.548584
2860.444734	17454.005333	1622.422852	1120.685303
2860.444734	17454.005333	1621.387695	1166.343262
2860.444734	17454.005333	1620.351563	1218.886597
2860.444734	17454.005333	1619.315430	1255.257080
2860.444734	17454.005333	1618.279297	1243.172729
2860.444734	17454.005333	1617.243164	1224.172729
2860.444734	17454.005333	1616.207031	1140.620483
2860.444734	17454.005333	1615.169922	1133.161743
2860.444734	17454.005333	1614.132813	1102.659790
2860.444734	17454.005333	1613.095703	1226.565308
2860.444734	17454.005333	1612.058594	1269.790405
2860.444734	17454.005333	1611.020508	1322.205444
2860.444734	17454.005333	1609.983398	1224.922852
2860.444734	17454.005333	1608.945313	1362.535645
2860.444734	17454.005333	1607.907227	1338.956055
2860.444734	17454.005333	1606.868164	1170.375732
2860.444734	17454.005333	1605.830078	1482.842651
2860.444734	17454.005333	1604.791016	1466.176514
2860.444734	17454.005333	1603.751953	1571.447632
2860.444734	17454.005333	1602.712891	1444.405273
2860.444734	17454.005333	1601.673828	1379.512451
2860.444734	17454.005333	1600.633789	1572.134888
2860.444734	17454.005333	1599.594727	1373.963623
2860.444734	17454.005333	1598.554688	1244.818726
2860.444734	17454.005333	1597.513672	1382.257813
2860.444734	17454.005333	1596.473633	1499.003540
2860.444734	17454.005333	1595.433594	1328.634277
2860.444734	17454.005333	1594.392578	1422.416138
2860.444734	17454.005333	1593.351563	1497.819702
2860.444734	17454.005333	1592.310547	1515.836426
2860.444734	17454.005333	1591.268555	1444.357422
2860.444734	17454.005333	1590.227539	1423.427002
2860.444734	17454.005333	1589.185547	1528.695557
2860.444734	17454.005333	1588.143555	1344.959839
2860.444734	17454.005333	1587.100586	1296.610962
2860.444734	17454.005333	1586.058594	1399.646240
2860.444734	17454.005333	1585.015625	1333.035645
2860.444734	17454.005333	1583.972656	1328.366577
2860.444734	17454.005333	1582.929688	1316.861938
2860.444734	17454.005333	1581.886719	1504.709351
2860.444734	17454.005333	1580.843750	1603.194092
2860.444734	17454.005333	1579.799805	1365.036743
2860.444734	17454.005333	1578.755859	1163.646118
2860.444734	17454.005333	1577.711914	1330.925293
2860.444734	17454.005333	1576.666992	1424.933350
2860.444734	17454.005333	1575.623047	1219.204346
2860.444734	17454.005333	1574.578125	1375.057861
2860.444734	17454.005333	1573.533203	1437.117188
2860.444734	17454.005333	1572.488281	1453.463257
2860.444734	17454.005333	1571.443359	1387.540649
2860.444734	17454.005333	1570.397461	1246.245239
2860.444734	17454.005333	1569.351563	1052.489014
2860.444734	17454.005333	1568.305664	1066.804199
2860.444734	17454.005333	1567.259766	1250.230957
2860.444734	17454.005333	1566.213867	1116.137695
2860.444734	17454.005333	1565.166992	1169.408569
2860.444734	17454.005333	1564.120117	889.354919
2860.444734	17454.005333	1563.073242	1333.130005
2860.444734	17454.005333	1562.026367	1219.886230
2860.444734	17454.005333	1560.978516	905.924377
2860.444734	17454.005333	1559.930664	1196.743652
2860.444734	17454.005333	1558.883789	1188.706421
2860.444734	17454.005333	1557.834961	1253.690674
2860.444734	17454.005333	1556.787109	1444.133911
2860.444734	17454.005333	1555.739258	1267.536133
2860.444734	17454.005333	1554.690430	1375.969849
2860.444734	17454.005333	1553.641602	1156.279785
2860.444734	17454.005333	1552.592773	1463.046021
2860.444734	17454.005333	1551.542969	1352.892822
2860.444734	17454.005333	1550.494141	1245.141724
2860.444734	17454.005333	1549.444336	1472.214600
2860.444734	17454.005333	1548.394531	1155.172485
2860.444734	17454.005333	1547.344727	1325.416748
2860.444734	17454.005333	1546.293945	1254.438354
2860.444734	17454.005333	1545.244141	1201.775635
2860.444734	17454.005333	1544.193359	1069.581665
2860.444734	17454.005333	1543.142578	1124.012939
2860.444734	17454.005333	1542.090820	1044.332153
2860.444734	17454.005333	1541.040039	1023.882629
2860.444734	17454.005333	1539.988281	948.958740
2860.444734	17454.005333	1538.936523	794.608032
2860.444734	17454.005333	1537.884766	863.063782
2860.444734	17454.005333	1536.833008	1056.517334
2860.444734	17454.005333	1535.780273	1243.153931
2860.444734	17454.005333	1534.727539	775.830078
2860.444734	17454.005333	1533.674805	885.430603
2860.444734	17454.005333	1532.622070	720.424072
2860.444734	17454.005333	1531.569336	657.693176
2860.444734	17454.005333	1530.515625	610.948792
2860.444734	17454.005333	1529.461914	890.976929
2860.444734	17454.005333	1528.408203	542.734436
2860.444734	17454.005333	1527.354492	725.340332
2860.444734	17454.005333	1526.299805	706.180542
2860.444734	17454.005333	1525.246094	594.195557
2860.444734	17454.005333	1524.191406	461.943665
2860.444734	17454.005333	1523.136719	567.748474
2860.444734	17454.005333	1522.081055	469.716125
2860.444734	17454.005333	1521.026367	462.424774
2860.444734	17454.005333	1519.970703	629.587891
2860.444734	17454.005333	1518.915039	319.075531
2860.444734	17454.005333	1517.859375	221.561188
2860.444734	17454.005333	1516.802734	212.437546
2860.444734	17454.005333	1515.747070	271.308228
2860.444734	17454.005333	1514.690430	337.034088
2860.444734	17454.005333	1513.633789	68.092979
2860.444734	17454.005333	1512.577148	124.992416
2860.444734	17454.005333	1511.519531	80.225105
2860.444734	17454.005333	1510.461914	159.904343
2860.444734	17454.005333	1509.405273	273.564880
2860.444734	17454.005333	1508.346680	73.194855
2860.444734	17454.005333	1507.289063	139.590576
2860.444734	17454.005333	1506.231445	325.775177
2860.444734	17454.005333	1505.172852	-39.013912
2860.444734	17454.005333	1504.114258	287.322235
2860.444734	17454.005333	1503.055664	293.100616
2860.444734	17454.005333	1501.996094	16.873396
2860.444734	17454.005333	1500.937500	-24.460962
2860.444734	17454.005333	1499.877930	-140.121887
2860.444734	17454.005333	1498.818359	161.645264
2860.444734	17454.005333	1497.757813	48.466259
2860.444734	17454.005333	1496.698242	-303.536682
2860.444734	17454.005333	1495.637695	135.919739
2860.444734	17454.005333	1494.577148	-3.890755
2860.444734	17454.005333	1493.516602	-26.360252
2860.444734	17454.005333	1492.456055	0.856448
2860.444734	17454.005333	1491.394531	5.648406
2860.444734	17454.005333	1490.333008	213.229279
2860.444734	17454.005333	1489.271484	71.864143
2860.444734	17454.005333	1488.209961	-76.079361
2860.444734	17454.005333	1487.148438	260.029083
2860.444734	17454.005333	1486.085938	146.088776
2860.444734	17454.005333	1485.023438	228.037415
2860.444734	17454.005333	1483.960938	64.904648
2860.444734	17454.005333	1482.898438	-35.076691
2860.444734	17454.005333	1481.834961	148.388641
2860.444734	17454.005333	1480.772461	66.651787
2860.444734	17454.005333	1479.708984	146.878174
2860.444734	17454.005333	1478.644531	-127.808472
2860.444734	17454.005333	1477.581055	213.251862
2860.444734	17454.005333	1476.517578	287.032318
2860.444734	17454.005333	1475.453125	172.293625
2860.444734	17454.005333	1474.388672	190.136261
2860.444734	17454.005333	1473.323242	322.623871
2860.444734	17454.005333	1472.258789	322.775604
2860.444734	17454.005333	1471.193359	352.197144
2860.444734	17454.005333	1470.127930	296.602661
2860.444734	17454.005333	1469.062500	236.592056
2860.444734	17454.005333	1467.997070	268.588379
2860.444734	17454.005333	1466.930664	502.184265
2860.444734	17454.005333	1465.865234	574.725525
2860.444734	17454.005333	1464.798828	488.316162
2860.444734	17454.005333	1463.731445	654.979248
2860.444734	17454.005333	1462.665039	537.607666
2860.444734	17454.005333	1461.597656	429.373566
2860.444734	17454.005333	1460.530273	533.911804
2860.444734	17454.005333	1459.462891	383.469727
2860.444734	17454.005333	1458.395508	512.834473
2860.444734	17454.005333	1457.327148	418.566437
2860.444734	17454.005333	1456.259766	553.845154
2860.444734	17454.005333	1455.191406	776.999390
2860.444734	17454.005333	1454.123047	576.345886
2860.444734	17454.005333	1453.053711	612.454224
2860.444734	17454.005333	1451.985352	572.555725
2860.444734	17454.005333	1450.916016	539.821838
2860.444734	17454.005333	1449.846680	593.464294
2860.444734	17454.005333	1448.776367	704.856812
2860.444734	17454.005333	1447.707031	607.632019
2860.444734	17454.005333	1446.636719	566.164490
2860.444734	17454.005333	1445.566406	481.809875
2860.444734	17454.005333	1444.496094	598.341675
2860.444734	17454.005333	1443.425781	478.067505
2860.444734	17454.005333	1442.354492	540.245544
2860.444734	17454.005333	1441.283203	634.778809
2860.444734	17454.005333	1440.211914	808.030640
2860.444734	17454.005333	1439.140625	570.073181
2860.444734	17454.005333	1438.069336	581.802856
2860.444734	17454.005333	1436.997070	461.698151
2860.444734	17454.005333	1435.924805	451.419250
2860.444734	17454.005333	1434.852539	316.079376
2860.444734	17454.005333	1433.780273	220.091492
2860.444734	17454.005333	1432.707031	261.102448
2860.444734	17454.005333	1431.633789	135.700729
2860.444734	17454.005333	1430.560547	282.588287
2860.444734	17454.005333	1429.487305	294.038391
2860.444734	17454.005333	1428.413086	171.282364
2860.444734	17454.005333	1427.339844	144.496826
2860.444734	17454.005333	1426.265625	229.378052
2860.444734	17454.005333	1425.191406	157.729523
2860.444734	17454.005333	1424.116211	-72.282494
2860.444734	17454.005333	1423.041992	-151.701065
2860.444734	17454.005333	1421.966797	30.410202
2860.444734	17454.005333	1420.891602	215.153122
2860.444734	17454.005333	1419.816406	202.514725
2860.444734	17454.005333	1418.740234	174.284882
2860.444734	17454.005333	1417.665039	93.723976
2860.444734	17454.005333	1416.588867	153.273422
2860.444734	17454.005333	1415.512695	112.081284
2860.444734	17454.005333	1414.435547	203.993484
2860.444734	17454.005333	1413.359375	66.849533
2860.444734	17454.005333	1412.282227	-82.044991
2860.444734	17454.005333	1411.205078	151.626389
2860.444734	17454.005333	1410.127930	96.251030
2860.444734	17454.005333	1409.049805	234.653915
2860.444734	17454.005333	1407.972656	180.259247
2860.444734	17454.005333	1406.894531	250.439178
2860.444734	17454.005333	1405.816406	333.741974
2860.444734	17454.005333	1404.737305	402.124878
2860.444734	17454.005333	1403.659180	185.547272
2860.444734	17454.005333	1402.580078	-6.208658
2860.444734	17454.005333	1401.500977	357.975189
2860.444734	17454.005333	1400.421875	512.933289
2860.444734	17454.005333	1399.341797	351.574646
2860.444734	17454.005333	1398.262695	381.669922
2860.444734	17454.005333	1397.182617	379.775818
2860.444734	17454.005333	1396.102539	388.667999
2860.444734	17454.005333	1395.021484	418.503906
2860.444734	17454.005333	1393.941406	517.190979
2860.444734	17454.005333	1392.860352	355.360962
2860.444734	17454.005333	1391.779297	321.881866
2860.444734	17454.005333	1390.698242	480.428894
2860.444734	17454.005333	1389.616211	541.808411
2860.444734	17454.005333	1388.535156	800.361328
2860.444734	17454.005333	1387.453125	716.992920
2860.444734	17454.005333	1386.371094	898.386902
2860.444734	17454.005333	1385.288086	746.429199
2860.444734	17454.005333	1384.206055	683.560303
2860.444734	17454.005333	1383.123047	495.311371
2860.444734	17454.005333	1382.040039	536.747559
2860.444734	17454.005333	1380.957031	691.284180
2860.444734	17454.005333	1379.873047	611.705139
2860.444734	17454.005333	1378.789063	621.833923
2860.444734	17454.005333	1377.705078	541.507813
2860.444734	17454.005333	1376.621094	227.626556
2860.444734	17454.005333	1375.537109	527.699280
2860.444734	17454.005333	1374.452148	556.965271
2860.444734	17454.005333	1373.367188	515.938049
2860.444734	17454.005333	1372.282227	438.988922
2860.444734	17454.005333	1371.197266	435.392670
2860.444734	17454.005333	1370.112305	364.732544
2860.444734	17454.005333	1369.026367	344.462158
2860.444734	17454.005333	1367.940430	363.935303
2860.444734	17454.005333	1366.854492	247.207870
2860.444734	17454.005333	1365.767578	353.125366
2860.444734	17454.005333	1364.681641	373.876556
2860.444734	17454.005333	1363.594727	199.312424
2860.444734	17454.005333	1362.507813	236.233429
2860.444734	17454.005333	1361.419922	332.337952
2860.444734	17454.005333	1360.333008	328.211456
2860.444734	17454.005333	1359.245117	310.471252
2860.444734	17454.005333	1358.157227	174.206482
2860.444734	17454.005333	1357.069336	384.630249
2860.444734	17454.005333	1355.981445	237.099152
2860.444734	17454.005333	1354.892578	289.882385
2860.444734	17454.005333	1353.803711	278.173218
2860.444734	17454.005333	1352.714844	306.872223
2860.444734	17454.005333	1351.625000	225.023178
2860.444734	17454.005333	1350.536133	478.175751
2860.444734	17454.005333	1349.446289	619.420410
2860.444734	17454.005333	1348.356445	575.303467
2860.444734	17454.005333	1347.266602	436.199127
2860.444734	17454.005333	1346.175781	549.180847
2860.444734	17454.005333	1345.085938	389.561096
2860.444734	17454.005333	1343.995117	538.732849
2860.444734	17454.005333	1342.903320	518.315674
2860.444734	17454.005333	1341.812500	517.746460
2860.444734	17454.005333	1340.720703	628.192200
2860.444734	17454.005333	1339.629883	761.276917
2860.444734	17454.005333	1338.538086	581.563354
2860.444734	17454.005333	1337.445313	643.286316
2860.444734	17454.005333	1336.353516	523.777405
2860.444734	17454.005333	1335.260742	698.127014
2860.444734	17454.005333	1334.167969	628.158875
2860.444734	17454.005333	1333.075195	684.643372
2860.444734	17454.005333	1331.981445	636.741943
2860.444734	17454.005333	1330.888672	735.124329
2860.444734	17454.005333	1329.794922	501.357300
2860.444734	17454.005333	1328.701172	582.728882
2860.444734	17454.005333	1327.606445	533.743408
2860.444734	17454.005333	1326.512695	593.005615
2860.444734	17454.005333	1325.417969	684.104370
2860.444734	17454.005333	1324.323242	643.061646
2860.444734	17454.005333	1323.227539	603.012024
2860.444734	17454.005333	1322.132813	665.762695
2860.444734	17454.005333	1321.037109	604.922607
2860.444734	17454.005333	1319.941406	407.011627
2860.444734	17454.005333	1318.845703	434.151733
2860.444734	17454.005333	1317.750000	533.442566
2860.444734	17454.005333	1316.653320	495.842224
2860.444734	17454.005333	1315.556641	507.232574
2860.444734	17454.005333	1314.459961	495.038361
2860.444734	17454.005333	1313.363281	474.128754
2860.444734	17454.005333	1312.265625	567.473816
2860.444734	17454.005333	1311.167969	582.939453
2860.444734	17454.005333	1310.070313	571.641846
2860.444734	17454.005333	1308.972656	642.670837
2860.444734	17454.005333	1307.874023	589.366821
2860.444734	17454.005333	1306.776367	623.434692
2860.444734	17454.005333	1305.677734	544.743835
2860.444734	17454.005333	1304.579102	388.380432
2860.444734	17454.005333	1303.479492	691.773071
2860.444734	17454.005333	1302.380859	505.428955
2860.444734	17454.005333	1301.281250	376.596680
2860.444734	17454.005333	1300.181641	554.849670
2860.444734	17454.005333	1299.081055	613.923218
2860.444734	17454.005333	1297.981445	589.083923
2860.444734	17454.005333	1296.880859	448.254578
2860.444734	17454.005333	1295.780273	442.150024
2860.444734	17454.005333	1294.679688	415.486969
2860.444734	17454.005333	1293.578125	343.556610
2860.444734	17454.005333	1292.476563	393.082367
2860.444734	17454.005333	1291.375000	499.746796
2860.444734	17454.005333	1290.273438	351.079132
2860.444734	17454.005333	1289.171875	237.545120
2860.444734	17454.005333	1288.069336	290.739838
2860.444734	17454.005333	1286.966797	288.721497
2860.444734	17454.005333	1285.864258	190.405991
2860.444734	17454.005333	1284.761719	242.129227
2860.444734	17454.005333	1283.658203	374.915131
2860.444734	17454.005333	1282.554688	175.748489
2860.444734	17454.005333	1281.451172	151.449524
2860.444734	17454.005333	1280.347656	141.823837
2860.444734	17454.005333	1279.244141	135.227814
2860.444734	17454.005333	1278.139648	144.690399
2860.444734	17454.005333	1277.035156	254.930618
2860.444734	17454.005333	1275.930664	275.546997
2860.444734	17454.005333	1274.825195	299.210236
2860.444734	17454.005333	1273.720703	246.291687
2860.444734	17454.005333	1272.615234	121.347610
2860.444734	17454.005333	1271.508789	207.224686
2860.444734	17454.005333	1270.403320	36.241447
2860.444734	17454.005333	1269.297852	215.366440
2860.444734	17454.005333	1268.191406	153.999939
2860.444734	17454.005333	1267.084961	180.120483
2860.444734	17454.005333	1265.977539	74.183083
2860.444734	17454.005333	1264.871094	-51.169727
2860.444734	17454.005333	1263.763672	-155.717285
2860.444734	17454.005333	1262.656250	41.301067
2860.444734	17454.005333	1261.548828	76.533722
2860.444734	17454.005333	1260.440430	7.759025
2860.444734	17454.005333	1259.333008	22.198442
2860.444734	17454.005333	1258.224609	142.183151
2860.444734	17454.005333	1257.115234	58.906487
2860.444734	17454.005333	1256.006836	21.177750
2860.444734	17454.005333	1254.897461	84.738342
2860.444734	17454.005333	1253.788086	151.858612
2860.444734	17454.005333	1252.678711	115.869553
2860.444734	17454.005333	1251.569336	9.478166
2860.444734	17454.005333	1250.458984	48.090820
2860.444734	17454.005333	1249.349609	39.535278
2860.444734	17454.005333	1248.239258	85.057938
2860.444734	17454.005333	1247.127930	-15.872476
2860.444734	17454.005333	1246.017578	83.404785
2860.444734	17454.005333	1244.906250	123.181068
2860.444734	17454.005333	1243.794922	34.101681
2860.444734	17454.005333	1242.683594	109.109955
2860.444734	17454.005333	1241.571289	153.287109
2860.444734	17454.005333	1240.459961	73.525345
2860.444734	17454.005333	1239.347656	96.363106
2860.444734	17454.005333	1238.234375	69.809151
2860.444734	17454.005333	1237.122070	6.168792
2860.444734	17454.005333	1236.008789	93.136711
2860.444734	17454.005333	1234.896484	122.920570
2860.444734	17454.005333	1233.782227	75.127319
2860.444734	17454.005333	1232.668945	58.461552
2860.444734	17454.005333	1231.555664	-14.785541
2860.444734	17454.005333	1230.441406	-89.186066
2860.444734	17454.005333	1229.327148	-3.825116
2860.444734	17454.005333	1228.211914	61.856045
2860.444734	17454.005333	1227.097656	191.971466
2860.444734	17454.005333	1225.982422	84.112213
2860.444734	17454.005333	1224.867188	1.436420
2860.444734	17454.005333	1223.751953	46.641399
2860.444734	17454.005333	1222.635742	-101.605759
2860.444734	17454.005333	1221.520508	7.857968
2860.444734	17454.005333	1220.404297	135.770035
2860.444734	17454.005333	1219.287109	32.032787
2860.444734	17454.005333	1218.170898	178.072067
2860.444734	17454.005333	1217.053711	19.352777
2860.444734	17454.005333	1215.936523	-16.440437
2860.444734	17454.005333	1214.819336	106.466919
2860.444734	17454.005333	1213.702148	56.398186
2860.444734	17454.005333	1212.583984	81.283997
2860.444734	17454.005333	1211.465820	10.315941
2860.444734	17454.005333	1210.347656	19.905256
2860.444734	17454.005333	1209.229492	-160.529968
2860.444734	17454.005333	1208.110352	-0.175400
2860.444734	17454.005333	1206.992188	57.645302
2860.444734	17454.005333	1205.873047	-76.181480
2860.444734	17454.005333	1204.752930	-21.972101
2860.444734	17454.005333	1203.633789	113.286850
2860.444734	17454.005333	1202.513672	-31.368973
2860.444734	17454.005333	1201.393555	-43.226223
2860.444734	17454.005333	1200.273438	13.107841
2860.444734	17454.005333	1199.152344	56.865360
2860.444734	17454.005333	1198.032227	3.384287
2860.444734	17454.005333	1196.911133	185.387512
2860.444734	17454.005333	1195.790039	32.490898
2860.444734	17454.005333	1194.667969	71.341530
2860.444734	17454.005333	1193.545898	126.653008
2860.444734	17454.005333	1192.424805	-31.620689
2860.444734	17454.005333	1191.301758	-6.208825
2860.444734	17454.005333	1190.179688	-125.657089
2860.444734	17454.005333	1189.056641	-5.571146
2860.444734	17454.005333	1187.933594	-61.001835
2860.444734	17454.005333	1186.810547	-38.338562
2860.444734	17454.005333	1185.687500	-121.297874
2860.444734	17454.005333	1184.563477	-121.142136
2860.444734	17454.005333	1183.440430	-51.845871
2860.444734	17454.005333	1182.316406	12.532700
2860.444734	17454.005333	1181.191406	-16.102949
2860.444734	17454.005333	1180.067383	43.723129
2860.444734	17454.005333	1178.942383	40.904625
2860.444734	17454.005333	1177.817383	-54.502430
2860.444734	17454.005333	1176.692383	94.001297
2860.444734	17454.005333	1175.566406	-10.958176
2860.444734	17454.005333	1174.440430	31.385290
2860.444734	17454.005333	1173.314453	-2.862500
2860.444734	17454.005333	1172.188477	6.527308
2860.444734	17454.005333	1171.062500	-99.594345
2860.444734	17454.005333	1169.935547	99.933525
2860.444734	17454.005333	1168.808594	0.984747
2860.444734	17454.005333	1167.681641	85.584106
2860.444734	17454.005333	1166.553711	39.980362
2860.444734	17454.005333	1165.426758	74.689804
2860.444734	17454.005333	1164.298828	-14.515079
2860.444734	17454.005333	1163.170898	22.788645
2860.444734	17454.005333	1162.041992	-116.676796
2860.444734	17454.005333	1160.914063	-21.059729
2860.444734	17454.005333	1159.785156	-89.735481
2860.444734	17454.005333	1158.656250	-105.873672
2860.444734	17454.005333	1157.526367	-111.458298
2860.444734	17454.005333	1156.397461	-89.912621
2860.444734	17454.005333	1155.267578	-117.631897
2860.444734	17454.005333	1154.137695	-115.578461
2860.444734	17454.005333	1153.006836	10.933427
2860.444734	17454.005333	1151.876953	-14.548329
2860.444734	17454.005333	1150.746094	-66.687935
2860.444734	17454.005333	1149.615234	-86.258018
2860.444734	17454.005333	1148.484375	-35.026615
2860.444734	17454.005333	1147.352539	-32.656857
2860.444734	17454.005333	1146.220703	-68.051064
2860.444734	17454.005333	1145.088867	-114.634468
2860.444734	17454.005333	1143.957031	-126.331322
2860.444734	17454.005333	1142.825195	-21.995548
2860.444734	17454.005333	1141.692383	-56.648918
2860.444734	17454.005333	1140.559570	-82.804756
2860.444734	17454.005333	1139.426758	-110.892151
2860.444734	17454.005333	1138.292969	8.800374
2860.444734	17454.005333	1137.159180	40.072197
2860.444734	17454.005333	1136.025391	14.936635
2860.444734	17454.005333	1134.891602	1.407013
2860.444734	17454.005333	1133.757813	-39.311932
2860.444734	17454.005333	1132.623047	60.158997
2860.444734	17454.005333	1131.488281	-13.679305
2860.444734	17454.005333	1130.353516	66.271484
2860.444734	17454.005333	1129.217773	-30.481674
2860.444734	17454.005333	1128.083008	92.516068
2860.444734	17454.005333	1126.947266	-78.866615
2860.444734	17454.005333	1125.811523	58.770943
2860.444734	17454.005333	1124.674805	172.426697
2860.444734	17454.005333	1123.539063	-30.651476
2860.444734	17454.005333	1122.402344	8.422688
2860.444734	17454.005333	1121.265625	-38.652977
2860.444734	17454.005333	1120.127930	-125.047722
2860.444734	17454.005333	1118.990234	91.939850
2860.444734	17454.005333	1117.853516	11.643712
2860.444734	17454.005333	1116.714844	177.321365
2860.444734	17454.005333	1115.577148	117.588936
2860.444734	17454.005333	1114.439453	111.867447
2860.444734	17454.005333	1113.300781	74.162109
2860.444734	17454.005333	1112.162109	32.707973
2860.444734	17454.005333	1111.022461	71.744034
2860.444734	17454.005333	1109.883789	287.960236
2860.444734	17454.005333	1108.744141	119.805862
2860.444734	17454.005333	1107.604492	208.349762
2860.444734	17454.005333	1106.463867	0.903949
2860.444734	17454.005333	1105.324219	102.280502
2860.444734	17454.005333	1104.183594	19.924337
2860.444734	17454.005333	1103.042969	352.002716
2860.444734	17454.005333	1101.902344	150.806595
2860.444734	17454.005333	1100.760742	124.702377
2860.444734	17454.005333	1099.619141	202.635406
2860.444734	17454.005333	1098.477539	241.626114
2860.444734	17454.005333	1097.335938	221.258484
2860.444734	17454.005333	1096.193359	315.170654
2860.444734	17454.005333	1095.051758	244.928925
2860.444734	17454.005333	1093.909180	294.901428
2860.444734	17454.005333	1092.765625	282.916046
2860.444734	17454.005333	1091.623047	322.320770
2860.444734	17454.005333	1090.479492	268.943298
2860.444734	17454.005333	1089.335938	284.688599
2860.444734	17454.005333	1088.192383	198.257446
2860.444734	17454.005333	1087.047852	232.483307
2860.444734	17454.005333	1085.903320	352.276794
2860.444734	17454.005333	1084.758789	300.076904
2860.444734	17454.005333	1083.614258	246.227951
2860.444734	17454.005333	1082.469727	249.185104
2860.444734	17454.005333	1081.324219	94.456871
2860.444734	17454.005333	1080.178711	197.379028
2860.444734	17454.005333	1079.033203	271.816925
2860.444734	17454.005333	1077.886719	236.859924
2860.444734	17454.005333	1076.740234	347.913879
2860.444734	17454.005333	1075.593750	173.894928
2860.444734	17454.005333	1074.447266	156.247040
2860.444734	17454.005333	1073.300781	229.674469
2860.444734	17454.005333	1072.153320	166.299072
2860.444734	17454.005333	1071.005859	165.568527
2860.444734	17454.005333	1069.858398	189.254471
2860.444734	17454.005333	1068.709961	60.182697
2860.444734	17454.005333	1067.561523	223.687332
2860.444734	17454.005333	1066.413086	175.690460
2860.444734	17454.005333	1065.264648	240.028214
2860.444734	17454.005333	1064.116211	126.064568
2860.444734	17454.005333	1062.966797	306.289093
2860.444734	17454.005333	1061.817383	284.468903
2860.444734	17454.005333	1060.667969	280.096436
2860.444734	17454.005333	1059.517578	157.600006
2860.444734	17454.005333	1058.368164	73.775963
2860.444734	17454.005333	1057.217773	212.970963
2860.444734	17454.005333	1056.067383	128.096985
2860.444734	17454.005333	1054.916016	184.643219
2860.444734	17454.005333	1053.764648	231.107254
2860.444734	17454.005333	1052.613281	209.349258
2860.444734	17454.005333	1051.461914	289.888062
2860.444734	17454.005333	1050.310547	283.621948
2860.444734	17454.005333	1049.158203	99.166740
2860.444734	17454.005333	1048.005859	9.321191
2860.444734	17454.005333	1046.853516	280.522644
2860.444734	17454.005333	1045.700195	145.925827
2860.444734	17454.005333	1044.547852	253.928253
2860.444734	17454.005333	1043.394531	174.742874
2860.444734	17454.005333	1042.240234	297.719971
2860.444734	17454.005333	1041.086914	277.121155
2860.444734	17454.005333	1039.932617	464.891510
2860.444734	17454.005333	1038.778320	488.884430
2860.444734	17454.005333	1037.624023	389.392853
2860.444734	17454.005333	1036.469727	295.312622
2860.444734	17454.005333	1035.314453	601.532410
2860.444734	17454.005333	1034.159180	368.129639
2860.444734	17454.005333	1033.003906	452.259399
2860.444734	17454.005333	1031.847656	544.768799
2860.444734	17454.005333	1030.692383	399.559204
2860.444734	17454.005333	1029.536133	493.639130
2860.444734	17454.005333	1028.378906	375.573334
2860.444734	17454.005333	1027.222656	371.898773
2860.444734	17454.005333	1026.065430	390.485992
2860.444734	17454.005333	1024.908203	375.724854
2860.444734	17454.005333	1023.750977	306.724213
2860.444734	17454.005333	1022.593750	227.693497
2860.444734	17454.005333	1021.435547	343.363617
2860.444734	17454.005333	1020.277344	173.640228
2860.444734	17454.005333	1019.119141	256.052216
2860.444734	17454.005333	1017.959961	399.238922
2860.444734	17454.005333	1016.800781	290.621887
2860.444734	17454.005333	1015.641602	242.714828
2860.444734	17454.005333	1014.482422	326.692047
2860.444734	17454.005333	1013.323242	285.711304
2860.444734	17454.005333	1012.163086	292.236969
2860.444734	17454.005333	1011.002930	215.990143
2860.444734	17454.005333	1009.842773	377.610535
2860.444734	17454.005333	1008.681641	439.707367
2860.444734	17454.005333	1007.520508	231.657761
2860.444734	17454.005333	1006.359375	412.551086
2860.444734	17454.005333	1005.198242	308.753082
2860.444734	17454.005333	1004.037109	305.034882
2860.444734	17454.005333	1002.875000	371.736908
2860.444734	17454.005333	1001.712891	192.966980
2860.444734	17454.005333	1000.550781	440.991272
2860.444734	17454.005333	999.387695	270.917206
2860.444734	17454.005333	998.224609	392.817627
2860.444734	17454.005333	997.061523	268.751648
2860.444734	17454.005333	995.898438	279.473785
2860.444734	17454.005333	994.734375	119.401360
2860.444734	17454.005333	993.571289	59.939159
2860.444734	17454.005333	992.407227	132.599991
2860.444734	17454.005333	991.242188	162.594742
2860.444734	17454.005333	990.078125	124.227409
2860.444734	17454.005333	988.913086	-24.614956
2860.444734	17454.005333	987.748047	-54.325451
2860.444734	17454.005333	986.583008	24.966635
2860.444734	17454.005333	985.416992	-18.761595
2860.444734	17454.005333	984.250977	6.524135
2860.444734	17454.005333	983.084961	152.650604
2860.444734	17454.005333	981.918945	118.208252
2860.444734	17454.005333	980.751953	163.241913
2860.444734	17454.005333	979.584961	317.638580
2860.444734	17454.005333	978.417969	111.826080
2860.444734	17454.005333	977.250977	100.842651
2860.444734	17454.005333	976.083008	347.168030
2860.444734	17454.005333	974.915039	165.323654
2860.444734	17454.005333	973.747070	162.758347
2860.444734	17454.005333	972.579102	218.205185
2860.444734	17454.005333	971.410156	164.843460
2860.444734	17454.005333	970.242188	235.729950
2860.444734	17454.005333	969.072266	280.337341
2860.444734	17454.005333	967.903320	172.655106
2860.444734	17454.005333	966.733398	256.957153
2860.444734	17454.005333	965.563477	166.832581
2860.444734	17454.005333	964.393555	230.102280
2860.444734	17454.005333	963.223633	286.188324
2860.444734	17454.005333	962.052734	367.102753
2860.444734	17454.005333	960.881836	153.670120
2860.444734	17454.005333	959.710938	225.357407
2860.444734	17454.005333	958.540039	43.368816
2860.444734	17454.005333	957.368164	128.340363
2860.444734	17454.005333	956.196289	334.152863
2860.444734	17454.005333	955.024414	274.937347
2860.444734	17454.005333	953.851563	238.620697
2860.444734	17454.005333	952.679688	181.804047
2860.444734	17454.005333	951.506836	163.291794
2860.444734	17454.005333	950.333984	58.115261
2860.444734	17454.005333	949.160156	43.757465
2860.444734	17454.005333	947.986328	67.623322
2860.444734	17454.005333	946.812500	0.269107
2860.444734	17454.005333	945.638672	341.888306
2860.444734	17454.005333	944.464844	183.921509
2860.444734	17454.005333	943.290039	270.378906
2860.444734	17454.005333	942.115234	314.159698
2860.444734	17454.005333	940.940430	48.685364
2860.444734	17454.005333	939.764648	320.922119
2860.444734	17454.005333	938.588867	304.339539
2860.444734	17454.005333	937.413086	291.432312
2860.444734	17454.005333	936.237305	345.342224
2860.444734	17454.005333	935.060547	99.994339
2860.444734	17454.005333	933.883789	238.773804
2860.444734	17454.005333	932.707031	224.013748
2860.444734	17454.005333	931.530273	10.944256
2860.444734	17454.005333	930.352539	70.843384
2860.444734	17454.005333	929.175781	458.106476
2860.444734	17454.005333	927.998047	146.111786
2860.444734	17454.005333	926.819336	300.821289
2860.444734	17454.005333	925.641602	114.143105
2860.444734	17454.005333	924.462891	133.509598
2860.444734	17454.005333	923.284180	158.887558
2860.444734	17454.005333	922.104492	69.169701
2860.444734	17454.005333	920.924805	72.320869
2860.444734	17454.005333	919.746094	72.938286
2860.444734	17454.005333	919.551758	186.553299
2860.444734	17454.005333	918.386719	22.168594
2860.444734	17454.005333	917.220703	154.385452
2860.444734	17454.005333	916.054688	24.337200
2860.444734	17454.005333	914.887695	170.592209
2860.444734	17454.005333	913.721680	137.343414
2860.444734	17454.005333	912.554688	118.208466
2860.444734	17454.005333	911.387695	-50.059158
2860.444734	17454.005333	910.220703	59.783230
2860.444734	17454.005333	909.052734	60.792221
2860.444734	17454.005333	907.885742	85.959648
2860.444734	17454.005333	906.717773	163.464081
2860.444734	17454.005333	905.548828	-38.907848
2860.444734	17454.005333	904.380859	-45.962158
2860.444734	17454.005333	903.211914	11.377146
2860.444734	17454.005333	902.042969	-21.853241
2860.444734	17454.005333	900.874023	208.442368
2860.444734	17454.005333	899.704102	181.208649
2860.444734	17454.005333	898.535156	-8.890619
2860.444734	17454.005333	897.365234	-116.491936
2860.444734	17454.005333	896.194336	85.478386
2860.444734	17454.005333	895.024414	-52.248516
2860.444734	17454.005333	893.853516	-69.374588
2860.444734	17454.005333	892.682617	40.052864
2860.444734	17454.005333	891.511719	34.960533
2860.444734	17454.005333	890.340820	-18.321081
2860.444734	17454.005333	889.168945	85.001762
2860.444734	17454.005333	887.997070	-98.730064
2860.444734	17454.005333	886.825195	-17.507391
2860.444734	17454.005333	885.653320	-40.643776
2860.444734	17454.005333	884.480469	22.481647
2860.444734	17454.005333	883.307617	41.462643
2860.444734	17454.005333	882.134766	30.361113
2860.444734	17454.005333	880.961914	-30.849436
2860.444734	17454.005333	879.788086	0.160346
2860.444734	17454.005333	878.614258	-83.056824
2860.444734	17454.005333	877.440430	-86.101669
2860.444734	17454.005333	876.266602	47.059345
2860.444734	17454.005333	875.091797	43.995304
2860.444734	17454.005333	873.916992	70.968361
2860.444734	17454.005333	872.742188	55.897774
2860.444734	17454.005333	871.567383	26.827805
2860.444734	17454.005333	870.391602	53.800171
2860.444734	17454.005333	869.215820	-71.272621
2860.444734	17454.005333	868.040039	39.723488
2860.444734	17454.005333	866.864258	38.696487
2860.444734	17454.005333	865.687500	-174.248917
2860.444734	17454.005333	864.510742	-85.270584
2860.444734	17454.005333	863.333984	-76.260841
2860.444734	17454.005333	862.157227	-123.194519
2860.444734	17454.005333	860.979492	-84.202782
2860.444734	17454.005333	859.802734	120.550652
2860.444734	17454.005333	858.625000	31.693359
2860.444734	17454.005333	857.446289	-5.212896
2860.444734	17454.005333	856.268555	-26.128775
2860.444734	17454.005333	855.089844	-80.953049
2860.444734	17454.005333	853.911133	-87.862259
2860.444734	17454.005333	852.731445	26.922113
2860.444734	17454.005333	851.552734	73.858261
2860.444734	17454.005333	850.373047	9.122142
2860.444734	17454.005333	849.193359	-1.752389
2860.444734	17454.005333	848.013672	152.816849
2860.444734	17454.005333	846.833008	-31.432148
2860.444734	17454.005333	845.652344	59.343979
2860.444734	17454.005333	844.471680	-90.929337
2860.444734	17454.005333	843.291016	-105.709007
2860.444734	17454.005333	842.110352	64.698921
2860.444734	17454.005333	840.928711	65.838593
2860.444734	17454.005333	839.747070	-18.594175
2860.444734	17454.005333	838.564453	155.700623
2860.444734	17454.005333	837.382813	125.019257
2860.444734	17454.005333	836.200195	-90.620911
2860.444734	17454.005333	835.017578	-29.740904
2860.444734	17454.005333	833.834961	-94.134125
2860.444734	17454.005333	832.651367	-80.964951
2860.444734	17454.005333	831.467773	-53.879456
2860.444734	17454.005333	830.284180	8.971513
2860.444734	17454.005333	829.100586	155.243729
2860.444734	17454.005333	827.916992	67.096390
2860.444734	17454.005333	826.732422	-40.861443
2860.444734	17454.005333	825.547852	55.728462
2860.444734	17454.005333	824.363281	-163.319458
2860.444734	17454.005333	823.177734	48.381214
2860.444734	17454.005333	821.992188	-33.647774
2860.444734	17454.005333	820.806641	-83.893280
2860.444734	17454.005333	819.621094	-241.206924
2860.444734	17454.005333	818.434570	-77.213020
2860.444734	17454.005333	817.249023	-67.912125
2860.444734	17454.005333	816.062500	20.678610
2860.444734	17454.005333	814.875000	51.775429
2860.444734	17454.005333	813.688477	-6.289279
2860.444734	17454.005333	812.500977	24.819887
2860.444734	17454.005333	811.313477	-43.097157
2860.444734	17454.005333	810.125977	-9.994141
2860.444734	17454.005333	808.937500	92.392784
2860.444734	17454.005333	807.749023	26.512899
2860.444734	17454.005333	806.560547	166.466156
2860.444734	17454.005333	805.372070	130.291962
2860.444734	17454.005333	804.182617	13.044671
2860.444734	17454.005333	802.994141	56.038895
2860.444734	17454.005333	801.803711	116.819916
2860.444734	17454.005333	800.614258	58.977341
2860.444734	17454.005333	799.424805	-18.597086
2860.444734	17454.005333	798.234375	99.489388
2860.444734	17454.005333	797.043945	8.126325
2860.444734	17454.005333	795.852539	41.244072
2860.444734	17454.005333	794.662109	-42.154945
2860.444734	17454.005333	793.470703	44.280399
2860.444734	17454.005333	792.279297	83.312660
2860.444734	17454.005333	791.087891	-5.942196
2860.444734	17454.005333	789.895508	98.210800
2860.444734	17454.005333	788.703125	44.511715
2860.444734	17454.005333	787.510742	59.870907
2860.444734	17454.005333	786.318359	57.481949
2860.444734	17454.005333	785.125000	-23.757557
2860.444734	17454.005333	783.931641	-22.174503
2860.444734	17454.005333	782.738281	-61.970856
2860.444734	17454.005333	781.544922	83.455620
2860.444734	17454.005333	780.350586	-92.254333
2860.444734	17454.005333	779.156250	-126.089752
2860.444734	17454.005333	777.961914	-199.287308
2860.444734	17454.005333	776.767578	-57.875156
2860.444734	17454.005333	775.572266	38.214180
2860.444734	17454.005333	774.376953	29.974041
2860.444734	17454.005333	773.181641	31.575941
2860.444734	17454.005333	771.986328	23.344221
2860.444734	17454.005333	770.790039	276.669098
2860.444734	17454.005333	769.593750	-46.189503
2860.444734	17454.005333	768.397461	102.862732
2860.444734	17454.005333	767.201172	-92.078873
2860.444734	17454.005333	766.003906	1.904205
2860.444734	17454.005333	764.806641	196.037170
2860.444734	17454.005333	763.609375	264.386017
2860.444734	17454.005333	762.412109	240.411728
2860.444734	17454.005333	761.213867	51.530895
2860.444734	17454.005333	760.015625	-76.424400
2860.444734	17454.005333	758.817383	40.978531
2860.444734	17454.005333	757.618164	62.189892
2860.444734	17454.005333	756.419922	216.779617
2860.444734	17454.005333	755.220703	-20.945684
2860.444734	17454.005333	754.021484	68.882225
2860.444734	17454.005333	752.821289	-60.898796
2860.444734	17454.005333	751.621094	-25.989840
2860.444734	17454.005333	750.420898	-10.697533
2860.444734	17454.005333	749.220703	10.459586
2860.444734	17454.005333	748.020508	119.746178
2860.444734	17454.005333	746.819336	33.143131
2860.444734	17454.005333	745.618164	73.836548
2860.444734	17454.005333	744.416992	73.395767
2860.444734	17454.005333	743.214844	161.018921
2860.444734	17454.005333	742.012695	160.543015
2860.444734	17454.005333	740.810547	203.096436
2860.444734	17454.005333	739.608398	392.316406
2860.444734	17454.005333	738.406250	448.471436
2860.444734	17454.005333	737.203125	887.793762
2860.444734	17454.005333	736.000000	928.161987
2860.444734	17454.005333	734.795898	1161.975708
2860.444734	17454.005333	733.592773	1258.906738
2860.444734	17454.005333	732.388672	1318.667969
2860.444734	17454.005333	731.184570	1198.707397
2860.444734	17454.005333	729.979492	1033.872803
2860.444734	17454.005333	728.775391	779.286682
2860.444734	17454.005333	727.570313	827.328430
2860.444734	17454.005333	726.365234	647.015869
2860.444734	17454.005333	725.160156	517.488525
2860.444734	17454.005333	723.954102	620.122559
2860.444734	17454.005333	722.748047	375.558380
2860.444734	17454.005333	721.541992	417.698700
2860.444734	17454.005333	720.334961	221.977280
2860.444734	17454.005333	719.128906	112.073387
2860.444734	17454.005333	717.921875	101.573242
2860.444734	17454.005333	716.714844	168.983978
2860.444734	17454.005333	715.506836	113.636681
2860.444734	17454.005333	714.298828	153.711853
2860.444734	17454.005333	713.090820	34.098122
2860.444734	17454.005333	711.882813	-27.092255
2860.444734	17454.005333	710.674805	-45.465271
2860.444734	17454.005333	709.465820	66.509811
2860.444734	17454.005333	708.256836	69.475487
2860.444734	17454.005333	707.047852	91.864326
2860.444734	17454.005333	705.837891	153.108871
2860.444734	17454.005333	704.627930	27.669064
2860.444734	17454.005333	703.417969	-88.026428
2860.444734	17454.005333	702.208008	0.343185
2860.444734	17454.005333	700.998047	156.648956
2860.444734	17454.005333	699.787109	134.154892
2860.444734	17454.005333	698.576172	173.787338
2860.444734	17454.005333	697.364258	83.283882
2860.444734	17454.005333	696.153320	140.322617
2860.444734	17454.005333	694.941406	241.946075
2860.444734	17454.005333	693.729492	246.475281
2860.444734	17454.005333	692.516602	423.632568
2860.444734	17454.005333	691.304688	191.426819
2860.444734	17454.005333	690.091797	263.740723
2860.444734	17454.005333	688.878906	301.093170
2860.444734	17454.005333	687.665039	204.648300
2860.444734	17454.005333	686.451172	241.930420
2860.444734	17454.005333	685.237305	277.224731
2860.444734	17454.005333	684.023438	287.286621
2860.444734	17454.005333	682.809570	374.779266
2860.444734	17454.005333	681.594727	284.055634
2860.444734	17454.005333	680.379883	84.921936
2860.444734	17454.005333	679.165039	228.423676
2860.444734	17454.005333	677.949219	108.651108
2860.444734	17454.005333	676.733398	149.473038
2860.444734	17454.005333	675.517578	136.079468
2860.444734	17454.005333	674.301758	157.463211
2860.444734	17454.005333	673.084961	261.938995
2860.444734	17454.005333	671.869141	352.800446
2860.444734	17454.005333	670.651367	173.008667
2860.444734	17454.005333	669.434570	232.854248
2860.444734	17454.005333	668.216797	271.383484
2860.444734	17454.005333	667.000000	226.803329
2860.444734	17454.005333	665.781250	415.856842
2860.444734	17454.005333	664.563477	384.696747
2860.444734	17454.005333	663.344727	392.112396
2860.444734	17454.005333	662.125977	515.271851
2860.444734	17454.005333	660.907227	510.995117
2860.444734	17454.005333	659.688477	441.091003
2860.444734	17454.005333	658.468750	508.103516
2860.444734	17454.005333	657.249023	364.870850
2860.444734	17454.005333	656.029297	576.368347
2860.444734	17454.005333	654.808594	535.244385
2860.444734	17454.005333	653.587891	530.706543
2860.444734	17454.005333	652.367188	624.380432
2860.444734	17454.005333	651.146484	363.556488
2860.444734	17454.005333	649.924805	324.258453
2860.444734	17454.005333	648.704102	475.542114
2860.444734	17454.005333	647.482422	339.899658
2860.444734	17454.005333	646.259766	352.456238
2860.444734	17454.005333	645.037109	470.789307
2860.444734	17454.005333	643.815430	285.079041
2860.444734	17454.005333	642.591797	384.049622
2860.444734	17454.005333	641.369141	442.551788
2860.444734	17454.005333	640.145508	447.152039
2860.444734	17454.005333	638.921875	344.066315
2860.444734	17454.005333	637.698242	363.965363
2860.444734	17454.005333	636.474609	497.164581
2860.444734	17454.005333	635.250000	499.639679
2860.444734	17454.005333	634.025391	519.351379
2860.444734	17454.005333	632.800781	427.644318
2860.444734	17454.005333	631.575195	339.767120
2860.444734	17454.005333	630.349609	345.922821
2860.444734	17454.005333	629.124023	394.243256
2860.444734	17454.005333	627.898438	200.774445
2860.444734	17454.005333	626.671875	277.779938
2860.444734	17454.005333	625.445313	243.484039
2860.444734	17454.005333	624.218750	241.748123
2860.444734	17454.005333	622.992188	230.382385
2860.444734	17454.005333	621.764648	284.130829
2860.444734	17454.005333	620.537109	247.757935
2860.444734	17454.005333	619.309570	12.133522
2860.444734	17454.005333	618.081055	125.122612
2860.444734	17454.005333	616.852539	71.433212
2860.444734	17454.005333	615.624023	142.153427
2860.444734	17454.005333	614.395508	208.970505
2860.444734	17454.005333	613.166992	136.023834
2860.444734	17454.005333	611.937500	28.624672
2860.444734	17454.005333	610.708008	-17.566580
2860.444734	17454.005333	609.477539	-4.503358
2860.444734	17454.005333	608.248047	-64.141197
2860.444734	17454.005333	607.017578	-110.419006
2860.444734	17454.005333	605.787109	28.656355
2860.444734	17454.005333	604.555664	77.823273
2860.444734	17454.005333	603.325195	-119.500404
2860.444734	17454.005333	602.093750	-141.075073
2860.444734	17454.005333	600.861328	-23.292988
2860.444734	17454.005333	599.629883	-43.054420
2860.444734	17454.005333	598.397461	28.764366
2860.444734	17454.005333	597.165039	-96.040390
2860.444734	17454.005333	595.932617	29.096725
2860.444734	17454.005333	594.699219	102.637138
2860.444734	17454.005333	593.465820	-50.833710
2860.444734	17454.005333	592.232422	-0.266942
2860.444734	17454.005333	590.999023	132.207138
2860.444734	17454.005333	589.764648	3.484948
2860.444734	17454.005333	588.530273	69.133087
2860.444734	17454.005333	587.295898	100.425598
2860.444734	17454.005333	586.061523	150.714661
2860.444734	17454.005333	584.826172	67.648132
2860.444734	17454.005333	583.590820	-51.590031
2860.444734	17454.005333	582.355469	25.237173
2860.444734	17454.005333	581.119141	-33.116962
2860.444734	17454.005333	579.882813	-161.876053
2860.444734	17454.005333	578.646484	78.410309
2860.444734	17454.005333	577.410156	54.215538
2860.444734	17454.005333	576.172852	64.221611
2860.444734	17454.005333	574.935547	28.569317
2860.444734	17454.005333	573.698242	129.742844
2860.444734	17454.005333	572.460938	38.928547
2860.444734	17454.005333	571.222656	136.197052
2860.444734	17454.005333	569.984375	117.536461
2860.444734	17454.005333	568.746094	-64.450798
2860.444734	17454.005333	567.506836	102.940163
2860.444734	17454.005333	566.267578	91.810837
2860.444734	17454.005333	565.028320	29.424337
2860.444734	17454.005333	563.789063	-31.061697
2860.444734	17454.005333	562.548828	126.597168
2860.444734	17454.005333	561.309570	115.382103
2860.444734	17454.005333	560.068359	125.002098
2860.444734	17454.005333	558.828125	30.338449
2860.444734	17454.005333	557.586914	-58.620911
2860.444734	17454.005333	556.345703	-5.443191
2860.444734	17454.005333	555.104492	-37.556107
2860.444734	17454.005333	553.863281	-43.153969
2860.444734	17454.005333	552.621094	-73.384430
2860.444734	17454.005333	551.378906	9.979824
2860.444734	17454.005333	550.136719	25.153208
2860.444734	17454.005333	548.893555	38.412876
2860.444734	17454.005333	547.650391	165.179565
2860.444734	17454.005333	546.407227	-82.662865
2860.444734	17454.005333	545.164063	142.402298
2860.444734	17454.005333	543.919922	-22.151499
2860.444734	17454.005333	542.675781	83.690773
2860.444734	17454.005333	541.431641	93.090836
2860.444734	17454.005333	540.186523	59.018757
2860.444734	17454.005333	538.941406	17.401688
2860.444734	17454.005333	537.696289	55.130871
2860.444734	17454.005333	536.451172	66.405167
2860.444734	17454.005333	535.205078	96.551575
2860.444734	17454.005333	533.959961	-12.991708
2860.444734	17454.005333	532.712891	-18.696562
2860.444734	17454.005333	531.466797	-139.485855
2860.444734	17454.005333	530.219727	-94.219856
2860.444734	17454.005333	528.972656	-9.362024
2860.444734	17454.005333	527.725586	-192.284775
2860.444734	17454.005333	526.478516	7.568639
2860.444734	17454.005333	525.230469	18.866104
2860.444734	17454.005333	523.982422	75.393623
2860.444734	17454.005333	522.734375	133.792419
2860.444734	17454.005333	521.485352	109.299240
2860.444734	17454.005333	520.236328	-16.859051
2860.444734	17454.005333	518.987305	-33.749737
2860.444734	17454.005333	517.737305	-184.266449
2860.444734	17454.005333	516.488281	-97.574318
2860.444734	17454.005333	515.238281	21.081314
2860.444734	17454.005333	513.988281	-44.645557
2860.444734	17454.005333	512.737305	-119.730560
2860.444734	17454.005333	511.486328	-175.958725
2860.444734	17454.005333	510.235352	17.887735
2860.444734	17454.005333	508.984375	147.770218
2860.444734	17454.005333	507.732422	-62.499783
2860.444734	17454.005333	506.480469	-105.449631
2860.444734	17454.005333	505.228516	-67.588684
2860.444734	17454.005333	503.976563	-99.199257
2860.444734	17454.005333	502.723633	150.851898
2860.444734	17454.005333	501.470703	31.038223
2860.444734	17454.005333	500.217773	76.453781
2860.444734	17454.005333	498.963867	202.556534
2860.444734	17454.005333	497.709961	67.889595
2860.444734	17454.005333	496.456055	165.870651
2860.444734	17454.005333	495.202148	70.710335
2860.444734	17454.005333	493.947266	54.356823
2860.444734	17454.005333	492.692383	58.660599
2860.444734	17454.005333	491.437500	-75.668304
2860.444734	17454.005333	490.181641	24.274801
2860.444734	17454.005333	488.926758	13.702115
2860.444734	17454.005333	487.670898	184.814026
2860.444734	17454.005333	486.414063	105.005539
2860.444734	17454.005333	485.158203	23.398706
2860.444734	17454.005333	483.901367	-31.938374
2860.444734	17454.005333	482.644531	28.789505
2860.444734	17454.005333	481.386719	1.606529
2860.444734	17454.005333	480.128906	11.877074
2860.444734	17454.005333	478.871094	138.110489
2860.444734	17454.005333	477.613281	-42.258156
2860.444734	17454.005333	476.355469	123.256927
2860.444734	17454.005333	475.096680	230.808685
2860.444734	17454.005333	473.837891	157.135056
2860.444734	17454.005333	472.578125	16.287819
2860.444734	17454.005333	471.319336	116.435066
2860.444734	17454.005333	470.059570	154.962250
2860.444734	17454.005333	468.799805	96.446251
2860.444734	17454.005333	467.539063	232.073456
2860.444734	17454.005333	466.278320	326.629486
2860.444734	17454.005333	465.017578	396.929047
2860.444734	17454.005333	463.756836	452.311676
2860.444734	17454.005333	462.495117	464.815582
2860.444734	17454.005333	461.233398	501.580414
2860.444734	17454.005333	459.971680	197.288696
2860.444734	17454.005333	458.709961	290.056427
2860.444734	17454.005333	457.447266	248.676865
2860.444734	17454.005333	456.184570	164.502563
2860.444734	17454.005333	454.921875	143.703903
2860.444734	17454.005333	453.658203	68.945496
2860.444734	17454.005333	452.394531	128.259155
2860.444734	17454.005333	451.130859	57.300766
2860.444734	17454.005333	449.867188	42.208023
2860.444734	17454.005333	448.602539	142.465912
2860.444734	17454.005333	447.337891	108.792229
2860.444734	17454.005333	446.073242	91.879471
2860.444734	17454.005333	444.807617	91.712250
2860.444734	17454.005333	443.542969	85.977859
2860.444734	17454.005333	442.276367	-7.086347
2860.444734	17454.005333	441.010742	20.645784
2860.444734	17454.005333	439.744141	-3.642676
2860.444734	17454.005333	438.478516	3.643647
2860.444734	17454.005333	437.210938	-26.215536
2860.444734	17454.005333	435.944336	-22.662060
2860.444734	17454.005333	434.676758	99.640289
2860.444734	17454.005333	433.409180	129.102936
2860.444734	17454.005333	432.141602	-23.253223
2860.444734	17454.005333	430.873047	98.896912
2860.444734	17454.005333	429.604492	74.486252
2860.444734	17454.005333	428.335938	174.249496
2860.444734	17454.005333	427.067383	247.981216
2860.444734	17454.005333	425.797852	147.457809
2860.444734	17454.005333	424.528320	226.621277
2860.444734	17454.005333	423.258789	353.848602
2860.444734	17454.005333	421.988281	212.457397
2860.444734	17454.005333	420.717773	243.230972
2860.444734	17454.005333	419.447266	140.651108
2860.444734	17454.005333	418.175781	152.765106
2860.444734	17454.005333	416.905273	188.839905
2860.444734	17454.005333	415.633789	211.855591
2860.444734	17454.005333	414.362305	208.869492
2860.444734	17454.005333	413.089844	168.796265
2860.444734	17454.005333	411.817383	-13.710439
2860.444734	17454.005333	410.544922	114.221123
2860.444734	17454.005333	409.272461	66.433640
2860.444734	17454.005333	407.999023	14.829630
2860.444734	17454.005333	406.725586	-84.919426
2860.444734	17454.005333	405.452148	-88.764137
2860.444734	17454.005333	404.177734	-66.930618
2860.444734	17454.005333	402.903320	56.231079
2860.444734	17454.005333	401.628906	-97.641159
2860.444734	17454.005333	400.354492	6.643954
2860.444734	17454.005333	399.079102	-35.040409
2860.444734	17454.005333	397.803711	113.018501
2860.444734	17454.005333	396.528320	93.009575
2860.444734	17454.005333	395.251953	-142.900101
2860.444734	17454.005333	393.976563	-34.330620
2860.444734	17454.005333	392.700195	-66.105492
2860.444734	17454.005333	391.422852	-175.514359
2860.444734	17454.005333	390.145508	90.542740
2860.444734	17454.005333	388.869141	-39.690205
2860.444734	17454.005333	387.590820	10.216206
2860.444734	17454.005333	386.313477	22.968296
2860.444734	17454.005333	385.035156	-25.356554
2860.444734	17454.005333	383.756836	-72.177711
2860.444734	17454.005333	382.478516	36.989044
2860.444734	17454.005333	381.199219	-36.336555
2860.444734	17454.005333	379.919922	88.522858
2860.444734	17454.005333	378.640625	-16.854025
2860.444734	17454.005333	377.360352	72.166000
2860.444734	17454.005333	376.080078	-35.897808
2860.444734	17454.005333	374.799805	88.898613
2860.444734	17454.005333	373.519531	102.960800
2860.444734	17454.005333	372.238281	54.071518
2860.444734	17454.005333	370.957031	-32.038513
2860.444734	17454.005333	369.675781	-56.259125
2860.444734	17454.005333	368.394531	128.141434
2860.444734	17454.005333	367.112305	-42.195869
2860.444734	17454.005333	365.830078	-88.350288
2860.444734	17454.005333	364.546875	-78.283936
2860.444734	17454.005333	363.264648	228.131287
2860.444734	17454.005333	361.981445	-54.638103
2860.444734	17454.005333	360.698242	39.511482
2860.444734	17454.005333	359.414063	32.115131
2860.444734	17454.005333	358.129883	-181.177795
2860.444734	17454.005333	356.845703	77.324493
2860.444734	17454.005333	355.561523	133.515320
2860.444734	17454.005333	354.276367	-39.974361
2860.444734	17454.005333	352.991211	65.763527
2860.444734	17454.005333	351.706055	20.538948
2860.444734	17454.005333	350.420898	-62.160984
2860.444734	17454.005333	349.134766	-68.967850
2860.444734	17454.005333	347.848633	43.942474
2860.444734	17454.005333	346.561523	-32.511681
2860.444734	17454.005333	345.275391	85.624939
2860.444734	17454.005333	343.988281	178.872589
2860.444734	17454.005333	342.700195	-52.402321
2860.444734	17454.005333	341.413086	55.053078
2860.444734	17454.005333	340.125000	9.708048
2860.444734	17454.005333	338.836914	89.162567
2860.444734	17454.005333	337.548828	97.988655
2860.444734	17454.005333	336.259766	61.719917
2860.444734	17454.005333	334.970703	40.581718
2860.444734	17454.005333	333.681641	74.659378
2860.444734	17454.005333	332.391602	-118.832367
2860.444734	17454.005333	331.101563	-58.394230
2860.444734	17454.005333	329.811523	-4.912058
2860.444734	17454.005333	328.521484	-11.275450
2860.444734	17454.005333	327.230469	93.756737
2860.444734	17454.005333	325.939453	193.512833
2860.444734	17454.005333	324.648438	-43.533154
2860.444734	17454.005333	323.356445	49.221771
2860.444734	17454.005333	322.064453	85.596985
2860.444734	17454.005333	320.772461	103.805984
2860.444734	17454.005333	319.480469	-18.109524
2860.444734	17454.005333	318.187500	23.680666
2860.444734	17454.005333	316.894531	-71.065155
2860.444734	17454.005333	315.601563	-105.904861
2860.444734	17454.005333	314.307617	-28.250013
2860.444734	17454.005333	313.013672	-67.219002
2860.444734	17454.005333	311.719727	-50.140324
2860.444734	17454.005333	310.425781	22.895798
2860.444734	17454.005333	309.130859	-13.566959
2860.444734	17454.005333	307.835938	16.707542
2860.444734	17454.005333	306.541016	44.619011
2860.444734	17454.005333	305.245117	-64.290619
2860.444734	17454.005333	303.949219	165.593460
2860.444734	17454.005333	302.653320	8.150983
2860.444734	17454.005333	301.356445	-128.300110
2860.444734	17454.005333	300.060547	1.156929
2860.444734	17454.005333	298.763672	154.965424
