#X		#Y		#Wave		#Intensity
2781.337713	17366.189333	2000.043945	8.970818
2781.337713	17366.189333	1999.080078	-9.759540
2781.337713	17366.189333	1998.116211	-47.038731
2781.337713	17366.189333	1997.151367	-39.821903
2781.337713	17366.189333	1996.186523	-109.544846
2781.337713	17366.189333	1995.222656	33.669163
2781.337713	17366.189333	1994.256836	90.030029
2781.337713	17366.189333	1993.291992	64.524918
2781.337713	17366.189333	1992.327148	29.006403
2781.337713	17366.189333	1991.361328	-46.216923
2781.337713	17366.189333	1990.395508	-49.754047
2781.337713	17366.189333	1989.429688	52.999790
2781.337713	17366.189333	1988.463867	66.540443
2781.337713	17366.189333	1987.497070	15.659369
2781.337713	17366.189333	1986.531250	46.298611
2781.337713	17366.189333	1985.564453	24.901525
2781.337713	17366.189333	1984.597656	67.686317
2781.337713	17366.189333	1983.630859	-55.250702
2781.337713	17366.189333	1982.664063	66.414787
2781.337713	17366.189333	1981.696289	121.231277
2781.337713	17366.189333	1980.728516	5.478815
2781.337713	17366.189333	1979.761719	15.637027
2781.337713	17366.189333	1978.792969	20.769548
2781.337713	17366.189333	1977.825195	134.442123
2781.337713	17366.189333	1976.857422	-38.362034
2781.337713	17366.189333	1975.888672	-48.291882
2781.337713	17366.189333	1974.919922	129.236267
2781.337713	17366.189333	1973.951172	-14.112178
2781.337713	17366.189333	1972.982422	-46.486294
2781.337713	17366.189333	1972.013672	14.790507
2781.337713	17366.189333	1971.043945	80.902222
2781.337713	17366.189333	1970.075195	-87.292778
2781.337713	17366.189333	1969.105469	47.681492
2781.337713	17366.189333	1968.135742	64.243103
2781.337713	17366.189333	1967.165039	33.916496
2781.337713	17366.189333	1966.195313	-40.812016
2781.337713	17366.189333	1965.224609	74.075348
2781.337713	17366.189333	1964.253906	38.638481
2781.337713	17366.189333	1963.283203	111.483932
2781.337713	17366.189333	1962.312500	11.924296
2781.337713	17366.189333	1961.341797	13.250154
2781.337713	17366.189333	1960.370117	-15.009786
2781.337713	17366.189333	1959.399414	-72.843071
2781.337713	17366.189333	1958.427734	120.192818
2781.337713	17366.189333	1957.455078	-1.694310
2781.337713	17366.189333	1956.483398	-10.482440
2781.337713	17366.189333	1955.511719	12.640597
2781.337713	17366.189333	1954.539063	79.949623
2781.337713	17366.189333	1953.566406	161.929764
2781.337713	17366.189333	1952.593750	57.093090
2781.337713	17366.189333	1951.621094	-23.185558
2781.337713	17366.189333	1950.647461	-49.442665
2781.337713	17366.189333	1949.674805	-137.128815
2781.337713	17366.189333	1948.701172	94.357925
2781.337713	17366.189333	1947.727539	126.878822
2781.337713	17366.189333	1946.753906	105.351082
2781.337713	17366.189333	1945.780273	73.975601
2781.337713	17366.189333	1944.805664	-109.536919
2781.337713	17366.189333	1943.831055	128.891174
2781.337713	17366.189333	1942.856445	97.417755
2781.337713	17366.189333	1941.881836	-10.092322
2781.337713	17366.189333	1940.907227	-46.501247
2781.337713	17366.189333	1939.932617	-92.733742
2781.337713	17366.189333	1938.957031	52.173012
2781.337713	17366.189333	1937.981445	-1.474228
2781.337713	17366.189333	1937.005859	35.510117
2781.337713	17366.189333	1936.030273	45.508862
2781.337713	17366.189333	1935.054688	33.435574
2781.337713	17366.189333	1934.078125	-25.178818
2781.337713	17366.189333	1933.101563	-51.974754
2781.337713	17366.189333	1932.125000	19.113131
2781.337713	17366.189333	1931.148438	143.984161
2781.337713	17366.189333	1930.171875	33.913624
2781.337713	17366.189333	1929.194336	212.504013
2781.337713	17366.189333	1928.217773	31.491825
2781.337713	17366.189333	1927.240234	-63.891033
2781.337713	17366.189333	1926.262695	151.224823
2781.337713	17366.189333	1925.284180	50.927067
2781.337713	17366.189333	1924.306641	-37.134605
2781.337713	17366.189333	1923.328125	58.073235
2781.337713	17366.189333	1922.350586	119.025993
2781.337713	17366.189333	1921.372070	197.036789
2781.337713	17366.189333	1920.392578	-79.089554
2781.337713	17366.189333	1919.414063	33.079479
2781.337713	17366.189333	1918.434570	13.371976
2781.337713	17366.189333	1917.456055	10.741452
2781.337713	17366.189333	1916.476563	34.941212
2781.337713	17366.189333	1915.497070	78.636536
2781.337713	17366.189333	1914.516602	210.117889
2781.337713	17366.189333	1913.537109	-9.653834
2781.337713	17366.189333	1912.556641	121.771263
2781.337713	17366.189333	1911.576172	184.874878
2781.337713	17366.189333	1910.595703	1.760551
2781.337713	17366.189333	1909.615234	64.842888
2781.337713	17366.189333	1908.633789	47.486412
2781.337713	17366.189333	1907.653320	217.706238
2781.337713	17366.189333	1906.671875	195.439362
2781.337713	17366.189333	1905.690430	136.644989
2781.337713	17366.189333	1904.708984	16.996420
2781.337713	17366.189333	1903.727539	26.401796
2781.337713	17366.189333	1902.745117	-3.142648
2781.337713	17366.189333	1901.762695	203.353989
2781.337713	17366.189333	1900.780273	35.098656
2781.337713	17366.189333	1899.797852	102.849037
2781.337713	17366.189333	1898.815430	143.817429
2781.337713	17366.189333	1897.832031	-72.978569
2781.337713	17366.189333	1896.849609	-68.468658
2781.337713	17366.189333	1895.866211	40.553410
2781.337713	17366.189333	1894.882813	-44.883919
2781.337713	17366.189333	1893.898438	161.275482
2781.337713	17366.189333	1892.915039	36.972488
2781.337713	17366.189333	1891.930664	136.164734
2781.337713	17366.189333	1890.947266	96.899994
2781.337713	17366.189333	1889.962891	11.517231
2781.337713	17366.189333	1888.977539	45.110420
2781.337713	17366.189333	1887.993164	22.867464
2781.337713	17366.189333	1887.007813	90.413879
2781.337713	17366.189333	1886.023438	36.627510
2781.337713	17366.189333	1885.038086	-12.288046
2781.337713	17366.189333	1884.051758	28.546299
2781.337713	17366.189333	1883.066406	-78.545357
2781.337713	17366.189333	1882.081055	10.768827
2781.337713	17366.189333	1881.094727	46.724983
2781.337713	17366.189333	1880.108398	-19.114393
2781.337713	17366.189333	1879.122070	-53.431801
2781.337713	17366.189333	1878.135742	-95.003975
2781.337713	17366.189333	1877.148438	-13.038188
2781.337713	17366.189333	1876.162109	37.416054
2781.337713	17366.189333	1875.174805	148.379623
2781.337713	17366.189333	1874.187500	164.895920
2781.337713	17366.189333	1873.199219	14.412891
2781.337713	17366.189333	1872.211914	-17.446630
2781.337713	17366.189333	1871.223633	71.671196
2781.337713	17366.189333	1870.236328	-40.008774
2781.337713	17366.189333	1869.248047	-13.797756
2781.337713	17366.189333	1868.258789	31.747143
2781.337713	17366.189333	1867.270508	9.585613
2781.337713	17366.189333	1866.282227	-31.904272
2781.337713	17366.189333	1865.292969	64.367470
2781.337713	17366.189333	1864.303711	10.803509
2781.337713	17366.189333	1863.314453	44.224140
2781.337713	17366.189333	1862.324219	7.591391
2781.337713	17366.189333	1861.334961	-108.714691
2781.337713	17366.189333	1860.344727	-72.875511
2781.337713	17366.189333	1859.354492	-15.325342
2781.337713	17366.189333	1858.364258	13.242394
2781.337713	17366.189333	1857.374023	-25.763191
2781.337713	17366.189333	1856.383789	-14.091683
2781.337713	17366.189333	1855.392578	106.116837
2781.337713	17366.189333	1854.401367	6.826014
2781.337713	17366.189333	1853.410156	-17.682518
2781.337713	17366.189333	1852.418945	87.993484
2781.337713	17366.189333	1851.426758	80.349167
2781.337713	17366.189333	1850.435547	96.804062
2781.337713	17366.189333	1849.443359	57.838310
2781.337713	17366.189333	1848.451172	64.654755
2781.337713	17366.189333	1847.458984	117.226913
2781.337713	17366.189333	1846.466797	131.250427
2781.337713	17366.189333	1845.473633	-109.927521
2781.337713	17366.189333	1844.480469	41.333382
2781.337713	17366.189333	1843.487305	24.073034
2781.337713	17366.189333	1842.494141	129.531021
2781.337713	17366.189333	1841.500977	-65.764519
2781.337713	17366.189333	1840.506836	-15.653457
2781.337713	17366.189333	1839.513672	92.150391
2781.337713	17366.189333	1838.519531	-28.500362
2781.337713	17366.189333	1837.525391	31.182539
2781.337713	17366.189333	1836.530273	-77.399612
2781.337713	17366.189333	1835.536133	35.129230
2781.337713	17366.189333	1834.541016	22.681683
2781.337713	17366.189333	1833.545898	-8.981338
2781.337713	17366.189333	1832.550781	-28.628103
2781.337713	17366.189333	1831.555664	-14.655308
2781.337713	17366.189333	1830.560547	49.722965
2781.337713	17366.189333	1829.564453	34.864010
2781.337713	17366.189333	1828.568359	39.205006
2781.337713	17366.189333	1827.572266	127.516243
2781.337713	17366.189333	1826.576172	43.068481
2781.337713	17366.189333	1825.580078	196.093430
2781.337713	17366.189333	1824.583008	-1.052645
2781.337713	17366.189333	1823.585938	-25.506275
2781.337713	17366.189333	1822.588867	91.471550
2781.337713	17366.189333	1821.591797	83.773666
2781.337713	17366.189333	1820.594727	54.505775
2781.337713	17366.189333	1819.596680	-46.629215
2781.337713	17366.189333	1818.599609	-32.760033
2781.337713	17366.189333	1817.601563	117.602379
2781.337713	17366.189333	1816.603516	119.448952
2781.337713	17366.189333	1815.604492	99.741821
2781.337713	17366.189333	1814.606445	8.228774
2781.337713	17366.189333	1813.607422	132.115112
2781.337713	17366.189333	1812.608398	-26.378237
2781.337713	17366.189333	1811.609375	-3.019113
2781.337713	17366.189333	1810.610352	72.938805
2781.337713	17366.189333	1809.610352	12.559154
2781.337713	17366.189333	1808.611328	98.029274
2781.337713	17366.189333	1807.611328	128.479630
2781.337713	17366.189333	1806.611328	151.739120
2781.337713	17366.189333	1805.610352	2.941172
2781.337713	17366.189333	1804.610352	85.917709
2781.337713	17366.189333	1803.609375	56.591610
2781.337713	17366.189333	1802.608398	137.116501
2781.337713	17366.189333	1801.607422	7.489188
2781.337713	17366.189333	1800.606445	181.068268
2781.337713	17366.189333	1799.605469	51.457008
2781.337713	17366.189333	1798.603516	88.921059
2781.337713	17366.189333	1797.601563	188.388031
2781.337713	17366.189333	1796.599609	135.142319
2781.337713	17366.189333	1795.597656	155.835022
2781.337713	17366.189333	1794.595703	147.892609
2781.337713	17366.189333	1793.592773	-26.940294
2781.337713	17366.189333	1792.589844	67.619446
2781.337713	17366.189333	1791.587891	23.909218
2781.337713	17366.189333	1790.583984	218.465073
2781.337713	17366.189333	1789.581055	-115.914619
2781.337713	17366.189333	1788.577148	-152.465561
2781.337713	17366.189333	1787.574219	1.484933
2781.337713	17366.189333	1786.570313	-4.155337
2781.337713	17366.189333	1785.566406	71.123924
2781.337713	17366.189333	1784.561523	-63.076370
2781.337713	17366.189333	1783.557617	-37.817760
2781.337713	17366.189333	1782.552734	18.342081
2781.337713	17366.189333	1781.547852	64.949165
2781.337713	17366.189333	1780.542969	85.361145
2781.337713	17366.189333	1779.538086	105.747177
2781.337713	17366.189333	1778.532227	-92.597557
2781.337713	17366.189333	1777.527344	-65.091339
2781.337713	17366.189333	1776.521484	0.406213
2781.337713	17366.189333	1775.515625	68.236137
2781.337713	17366.189333	1774.508789	278.546570
2781.337713	17366.189333	1773.502930	1.887637
2781.337713	17366.189333	1772.496094	114.736015
2781.337713	17366.189333	1771.489258	32.846878
2781.337713	17366.189333	1770.482422	-15.800520
2781.337713	17366.189333	1769.475586	39.969845
2781.337713	17366.189333	1768.467773	-44.293121
2781.337713	17366.189333	1767.460938	203.572769
2781.337713	17366.189333	1766.453125	31.511267
2781.337713	17366.189333	1765.445313	72.916832
2781.337713	17366.189333	1764.437500	-4.261553
2781.337713	17366.189333	1763.428711	188.800323
2781.337713	17366.189333	1762.420898	142.394760
2781.337713	17366.189333	1761.412109	100.723587
2781.337713	17366.189333	1760.403320	47.199959
2781.337713	17366.189333	1759.393555	126.317917
2781.337713	17366.189333	1758.384766	53.817204
2781.337713	17366.189333	1757.375000	121.018158
2781.337713	17366.189333	1756.366211	126.620575
2781.337713	17366.189333	1755.356445	49.355835
2781.337713	17366.189333	1754.345703	-1.873498
2781.337713	17366.189333	1753.335938	-15.252245
2781.337713	17366.189333	1752.325195	9.197427
2781.337713	17366.189333	1751.315430	-42.068577
2781.337713	17366.189333	1750.304688	36.712650
2781.337713	17366.189333	1749.292969	-94.971855
2781.337713	17366.189333	1748.282227	52.286129
2781.337713	17366.189333	1747.270508	19.854826
2781.337713	17366.189333	1746.259766	22.852026
2781.337713	17366.189333	1745.248047	139.214722
2781.337713	17366.189333	1744.235352	90.172653
2781.337713	17366.189333	1743.223633	211.148438
2781.337713	17366.189333	1742.211914	145.531860
2781.337713	17366.189333	1741.199219	65.749710
2781.337713	17366.189333	1740.186523	-56.510921
2781.337713	17366.189333	1739.173828	69.011543
2781.337713	17366.189333	1738.160156	-230.198563
2781.337713	17366.189333	1737.147461	-62.288586
2781.337713	17366.189333	1736.133789	91.379211
2781.337713	17366.189333	1735.120117	37.470108
2781.337713	17366.189333	1734.106445	195.718842
2781.337713	17366.189333	1733.091797	134.682388
2781.337713	17366.189333	1732.078125	31.224426
2781.337713	17366.189333	1731.063477	-3.897439
2781.337713	17366.189333	1730.048828	95.234184
2781.337713	17366.189333	1729.034180	85.962936
2781.337713	17366.189333	1728.019531	-15.166853
2781.337713	17366.189333	1727.003906	-12.701373
2781.337713	17366.189333	1725.988281	22.687046
2781.337713	17366.189333	1724.972656	-94.934303
2781.337713	17366.189333	1723.957031	1.573638
2781.337713	17366.189333	1722.941406	48.613628
2781.337713	17366.189333	1721.924805	184.981155
2781.337713	17366.189333	1720.909180	72.003914
2781.337713	17366.189333	1719.892578	104.807129
2781.337713	17366.189333	1718.875977	132.866653
2781.337713	17366.189333	1717.858398	97.429039
2781.337713	17366.189333	1716.841797	-6.166534
2781.337713	17366.189333	1715.824219	0.663445
2781.337713	17366.189333	1714.806641	35.646416
2781.337713	17366.189333	1713.789063	-30.394920
2781.337713	17366.189333	1712.770508	-70.614975
2781.337713	17366.189333	1711.752930	114.510757
2781.337713	17366.189333	1710.734375	158.711548
2781.337713	17366.189333	1709.715820	40.948872
2781.337713	17366.189333	1708.697266	190.662659
2781.337713	17366.189333	1707.678711	260.534027
2781.337713	17366.189333	1706.659180	119.274643
2781.337713	17366.189333	1705.640625	8.522655
2781.337713	17366.189333	1704.621094	143.937683
2781.337713	17366.189333	1703.600586	143.322388
2781.337713	17366.189333	1702.581055	166.112473
2781.337713	17366.189333	1701.561523	113.887703
2781.337713	17366.189333	1700.541016	256.081787
2781.337713	17366.189333	1699.520508	213.164780
2781.337713	17366.189333	1698.500000	205.358429
2781.337713	17366.189333	1697.478516	209.228668
2781.337713	17366.189333	1696.458008	184.979599
2781.337713	17366.189333	1695.436523	275.382233
2781.337713	17366.189333	1694.415039	227.667557
2781.337713	17366.189333	1693.393555	238.426437
2781.337713	17366.189333	1692.372070	157.930923
2781.337713	17366.189333	1691.349609	294.915253
2781.337713	17366.189333	1690.327148	286.856659
2781.337713	17366.189333	1689.304688	264.744934
2781.337713	17366.189333	1688.282227	256.634399
2781.337713	17366.189333	1687.259766	290.557312
2781.337713	17366.189333	1686.236328	247.338135
2781.337713	17366.189333	1685.213867	257.831116
2781.337713	17366.189333	1684.190430	378.049805
2781.337713	17366.189333	1683.166016	290.382416
2781.337713	17366.189333	1682.142578	342.789276
2781.337713	17366.189333	1681.119141	283.113403
2781.337713	17366.189333	1680.094727	323.770905
2781.337713	17366.189333	1679.070313	334.052856
2781.337713	17366.189333	1678.045898	425.944244
2781.337713	17366.189333	1677.020508	368.506622
2781.337713	17366.189333	1675.996094	367.026367
2781.337713	17366.189333	1674.970703	311.895081
2781.337713	17366.189333	1673.945313	520.142700
2781.337713	17366.189333	1672.919922	532.526245
2781.337713	17366.189333	1671.893555	435.365417
2781.337713	17366.189333	1670.868164	464.009460
2781.337713	17366.189333	1669.841797	541.521545
2781.337713	17366.189333	1668.815430	442.000153
2781.337713	17366.189333	1667.789063	542.710571
2781.337713	17366.189333	1666.761719	431.529144
2781.337713	17366.189333	1665.735352	604.292114
2781.337713	17366.189333	1664.708008	521.007263
2781.337713	17366.189333	1663.680664	593.593567
2781.337713	17366.189333	1662.653320	519.590759
2781.337713	17366.189333	1661.625000	636.274902
2781.337713	17366.189333	1660.597656	766.840027
2781.337713	17366.189333	1659.569336	692.761841
2781.337713	17366.189333	1658.541016	792.994263
2781.337713	17366.189333	1657.512695	746.770325
2781.337713	17366.189333	1656.483398	865.482727
2781.337713	17366.189333	1655.455078	775.076721
2781.337713	17366.189333	1654.425781	835.626953
2781.337713	17366.189333	1653.396484	926.312500
2781.337713	17366.189333	1652.366211	965.862427
2781.337713	17366.189333	1651.336914	989.127808
2781.337713	17366.189333	1650.306641	945.060242
2781.337713	17366.189333	1649.276367	919.544861
2781.337713	17366.189333	1648.246094	1014.635620
2781.337713	17366.189333	1647.215820	1146.771362
2781.337713	17366.189333	1646.185547	1046.958496
2781.337713	17366.189333	1645.154297	898.472412
2781.337713	17366.189333	1644.123047	1014.252625
2781.337713	17366.189333	1643.091797	1099.838989
2781.337713	17366.189333	1642.060547	1217.805054
2781.337713	17366.189333	1641.028320	1298.635376
2781.337713	17366.189333	1639.997070	1302.984985
2781.337713	17366.189333	1638.964844	1397.614990
2781.337713	17366.189333	1637.931641	1429.673462
2781.337713	17366.189333	1636.899414	1484.847900
2781.337713	17366.189333	1635.867188	1489.065186
2781.337713	17366.189333	1634.833984	1479.372925
2781.337713	17366.189333	1633.800781	1610.776855
2781.337713	17366.189333	1632.767578	1455.309570
2781.337713	17366.189333	1631.734375	1591.250000
2781.337713	17366.189333	1630.700195	1678.561890
2781.337713	17366.189333	1629.666016	1788.934937
2781.337713	17366.189333	1628.631836	1617.291016
2781.337713	17366.189333	1627.597656	1766.874023
2781.337713	17366.189333	1626.563477	1796.249634
2781.337713	17366.189333	1625.528320	1753.988403
2781.337713	17366.189333	1624.493164	1804.097046
2781.337713	17366.189333	1623.458008	1614.046753
2781.337713	17366.189333	1622.422852	1539.472412
2781.337713	17366.189333	1621.387695	1541.071899
2781.337713	17366.189333	1620.351563	1549.572510
2781.337713	17366.189333	1619.315430	1659.562988
2781.337713	17366.189333	1618.279297	1591.884399
2781.337713	17366.189333	1617.243164	1687.953979
2781.337713	17366.189333	1616.207031	1617.957886
2781.337713	17366.189333	1615.169922	1637.875366
2781.337713	17366.189333	1614.132813	1466.469482
2781.337713	17366.189333	1613.095703	1534.769775
2781.337713	17366.189333	1612.058594	1524.695557
2781.337713	17366.189333	1611.020508	1544.551514
2781.337713	17366.189333	1609.983398	1506.814453
2781.337713	17366.189333	1608.945313	1494.403320
2781.337713	17366.189333	1607.907227	1700.685059
2781.337713	17366.189333	1606.868164	1580.031738
2781.337713	17366.189333	1605.830078	1319.041748
2781.337713	17366.189333	1604.791016	1527.496216
2781.337713	17366.189333	1603.751953	1588.636475
2781.337713	17366.189333	1602.712891	1359.956299
2781.337713	17366.189333	1601.673828	1372.795044
2781.337713	17366.189333	1600.633789	1408.603760
2781.337713	17366.189333	1599.594727	1483.467407
2781.337713	17366.189333	1598.554688	1199.786621
2781.337713	17366.189333	1597.513672	1194.217041
2781.337713	17366.189333	1596.473633	1089.865234
2781.337713	17366.189333	1595.433594	1137.130859
2781.337713	17366.189333	1594.392578	1037.402466
2781.337713	17366.189333	1593.351563	1086.935547
2781.337713	17366.189333	1592.310547	1099.715088
2781.337713	17366.189333	1591.268555	1041.335327
2781.337713	17366.189333	1590.227539	950.852600
2781.337713	17366.189333	1589.185547	1110.446655
2781.337713	17366.189333	1588.143555	1136.943726
2781.337713	17366.189333	1587.100586	1106.091797
2781.337713	17366.189333	1586.058594	1336.619385
2781.337713	17366.189333	1585.015625	1452.435425
2781.337713	17366.189333	1583.972656	1435.276733
2781.337713	17366.189333	1582.929688	1484.570679
2781.337713	17366.189333	1581.886719	1641.514648
2781.337713	17366.189333	1580.843750	1562.476440
2781.337713	17366.189333	1579.799805	1613.993530
2781.337713	17366.189333	1578.755859	1502.929077
2781.337713	17366.189333	1577.711914	1504.073242
2781.337713	17366.189333	1576.666992	1397.644531
2781.337713	17366.189333	1575.623047	1231.766602
2781.337713	17366.189333	1574.578125	1555.532959
2781.337713	17366.189333	1573.533203	1526.924072
2781.337713	17366.189333	1572.488281	1498.327271
2781.337713	17366.189333	1571.443359	1405.722168
2781.337713	17366.189333	1570.397461	1345.154907
2781.337713	17366.189333	1569.351563	1412.602783
2781.337713	17366.189333	1568.305664	1358.916870
2781.337713	17366.189333	1567.259766	1417.201782
2781.337713	17366.189333	1566.213867	1308.721436
2781.337713	17366.189333	1565.166992	1287.065063
2781.337713	17366.189333	1564.120117	1329.353882
2781.337713	17366.189333	1563.073242	1257.487793
2781.337713	17366.189333	1562.026367	1165.113647
2781.337713	17366.189333	1560.978516	1120.698120
2781.337713	17366.189333	1559.930664	1085.431641
2781.337713	17366.189333	1558.883789	1205.300659
2781.337713	17366.189333	1557.834961	1215.652466
2781.337713	17366.189333	1556.787109	1212.330078
2781.337713	17366.189333	1555.739258	1188.499390
2781.337713	17366.189333	1554.690430	1189.754150
2781.337713	17366.189333	1553.641602	1026.942749
2781.337713	17366.189333	1552.592773	1028.245972
2781.337713	17366.189333	1551.542969	1063.723511
2781.337713	17366.189333	1550.494141	1044.541016
2781.337713	17366.189333	1549.444336	1114.176147
2781.337713	17366.189333	1548.394531	1220.219604
2781.337713	17366.189333	1547.344727	950.672974
2781.337713	17366.189333	1546.293945	949.769531
2781.337713	17366.189333	1545.244141	907.928528
2781.337713	17366.189333	1544.193359	879.760986
2781.337713	17366.189333	1543.142578	1149.554321
2781.337713	17366.189333	1542.090820	1132.742310
2781.337713	17366.189333	1541.040039	1002.283508
2781.337713	17366.189333	1539.988281	940.075623
2781.337713	17366.189333	1538.936523	1200.606812
2781.337713	17366.189333	1537.884766	1077.068359
2781.337713	17366.189333	1536.833008	1064.904663
2781.337713	17366.189333	1535.780273	1161.775024
2781.337713	17366.189333	1534.727539	1156.440308
2781.337713	17366.189333	1533.674805	976.312134
2781.337713	17366.189333	1532.622070	1202.574585
2781.337713	17366.189333	1531.569336	1170.054810
2781.337713	17366.189333	1530.515625	1219.244629
2781.337713	17366.189333	1529.461914	1132.323364
2781.337713	17366.189333	1528.408203	1161.126587
2781.337713	17366.189333	1527.354492	1112.839600
2781.337713	17366.189333	1526.299805	1214.220215
2781.337713	17366.189333	1525.246094	1039.046631
2781.337713	17366.189333	1524.191406	1101.917114
2781.337713	17366.189333	1523.136719	1080.949097
2781.337713	17366.189333	1522.081055	994.312500
2781.337713	17366.189333	1521.026367	1113.842773
2781.337713	17366.189333	1519.970703	1065.774658
2781.337713	17366.189333	1518.915039	931.715515
2781.337713	17366.189333	1517.859375	1067.098389
2781.337713	17366.189333	1516.802734	921.821350
2781.337713	17366.189333	1515.747070	1034.573853
2781.337713	17366.189333	1514.690430	1031.929932
2781.337713	17366.189333	1513.633789	1063.239502
2781.337713	17366.189333	1512.577148	979.233765
2781.337713	17366.189333	1511.519531	972.154297
2781.337713	17366.189333	1510.461914	1089.428467
2781.337713	17366.189333	1509.405273	845.088013
2781.337713	17366.189333	1508.346680	838.117249
2781.337713	17366.189333	1507.289063	849.252930
2781.337713	17366.189333	1506.231445	713.600220
2781.337713	17366.189333	1505.172852	783.522766
2781.337713	17366.189333	1504.114258	550.908691
2781.337713	17366.189333	1503.055664	765.361450
2781.337713	17366.189333	1501.996094	593.834167
2781.337713	17366.189333	1500.937500	402.100433
2781.337713	17366.189333	1499.877930	688.733643
2781.337713	17366.189333	1498.818359	483.583160
2781.337713	17366.189333	1497.757813	693.473755
2781.337713	17366.189333	1496.698242	673.344971
2781.337713	17366.189333	1495.637695	484.191132
2781.337713	17366.189333	1494.577148	518.263428
2781.337713	17366.189333	1493.516602	482.503693
2781.337713	17366.189333	1492.456055	347.667053
2781.337713	17366.189333	1491.394531	350.309967
2781.337713	17366.189333	1490.333008	265.160950
2781.337713	17366.189333	1489.271484	400.725281
2781.337713	17366.189333	1488.209961	320.171204
2781.337713	17366.189333	1487.148438	363.466888
2781.337713	17366.189333	1486.085938	292.020874
2781.337713	17366.189333	1485.023438	173.396530
2781.337713	17366.189333	1483.960938	360.751923
2781.337713	17366.189333	1482.898438	244.482346
2781.337713	17366.189333	1481.834961	326.148895
2781.337713	17366.189333	1480.772461	214.502991
2781.337713	17366.189333	1479.708984	365.878387
2781.337713	17366.189333	1478.644531	335.228607
2781.337713	17366.189333	1477.581055	363.063202
2781.337713	17366.189333	1476.517578	368.495026
2781.337713	17366.189333	1475.453125	355.988190
2781.337713	17366.189333	1474.388672	395.134888
2781.337713	17366.189333	1473.323242	559.978455
2781.337713	17366.189333	1472.258789	605.926880
2781.337713	17366.189333	1471.193359	579.984436
2781.337713	17366.189333	1470.127930	686.563477
2781.337713	17366.189333	1469.062500	445.548065
2781.337713	17366.189333	1467.997070	451.112854
2781.337713	17366.189333	1466.930664	329.204620
2781.337713	17366.189333	1465.865234	511.885193
2781.337713	17366.189333	1464.798828	627.409729
2781.337713	17366.189333	1463.731445	355.413940
2781.337713	17366.189333	1462.665039	493.247925
2781.337713	17366.189333	1461.597656	555.006958
2781.337713	17366.189333	1460.530273	565.316406
2781.337713	17366.189333	1459.462891	468.722443
2781.337713	17366.189333	1458.395508	443.072937
2781.337713	17366.189333	1457.327148	520.327759
2781.337713	17366.189333	1456.259766	658.501038
2781.337713	17366.189333	1455.191406	506.270599
2781.337713	17366.189333	1454.123047	543.596497
2781.337713	17366.189333	1453.053711	509.784363
2781.337713	17366.189333	1451.985352	669.636658
2781.337713	17366.189333	1450.916016	595.931580
2781.337713	17366.189333	1449.846680	604.774536
2781.337713	17366.189333	1448.776367	533.369202
2781.337713	17366.189333	1447.707031	530.702820
2781.337713	17366.189333	1446.636719	696.430786
2781.337713	17366.189333	1445.566406	638.771606
2781.337713	17366.189333	1444.496094	456.255737
2781.337713	17366.189333	1443.425781	545.280823
2781.337713	17366.189333	1442.354492	467.543549
2781.337713	17366.189333	1441.283203	414.272491
2781.337713	17366.189333	1440.211914	419.565948
2781.337713	17366.189333	1439.140625	454.953888
2781.337713	17366.189333	1438.069336	300.331940
2781.337713	17366.189333	1436.997070	360.954193
2781.337713	17366.189333	1435.924805	479.964417
2781.337713	17366.189333	1434.852539	333.817383
2781.337713	17366.189333	1433.780273	333.290588
2781.337713	17366.189333	1432.707031	287.458038
2781.337713	17366.189333	1431.633789	256.926758
2781.337713	17366.189333	1430.560547	236.232010
2781.337713	17366.189333	1429.487305	242.103439
2781.337713	17366.189333	1428.413086	243.109344
2781.337713	17366.189333	1427.339844	183.887436
2781.337713	17366.189333	1426.265625	244.961945
2781.337713	17366.189333	1425.191406	260.608551
2781.337713	17366.189333	1424.116211	-80.578407
2781.337713	17366.189333	1423.041992	47.284985
2781.337713	17366.189333	1421.966797	4.555346
2781.337713	17366.189333	1420.891602	202.374832
2781.337713	17366.189333	1419.816406	183.828491
2781.337713	17366.189333	1418.740234	-10.602870
2781.337713	17366.189333	1417.665039	131.343048
2781.337713	17366.189333	1416.588867	-2.654901
2781.337713	17366.189333	1415.512695	-20.931381
2781.337713	17366.189333	1414.435547	-59.098190
2781.337713	17366.189333	1413.359375	63.469372
2781.337713	17366.189333	1412.282227	57.464191
2781.337713	17366.189333	1411.205078	303.594360
2781.337713	17366.189333	1410.127930	224.062561
2781.337713	17366.189333	1409.049805	277.119507
2781.337713	17366.189333	1407.972656	154.244888
2781.337713	17366.189333	1406.894531	207.625656
2781.337713	17366.189333	1405.816406	211.232864
2781.337713	17366.189333	1404.737305	274.431641
2781.337713	17366.189333	1403.659180	120.258400
2781.337713	17366.189333	1402.580078	205.502045
2781.337713	17366.189333	1401.500977	280.337006
2781.337713	17366.189333	1400.421875	268.655823
2781.337713	17366.189333	1399.341797	342.258484
2781.337713	17366.189333	1398.262695	272.722382
2781.337713	17366.189333	1397.182617	215.469162
2781.337713	17366.189333	1396.102539	187.841965
2781.337713	17366.189333	1395.021484	291.057892
2781.337713	17366.189333	1393.941406	179.393143
2781.337713	17366.189333	1392.860352	181.130615
2781.337713	17366.189333	1391.779297	82.382256
2781.337713	17366.189333	1390.698242	216.529846
2781.337713	17366.189333	1389.616211	261.635437
2781.337713	17366.189333	1388.535156	237.405884
2781.337713	17366.189333	1387.453125	292.209503
2781.337713	17366.189333	1386.371094	360.566162
2781.337713	17366.189333	1385.288086	190.661621
2781.337713	17366.189333	1384.206055	483.798523
2781.337713	17366.189333	1383.123047	270.407074
2781.337713	17366.189333	1382.040039	204.580688
2781.337713	17366.189333	1380.957031	354.874908
2781.337713	17366.189333	1379.873047	438.911743
2781.337713	17366.189333	1378.789063	262.286377
2781.337713	17366.189333	1377.705078	289.683777
2781.337713	17366.189333	1376.621094	245.915375
2781.337713	17366.189333	1375.537109	406.783295
2781.337713	17366.189333	1374.452148	365.488312
2781.337713	17366.189333	1373.367188	446.192322
2781.337713	17366.189333	1372.282227	442.236969
2781.337713	17366.189333	1371.197266	376.074768
2781.337713	17366.189333	1370.112305	369.305176
2781.337713	17366.189333	1369.026367	474.712250
2781.337713	17366.189333	1367.940430	372.393066
2781.337713	17366.189333	1366.854492	410.812866
2781.337713	17366.189333	1365.767578	441.036530
2781.337713	17366.189333	1364.681641	360.803436
2781.337713	17366.189333	1363.594727	576.264648
2781.337713	17366.189333	1362.507813	443.843628
2781.337713	17366.189333	1361.419922	458.679260
2781.337713	17366.189333	1360.333008	362.439178
2781.337713	17366.189333	1359.245117	338.333405
2781.337713	17366.189333	1358.157227	425.173401
2781.337713	17366.189333	1357.069336	402.872589
2781.337713	17366.189333	1355.981445	448.992279
2781.337713	17366.189333	1354.892578	631.362000
2781.337713	17366.189333	1353.803711	608.566895
2781.337713	17366.189333	1352.714844	538.010681
2781.337713	17366.189333	1351.625000	632.119568
2781.337713	17366.189333	1350.536133	469.085815
2781.337713	17366.189333	1349.446289	533.242737
2781.337713	17366.189333	1348.356445	478.954102
2781.337713	17366.189333	1347.266602	668.484863
2781.337713	17366.189333	1346.175781	457.188232
2781.337713	17366.189333	1345.085938	493.986450
2781.337713	17366.189333	1343.995117	486.225952
2781.337713	17366.189333	1342.903320	562.662903
2781.337713	17366.189333	1341.812500	545.801880
2781.337713	17366.189333	1340.720703	590.182861
2781.337713	17366.189333	1339.629883	575.145630
2781.337713	17366.189333	1338.538086	628.876343
2781.337713	17366.189333	1337.445313	460.648254
2781.337713	17366.189333	1336.353516	569.311646
2781.337713	17366.189333	1335.260742	514.188171
2781.337713	17366.189333	1334.167969	524.713318
2781.337713	17366.189333	1333.075195	647.639709
2781.337713	17366.189333	1331.981445	617.962158
2781.337713	17366.189333	1330.888672	777.760986
2781.337713	17366.189333	1329.794922	737.553589
2781.337713	17366.189333	1328.701172	713.059326
2781.337713	17366.189333	1327.606445	684.903076
2781.337713	17366.189333	1326.512695	553.000732
2781.337713	17366.189333	1325.417969	667.356812
2781.337713	17366.189333	1324.323242	631.931213
2781.337713	17366.189333	1323.227539	559.054565
2781.337713	17366.189333	1322.132813	650.941772
2781.337713	17366.189333	1321.037109	450.081909
2781.337713	17366.189333	1319.941406	543.162354
2781.337713	17366.189333	1318.845703	650.227722
2781.337713	17366.189333	1317.750000	654.591553
2781.337713	17366.189333	1316.653320	464.086700
2781.337713	17366.189333	1315.556641	440.597046
2781.337713	17366.189333	1314.459961	456.029480
2781.337713	17366.189333	1313.363281	393.159088
2781.337713	17366.189333	1312.265625	364.427551
2781.337713	17366.189333	1311.167969	538.559021
2781.337713	17366.189333	1310.070313	390.051758
2781.337713	17366.189333	1308.972656	566.408264
2781.337713	17366.189333	1307.874023	538.256897
2781.337713	17366.189333	1306.776367	507.374084
2781.337713	17366.189333	1305.677734	541.789856
2781.337713	17366.189333	1304.579102	523.745300
2781.337713	17366.189333	1303.479492	450.376221
2781.337713	17366.189333	1302.380859	535.868347
2781.337713	17366.189333	1301.281250	672.742737
2781.337713	17366.189333	1300.181641	788.752563
2781.337713	17366.189333	1299.081055	576.211853
2781.337713	17366.189333	1297.981445	710.297363
2781.337713	17366.189333	1296.880859	643.174500
2781.337713	17366.189333	1295.780273	638.413574
2781.337713	17366.189333	1294.679688	758.892517
2781.337713	17366.189333	1293.578125	627.378845
2781.337713	17366.189333	1292.476563	679.295288
2781.337713	17366.189333	1291.375000	724.694702
2781.337713	17366.189333	1290.273438	553.684021
2781.337713	17366.189333	1289.171875	413.301971
2781.337713	17366.189333	1288.069336	403.644226
2781.337713	17366.189333	1286.966797	545.042053
2781.337713	17366.189333	1285.864258	431.190857
2781.337713	17366.189333	1284.761719	331.770416
2781.337713	17366.189333	1283.658203	277.908234
2781.337713	17366.189333	1282.554688	365.502350
2781.337713	17366.189333	1281.451172	390.673004
2781.337713	17366.189333	1280.347656	212.704895
2781.337713	17366.189333	1279.244141	326.130341
2781.337713	17366.189333	1278.139648	380.472900
2781.337713	17366.189333	1277.035156	347.817108
2781.337713	17366.189333	1275.930664	297.891052
2781.337713	17366.189333	1274.825195	231.571854
2781.337713	17366.189333	1273.720703	353.669861
2781.337713	17366.189333	1272.615234	255.402725
2781.337713	17366.189333	1271.508789	293.619232
2781.337713	17366.189333	1270.403320	317.317535
2781.337713	17366.189333	1269.297852	257.262482
2781.337713	17366.189333	1268.191406	279.667358
2781.337713	17366.189333	1267.084961	259.773682
2781.337713	17366.189333	1265.977539	237.974838
2781.337713	17366.189333	1264.871094	173.828842
2781.337713	17366.189333	1263.763672	247.338379
2781.337713	17366.189333	1262.656250	152.166260
2781.337713	17366.189333	1261.548828	114.651360
2781.337713	17366.189333	1260.440430	144.507553
2781.337713	17366.189333	1259.333008	168.315567
2781.337713	17366.189333	1258.224609	156.100250
2781.337713	17366.189333	1257.115234	54.036022
2781.337713	17366.189333	1256.006836	101.824577
2781.337713	17366.189333	1254.897461	35.603680
2781.337713	17366.189333	1253.788086	21.617491
2781.337713	17366.189333	1252.678711	-79.425941
2781.337713	17366.189333	1251.569336	103.501259
2781.337713	17366.189333	1250.458984	23.868439
2781.337713	17366.189333	1249.349609	109.900078
2781.337713	17366.189333	1248.239258	24.965557
2781.337713	17366.189333	1247.127930	25.133785
2781.337713	17366.189333	1246.017578	64.304932
2781.337713	17366.189333	1244.906250	101.084297
2781.337713	17366.189333	1243.794922	66.026459
2781.337713	17366.189333	1242.683594	47.229595
2781.337713	17366.189333	1241.571289	13.501057
2781.337713	17366.189333	1240.459961	-66.626785
2781.337713	17366.189333	1239.347656	14.897771
2781.337713	17366.189333	1238.234375	-7.286058
2781.337713	17366.189333	1237.122070	2.576694
2781.337713	17366.189333	1236.008789	1.735537
2781.337713	17366.189333	1234.896484	-48.499424
2781.337713	17366.189333	1233.782227	-35.635708
2781.337713	17366.189333	1232.668945	-50.404018
2781.337713	17366.189333	1231.555664	40.594372
2781.337713	17366.189333	1230.441406	42.762119
2781.337713	17366.189333	1229.327148	7.930530
2781.337713	17366.189333	1228.211914	-46.878094
2781.337713	17366.189333	1227.097656	-55.197018
2781.337713	17366.189333	1225.982422	9.572536
2781.337713	17366.189333	1224.867188	-3.430046
2781.337713	17366.189333	1223.751953	94.919785
2781.337713	17366.189333	1222.635742	28.277166
2781.337713	17366.189333	1221.520508	115.566307
2781.337713	17366.189333	1220.404297	-15.128610
2781.337713	17366.189333	1219.287109	4.566487
2781.337713	17366.189333	1218.170898	61.534275
2781.337713	17366.189333	1217.053711	49.512772
2781.337713	17366.189333	1215.936523	11.162325
2781.337713	17366.189333	1214.819336	91.262283
2781.337713	17366.189333	1213.702148	98.196472
2781.337713	17366.189333	1212.583984	115.694771
2781.337713	17366.189333	1211.465820	18.963932
2781.337713	17366.189333	1210.347656	48.557701
2781.337713	17366.189333	1209.229492	2.117243
2781.337713	17366.189333	1208.110352	7.763563
2781.337713	17366.189333	1206.992188	95.332451
2781.337713	17366.189333	1205.873047	73.659111
2781.337713	17366.189333	1204.752930	5.194293
2781.337713	17366.189333	1203.633789	-1.431288
2781.337713	17366.189333	1202.513672	-6.916111
2781.337713	17366.189333	1201.393555	45.329876
2781.337713	17366.189333	1200.273438	-0.792389
2781.337713	17366.189333	1199.152344	-2.715127
2781.337713	17366.189333	1198.032227	-68.866661
2781.337713	17366.189333	1196.911133	25.150202
2781.337713	17366.189333	1195.790039	-25.995842
2781.337713	17366.189333	1194.667969	-19.291227
2781.337713	17366.189333	1193.545898	3.294071
2781.337713	17366.189333	1192.424805	9.709542
2781.337713	17366.189333	1191.301758	-39.396385
2781.337713	17366.189333	1190.179688	-57.233501
2781.337713	17366.189333	1189.056641	-86.031624
2781.337713	17366.189333	1187.933594	-80.376396
2781.337713	17366.189333	1186.810547	-151.430832
2781.337713	17366.189333	1185.687500	-104.071289
2781.337713	17366.189333	1184.563477	34.240154
2781.337713	17366.189333	1183.440430	-42.338692
2781.337713	17366.189333	1182.316406	41.786503
2781.337713	17366.189333	1181.191406	64.413170
2781.337713	17366.189333	1180.067383	61.238235
2781.337713	17366.189333	1178.942383	18.355003
2781.337713	17366.189333	1177.817383	9.856628
2781.337713	17366.189333	1176.692383	-35.027287
2781.337713	17366.189333	1175.566406	38.083424
2781.337713	17366.189333	1174.440430	-14.478308
2781.337713	17366.189333	1173.314453	55.505417
2781.337713	17366.189333	1172.188477	-50.800735
2781.337713	17366.189333	1171.062500	-74.669579
2781.337713	17366.189333	1169.935547	-30.439260
2781.337713	17366.189333	1168.808594	-32.184975
2781.337713	17366.189333	1167.681641	-11.859713
2781.337713	17366.189333	1166.553711	-8.750374
2781.337713	17366.189333	1165.426758	9.962855
2781.337713	17366.189333	1164.298828	7.223603
2781.337713	17366.189333	1163.170898	-111.361115
2781.337713	17366.189333	1162.041992	13.158567
2781.337713	17366.189333	1160.914063	-3.055121
2781.337713	17366.189333	1159.785156	-31.655334
2781.337713	17366.189333	1158.656250	21.428881
2781.337713	17366.189333	1157.526367	-92.077263
2781.337713	17366.189333	1156.397461	-8.500667
2781.337713	17366.189333	1155.267578	-0.111287
2781.337713	17366.189333	1154.137695	-6.906459
2781.337713	17366.189333	1153.006836	1.716422
2781.337713	17366.189333	1151.876953	19.607361
2781.337713	17366.189333	1150.746094	96.882507
2781.337713	17366.189333	1149.615234	22.784357
2781.337713	17366.189333	1148.484375	98.368279
2781.337713	17366.189333	1147.352539	79.717278
2781.337713	17366.189333	1146.220703	101.097343
2781.337713	17366.189333	1145.088867	153.582413
2781.337713	17366.189333	1143.957031	99.369972
2781.337713	17366.189333	1142.825195	185.770767
2781.337713	17366.189333	1141.692383	184.127502
2781.337713	17366.189333	1140.559570	228.245834
2781.337713	17366.189333	1139.426758	245.974121
2781.337713	17366.189333	1138.292969	210.123276
2781.337713	17366.189333	1137.159180	224.438004
2781.337713	17366.189333	1136.025391	180.961014
2781.337713	17366.189333	1134.891602	166.422043
2781.337713	17366.189333	1133.757813	72.614288
2781.337713	17366.189333	1132.623047	53.657196
2781.337713	17366.189333	1131.488281	99.305336
2781.337713	17366.189333	1130.353516	115.697144
2781.337713	17366.189333	1129.217773	107.983734
2781.337713	17366.189333	1128.083008	113.610725
2781.337713	17366.189333	1126.947266	-24.002741
2781.337713	17366.189333	1125.811523	-13.730388
2781.337713	17366.189333	1124.674805	57.785854
2781.337713	17366.189333	1123.539063	17.108994
2781.337713	17366.189333	1122.402344	-41.394737
2781.337713	17366.189333	1121.265625	0.514825
2781.337713	17366.189333	1120.127930	-64.186653
2781.337713	17366.189333	1118.990234	-100.516273
2781.337713	17366.189333	1117.853516	-18.289385
2781.337713	17366.189333	1116.714844	-17.282835
2781.337713	17366.189333	1115.577148	26.797941
2781.337713	17366.189333	1114.439453	-31.844851
2781.337713	17366.189333	1113.300781	16.386414
2781.337713	17366.189333	1112.162109	29.251652
2781.337713	17366.189333	1111.022461	-12.586612
2781.337713	17366.189333	1109.883789	87.538277
2781.337713	17366.189333	1108.744141	133.128265
2781.337713	17366.189333	1107.604492	54.157265
2781.337713	17366.189333	1106.463867	178.960068
2781.337713	17366.189333	1105.324219	48.274357
2781.337713	17366.189333	1104.183594	69.720055
2781.337713	17366.189333	1103.042969	120.028023
2781.337713	17366.189333	1101.902344	167.512589
2781.337713	17366.189333	1100.760742	172.206711
2781.337713	17366.189333	1099.619141	172.562027
2781.337713	17366.189333	1098.477539	299.931946
2781.337713	17366.189333	1097.335938	227.693344
2781.337713	17366.189333	1096.193359	249.833176
2781.337713	17366.189333	1095.051758	195.897705
2781.337713	17366.189333	1093.909180	197.323837
2781.337713	17366.189333	1092.765625	210.968842
2781.337713	17366.189333	1091.623047	85.664330
2781.337713	17366.189333	1090.479492	144.203491
2781.337713	17366.189333	1089.335938	131.819489
2781.337713	17366.189333	1088.192383	130.436584
2781.337713	17366.189333	1087.047852	103.883385
2781.337713	17366.189333	1085.903320	119.625549
2781.337713	17366.189333	1084.758789	69.492645
2781.337713	17366.189333	1083.614258	82.476807
2781.337713	17366.189333	1082.469727	-18.499643
2781.337713	17366.189333	1081.324219	42.227238
2781.337713	17366.189333	1080.178711	22.057365
2781.337713	17366.189333	1079.033203	12.056638
2781.337713	17366.189333	1077.886719	-6.649164
2781.337713	17366.189333	1076.740234	30.021614
2781.337713	17366.189333	1075.593750	113.815056
2781.337713	17366.189333	1074.447266	115.167686
2781.337713	17366.189333	1073.300781	-11.972253
2781.337713	17366.189333	1072.153320	194.028717
2781.337713	17366.189333	1071.005859	89.958961
2781.337713	17366.189333	1069.858398	24.631968
2781.337713	17366.189333	1068.709961	58.860352
2781.337713	17366.189333	1067.561523	13.690862
2781.337713	17366.189333	1066.413086	56.052238
2781.337713	17366.189333	1065.264648	-25.728821
2781.337713	17366.189333	1064.116211	7.547425
2781.337713	17366.189333	1062.966797	10.175422
2781.337713	17366.189333	1061.817383	33.033615
2781.337713	17366.189333	1060.667969	50.251453
2781.337713	17366.189333	1059.517578	-39.851788
2781.337713	17366.189333	1058.368164	-18.186977
2781.337713	17366.189333	1057.217773	54.561619
2781.337713	17366.189333	1056.067383	2.011854
2781.337713	17366.189333	1054.916016	-67.631332
2781.337713	17366.189333	1053.764648	-2.966331
2781.337713	17366.189333	1052.613281	-27.339249
2781.337713	17366.189333	1051.461914	43.084476
2781.337713	17366.189333	1050.310547	55.194092
2781.337713	17366.189333	1049.158203	86.168068
2781.337713	17366.189333	1048.005859	-52.113819
2781.337713	17366.189333	1046.853516	20.231361
2781.337713	17366.189333	1045.700195	-18.915363
2781.337713	17366.189333	1044.547852	34.486980
2781.337713	17366.189333	1043.394531	-59.896339
2781.337713	17366.189333	1042.240234	-40.757179
2781.337713	17366.189333	1041.086914	-31.855177
2781.337713	17366.189333	1039.932617	-15.859685
2781.337713	17366.189333	1038.778320	-54.647999
2781.337713	17366.189333	1037.624023	41.465080
2781.337713	17366.189333	1036.469727	120.197952
2781.337713	17366.189333	1035.314453	-0.695975
2781.337713	17366.189333	1034.159180	138.619980
2781.337713	17366.189333	1033.003906	114.840324
2781.337713	17366.189333	1031.847656	205.214478
2781.337713	17366.189333	1030.692383	169.776733
2781.337713	17366.189333	1029.536133	162.784103
2781.337713	17366.189333	1028.378906	245.101425
2781.337713	17366.189333	1027.222656	171.311493
2781.337713	17366.189333	1026.065430	261.386505
2781.337713	17366.189333	1024.908203	284.365021
2781.337713	17366.189333	1023.750977	134.708664
2781.337713	17366.189333	1022.593750	109.164215
2781.337713	17366.189333	1021.435547	90.587357
2781.337713	17366.189333	1020.277344	81.344902
2781.337713	17366.189333	1019.119141	136.549362
2781.337713	17366.189333	1017.959961	88.538788
2781.337713	17366.189333	1016.800781	29.099020
2781.337713	17366.189333	1015.641602	19.216103
2781.337713	17366.189333	1014.482422	-38.920300
2781.337713	17366.189333	1013.323242	28.072844
2781.337713	17366.189333	1012.163086	-7.307314
2781.337713	17366.189333	1011.002930	47.758873
2781.337713	17366.189333	1009.842773	40.671043
2781.337713	17366.189333	1008.681641	-57.132290
2781.337713	17366.189333	1007.520508	-47.408073
2781.337713	17366.189333	1006.359375	35.687679
2781.337713	17366.189333	1005.198242	150.383713
2781.337713	17366.189333	1004.037109	20.118263
2781.337713	17366.189333	1002.875000	-30.151209
2781.337713	17366.189333	1001.712891	115.010857
2781.337713	17366.189333	1000.550781	17.770229
2781.337713	17366.189333	999.387695	158.916367
2781.337713	17366.189333	998.224609	32.627064
2781.337713	17366.189333	997.061523	76.187752
2781.337713	17366.189333	995.898438	2.363317
2781.337713	17366.189333	994.734375	59.527142
2781.337713	17366.189333	993.571289	-42.387070
2781.337713	17366.189333	992.407227	-97.012245
2781.337713	17366.189333	991.242188	-49.034206
2781.337713	17366.189333	990.078125	15.465736
2781.337713	17366.189333	988.913086	-21.248478
2781.337713	17366.189333	987.748047	-28.837227
2781.337713	17366.189333	986.583008	-28.979925
2781.337713	17366.189333	985.416992	-48.722271
2781.337713	17366.189333	984.250977	-22.903790
2781.337713	17366.189333	983.084961	-4.913357
2781.337713	17366.189333	981.918945	36.238564
2781.337713	17366.189333	980.751953	-39.591927
2781.337713	17366.189333	979.584961	144.452011
2781.337713	17366.189333	978.417969	237.224167
2781.337713	17366.189333	977.250977	51.132568
2781.337713	17366.189333	976.083008	135.820831
2781.337713	17366.189333	974.915039	-6.927353
2781.337713	17366.189333	973.747070	46.742779
2781.337713	17366.189333	972.579102	-5.453629
2781.337713	17366.189333	971.410156	12.192929
2781.337713	17366.189333	970.242188	-0.731784
2781.337713	17366.189333	969.072266	65.821999
2781.337713	17366.189333	967.903320	18.813894
2781.337713	17366.189333	966.733398	29.945271
2781.337713	17366.189333	965.563477	-27.102621
2781.337713	17366.189333	964.393555	60.968369
2781.337713	17366.189333	963.223633	115.501312
2781.337713	17366.189333	962.052734	104.241760
2781.337713	17366.189333	960.881836	89.546303
2781.337713	17366.189333	959.710938	82.287308
2781.337713	17366.189333	958.540039	67.780518
2781.337713	17366.189333	957.368164	107.815369
2781.337713	17366.189333	956.196289	95.395973
2781.337713	17366.189333	955.024414	112.341957
2781.337713	17366.189333	953.851563	-27.503536
2781.337713	17366.189333	952.679688	168.500793
2781.337713	17366.189333	951.506836	46.337257
2781.337713	17366.189333	950.333984	100.935814
2781.337713	17366.189333	949.160156	78.726456
2781.337713	17366.189333	947.986328	78.144028
2781.337713	17366.189333	946.812500	46.181499
2781.337713	17366.189333	945.638672	95.629227
2781.337713	17366.189333	944.464844	120.732605
2781.337713	17366.189333	943.290039	100.055405
2781.337713	17366.189333	942.115234	132.755142
2781.337713	17366.189333	940.940430	262.795532
2781.337713	17366.189333	939.764648	80.173836
2781.337713	17366.189333	938.588867	24.702436
2781.337713	17366.189333	937.413086	71.920197
2781.337713	17366.189333	936.237305	58.668716
2781.337713	17366.189333	935.060547	26.973606
2781.337713	17366.189333	933.883789	22.827406
2781.337713	17366.189333	932.707031	-96.977112
2781.337713	17366.189333	931.530273	29.184862
2781.337713	17366.189333	930.352539	23.165070
2781.337713	17366.189333	929.175781	13.469851
2781.337713	17366.189333	927.998047	22.174974
2781.337713	17366.189333	926.819336	-15.016653
2781.337713	17366.189333	925.641602	21.176718
2781.337713	17366.189333	924.462891	20.665783
2781.337713	17366.189333	923.284180	-77.060783
2781.337713	17366.189333	922.104492	-136.234772
2781.337713	17366.189333	920.924805	41.146172
2781.337713	17366.189333	919.746094	43.343681
2781.337713	17366.189333	919.551758	26.322334
2781.337713	17366.189333	918.386719	-1.716295
2781.337713	17366.189333	917.220703	16.068375
2781.337713	17366.189333	916.054688	-103.566917
2781.337713	17366.189333	914.887695	-72.949707
2781.337713	17366.189333	913.721680	-0.226421
2781.337713	17366.189333	912.554688	-63.027477
2781.337713	17366.189333	911.387695	26.138727
2781.337713	17366.189333	910.220703	-91.553253
2781.337713	17366.189333	909.052734	-29.866503
2781.337713	17366.189333	907.885742	-48.706741
2781.337713	17366.189333	906.717773	-94.974915
2781.337713	17366.189333	905.548828	-68.071678
2781.337713	17366.189333	904.380859	22.813578
2781.337713	17366.189333	903.211914	62.478611
2781.337713	17366.189333	902.042969	-47.740749
2781.337713	17366.189333	900.874023	128.970169
2781.337713	17366.189333	899.704102	22.439554
2781.337713	17366.189333	898.535156	60.248493
2781.337713	17366.189333	897.365234	-17.003986
2781.337713	17366.189333	896.194336	-13.886042
2781.337713	17366.189333	895.024414	-39.976261
2781.337713	17366.189333	893.853516	34.325836
2781.337713	17366.189333	892.682617	28.313566
2781.337713	17366.189333	891.511719	67.913879
2781.337713	17366.189333	890.340820	43.662609
2781.337713	17366.189333	889.168945	-46.222916
2781.337713	17366.189333	887.997070	71.775696
2781.337713	17366.189333	886.825195	98.587822
2781.337713	17366.189333	885.653320	68.896248
2781.337713	17366.189333	884.480469	157.657074
2781.337713	17366.189333	883.307617	122.509254
2781.337713	17366.189333	882.134766	225.800629
2781.337713	17366.189333	880.961914	103.254494
2781.337713	17366.189333	879.788086	237.467545
2781.337713	17366.189333	878.614258	300.641724
2781.337713	17366.189333	877.440430	252.783066
2781.337713	17366.189333	876.266602	133.989319
2781.337713	17366.189333	875.091797	168.055435
2781.337713	17366.189333	873.916992	313.054443
2781.337713	17366.189333	872.742188	221.612427
2781.337713	17366.189333	871.567383	301.103546
2781.337713	17366.189333	870.391602	462.361786
2781.337713	17366.189333	869.215820	429.114410
2781.337713	17366.189333	868.040039	328.661316
2781.337713	17366.189333	866.864258	442.601776
2781.337713	17366.189333	865.687500	318.590576
2781.337713	17366.189333	864.510742	256.371521
2781.337713	17366.189333	863.333984	294.029663
2781.337713	17366.189333	862.157227	250.002106
2781.337713	17366.189333	860.979492	284.030579
2781.337713	17366.189333	859.802734	214.635757
2781.337713	17366.189333	858.625000	317.596893
2781.337713	17366.189333	857.446289	221.036636
2781.337713	17366.189333	856.268555	227.869690
2781.337713	17366.189333	855.089844	189.388962
2781.337713	17366.189333	853.911133	201.677078
2781.337713	17366.189333	852.731445	29.141273
2781.337713	17366.189333	851.552734	150.169830
2781.337713	17366.189333	850.373047	82.783226
2781.337713	17366.189333	849.193359	113.219795
2781.337713	17366.189333	848.013672	42.259827
2781.337713	17366.189333	846.833008	-32.282707
2781.337713	17366.189333	845.652344	123.056084
2781.337713	17366.189333	844.471680	-18.408371
2781.337713	17366.189333	843.291016	169.440125
2781.337713	17366.189333	842.110352	147.410172
2781.337713	17366.189333	840.928711	24.132124
2781.337713	17366.189333	839.747070	-57.505859
2781.337713	17366.189333	838.564453	10.926395
2781.337713	17366.189333	837.382813	14.275483
2781.337713	17366.189333	836.200195	3.177165
2781.337713	17366.189333	835.017578	-42.233379
2781.337713	17366.189333	833.834961	-15.375151
2781.337713	17366.189333	832.651367	-6.577254
2781.337713	17366.189333	831.467773	27.498093
2781.337713	17366.189333	830.284180	140.984116
2781.337713	17366.189333	829.100586	108.257217
2781.337713	17366.189333	827.916992	-3.836017
2781.337713	17366.189333	826.732422	87.959770
2781.337713	17366.189333	825.547852	-79.977654
2781.337713	17366.189333	824.363281	-15.239205
2781.337713	17366.189333	823.177734	24.241987
2781.337713	17366.189333	821.992188	-76.872154
2781.337713	17366.189333	820.806641	-71.621796
2781.337713	17366.189333	819.621094	83.166290
2781.337713	17366.189333	818.434570	54.170280
2781.337713	17366.189333	817.249023	34.193077
2781.337713	17366.189333	816.062500	-32.581432
2781.337713	17366.189333	814.875000	-93.921692
2781.337713	17366.189333	813.688477	-13.052928
2781.337713	17366.189333	812.500977	-81.560532
2781.337713	17366.189333	811.313477	103.625778
2781.337713	17366.189333	810.125977	49.520233
2781.337713	17366.189333	808.937500	-56.707550
2781.337713	17366.189333	807.749023	155.341049
2781.337713	17366.189333	806.560547	79.700523
2781.337713	17366.189333	805.372070	45.429241
2781.337713	17366.189333	804.182617	131.562302
2781.337713	17366.189333	802.994141	57.779411
2781.337713	17366.189333	801.803711	-19.558413
2781.337713	17366.189333	800.614258	-145.347061
2781.337713	17366.189333	799.424805	-61.030949
2781.337713	17366.189333	798.234375	34.023605
2781.337713	17366.189333	797.043945	-5.551208
2781.337713	17366.189333	795.852539	44.603394
2781.337713	17366.189333	794.662109	71.416817
2781.337713	17366.189333	793.470703	67.733559
2781.337713	17366.189333	792.279297	3.087883
2781.337713	17366.189333	791.087891	-5.956509
2781.337713	17366.189333	789.895508	-50.841652
2781.337713	17366.189333	788.703125	-61.660984
2781.337713	17366.189333	787.510742	20.686283
2781.337713	17366.189333	786.318359	-27.760103
2781.337713	17366.189333	785.125000	40.219662
2781.337713	17366.189333	783.931641	-67.296249
2781.337713	17366.189333	782.738281	23.931849
2781.337713	17366.189333	781.544922	-56.693775
2781.337713	17366.189333	780.350586	79.226097
2781.337713	17366.189333	779.156250	-31.792868
2781.337713	17366.189333	777.961914	2.108855
2781.337713	17366.189333	776.767578	18.111107
2781.337713	17366.189333	775.572266	71.650429
2781.337713	17366.189333	774.376953	42.938511
2781.337713	17366.189333	773.181641	39.254051
2781.337713	17366.189333	771.986328	-1.955299
2781.337713	17366.189333	770.790039	80.109993
2781.337713	17366.189333	769.593750	-28.967783
2781.337713	17366.189333	768.397461	63.771946
2781.337713	17366.189333	767.201172	43.994572
2781.337713	17366.189333	766.003906	145.594559
2781.337713	17366.189333	764.806641	66.907387
2781.337713	17366.189333	763.609375	59.612347
2781.337713	17366.189333	762.412109	86.204399
2781.337713	17366.189333	761.213867	159.148285
2781.337713	17366.189333	760.015625	109.022896
2781.337713	17366.189333	758.817383	180.131516
2781.337713	17366.189333	757.618164	151.394180
2781.337713	17366.189333	756.419922	233.136597
2781.337713	17366.189333	755.220703	240.011688
2781.337713	17366.189333	754.021484	428.554199
2781.337713	17366.189333	752.821289	435.365173
2781.337713	17366.189333	751.621094	346.018005
2781.337713	17366.189333	750.420898	399.102509
2781.337713	17366.189333	749.220703	583.850220
2781.337713	17366.189333	748.020508	576.339844
2781.337713	17366.189333	746.819336	638.201172
2781.337713	17366.189333	745.618164	589.749695
2781.337713	17366.189333	744.416992	671.114441
2781.337713	17366.189333	743.214844	615.537964
2781.337713	17366.189333	742.012695	623.958862
2781.337713	17366.189333	740.810547	692.781921
2781.337713	17366.189333	739.608398	516.370544
2781.337713	17366.189333	738.406250	666.867676
2781.337713	17366.189333	737.203125	783.542358
2781.337713	17366.189333	736.000000	900.151001
2781.337713	17366.189333	734.795898	961.661743
2781.337713	17366.189333	733.592773	1033.775635
2781.337713	17366.189333	732.388672	1187.469238
2781.337713	17366.189333	731.184570	1248.823975
2781.337713	17366.189333	729.979492	1049.390869
2781.337713	17366.189333	728.775391	880.166382
2781.337713	17366.189333	727.570313	867.019653
2781.337713	17366.189333	726.365234	726.225464
2781.337713	17366.189333	725.160156	649.270508
2781.337713	17366.189333	723.954102	832.798584
2781.337713	17366.189333	722.748047	762.895874
2781.337713	17366.189333	721.541992	664.659607
2781.337713	17366.189333	720.334961	593.004333
2781.337713	17366.189333	719.128906	429.290802
2781.337713	17366.189333	717.921875	414.306702
2781.337713	17366.189333	716.714844	316.128601
2781.337713	17366.189333	715.506836	309.970886
2781.337713	17366.189333	714.298828	466.533203
2781.337713	17366.189333	713.090820	451.450348
2781.337713	17366.189333	711.882813	362.081177
2781.337713	17366.189333	710.674805	490.165955
2781.337713	17366.189333	709.465820	602.262146
2781.337713	17366.189333	708.256836	717.816650
2781.337713	17366.189333	707.047852	760.857300
2781.337713	17366.189333	705.837891	816.214905
2781.337713	17366.189333	704.627930	776.155762
2781.337713	17366.189333	703.417969	764.332214
2781.337713	17366.189333	702.208008	713.646729
2781.337713	17366.189333	700.998047	530.584473
2781.337713	17366.189333	699.787109	481.669708
2781.337713	17366.189333	698.576172	339.243500
2781.337713	17366.189333	697.364258	360.874298
2781.337713	17366.189333	696.153320	375.407623
2781.337713	17366.189333	694.941406	396.953064
2781.337713	17366.189333	693.729492	326.796173
2781.337713	17366.189333	692.516602	399.379364
2781.337713	17366.189333	691.304688	454.275421
2781.337713	17366.189333	690.091797	479.166931
2781.337713	17366.189333	688.878906	486.398682
2781.337713	17366.189333	687.665039	359.770386
2781.337713	17366.189333	686.451172	442.648407
2781.337713	17366.189333	685.237305	502.572296
2781.337713	17366.189333	684.023438	360.068054
2781.337713	17366.189333	682.809570	386.478485
2781.337713	17366.189333	681.594727	474.402496
2781.337713	17366.189333	680.379883	463.768097
2781.337713	17366.189333	679.165039	396.835175
2781.337713	17366.189333	677.949219	400.203491
2781.337713	17366.189333	676.733398	350.804596
2781.337713	17366.189333	675.517578	260.971649
2781.337713	17366.189333	674.301758	288.834106
2781.337713	17366.189333	673.084961	299.079529
2781.337713	17366.189333	671.869141	275.912689
2781.337713	17366.189333	670.651367	231.645706
2781.337713	17366.189333	669.434570	203.150070
2781.337713	17366.189333	668.216797	206.210068
2781.337713	17366.189333	667.000000	242.559296
2781.337713	17366.189333	665.781250	322.701691
2781.337713	17366.189333	664.563477	281.754944
2781.337713	17366.189333	663.344727	352.996552
2781.337713	17366.189333	662.125977	233.082458
2781.337713	17366.189333	660.907227	262.147827
2781.337713	17366.189333	659.688477	175.503174
2781.337713	17366.189333	658.468750	192.210938
2781.337713	17366.189333	657.249023	226.379166
2781.337713	17366.189333	656.029297	330.532471
2781.337713	17366.189333	654.808594	364.560638
2781.337713	17366.189333	653.587891	410.779327
2781.337713	17366.189333	652.367188	308.173676
2781.337713	17366.189333	651.146484	406.777588
2781.337713	17366.189333	649.924805	304.117462
2781.337713	17366.189333	648.704102	178.715042
2781.337713	17366.189333	647.482422	364.564178
2781.337713	17366.189333	646.259766	288.051300
2781.337713	17366.189333	645.037109	311.147675
2781.337713	17366.189333	643.815430	353.406342
2781.337713	17366.189333	642.591797	397.342346
2781.337713	17366.189333	641.369141	465.663940
2781.337713	17366.189333	640.145508	546.129211
2781.337713	17366.189333	638.921875	509.527161
2781.337713	17366.189333	637.698242	499.073425
2781.337713	17366.189333	636.474609	413.526703
2781.337713	17366.189333	635.250000	261.657135
2781.337713	17366.189333	634.025391	303.442383
2781.337713	17366.189333	632.800781	343.413116
2781.337713	17366.189333	631.575195	334.488312
2781.337713	17366.189333	630.349609	238.344543
2781.337713	17366.189333	629.124023	265.945099
2781.337713	17366.189333	627.898438	188.920837
2781.337713	17366.189333	626.671875	247.776093
2781.337713	17366.189333	625.445313	290.876068
2781.337713	17366.189333	624.218750	292.107513
2781.337713	17366.189333	622.992188	267.168182
2781.337713	17366.189333	621.764648	254.371918
2781.337713	17366.189333	620.537109	225.863876
2781.337713	17366.189333	619.309570	247.777954
2781.337713	17366.189333	618.081055	374.012817
2781.337713	17366.189333	616.852539	228.802216
2781.337713	17366.189333	615.624023	382.706329
2781.337713	17366.189333	614.395508	166.168167
2781.337713	17366.189333	613.166992	194.762070
2781.337713	17366.189333	611.937500	143.348251
2781.337713	17366.189333	610.708008	81.479362
2781.337713	17366.189333	609.477539	162.028488
2781.337713	17366.189333	608.248047	8.030009
2781.337713	17366.189333	607.017578	90.193787
2781.337713	17366.189333	605.787109	125.398849
2781.337713	17366.189333	604.555664	45.982559
2781.337713	17366.189333	603.325195	91.492104
2781.337713	17366.189333	602.093750	107.436180
2781.337713	17366.189333	600.861328	187.499527
2781.337713	17366.189333	599.629883	33.366344
2781.337713	17366.189333	598.397461	52.628136
2781.337713	17366.189333	597.165039	64.898689
2781.337713	17366.189333	595.932617	26.855612
2781.337713	17366.189333	594.699219	-18.152941
2781.337713	17366.189333	593.465820	2.637858
2781.337713	17366.189333	592.232422	-30.319195
2781.337713	17366.189333	590.999023	-2.703858
2781.337713	17366.189333	589.764648	59.474770
2781.337713	17366.189333	588.530273	43.691196
2781.337713	17366.189333	587.295898	48.633881
2781.337713	17366.189333	586.061523	195.398514
2781.337713	17366.189333	584.826172	-2.168856
2781.337713	17366.189333	583.590820	90.840324
2781.337713	17366.189333	582.355469	52.359447
2781.337713	17366.189333	581.119141	243.759399
2781.337713	17366.189333	579.882813	272.575134
2781.337713	17366.189333	578.646484	190.748825
2781.337713	17366.189333	577.410156	126.190773
2781.337713	17366.189333	576.172852	161.792053
2781.337713	17366.189333	574.935547	116.176414
2781.337713	17366.189333	573.698242	98.162598
2781.337713	17366.189333	572.460938	135.350632
2781.337713	17366.189333	571.222656	29.247494
2781.337713	17366.189333	569.984375	109.486649
2781.337713	17366.189333	568.746094	187.928650
2781.337713	17366.189333	567.506836	186.965454
2781.337713	17366.189333	566.267578	111.823662
2781.337713	17366.189333	565.028320	119.422958
2781.337713	17366.189333	563.789063	152.836365
2781.337713	17366.189333	562.548828	38.009258
2781.337713	17366.189333	561.309570	43.792904
2781.337713	17366.189333	560.068359	151.156387
2781.337713	17366.189333	558.828125	168.899292
2781.337713	17366.189333	557.586914	41.980904
2781.337713	17366.189333	556.345703	54.510208
2781.337713	17366.189333	555.104492	73.887711
2781.337713	17366.189333	553.863281	-59.900642
2781.337713	17366.189333	552.621094	16.198860
2781.337713	17366.189333	551.378906	-24.709295
2781.337713	17366.189333	550.136719	-105.173538
2781.337713	17366.189333	548.893555	-139.216843
2781.337713	17366.189333	547.650391	-138.896515
2781.337713	17366.189333	546.407227	-97.360039
2781.337713	17366.189333	545.164063	-128.019119
2781.337713	17366.189333	543.919922	31.964094
2781.337713	17366.189333	542.675781	6.395452
2781.337713	17366.189333	541.431641	-44.935268
2781.337713	17366.189333	540.186523	-60.220043
2781.337713	17366.189333	538.941406	-113.271591
2781.337713	17366.189333	537.696289	-3.319897
2781.337713	17366.189333	536.451172	-40.956020
2781.337713	17366.189333	535.205078	10.587029
2781.337713	17366.189333	533.959961	22.659079
2781.337713	17366.189333	532.712891	-97.294655
2781.337713	17366.189333	531.466797	-50.954945
2781.337713	17366.189333	530.219727	-11.504400
2781.337713	17366.189333	528.972656	-49.175045
2781.337713	17366.189333	527.725586	39.910587
2781.337713	17366.189333	526.478516	-44.009430
2781.337713	17366.189333	525.230469	80.971016
2781.337713	17366.189333	523.982422	-13.209167
2781.337713	17366.189333	522.734375	39.822117
2781.337713	17366.189333	521.485352	50.047882
2781.337713	17366.189333	520.236328	89.346497
2781.337713	17366.189333	518.987305	114.943558
2781.337713	17366.189333	517.737305	96.067688
2781.337713	17366.189333	516.488281	87.459953
2781.337713	17366.189333	515.238281	160.891998
2781.337713	17366.189333	513.988281	90.756317
2781.337713	17366.189333	512.737305	34.317162
2781.337713	17366.189333	511.486328	22.314661
2781.337713	17366.189333	510.235352	54.721451
2781.337713	17366.189333	508.984375	59.802631
2781.337713	17366.189333	507.732422	18.797024
2781.337713	17366.189333	506.480469	3.414438
2781.337713	17366.189333	505.228516	59.708019
2781.337713	17366.189333	503.976563	177.396912
2781.337713	17366.189333	502.723633	119.376663
2781.337713	17366.189333	501.470703	184.160202
2781.337713	17366.189333	500.217773	134.709305
2781.337713	17366.189333	498.963867	211.413147
2781.337713	17366.189333	497.709961	306.841705
2781.337713	17366.189333	496.456055	323.874634
2781.337713	17366.189333	495.202148	219.981918
2781.337713	17366.189333	493.947266	151.907211
2781.337713	17366.189333	492.692383	184.328720
2781.337713	17366.189333	491.437500	135.047897
2781.337713	17366.189333	490.181641	116.435272
2781.337713	17366.189333	488.926758	114.866417
2781.337713	17366.189333	487.670898	38.466000
2781.337713	17366.189333	486.414063	-56.593525
2781.337713	17366.189333	485.158203	122.167702
2781.337713	17366.189333	483.901367	27.171221
2781.337713	17366.189333	482.644531	-40.569687
2781.337713	17366.189333	481.386719	-50.488811
2781.337713	17366.189333	480.128906	80.625259
2781.337713	17366.189333	478.871094	-54.963024
2781.337713	17366.189333	477.613281	-47.825665
2781.337713	17366.189333	476.355469	64.593193
2781.337713	17366.189333	475.096680	0.451427
2781.337713	17366.189333	473.837891	68.730125
2781.337713	17366.189333	472.578125	16.533863
2781.337713	17366.189333	471.319336	27.149691
2781.337713	17366.189333	470.059570	142.930176
2781.337713	17366.189333	468.799805	68.776985
2781.337713	17366.189333	467.539063	125.207161
2781.337713	17366.189333	466.278320	-20.053085
2781.337713	17366.189333	465.017578	-5.946452
2781.337713	17366.189333	463.756836	111.517387
2781.337713	17366.189333	462.495117	68.041283
2781.337713	17366.189333	461.233398	36.457554
2781.337713	17366.189333	459.971680	72.628868
2781.337713	17366.189333	458.709961	-2.912278
2781.337713	17366.189333	457.447266	-66.558487
2781.337713	17366.189333	456.184570	17.037786
2781.337713	17366.189333	454.921875	-19.486704
2781.337713	17366.189333	453.658203	-37.378803
2781.337713	17366.189333	452.394531	-60.321545
2781.337713	17366.189333	451.130859	36.782482
2781.337713	17366.189333	449.867188	-36.844421
2781.337713	17366.189333	448.602539	90.647736
2781.337713	17366.189333	447.337891	33.951439
2781.337713	17366.189333	446.073242	7.689566
2781.337713	17366.189333	444.807617	20.280643
2781.337713	17366.189333	443.542969	110.533638
2781.337713	17366.189333	442.276367	6.634160
2781.337713	17366.189333	441.010742	103.600533
2781.337713	17366.189333	439.744141	104.349701
2781.337713	17366.189333	438.478516	7.261419
2781.337713	17366.189333	437.210938	156.424606
2781.337713	17366.189333	435.944336	42.485966
2781.337713	17366.189333	434.676758	167.953705
2781.337713	17366.189333	433.409180	133.243042
2781.337713	17366.189333	432.141602	49.663429
2781.337713	17366.189333	430.873047	43.588936
2781.337713	17366.189333	429.604492	-23.142302
2781.337713	17366.189333	428.335938	26.316322
2781.337713	17366.189333	427.067383	48.783909
2781.337713	17366.189333	425.797852	32.490234
2781.337713	17366.189333	424.528320	93.572174
2781.337713	17366.189333	423.258789	-62.451473
2781.337713	17366.189333	421.988281	-48.569332
2781.337713	17366.189333	420.717773	-44.837353
2781.337713	17366.189333	419.447266	-51.252918
2781.337713	17366.189333	418.175781	-104.798996
2781.337713	17366.189333	416.905273	14.716148
2781.337713	17366.189333	415.633789	-17.120146
2781.337713	17366.189333	414.362305	-17.103851
2781.337713	17366.189333	413.089844	6.338147
2781.337713	17366.189333	411.817383	-37.487904
2781.337713	17366.189333	410.544922	26.051512
2781.337713	17366.189333	409.272461	-43.136887
2781.337713	17366.189333	407.999023	45.329372
2781.337713	17366.189333	406.725586	64.854538
2781.337713	17366.189333	405.452148	55.731834
2781.337713	17366.189333	404.177734	115.233833
2781.337713	17366.189333	402.903320	176.247208
2781.337713	17366.189333	401.628906	161.655258
2781.337713	17366.189333	400.354492	178.756058
2781.337713	17366.189333	399.079102	182.276718
2781.337713	17366.189333	397.803711	125.317627
2781.337713	17366.189333	396.528320	193.810822
2781.337713	17366.189333	395.251953	315.659882
2781.337713	17366.189333	393.976563	214.609711
2781.337713	17366.189333	392.700195	247.283554
2781.337713	17366.189333	391.422852	331.590271
2781.337713	17366.189333	390.145508	293.501862
2781.337713	17366.189333	388.869141	253.520508
2781.337713	17366.189333	387.590820	407.271301
2781.337713	17366.189333	386.313477	375.117462
2781.337713	17366.189333	385.035156	406.211365
2781.337713	17366.189333	383.756836	244.819687
2781.337713	17366.189333	382.478516	151.698563
2781.337713	17366.189333	381.199219	233.690170
2781.337713	17366.189333	379.919922	148.311234
2781.337713	17366.189333	378.640625	161.139557
2781.337713	17366.189333	377.360352	185.283493
2781.337713	17366.189333	376.080078	143.955109
2781.337713	17366.189333	374.799805	108.933189
2781.337713	17366.189333	373.519531	96.879921
2781.337713	17366.189333	372.238281	39.373497
2781.337713	17366.189333	370.957031	28.148438
2781.337713	17366.189333	369.675781	73.161552
2781.337713	17366.189333	368.394531	-63.993084
2781.337713	17366.189333	367.112305	-44.938648
2781.337713	17366.189333	365.830078	-49.720371
2781.337713	17366.189333	364.546875	-26.716087
2781.337713	17366.189333	363.264648	14.067090
2781.337713	17366.189333	361.981445	-28.988649
2781.337713	17366.189333	360.698242	60.563755
2781.337713	17366.189333	359.414063	-50.247540
2781.337713	17366.189333	358.129883	-85.093826
2781.337713	17366.189333	356.845703	4.195687
2781.337713	17366.189333	355.561523	-65.220451
2781.337713	17366.189333	354.276367	67.552925
2781.337713	17366.189333	352.991211	-24.873991
2781.337713	17366.189333	351.706055	23.280710
2781.337713	17366.189333	350.420898	37.419468
2781.337713	17366.189333	349.134766	-40.624199
2781.337713	17366.189333	347.848633	64.924797
2781.337713	17366.189333	346.561523	-4.793906
2781.337713	17366.189333	345.275391	265.026917
2781.337713	17366.189333	343.988281	50.785973
2781.337713	17366.189333	342.700195	21.567019
2781.337713	17366.189333	341.413086	59.458206
2781.337713	17366.189333	340.125000	-33.054596
2781.337713	17366.189333	338.836914	176.961472
2781.337713	17366.189333	337.548828	65.833221
2781.337713	17366.189333	336.259766	97.881157
2781.337713	17366.189333	334.970703	178.531937
2781.337713	17366.189333	333.681641	45.912506
2781.337713	17366.189333	332.391602	140.771729
2781.337713	17366.189333	331.101563	285.727448
2781.337713	17366.189333	329.811523	111.439995
2781.337713	17366.189333	328.521484	247.197464
2781.337713	17366.189333	327.230469	204.444504
2781.337713	17366.189333	325.939453	89.198875
2781.337713	17366.189333	324.648438	23.901031
2781.337713	17366.189333	323.356445	41.527637
2781.337713	17366.189333	322.064453	31.214170
2781.337713	17366.189333	320.772461	105.368797
2781.337713	17366.189333	319.480469	7.673743
2781.337713	17366.189333	318.187500	-51.950211
2781.337713	17366.189333	316.894531	-83.449173
2781.337713	17366.189333	315.601563	-45.587933
2781.337713	17366.189333	314.307617	20.211319
2781.337713	17366.189333	313.013672	-95.784271
2781.337713	17366.189333	311.719727	-122.759300
2781.337713	17366.189333	310.425781	-120.239136
2781.337713	17366.189333	309.130859	32.119534
2781.337713	17366.189333	307.835938	43.850899
2781.337713	17366.189333	306.541016	-14.079270
2781.337713	17366.189333	305.245117	-64.224464
2781.337713	17366.189333	303.949219	196.768158
2781.337713	17366.189333	302.653320	91.168808
2781.337713	17366.189333	301.356445	131.628265
2781.337713	17366.189333	300.060547	115.449081
2781.337713	17366.189333	298.763672	238.517548
