#X		#Y		#Wave		#Intensity
2774.644947	17468.205667	2000.043945	-31.758245
2774.644947	17468.205667	1999.080078	-40.398769
2774.644947	17468.205667	1998.116211	59.857288
2774.644947	17468.205667	1997.151367	-103.177345
2774.644947	17468.205667	1996.186523	-26.377165
2774.644947	17468.205667	1995.222656	-64.112801
2774.644947	17468.205667	1994.256836	73.508240
2774.644947	17468.205667	1993.291992	89.219147
2774.644947	17468.205667	1992.327148	144.044586
2774.644947	17468.205667	1991.361328	-86.291969
2774.644947	17468.205667	1990.395508	123.535362
2774.644947	17468.205667	1989.429688	38.374504
2774.644947	17468.205667	1988.463867	-74.399643
2774.644947	17468.205667	1987.497070	62.286800
2774.644947	17468.205667	1986.531250	84.753769
2774.644947	17468.205667	1985.564453	-98.400406
2774.644947	17468.205667	1984.597656	170.550339
2774.644947	17468.205667	1983.630859	164.679474
2774.644947	17468.205667	1982.664063	5.246737
2774.644947	17468.205667	1981.696289	28.382444
2774.644947	17468.205667	1980.728516	31.425259
2774.644947	17468.205667	1979.761719	234.218735
2774.644947	17468.205667	1978.792969	36.597237
2774.644947	17468.205667	1977.825195	-119.265663
2774.644947	17468.205667	1976.857422	-53.175289
2774.644947	17468.205667	1975.888672	-170.005753
2774.644947	17468.205667	1974.919922	162.060257
2774.644947	17468.205667	1973.951172	20.072844
2774.644947	17468.205667	1972.982422	112.243896
2774.644947	17468.205667	1972.013672	-79.453217
2774.644947	17468.205667	1971.043945	-24.709515
2774.644947	17468.205667	1970.075195	138.288574
2774.644947	17468.205667	1969.105469	172.864883
2774.644947	17468.205667	1968.135742	39.669571
2774.644947	17468.205667	1967.165039	150.283325
2774.644947	17468.205667	1966.195313	287.792664
2774.644947	17468.205667	1965.224609	72.885292
2774.644947	17468.205667	1964.253906	165.733551
2774.644947	17468.205667	1963.283203	-71.511703
2774.644947	17468.205667	1962.312500	38.295250
2774.644947	17468.205667	1961.341797	101.178825
2774.644947	17468.205667	1960.370117	186.069687
2774.644947	17468.205667	1959.399414	49.400379
2774.644947	17468.205667	1958.427734	-38.122330
2774.644947	17468.205667	1957.455078	248.115646
2774.644947	17468.205667	1956.483398	32.547779
2774.644947	17468.205667	1955.511719	249.667953
2774.644947	17468.205667	1954.539063	311.779114
2774.644947	17468.205667	1953.566406	-31.691584
2774.644947	17468.205667	1952.593750	91.748116
2774.644947	17468.205667	1951.621094	183.150848
2774.644947	17468.205667	1950.647461	166.397644
2774.644947	17468.205667	1949.674805	34.190128
2774.644947	17468.205667	1948.701172	61.581310
2774.644947	17468.205667	1947.727539	37.377468
2774.644947	17468.205667	1946.753906	89.238708
2774.644947	17468.205667	1945.780273	278.472443
2774.644947	17468.205667	1944.805664	60.345177
2774.644947	17468.205667	1943.831055	-8.085384
2774.644947	17468.205667	1942.856445	63.291367
2774.644947	17468.205667	1941.881836	-49.270576
2774.644947	17468.205667	1940.907227	-63.730251
2774.644947	17468.205667	1939.932617	110.552734
2774.644947	17468.205667	1938.957031	54.407433
2774.644947	17468.205667	1937.981445	27.693363
2774.644947	17468.205667	1937.005859	-214.581345
2774.644947	17468.205667	1936.030273	-99.151894
2774.644947	17468.205667	1935.054688	-106.193062
2774.644947	17468.205667	1934.078125	1.859890
2774.644947	17468.205667	1933.101563	-39.430180
2774.644947	17468.205667	1932.125000	127.356262
2774.644947	17468.205667	1931.148438	49.403275
2774.644947	17468.205667	1930.171875	159.894760
2774.644947	17468.205667	1929.194336	74.685005
2774.644947	17468.205667	1928.217773	82.477104
2774.644947	17468.205667	1927.240234	82.963554
2774.644947	17468.205667	1926.262695	46.815525
2774.644947	17468.205667	1925.284180	-6.393330
2774.644947	17468.205667	1924.306641	-13.106164
2774.644947	17468.205667	1923.328125	-173.710724
2774.644947	17468.205667	1922.350586	-85.031403
2774.644947	17468.205667	1921.372070	257.674866
2774.644947	17468.205667	1920.392578	80.146629
2774.644947	17468.205667	1919.414063	-24.020176
2774.644947	17468.205667	1918.434570	-45.104984
2774.644947	17468.205667	1917.456055	148.645935
2774.644947	17468.205667	1916.476563	51.988297
2774.644947	17468.205667	1915.497070	253.064316
2774.644947	17468.205667	1914.516602	61.389416
2774.644947	17468.205667	1913.537109	-169.181900
2774.644947	17468.205667	1912.556641	-131.397751
2774.644947	17468.205667	1911.576172	35.634460
2774.644947	17468.205667	1910.595703	102.719620
2774.644947	17468.205667	1909.615234	79.662537
2774.644947	17468.205667	1908.633789	-50.543056
2774.644947	17468.205667	1907.653320	-212.317215
2774.644947	17468.205667	1906.671875	-315.524109
2774.644947	17468.205667	1905.690430	-94.761215
2774.644947	17468.205667	1904.708984	13.973187
2774.644947	17468.205667	1903.727539	117.849632
2774.644947	17468.205667	1902.745117	-24.078669
2774.644947	17468.205667	1901.762695	-36.936020
2774.644947	17468.205667	1900.780273	93.804382
2774.644947	17468.205667	1899.797852	115.083336
2774.644947	17468.205667	1898.815430	114.515411
2774.644947	17468.205667	1897.832031	-0.287670
2774.644947	17468.205667	1896.849609	50.314671
2774.644947	17468.205667	1895.866211	-127.537453
2774.644947	17468.205667	1894.882813	-71.978859
2774.644947	17468.205667	1893.898438	5.470297
2774.644947	17468.205667	1892.915039	143.667770
2774.644947	17468.205667	1891.930664	-75.182686
2774.644947	17468.205667	1890.947266	-34.073189
2774.644947	17468.205667	1889.962891	87.181534
2774.644947	17468.205667	1888.977539	-85.291656
2774.644947	17468.205667	1887.993164	-150.874908
2774.644947	17468.205667	1887.007813	-27.125038
2774.644947	17468.205667	1886.023438	82.057014
2774.644947	17468.205667	1885.038086	108.761009
2774.644947	17468.205667	1884.051758	33.629189
2774.644947	17468.205667	1883.066406	84.643112
2774.644947	17468.205667	1882.081055	43.546131
2774.644947	17468.205667	1881.094727	50.968410
2774.644947	17468.205667	1880.108398	-38.519081
2774.644947	17468.205667	1879.122070	102.229546
2774.644947	17468.205667	1878.135742	-4.142772
2774.644947	17468.205667	1877.148438	-88.654327
2774.644947	17468.205667	1876.162109	3.660199
2774.644947	17468.205667	1875.174805	-12.991039
2774.644947	17468.205667	1874.187500	110.779984
2774.644947	17468.205667	1873.199219	-155.131989
2774.644947	17468.205667	1872.211914	82.375839
2774.644947	17468.205667	1871.223633	58.523361
2774.644947	17468.205667	1870.236328	-86.250801
2774.644947	17468.205667	1869.248047	-83.441566
2774.644947	17468.205667	1868.258789	1.583058
2774.644947	17468.205667	1867.270508	-17.370264
2774.644947	17468.205667	1866.282227	202.971069
2774.644947	17468.205667	1865.292969	254.072037
2774.644947	17468.205667	1864.303711	-45.184517
2774.644947	17468.205667	1863.314453	32.511997
2774.644947	17468.205667	1862.324219	83.607964
2774.644947	17468.205667	1861.334961	-46.427917
2774.644947	17468.205667	1860.344727	-108.824066
2774.644947	17468.205667	1859.354492	188.456604
2774.644947	17468.205667	1858.364258	135.671921
2774.644947	17468.205667	1857.374023	-69.123428
2774.644947	17468.205667	1856.383789	-56.733150
2774.644947	17468.205667	1855.392578	-85.371162
2774.644947	17468.205667	1854.401367	103.024055
2774.644947	17468.205667	1853.410156	50.213242
2774.644947	17468.205667	1852.418945	-12.244054
2774.644947	17468.205667	1851.426758	188.010422
2774.644947	17468.205667	1850.435547	14.646813
2774.644947	17468.205667	1849.443359	176.213638
2774.644947	17468.205667	1848.451172	-14.007718
2774.644947	17468.205667	1847.458984	7.750294
2774.644947	17468.205667	1846.466797	-194.477173
2774.644947	17468.205667	1845.473633	173.912094
2774.644947	17468.205667	1844.480469	212.356827
2774.644947	17468.205667	1843.487305	38.964447
2774.644947	17468.205667	1842.494141	-2.068745
2774.644947	17468.205667	1841.500977	29.038523
2774.644947	17468.205667	1840.506836	33.627525
2774.644947	17468.205667	1839.513672	9.308722
2774.644947	17468.205667	1838.519531	105.163040
2774.644947	17468.205667	1837.525391	-94.750328
2774.644947	17468.205667	1836.530273	-54.301208
2774.644947	17468.205667	1835.536133	137.463089
2774.644947	17468.205667	1834.541016	14.364331
2774.644947	17468.205667	1833.545898	64.199257
2774.644947	17468.205667	1832.550781	63.518761
2774.644947	17468.205667	1831.555664	43.563194
2774.644947	17468.205667	1830.560547	100.371758
2774.644947	17468.205667	1829.564453	70.679741
2774.644947	17468.205667	1828.568359	19.329180
2774.644947	17468.205667	1827.572266	416.605408
2774.644947	17468.205667	1826.576172	55.603352
2774.644947	17468.205667	1825.580078	73.617157
2774.644947	17468.205667	1824.583008	17.206059
2774.644947	17468.205667	1823.585938	-53.648815
2774.644947	17468.205667	1822.588867	19.267643
2774.644947	17468.205667	1821.591797	-56.517921
2774.644947	17468.205667	1820.594727	-10.154622
2774.644947	17468.205667	1819.596680	50.476994
2774.644947	17468.205667	1818.599609	55.907463
2774.644947	17468.205667	1817.601563	286.359711
2774.644947	17468.205667	1816.603516	68.881943
2774.644947	17468.205667	1815.604492	141.057236
2774.644947	17468.205667	1814.606445	205.932510
2774.644947	17468.205667	1813.607422	33.774021
2774.644947	17468.205667	1812.608398	-16.395947
2774.644947	17468.205667	1811.609375	96.018791
2774.644947	17468.205667	1810.610352	-95.452934
2774.644947	17468.205667	1809.610352	-162.614258
2774.644947	17468.205667	1808.611328	28.351578
2774.644947	17468.205667	1807.611328	-60.530441
2774.644947	17468.205667	1806.611328	-20.433598
2774.644947	17468.205667	1805.610352	50.600376
2774.644947	17468.205667	1804.610352	-79.173340
2774.644947	17468.205667	1803.609375	-51.370159
2774.644947	17468.205667	1802.608398	227.055908
2774.644947	17468.205667	1801.607422	1.477648
2774.644947	17468.205667	1800.606445	14.586233
2774.644947	17468.205667	1799.605469	58.599232
2774.644947	17468.205667	1798.603516	18.956732
2774.644947	17468.205667	1797.601563	248.804993
2774.644947	17468.205667	1796.599609	290.003265
2774.644947	17468.205667	1795.597656	9.103197
2774.644947	17468.205667	1794.595703	124.006081
2774.644947	17468.205667	1793.592773	-61.645321
2774.644947	17468.205667	1792.589844	67.275444
2774.644947	17468.205667	1791.587891	-37.515793
2774.644947	17468.205667	1790.583984	-70.925262
2774.644947	17468.205667	1789.581055	-35.360134
2774.644947	17468.205667	1788.577148	154.869736
2774.644947	17468.205667	1787.574219	47.242626
2774.644947	17468.205667	1786.570313	203.793930
2774.644947	17468.205667	1785.566406	160.200943
2774.644947	17468.205667	1784.561523	140.286240
2774.644947	17468.205667	1783.557617	110.733292
2774.644947	17468.205667	1782.552734	12.060007
2774.644947	17468.205667	1781.547852	291.484344
2774.644947	17468.205667	1780.542969	-197.470001
2774.644947	17468.205667	1779.538086	55.461037
2774.644947	17468.205667	1778.532227	34.771259
2774.644947	17468.205667	1777.527344	109.028671
2774.644947	17468.205667	1776.521484	-132.937698
2774.644947	17468.205667	1775.515625	100.223862
2774.644947	17468.205667	1774.508789	12.466723
2774.644947	17468.205667	1773.502930	83.734070
2774.644947	17468.205667	1772.496094	-165.734879
2774.644947	17468.205667	1771.489258	114.168091
2774.644947	17468.205667	1770.482422	18.790226
2774.644947	17468.205667	1769.475586	162.997391
2774.644947	17468.205667	1768.467773	185.989395
2774.644947	17468.205667	1767.460938	85.479752
2774.644947	17468.205667	1766.453125	143.768753
2774.644947	17468.205667	1765.445313	171.064209
2774.644947	17468.205667	1764.437500	48.836578
2774.644947	17468.205667	1763.428711	68.731453
2774.644947	17468.205667	1762.420898	-20.539089
2774.644947	17468.205667	1761.412109	181.527130
2774.644947	17468.205667	1760.403320	160.674896
2774.644947	17468.205667	1759.393555	66.247551
2774.644947	17468.205667	1758.384766	189.595123
2774.644947	17468.205667	1757.375000	182.512756
2774.644947	17468.205667	1756.366211	118.482910
2774.644947	17468.205667	1755.356445	-184.731995
2774.644947	17468.205667	1754.345703	53.921394
2774.644947	17468.205667	1753.335938	60.483086
2774.644947	17468.205667	1752.325195	114.196213
2774.644947	17468.205667	1751.315430	148.832809
2774.644947	17468.205667	1750.304688	-69.712120
2774.644947	17468.205667	1749.292969	68.656906
2774.644947	17468.205667	1748.282227	-131.171951
2774.644947	17468.205667	1747.270508	44.677032
2774.644947	17468.205667	1746.259766	191.970535
2774.644947	17468.205667	1745.248047	-24.751177
2774.644947	17468.205667	1744.235352	51.330166
2774.644947	17468.205667	1743.223633	124.887436
2774.644947	17468.205667	1742.211914	37.724472
2774.644947	17468.205667	1741.199219	-158.147385
2774.644947	17468.205667	1740.186523	-16.592409
2774.644947	17468.205667	1739.173828	162.518753
2774.644947	17468.205667	1738.160156	65.379745
2774.644947	17468.205667	1737.147461	-12.982266
2774.644947	17468.205667	1736.133789	14.654375
2774.644947	17468.205667	1735.120117	46.853920
2774.644947	17468.205667	1734.106445	81.257584
2774.644947	17468.205667	1733.091797	-73.060677
2774.644947	17468.205667	1732.078125	-175.605453
2774.644947	17468.205667	1731.063477	-0.249051
2774.644947	17468.205667	1730.048828	-100.704758
2774.644947	17468.205667	1729.034180	-36.399593
2774.644947	17468.205667	1728.019531	-12.287916
2774.644947	17468.205667	1727.003906	-35.419422
2774.644947	17468.205667	1725.988281	155.515656
2774.644947	17468.205667	1724.972656	134.440979
2774.644947	17468.205667	1723.957031	-44.405331
2774.644947	17468.205667	1722.941406	-32.769489
2774.644947	17468.205667	1721.924805	-63.621628
2774.644947	17468.205667	1720.909180	-9.924257
2774.644947	17468.205667	1719.892578	-135.078537
2774.644947	17468.205667	1718.875977	-29.951403
2774.644947	17468.205667	1717.858398	2.134090
2774.644947	17468.205667	1716.841797	-1.153635
2774.644947	17468.205667	1715.824219	-136.144348
2774.644947	17468.205667	1714.806641	-111.489563
2774.644947	17468.205667	1713.789063	37.494373
2774.644947	17468.205667	1712.770508	-88.429153
2774.644947	17468.205667	1711.752930	79.022827
2774.644947	17468.205667	1710.734375	159.430634
2774.644947	17468.205667	1709.715820	-199.129044
2774.644947	17468.205667	1708.697266	82.825409
2774.644947	17468.205667	1707.678711	43.190674
2774.644947	17468.205667	1706.659180	90.211021
2774.644947	17468.205667	1705.640625	-99.714867
2774.644947	17468.205667	1704.621094	24.441349
2774.644947	17468.205667	1703.600586	185.920822
2774.644947	17468.205667	1702.581055	87.117050
2774.644947	17468.205667	1701.561523	-96.111534
2774.644947	17468.205667	1700.541016	214.879227
2774.644947	17468.205667	1699.520508	99.378235
2774.644947	17468.205667	1698.500000	178.167099
2774.644947	17468.205667	1697.478516	312.990326
2774.644947	17468.205667	1696.458008	201.891129
2774.644947	17468.205667	1695.436523	107.093498
2774.644947	17468.205667	1694.415039	136.240417
2774.644947	17468.205667	1693.393555	361.781525
2774.644947	17468.205667	1692.372070	407.034637
2774.644947	17468.205667	1691.349609	75.653015
2774.644947	17468.205667	1690.327148	471.433380
2774.644947	17468.205667	1689.304688	221.785446
2774.644947	17468.205667	1688.282227	353.092468
2774.644947	17468.205667	1687.259766	301.990784
2774.644947	17468.205667	1686.236328	400.317780
2774.644947	17468.205667	1685.213867	426.121796
2774.644947	17468.205667	1684.190430	285.998077
2774.644947	17468.205667	1683.166016	423.673462
2774.644947	17468.205667	1682.142578	554.223206
2774.644947	17468.205667	1681.119141	523.589050
2774.644947	17468.205667	1680.094727	553.536926
2774.644947	17468.205667	1679.070313	415.405579
2774.644947	17468.205667	1678.045898	335.561859
2774.644947	17468.205667	1677.020508	355.935455
2774.644947	17468.205667	1675.996094	567.445251
2774.644947	17468.205667	1674.970703	494.358124
2774.644947	17468.205667	1673.945313	791.830688
2774.644947	17468.205667	1672.919922	592.736633
2774.644947	17468.205667	1671.893555	489.156830
2774.644947	17468.205667	1670.868164	578.914124
2774.644947	17468.205667	1669.841797	389.061981
2774.644947	17468.205667	1668.815430	499.606934
2774.644947	17468.205667	1667.789063	584.433533
2774.644947	17468.205667	1666.761719	583.018738
2774.644947	17468.205667	1665.735352	644.398132
2774.644947	17468.205667	1664.708008	426.455536
2774.644947	17468.205667	1663.680664	545.861023
2774.644947	17468.205667	1662.653320	453.505005
2774.644947	17468.205667	1661.625000	602.958984
2774.644947	17468.205667	1660.597656	882.521729
2774.644947	17468.205667	1659.569336	796.947754
2774.644947	17468.205667	1658.541016	922.850708
2774.644947	17468.205667	1657.512695	783.758789
2774.644947	17468.205667	1656.483398	818.895752
2774.644947	17468.205667	1655.455078	637.975647
2774.644947	17468.205667	1654.425781	796.121887
2774.644947	17468.205667	1653.396484	1054.006958
2774.644947	17468.205667	1652.366211	1035.482422
2774.644947	17468.205667	1651.336914	1028.551758
2774.644947	17468.205667	1650.306641	914.824463
2774.644947	17468.205667	1649.276367	1067.915527
2774.644947	17468.205667	1648.246094	1209.315918
2774.644947	17468.205667	1647.215820	963.328430
2774.644947	17468.205667	1646.185547	1206.659912
2774.644947	17468.205667	1645.154297	1296.844360
2774.644947	17468.205667	1644.123047	1421.735229
2774.644947	17468.205667	1643.091797	1296.276855
2774.644947	17468.205667	1642.060547	1374.735474
2774.644947	17468.205667	1641.028320	1353.516479
2774.644947	17468.205667	1639.997070	1313.778809
2774.644947	17468.205667	1638.964844	1461.583008
2774.644947	17468.205667	1637.931641	1530.582275
2774.644947	17468.205667	1636.899414	1425.959106
2774.644947	17468.205667	1635.867188	1550.477051
2774.644947	17468.205667	1634.833984	1214.472046
2774.644947	17468.205667	1633.800781	1306.561157
2774.644947	17468.205667	1632.767578	1454.118286
2774.644947	17468.205667	1631.734375	1492.930420
2774.644947	17468.205667	1630.700195	1557.138184
2774.644947	17468.205667	1629.666016	1822.425903
2774.644947	17468.205667	1628.631836	1636.949951
2774.644947	17468.205667	1627.597656	1585.567627
2774.644947	17468.205667	1626.563477	1561.933960
2774.644947	17468.205667	1625.528320	1730.006958
2774.644947	17468.205667	1624.493164	1837.982788
2774.644947	17468.205667	1623.458008	1705.807739
2774.644947	17468.205667	1622.422852	1816.081299
2774.644947	17468.205667	1621.387695	1711.686035
2774.644947	17468.205667	1620.351563	1824.236328
2774.644947	17468.205667	1619.315430	1883.698730
2774.644947	17468.205667	1618.279297	1733.257813
2774.644947	17468.205667	1617.243164	1993.395752
2774.644947	17468.205667	1616.207031	2022.884888
2774.644947	17468.205667	1615.169922	1851.812378
2774.644947	17468.205667	1614.132813	2028.862305
2774.644947	17468.205667	1613.095703	1779.564941
2774.644947	17468.205667	1612.058594	1875.985474
2774.644947	17468.205667	1611.020508	2002.328247
2774.644947	17468.205667	1609.983398	2101.039795
2774.644947	17468.205667	1608.945313	1994.802124
2774.644947	17468.205667	1607.907227	2035.982178
2774.644947	17468.205667	1606.868164	2005.816528
2774.644947	17468.205667	1605.830078	2309.401367
2774.644947	17468.205667	1604.791016	2279.282227
2774.644947	17468.205667	1603.751953	2078.996826
2774.644947	17468.205667	1602.712891	2207.719971
2774.644947	17468.205667	1601.673828	2186.980713
2774.644947	17468.205667	1600.633789	2099.612793
2774.644947	17468.205667	1599.594727	2219.218750
2774.644947	17468.205667	1598.554688	2177.948730
2774.644947	17468.205667	1597.513672	2060.912842
2774.644947	17468.205667	1596.473633	2371.276855
2774.644947	17468.205667	1595.433594	2196.966309
2774.644947	17468.205667	1594.392578	2220.251709
2774.644947	17468.205667	1593.351563	2197.674561
2774.644947	17468.205667	1592.310547	1851.520874
2774.644947	17468.205667	1591.268555	2058.634521
2774.644947	17468.205667	1590.227539	2162.503418
2774.644947	17468.205667	1589.185547	2151.680420
2774.644947	17468.205667	1588.143555	2478.094971
2774.644947	17468.205667	1587.100586	2180.702148
2774.644947	17468.205667	1586.058594	1881.225098
2774.644947	17468.205667	1585.015625	2028.916504
2774.644947	17468.205667	1583.972656	1986.407959
2774.644947	17468.205667	1582.929688	1905.045654
2774.644947	17468.205667	1581.886719	2192.634033
2774.644947	17468.205667	1580.843750	2333.604248
2774.644947	17468.205667	1579.799805	2121.927246
2774.644947	17468.205667	1578.755859	2072.979004
2774.644947	17468.205667	1577.711914	2092.813965
2774.644947	17468.205667	1576.666992	2373.622070
2774.644947	17468.205667	1575.623047	1894.740845
2774.644947	17468.205667	1574.578125	2395.291016
2774.644947	17468.205667	1573.533203	2301.036621
2774.644947	17468.205667	1572.488281	2245.791992
2774.644947	17468.205667	1571.443359	2268.407715
2774.644947	17468.205667	1570.397461	2003.062988
2774.644947	17468.205667	1569.351563	1888.771240
2774.644947	17468.205667	1568.305664	1818.043945
2774.644947	17468.205667	1567.259766	2051.304443
2774.644947	17468.205667	1566.213867	2152.096680
2774.644947	17468.205667	1565.166992	2020.000610
2774.644947	17468.205667	1564.120117	1878.931641
2774.644947	17468.205667	1563.073242	1633.018066
2774.644947	17468.205667	1562.026367	1652.072021
2774.644947	17468.205667	1560.978516	1919.946533
2774.644947	17468.205667	1559.930664	2019.002197
2774.644947	17468.205667	1558.883789	1780.552246
2774.644947	17468.205667	1557.834961	1601.582275
2774.644947	17468.205667	1556.787109	1573.304443
2774.644947	17468.205667	1555.739258	1526.921997
2774.644947	17468.205667	1554.690430	1792.921387
2774.644947	17468.205667	1553.641602	1721.676270
2774.644947	17468.205667	1552.592773	1857.912476
2774.644947	17468.205667	1551.542969	1729.970337
2774.644947	17468.205667	1550.494141	1522.508545
2774.644947	17468.205667	1549.444336	1529.281372
2774.644947	17468.205667	1548.394531	1422.354736
2774.644947	17468.205667	1547.344727	1392.985840
2774.644947	17468.205667	1546.293945	1311.408203
2774.644947	17468.205667	1545.244141	1550.814331
2774.644947	17468.205667	1544.193359	1442.207520
2774.644947	17468.205667	1543.142578	1376.991211
2774.644947	17468.205667	1542.090820	1232.337891
2774.644947	17468.205667	1541.040039	1106.080566
2774.644947	17468.205667	1539.988281	1016.367065
2774.644947	17468.205667	1538.936523	824.564087
2774.644947	17468.205667	1537.884766	1026.049561
2774.644947	17468.205667	1536.833008	850.505066
2774.644947	17468.205667	1535.780273	788.721191
2774.644947	17468.205667	1534.727539	1022.302185
2774.644947	17468.205667	1533.674805	770.094666
2774.644947	17468.205667	1532.622070	799.593628
2774.644947	17468.205667	1531.569336	831.497314
2774.644947	17468.205667	1530.515625	818.146729
2774.644947	17468.205667	1529.461914	866.200867
2774.644947	17468.205667	1528.408203	680.776917
2774.644947	17468.205667	1527.354492	665.648071
2774.644947	17468.205667	1526.299805	691.475220
2774.644947	17468.205667	1525.246094	468.118927
2774.644947	17468.205667	1524.191406	748.103271
2774.644947	17468.205667	1523.136719	608.957581
2774.644947	17468.205667	1522.081055	399.786469
2774.644947	17468.205667	1521.026367	467.184662
2774.644947	17468.205667	1519.970703	509.795532
2774.644947	17468.205667	1518.915039	554.810791
2774.644947	17468.205667	1517.859375	328.340393
2774.644947	17468.205667	1516.802734	314.842377
2774.644947	17468.205667	1515.747070	192.912674
2774.644947	17468.205667	1514.690430	430.877808
2774.644947	17468.205667	1513.633789	261.789856
2774.644947	17468.205667	1512.577148	111.023491
2774.644947	17468.205667	1511.519531	261.170135
2774.644947	17468.205667	1510.461914	-51.968636
2774.644947	17468.205667	1509.405273	349.347656
2774.644947	17468.205667	1508.346680	-62.780819
2774.644947	17468.205667	1507.289063	85.683502
2774.644947	17468.205667	1506.231445	-39.039783
2774.644947	17468.205667	1505.172852	-50.643566
2774.644947	17468.205667	1504.114258	-100.456177
2774.644947	17468.205667	1503.055664	28.246450
2774.644947	17468.205667	1501.996094	181.885162
2774.644947	17468.205667	1500.937500	116.770065
2774.644947	17468.205667	1499.877930	15.748405
2774.644947	17468.205667	1498.818359	-26.419195
2774.644947	17468.205667	1497.757813	-181.158005
2774.644947	17468.205667	1496.698242	-209.398529
2774.644947	17468.205667	1495.637695	60.088562
2774.644947	17468.205667	1494.577148	102.016296
2774.644947	17468.205667	1493.516602	69.742371
2774.644947	17468.205667	1492.456055	46.666470
2774.644947	17468.205667	1491.394531	-59.570377
2774.644947	17468.205667	1490.333008	-48.489258
2774.644947	17468.205667	1489.271484	-127.296989
2774.644947	17468.205667	1488.209961	-7.807842
2774.644947	17468.205667	1487.148438	-11.972801
2774.644947	17468.205667	1486.085938	80.791313
2774.644947	17468.205667	1485.023438	-71.521889
2774.644947	17468.205667	1483.960938	66.553558
2774.644947	17468.205667	1482.898438	27.096849
2774.644947	17468.205667	1481.834961	163.196640
2774.644947	17468.205667	1480.772461	70.134056
2774.644947	17468.205667	1479.708984	172.810074
2774.644947	17468.205667	1478.644531	-14.226911
2774.644947	17468.205667	1477.581055	117.985786
2774.644947	17468.205667	1476.517578	283.997009
2774.644947	17468.205667	1475.453125	248.042831
2774.644947	17468.205667	1474.388672	115.792747
2774.644947	17468.205667	1473.323242	6.082709
2774.644947	17468.205667	1472.258789	287.093384
2774.644947	17468.205667	1471.193359	431.325958
2774.644947	17468.205667	1470.127930	387.296844
2774.644947	17468.205667	1469.062500	305.337006
2774.644947	17468.205667	1467.997070	389.789093
2774.644947	17468.205667	1466.930664	505.312195
2774.644947	17468.205667	1465.865234	305.240173
2774.644947	17468.205667	1464.798828	584.857361
2774.644947	17468.205667	1463.731445	546.308472
2774.644947	17468.205667	1462.665039	469.696960
2774.644947	17468.205667	1461.597656	621.475952
2774.644947	17468.205667	1460.530273	534.648621
2774.644947	17468.205667	1459.462891	513.496887
2774.644947	17468.205667	1458.395508	544.571228
2774.644947	17468.205667	1457.327148	531.703979
2774.644947	17468.205667	1456.259766	571.030640
2774.644947	17468.205667	1455.191406	558.321594
2774.644947	17468.205667	1454.123047	368.010559
2774.644947	17468.205667	1453.053711	662.349426
2774.644947	17468.205667	1451.985352	551.549377
2774.644947	17468.205667	1450.916016	509.064728
2774.644947	17468.205667	1449.846680	761.960327
2774.644947	17468.205667	1448.776367	630.615540
2774.644947	17468.205667	1447.707031	590.883728
2774.644947	17468.205667	1446.636719	791.120972
2774.644947	17468.205667	1445.566406	917.453796
2774.644947	17468.205667	1444.496094	600.746948
2774.644947	17468.205667	1443.425781	670.039978
2774.644947	17468.205667	1442.354492	689.315674
2774.644947	17468.205667	1441.283203	741.489014
2774.644947	17468.205667	1440.211914	767.034973
2774.644947	17468.205667	1439.140625	589.046814
2774.644947	17468.205667	1438.069336	383.989777
2774.644947	17468.205667	1436.997070	532.455750
2774.644947	17468.205667	1435.924805	316.585327
2774.644947	17468.205667	1434.852539	564.461975
2774.644947	17468.205667	1433.780273	314.407257
2774.644947	17468.205667	1432.707031	300.894531
2774.644947	17468.205667	1431.633789	195.212204
2774.644947	17468.205667	1430.560547	107.580276
2774.644947	17468.205667	1429.487305	297.072327
2774.644947	17468.205667	1428.413086	374.497162
2774.644947	17468.205667	1427.339844	383.977386
2774.644947	17468.205667	1426.265625	370.605103
2774.644947	17468.205667	1425.191406	314.984131
2774.644947	17468.205667	1424.116211	517.918945
2774.644947	17468.205667	1423.041992	529.476196
2774.644947	17468.205667	1421.966797	448.175934
2774.644947	17468.205667	1420.891602	462.839020
2774.644947	17468.205667	1419.816406	451.361206
2774.644947	17468.205667	1418.740234	471.839661
2774.644947	17468.205667	1417.665039	624.926331
2774.644947	17468.205667	1416.588867	441.183716
2774.644947	17468.205667	1415.512695	708.754211
2774.644947	17468.205667	1414.435547	673.549927
2774.644947	17468.205667	1413.359375	904.896484
2774.644947	17468.205667	1412.282227	839.527405
2774.644947	17468.205667	1411.205078	869.315857
2774.644947	17468.205667	1410.127930	888.309753
2774.644947	17468.205667	1409.049805	805.522461
2774.644947	17468.205667	1407.972656	864.869995
2774.644947	17468.205667	1406.894531	995.085205
2774.644947	17468.205667	1405.816406	861.978943
2774.644947	17468.205667	1404.737305	1262.678467
2774.644947	17468.205667	1403.659180	1198.905151
2774.644947	17468.205667	1402.580078	1072.385010
2774.644947	17468.205667	1401.500977	1092.313354
2774.644947	17468.205667	1400.421875	1147.948853
2774.644947	17468.205667	1399.341797	1451.352905
2774.644947	17468.205667	1398.262695	1397.266968
2774.644947	17468.205667	1397.182617	1578.145142
2774.644947	17468.205667	1396.102539	1315.574097
2774.644947	17468.205667	1395.021484	1184.893311
2774.644947	17468.205667	1393.941406	1315.780640
2774.644947	17468.205667	1392.860352	1131.501587
2774.644947	17468.205667	1391.779297	1150.419922
2774.644947	17468.205667	1390.698242	1250.593140
2774.644947	17468.205667	1389.616211	1338.214478
2774.644947	17468.205667	1388.535156	1142.026978
2774.644947	17468.205667	1387.453125	1261.160645
2774.644947	17468.205667	1386.371094	1016.205261
2774.644947	17468.205667	1385.288086	1179.442261
2774.644947	17468.205667	1384.206055	1091.572754
2774.644947	17468.205667	1383.123047	1234.344849
2774.644947	17468.205667	1382.040039	1106.244141
2774.644947	17468.205667	1380.957031	1052.999023
2774.644947	17468.205667	1379.873047	971.894531
2774.644947	17468.205667	1378.789063	1021.893433
2774.644947	17468.205667	1377.705078	1099.687988
2774.644947	17468.205667	1376.621094	1123.289551
2774.644947	17468.205667	1375.537109	928.718506
2774.644947	17468.205667	1374.452148	1164.126709
2774.644947	17468.205667	1373.367188	1012.998718
2774.644947	17468.205667	1372.282227	1023.047302
2774.644947	17468.205667	1371.197266	1167.230103
2774.644947	17468.205667	1370.112305	947.056702
2774.644947	17468.205667	1369.026367	1012.946045
2774.644947	17468.205667	1367.940430	1012.649719
2774.644947	17468.205667	1366.854492	916.415527
2774.644947	17468.205667	1365.767578	972.017151
2774.644947	17468.205667	1364.681641	1075.447510
2774.644947	17468.205667	1363.594727	1228.126343
2774.644947	17468.205667	1362.507813	979.083252
2774.644947	17468.205667	1361.419922	1236.410522
2774.644947	17468.205667	1360.333008	919.469482
2774.644947	17468.205667	1359.245117	962.342773
2774.644947	17468.205667	1358.157227	1083.799561
2774.644947	17468.205667	1357.069336	1073.802612
2774.644947	17468.205667	1355.981445	1163.703003
2774.644947	17468.205667	1354.892578	1330.224731
2774.644947	17468.205667	1353.803711	1415.581787
2774.644947	17468.205667	1352.714844	1400.184082
2774.644947	17468.205667	1351.625000	1117.343506
2774.644947	17468.205667	1350.536133	1332.465576
2774.644947	17468.205667	1349.446289	1479.325928
2774.644947	17468.205667	1348.356445	1434.643311
2774.644947	17468.205667	1347.266602	1342.861450
2774.644947	17468.205667	1346.175781	1677.778320
2774.644947	17468.205667	1345.085938	1695.937988
2774.644947	17468.205667	1343.995117	1719.148193
2774.644947	17468.205667	1342.903320	1741.607178
2774.644947	17468.205667	1341.812500	1636.578247
2774.644947	17468.205667	1340.720703	1651.799438
2774.644947	17468.205667	1339.629883	1795.617920
2774.644947	17468.205667	1338.538086	1839.939819
2774.644947	17468.205667	1337.445313	1993.056885
2774.644947	17468.205667	1336.353516	1824.624512
2774.644947	17468.205667	1335.260742	2139.970947
2774.644947	17468.205667	1334.167969	2156.656006
2774.644947	17468.205667	1333.075195	1977.195557
2774.644947	17468.205667	1331.981445	1689.383423
2774.644947	17468.205667	1330.888672	1778.509033
2774.644947	17468.205667	1329.794922	1980.403320
2774.644947	17468.205667	1328.701172	1993.998535
2774.644947	17468.205667	1327.606445	1930.912842
2774.644947	17468.205667	1326.512695	1735.502441
2774.644947	17468.205667	1325.417969	1792.812744
2774.644947	17468.205667	1324.323242	2135.196533
2774.644947	17468.205667	1323.227539	1889.439209
2774.644947	17468.205667	1322.132813	1949.106567
2774.644947	17468.205667	1321.037109	1744.728760
2774.644947	17468.205667	1319.941406	1800.619385
2774.644947	17468.205667	1318.845703	1513.662720
2774.644947	17468.205667	1317.750000	1661.056641
2774.644947	17468.205667	1316.653320	1605.139526
2774.644947	17468.205667	1315.556641	1506.657471
2774.644947	17468.205667	1314.459961	1561.953613
2774.644947	17468.205667	1313.363281	1327.315796
2774.644947	17468.205667	1312.265625	1394.293457
2774.644947	17468.205667	1311.167969	1374.974243
2774.644947	17468.205667	1310.070313	1107.581299
2774.644947	17468.205667	1308.972656	1155.838867
2774.644947	17468.205667	1307.874023	1139.755737
2774.644947	17468.205667	1306.776367	1269.769409
2774.644947	17468.205667	1305.677734	1017.735718
2774.644947	17468.205667	1304.579102	973.429321
2774.644947	17468.205667	1303.479492	937.601257
2774.644947	17468.205667	1302.380859	1040.123413
2774.644947	17468.205667	1301.281250	873.087219
2774.644947	17468.205667	1300.181641	881.219360
2774.644947	17468.205667	1299.081055	1005.386292
2774.644947	17468.205667	1297.981445	971.700867
2774.644947	17468.205667	1296.880859	783.509583
2774.644947	17468.205667	1295.780273	890.659180
2774.644947	17468.205667	1294.679688	977.857422
2774.644947	17468.205667	1293.578125	879.516663
2774.644947	17468.205667	1292.476563	771.331299
2774.644947	17468.205667	1291.375000	894.684875
2774.644947	17468.205667	1290.273438	664.993042
2774.644947	17468.205667	1289.171875	872.682251
2774.644947	17468.205667	1288.069336	918.947327
2774.644947	17468.205667	1286.966797	877.071411
2774.644947	17468.205667	1285.864258	759.471191
2774.644947	17468.205667	1284.761719	844.669800
2774.644947	17468.205667	1283.658203	741.606262
2774.644947	17468.205667	1282.554688	601.414368
2774.644947	17468.205667	1281.451172	714.952087
2774.644947	17468.205667	1280.347656	594.059143
2774.644947	17468.205667	1279.244141	697.599426
2774.644947	17468.205667	1278.139648	594.458374
2774.644947	17468.205667	1277.035156	659.768616
2774.644947	17468.205667	1275.930664	738.978271
2774.644947	17468.205667	1274.825195	598.258728
2774.644947	17468.205667	1273.720703	493.623718
2774.644947	17468.205667	1272.615234	524.502502
2774.644947	17468.205667	1271.508789	608.055969
2774.644947	17468.205667	1270.403320	636.784119
2774.644947	17468.205667	1269.297852	610.027466
2774.644947	17468.205667	1268.191406	609.919495
2774.644947	17468.205667	1267.084961	541.503052
2774.644947	17468.205667	1265.977539	446.204651
2774.644947	17468.205667	1264.871094	302.840759
2774.644947	17468.205667	1263.763672	728.262451
2774.644947	17468.205667	1262.656250	644.829041
2774.644947	17468.205667	1261.548828	659.216309
2774.644947	17468.205667	1260.440430	591.291931
2774.644947	17468.205667	1259.333008	650.192871
2774.644947	17468.205667	1258.224609	790.757507
2774.644947	17468.205667	1257.115234	715.442688
2774.644947	17468.205667	1256.006836	770.778076
2774.644947	17468.205667	1254.897461	793.187866
2774.644947	17468.205667	1253.788086	776.901611
2774.644947	17468.205667	1252.678711	799.690796
2774.644947	17468.205667	1251.569336	801.689026
2774.644947	17468.205667	1250.458984	938.691833
2774.644947	17468.205667	1249.349609	877.611938
2774.644947	17468.205667	1248.239258	1036.776611
2774.644947	17468.205667	1247.127930	967.553101
2774.644947	17468.205667	1246.017578	1028.256470
2774.644947	17468.205667	1244.906250	948.695374
2774.644947	17468.205667	1243.794922	1009.629028
2774.644947	17468.205667	1242.683594	777.764465
2774.644947	17468.205667	1241.571289	789.504456
2774.644947	17468.205667	1240.459961	842.852844
2774.644947	17468.205667	1239.347656	840.321472
2774.644947	17468.205667	1238.234375	699.851501
2774.644947	17468.205667	1237.122070	631.183472
2774.644947	17468.205667	1236.008789	700.995789
2774.644947	17468.205667	1234.896484	679.814270
2774.644947	17468.205667	1233.782227	661.930847
2774.644947	17468.205667	1232.668945	685.315369
2774.644947	17468.205667	1231.555664	533.905640
2774.644947	17468.205667	1230.441406	518.545776
2774.644947	17468.205667	1229.327148	382.926056
2774.644947	17468.205667	1228.211914	513.678406
2774.644947	17468.205667	1227.097656	435.209015
2774.644947	17468.205667	1225.982422	544.936157
2774.644947	17468.205667	1224.867188	439.550201
2774.644947	17468.205667	1223.751953	498.452698
2774.644947	17468.205667	1222.635742	339.335114
2774.644947	17468.205667	1221.520508	407.326660
2774.644947	17468.205667	1220.404297	487.167480
2774.644947	17468.205667	1219.287109	361.302002
2774.644947	17468.205667	1218.170898	343.219025
2774.644947	17468.205667	1217.053711	345.029663
2774.644947	17468.205667	1215.936523	384.022369
2774.644947	17468.205667	1214.819336	408.212036
2774.644947	17468.205667	1213.702148	415.402557
2774.644947	17468.205667	1212.583984	361.431641
2774.644947	17468.205667	1211.465820	408.965912
2774.644947	17468.205667	1210.347656	307.857178
2774.644947	17468.205667	1209.229492	561.414307
2774.644947	17468.205667	1208.110352	461.511871
2774.644947	17468.205667	1206.992188	397.324341
2774.644947	17468.205667	1205.873047	405.003937
2774.644947	17468.205667	1204.752930	431.993225
2774.644947	17468.205667	1203.633789	477.870239
2774.644947	17468.205667	1202.513672	459.764526
2774.644947	17468.205667	1201.393555	600.936951
2774.644947	17468.205667	1200.273438	370.689636
2774.644947	17468.205667	1199.152344	467.273865
2774.644947	17468.205667	1198.032227	467.523102
2774.644947	17468.205667	1196.911133	279.282257
2774.644947	17468.205667	1195.790039	257.976563
2774.644947	17468.205667	1194.667969	191.328842
2774.644947	17468.205667	1193.545898	288.805481
2774.644947	17468.205667	1192.424805	397.569427
2774.644947	17468.205667	1191.301758	293.304443
2774.644947	17468.205667	1190.179688	351.829620
2774.644947	17468.205667	1189.056641	415.402222
2774.644947	17468.205667	1187.933594	348.736053
2774.644947	17468.205667	1186.810547	411.924377
2774.644947	17468.205667	1185.687500	389.596588
2774.644947	17468.205667	1184.563477	505.157654
2774.644947	17468.205667	1183.440430	345.526611
2774.644947	17468.205667	1182.316406	375.273621
2774.644947	17468.205667	1181.191406	280.797485
2774.644947	17468.205667	1180.067383	261.056671
2774.644947	17468.205667	1178.942383	219.372971
2774.644947	17468.205667	1177.817383	144.824081
2774.644947	17468.205667	1176.692383	136.090302
2774.644947	17468.205667	1175.566406	101.892555
2774.644947	17468.205667	1174.440430	-53.899193
2774.644947	17468.205667	1173.314453	137.473465
2774.644947	17468.205667	1172.188477	-109.653900
2774.644947	17468.205667	1171.062500	78.750587
2774.644947	17468.205667	1169.935547	147.864685
2774.644947	17468.205667	1168.808594	-67.538010
2774.644947	17468.205667	1167.681641	-118.117966
2774.644947	17468.205667	1166.553711	19.069002
2774.644947	17468.205667	1165.426758	9.443122
2774.644947	17468.205667	1164.298828	-95.473190
2774.644947	17468.205667	1163.170898	-25.967466
2774.644947	17468.205667	1162.041992	-43.777390
2774.644947	17468.205667	1160.914063	82.062759
2774.644947	17468.205667	1159.785156	-0.179973
2774.644947	17468.205667	1158.656250	-24.304533
2774.644947	17468.205667	1157.526367	-145.570297
2774.644947	17468.205667	1156.397461	64.306374
2774.644947	17468.205667	1155.267578	-1.725310
2774.644947	17468.205667	1154.137695	38.960800
2774.644947	17468.205667	1153.006836	-36.867565
2774.644947	17468.205667	1151.876953	-124.355850
2774.644947	17468.205667	1150.746094	-77.055367
2774.644947	17468.205667	1149.615234	-29.043751
2774.644947	17468.205667	1148.484375	82.562645
2774.644947	17468.205667	1147.352539	-63.416973
2774.644947	17468.205667	1146.220703	-93.662552
2774.644947	17468.205667	1145.088867	-135.641006
2774.644947	17468.205667	1143.957031	-24.197147
2774.644947	17468.205667	1142.825195	-16.110378
2774.644947	17468.205667	1141.692383	-143.035416
2774.644947	17468.205667	1140.559570	3.293510
2774.644947	17468.205667	1139.426758	-110.383446
2774.644947	17468.205667	1138.292969	-154.256317
2774.644947	17468.205667	1137.159180	-57.923393
2774.644947	17468.205667	1136.025391	-17.644457
2774.644947	17468.205667	1134.891602	-110.174423
2774.644947	17468.205667	1133.757813	9.134159
2774.644947	17468.205667	1132.623047	27.173954
2774.644947	17468.205667	1131.488281	29.479891
2774.644947	17468.205667	1130.353516	101.888901
2774.644947	17468.205667	1129.217773	35.627449
2774.644947	17468.205667	1128.083008	11.661550
2774.644947	17468.205667	1126.947266	148.321030
2774.644947	17468.205667	1125.811523	242.162689
2774.644947	17468.205667	1124.674805	4.734046
2774.644947	17468.205667	1123.539063	111.954826
2774.644947	17468.205667	1122.402344	-26.119097
2774.644947	17468.205667	1121.265625	29.907280
2774.644947	17468.205667	1120.127930	12.200384
2774.644947	17468.205667	1118.990234	-46.473537
2774.644947	17468.205667	1117.853516	-3.260061
2774.644947	17468.205667	1116.714844	74.811203
2774.644947	17468.205667	1115.577148	10.648044
2774.644947	17468.205667	1114.439453	176.272263
2774.644947	17468.205667	1113.300781	94.494453
2774.644947	17468.205667	1112.162109	144.429962
2774.644947	17468.205667	1111.022461	51.310173
2774.644947	17468.205667	1109.883789	22.940317
2774.644947	17468.205667	1108.744141	124.829826
2774.644947	17468.205667	1107.604492	46.445900
2774.644947	17468.205667	1106.463867	37.871254
2774.644947	17468.205667	1105.324219	154.740784
2774.644947	17468.205667	1104.183594	6.758731
2774.644947	17468.205667	1103.042969	-133.642563
2774.644947	17468.205667	1101.902344	-204.158188
2774.644947	17468.205667	1100.760742	3.310886
2774.644947	17468.205667	1099.619141	59.443302
2774.644947	17468.205667	1098.477539	84.440475
2774.644947	17468.205667	1097.335938	82.420830
2774.644947	17468.205667	1096.193359	-2.416266
2774.644947	17468.205667	1095.051758	154.144440
2774.644947	17468.205667	1093.909180	-35.176361
2774.644947	17468.205667	1092.765625	146.507156
2774.644947	17468.205667	1091.623047	89.584503
2774.644947	17468.205667	1090.479492	-10.367565
2774.644947	17468.205667	1089.335938	71.418152
2774.644947	17468.205667	1088.192383	113.417549
2774.644947	17468.205667	1087.047852	22.643013
2774.644947	17468.205667	1085.903320	87.316048
2774.644947	17468.205667	1084.758789	197.265106
2774.644947	17468.205667	1083.614258	-39.014374
2774.644947	17468.205667	1082.469727	214.655670
2774.644947	17468.205667	1081.324219	203.024673
2774.644947	17468.205667	1080.178711	197.307617
2774.644947	17468.205667	1079.033203	372.690430
2774.644947	17468.205667	1077.886719	202.946732
2774.644947	17468.205667	1076.740234	282.206818
2774.644947	17468.205667	1075.593750	371.767914
2774.644947	17468.205667	1074.447266	195.032715
2774.644947	17468.205667	1073.300781	223.287750
2774.644947	17468.205667	1072.153320	104.326904
2774.644947	17468.205667	1071.005859	306.308105
2774.644947	17468.205667	1069.858398	310.721985
2774.644947	17468.205667	1068.709961	235.963806
2774.644947	17468.205667	1067.561523	185.242508
2774.644947	17468.205667	1066.413086	125.959831
2774.644947	17468.205667	1065.264648	213.363266
2774.644947	17468.205667	1064.116211	366.920990
2774.644947	17468.205667	1062.966797	143.597382
2774.644947	17468.205667	1061.817383	279.284241
2774.644947	17468.205667	1060.667969	220.386307
2774.644947	17468.205667	1059.517578	88.245697
2774.644947	17468.205667	1058.368164	153.190125
2774.644947	17468.205667	1057.217773	36.144596
2774.644947	17468.205667	1056.067383	217.225845
2774.644947	17468.205667	1054.916016	57.603912
2774.644947	17468.205667	1053.764648	-45.869961
2774.644947	17468.205667	1052.613281	-14.503926
2774.644947	17468.205667	1051.461914	-14.679368
2774.644947	17468.205667	1050.310547	213.721359
2774.644947	17468.205667	1049.158203	162.238144
2774.644947	17468.205667	1048.005859	84.661011
2774.644947	17468.205667	1046.853516	79.450356
2774.644947	17468.205667	1045.700195	178.809036
2774.644947	17468.205667	1044.547852	-2.796206
2774.644947	17468.205667	1043.394531	14.720467
2774.644947	17468.205667	1042.240234	116.777344
2774.644947	17468.205667	1041.086914	90.359047
2774.644947	17468.205667	1039.932617	306.361694
2774.644947	17468.205667	1038.778320	104.196754
2774.644947	17468.205667	1037.624023	98.260262
2774.644947	17468.205667	1036.469727	26.933527
2774.644947	17468.205667	1035.314453	253.308624
2774.644947	17468.205667	1034.159180	317.574615
2774.644947	17468.205667	1033.003906	342.746643
2774.644947	17468.205667	1031.847656	216.340424
2774.644947	17468.205667	1030.692383	198.688171
2774.644947	17468.205667	1029.536133	228.791595
2774.644947	17468.205667	1028.378906	160.158813
2774.644947	17468.205667	1027.222656	294.796143
2774.644947	17468.205667	1026.065430	19.963781
2774.644947	17468.205667	1024.908203	54.823833
2774.644947	17468.205667	1023.750977	163.862137
2774.644947	17468.205667	1022.593750	93.668030
2774.644947	17468.205667	1021.435547	19.731497
2774.644947	17468.205667	1020.277344	59.656212
2774.644947	17468.205667	1019.119141	44.909458
2774.644947	17468.205667	1017.959961	107.777954
2774.644947	17468.205667	1016.800781	272.502228
2774.644947	17468.205667	1015.641602	143.315170
2774.644947	17468.205667	1014.482422	34.993656
2774.644947	17468.205667	1013.323242	108.331108
2774.644947	17468.205667	1012.163086	177.717560
2774.644947	17468.205667	1011.002930	262.095917
2774.644947	17468.205667	1009.842773	-1.703321
2774.644947	17468.205667	1008.681641	-181.913254
2774.644947	17468.205667	1007.520508	28.827080
2774.644947	17468.205667	1006.359375	-29.036543
2774.644947	17468.205667	1005.198242	130.467056
2774.644947	17468.205667	1004.037109	187.673294
2774.644947	17468.205667	1002.875000	-55.438263
2774.644947	17468.205667	1001.712891	138.334351
2774.644947	17468.205667	1000.550781	177.612686
2774.644947	17468.205667	999.387695	-38.174583
2774.644947	17468.205667	998.224609	42.526161
2774.644947	17468.205667	997.061523	-91.918411
2774.644947	17468.205667	995.898438	-55.318386
2774.644947	17468.205667	994.734375	26.802593
2774.644947	17468.205667	993.571289	62.489212
2774.644947	17468.205667	992.407227	124.984726
2774.644947	17468.205667	991.242188	-113.994705
2774.644947	17468.205667	990.078125	23.897547
2774.644947	17468.205667	988.913086	-42.807377
2774.644947	17468.205667	987.748047	-96.654198
2774.644947	17468.205667	986.583008	-93.346581
2774.644947	17468.205667	985.416992	-114.920166
2774.644947	17468.205667	984.250977	-104.044586
2774.644947	17468.205667	983.084961	-81.325867
2774.644947	17468.205667	981.918945	-29.535065
2774.644947	17468.205667	980.751953	-119.055618
2774.644947	17468.205667	979.584961	-71.625404
2774.644947	17468.205667	978.417969	34.181763
2774.644947	17468.205667	977.250977	-17.462812
2774.644947	17468.205667	976.083008	-84.665352
2774.644947	17468.205667	974.915039	-83.323784
2774.644947	17468.205667	973.747070	16.921652
2774.644947	17468.205667	972.579102	-64.202095
2774.644947	17468.205667	971.410156	-31.512306
2774.644947	17468.205667	970.242188	-7.696547
2774.644947	17468.205667	969.072266	147.633301
2774.644947	17468.205667	967.903320	138.919922
2774.644947	17468.205667	966.733398	74.160072
2774.644947	17468.205667	965.563477	132.031189
2774.644947	17468.205667	964.393555	116.316841
2774.644947	17468.205667	963.223633	169.929474
2774.644947	17468.205667	962.052734	45.708790
2774.644947	17468.205667	960.881836	101.179977
2774.644947	17468.205667	959.710938	-42.163467
2774.644947	17468.205667	958.540039	158.556717
2774.644947	17468.205667	957.368164	53.747486
2774.644947	17468.205667	956.196289	120.331573
2774.644947	17468.205667	955.024414	259.777069
2774.644947	17468.205667	953.851563	311.896088
2774.644947	17468.205667	952.679688	119.220558
2774.644947	17468.205667	951.506836	177.469116
2774.644947	17468.205667	950.333984	20.915180
2774.644947	17468.205667	949.160156	-123.636055
2774.644947	17468.205667	947.986328	209.008789
2774.644947	17468.205667	946.812500	0.252311
2774.644947	17468.205667	945.638672	91.004944
2774.644947	17468.205667	944.464844	-136.197906
2774.644947	17468.205667	943.290039	45.520126
2774.644947	17468.205667	942.115234	-61.153385
2774.644947	17468.205667	940.940430	114.410706
2774.644947	17468.205667	939.764648	171.071091
2774.644947	17468.205667	938.588867	0.003696
2774.644947	17468.205667	937.413086	-124.380142
2774.644947	17468.205667	936.237305	70.889534
2774.644947	17468.205667	935.060547	64.960365
2774.644947	17468.205667	933.883789	-27.329571
2774.644947	17468.205667	932.707031	-47.377533
2774.644947	17468.205667	931.530273	220.353775
2774.644947	17468.205667	930.352539	194.266785
2774.644947	17468.205667	929.175781	125.789581
2774.644947	17468.205667	927.998047	83.521736
2774.644947	17468.205667	926.819336	-75.351105
2774.644947	17468.205667	925.641602	11.049456
2774.644947	17468.205667	924.462891	37.118732
2774.644947	17468.205667	923.284180	6.881443
2774.644947	17468.205667	922.104492	135.390228
2774.644947	17468.205667	920.924805	191.491119
2774.644947	17468.205667	919.746094	193.535110
2774.644947	17468.205667	919.551758	-3.230751
2774.644947	17468.205667	918.386719	115.066246
2774.644947	17468.205667	917.220703	-83.981552
2774.644947	17468.205667	916.054688	-36.025135
2774.644947	17468.205667	914.887695	37.986023
2774.644947	17468.205667	913.721680	-22.514702
2774.644947	17468.205667	912.554688	-269.609955
2774.644947	17468.205667	911.387695	49.078587
2774.644947	17468.205667	910.220703	-203.990005
2774.644947	17468.205667	909.052734	26.284479
2774.644947	17468.205667	907.885742	-136.500381
2774.644947	17468.205667	906.717773	-154.921585
2774.644947	17468.205667	905.548828	-151.310211
2774.644947	17468.205667	904.380859	-171.765839
2774.644947	17468.205667	903.211914	-102.089249
2774.644947	17468.205667	902.042969	-30.458641
2774.644947	17468.205667	900.874023	-175.133759
2774.644947	17468.205667	899.704102	8.551818
2774.644947	17468.205667	898.535156	-80.069725
2774.644947	17468.205667	897.365234	207.539520
2774.644947	17468.205667	896.194336	-23.178139
2774.644947	17468.205667	895.024414	154.243362
2774.644947	17468.205667	893.853516	225.576172
2774.644947	17468.205667	892.682617	88.910721
2774.644947	17468.205667	891.511719	118.204987
2774.644947	17468.205667	890.340820	265.389587
2774.644947	17468.205667	889.168945	166.704971
2774.644947	17468.205667	887.997070	151.950592
2774.644947	17468.205667	886.825195	167.141998
2774.644947	17468.205667	885.653320	-55.343891
2774.644947	17468.205667	884.480469	77.645355
2774.644947	17468.205667	883.307617	-44.960873
2774.644947	17468.205667	882.134766	125.850044
2774.644947	17468.205667	880.961914	55.121944
2774.644947	17468.205667	879.788086	-121.334602
2774.644947	17468.205667	878.614258	69.269218
2774.644947	17468.205667	877.440430	166.044617
2774.644947	17468.205667	876.266602	13.533471
2774.644947	17468.205667	875.091797	-53.221333
2774.644947	17468.205667	873.916992	159.047577
2774.644947	17468.205667	872.742188	76.303940
2774.644947	17468.205667	871.567383	1.541757
2774.644947	17468.205667	870.391602	102.061623
2774.644947	17468.205667	869.215820	-92.202042
2774.644947	17468.205667	868.040039	4.268184
2774.644947	17468.205667	866.864258	60.864719
2774.644947	17468.205667	865.687500	85.572632
2774.644947	17468.205667	864.510742	92.340065
2774.644947	17468.205667	863.333984	43.378761
2774.644947	17468.205667	862.157227	-1.608342
2774.644947	17468.205667	860.979492	-32.682175
2774.644947	17468.205667	859.802734	33.648651
2774.644947	17468.205667	858.625000	167.509506
2774.644947	17468.205667	857.446289	122.436256
2774.644947	17468.205667	856.268555	-37.883320
2774.644947	17468.205667	855.089844	107.752190
2774.644947	17468.205667	853.911133	201.666046
2774.644947	17468.205667	852.731445	-18.217476
2774.644947	17468.205667	851.552734	115.335426
2774.644947	17468.205667	850.373047	-68.765038
2774.644947	17468.205667	849.193359	-50.406467
2774.644947	17468.205667	848.013672	142.511490
2774.644947	17468.205667	846.833008	33.814316
2774.644947	17468.205667	845.652344	-100.647255
2774.644947	17468.205667	844.471680	-20.938902
2774.644947	17468.205667	843.291016	5.183256
2774.644947	17468.205667	842.110352	49.103725
2774.644947	17468.205667	840.928711	-208.220322
2774.644947	17468.205667	839.747070	-249.522018
2774.644947	17468.205667	838.564453	-106.624519
2774.644947	17468.205667	837.382813	42.125439
2774.644947	17468.205667	836.200195	-62.647694
2774.644947	17468.205667	835.017578	-147.613510
2774.644947	17468.205667	833.834961	34.607594
2774.644947	17468.205667	832.651367	42.595642
2774.644947	17468.205667	831.467773	111.876427
2774.644947	17468.205667	830.284180	107.915466
2774.644947	17468.205667	829.100586	141.496658
2774.644947	17468.205667	827.916992	161.191940
2774.644947	17468.205667	826.732422	85.966003
2774.644947	17468.205667	825.547852	36.429680
2774.644947	17468.205667	824.363281	275.357086
2774.644947	17468.205667	823.177734	302.778229
2774.644947	17468.205667	821.992188	71.423164
2774.644947	17468.205667	820.806641	75.111900
2774.644947	17468.205667	819.621094	406.486694
2774.644947	17468.205667	818.434570	90.274712
2774.644947	17468.205667	817.249023	164.895660
2774.644947	17468.205667	816.062500	184.205490
2774.644947	17468.205667	814.875000	164.019241
2774.644947	17468.205667	813.688477	534.300720
2774.644947	17468.205667	812.500977	512.006348
2774.644947	17468.205667	811.313477	436.456177
2774.644947	17468.205667	810.125977	571.794495
2774.644947	17468.205667	808.937500	541.510864
2774.644947	17468.205667	807.749023	369.350372
2774.644947	17468.205667	806.560547	248.435699
2774.644947	17468.205667	805.372070	375.669861
2774.644947	17468.205667	804.182617	95.241508
2774.644947	17468.205667	802.994141	145.604324
2774.644947	17468.205667	801.803711	268.726318
2774.644947	17468.205667	800.614258	354.370239
2774.644947	17468.205667	799.424805	373.049957
2774.644947	17468.205667	798.234375	234.327103
2774.644947	17468.205667	797.043945	406.328796
2774.644947	17468.205667	795.852539	680.452454
2774.644947	17468.205667	794.662109	559.319275
2774.644947	17468.205667	793.470703	618.998718
2774.644947	17468.205667	792.279297	596.085999
2774.644947	17468.205667	791.087891	616.358093
2774.644947	17468.205667	789.895508	508.914398
2774.644947	17468.205667	788.703125	485.907745
2774.644947	17468.205667	787.510742	456.976501
2774.644947	17468.205667	786.318359	498.675018
2774.644947	17468.205667	785.125000	289.120209
2774.644947	17468.205667	783.931641	362.138855
2774.644947	17468.205667	782.738281	437.042145
2774.644947	17468.205667	781.544922	400.080750
2774.644947	17468.205667	780.350586	349.360718
2774.644947	17468.205667	779.156250	357.427704
2774.644947	17468.205667	777.961914	404.644714
2774.644947	17468.205667	776.767578	545.854248
2774.644947	17468.205667	775.572266	645.814453
2774.644947	17468.205667	774.376953	502.797791
2774.644947	17468.205667	773.181641	541.920166
2774.644947	17468.205667	771.986328	905.997742
2774.644947	17468.205667	770.790039	1160.251465
2774.644947	17468.205667	769.593750	1001.395386
2774.644947	17468.205667	768.397461	1163.458374
2774.644947	17468.205667	767.201172	1028.043945
2774.644947	17468.205667	766.003906	957.180298
2774.644947	17468.205667	764.806641	829.585632
2774.644947	17468.205667	763.609375	752.826050
2774.644947	17468.205667	762.412109	816.786133
2774.644947	17468.205667	761.213867	786.860413
2774.644947	17468.205667	760.015625	878.037537
2774.644947	17468.205667	758.817383	1045.310547
2774.644947	17468.205667	757.618164	794.503540
2774.644947	17468.205667	756.419922	893.277222
2774.644947	17468.205667	755.220703	911.912720
2774.644947	17468.205667	754.021484	994.900024
2774.644947	17468.205667	752.821289	921.682312
2774.644947	17468.205667	751.621094	920.630371
2774.644947	17468.205667	750.420898	1087.280273
2774.644947	17468.205667	749.220703	1068.536133
2774.644947	17468.205667	748.020508	1195.981689
2774.644947	17468.205667	746.819336	1206.354858
2774.644947	17468.205667	745.618164	1339.456543
2774.644947	17468.205667	744.416992	1376.967163
2774.644947	17468.205667	743.214844	1570.260376
2774.644947	17468.205667	742.012695	1560.849854
2774.644947	17468.205667	740.810547	1481.282471
2774.644947	17468.205667	739.608398	1561.346191
2774.644947	17468.205667	738.406250	1598.495972
2774.644947	17468.205667	737.203125	1653.088623
2774.644947	17468.205667	736.000000	1927.473267
2774.644947	17468.205667	734.795898	2160.833496
2774.644947	17468.205667	733.592773	2183.990234
2774.644947	17468.205667	732.388672	2319.861572
2774.644947	17468.205667	731.184570	1827.668335
2774.644947	17468.205667	729.979492	1642.729492
2774.644947	17468.205667	728.775391	1543.321533
2774.644947	17468.205667	727.570313	1294.292969
2774.644947	17468.205667	726.365234	1326.974854
2774.644947	17468.205667	725.160156	934.269531
2774.644947	17468.205667	723.954102	693.121277
2774.644947	17468.205667	722.748047	915.984253
2774.644947	17468.205667	721.541992	736.936646
2774.644947	17468.205667	720.334961	660.750671
2774.644947	17468.205667	719.128906	512.760803
2774.644947	17468.205667	717.921875	570.378784
2774.644947	17468.205667	716.714844	643.430115
2774.644947	17468.205667	715.506836	704.759216
2774.644947	17468.205667	714.298828	581.856689
2774.644947	17468.205667	713.090820	379.489380
2774.644947	17468.205667	711.882813	500.735443
2774.644947	17468.205667	710.674805	360.351898
2774.644947	17468.205667	709.465820	464.006256
2774.644947	17468.205667	708.256836	406.840820
2774.644947	17468.205667	707.047852	707.804016
2774.644947	17468.205667	705.837891	582.751709
2774.644947	17468.205667	704.627930	384.161377
2774.644947	17468.205667	703.417969	570.621094
2774.644947	17468.205667	702.208008	551.904541
2774.644947	17468.205667	700.998047	378.424103
2774.644947	17468.205667	699.787109	290.035492
2774.644947	17468.205667	698.576172	566.998596
2774.644947	17468.205667	697.364258	416.648712
2774.644947	17468.205667	696.153320	525.247864
2774.644947	17468.205667	694.941406	597.037354
2774.644947	17468.205667	693.729492	657.156311
2774.644947	17468.205667	692.516602	554.977905
2774.644947	17468.205667	691.304688	452.794861
2774.644947	17468.205667	690.091797	435.532837
2774.644947	17468.205667	688.878906	497.353516
2774.644947	17468.205667	687.665039	532.079224
2774.644947	17468.205667	686.451172	466.427490
2774.644947	17468.205667	685.237305	643.768799
2774.644947	17468.205667	684.023438	765.064453
2774.644947	17468.205667	682.809570	654.914673
2774.644947	17468.205667	681.594727	700.882690
2774.644947	17468.205667	680.379883	746.783936
2774.644947	17468.205667	679.165039	775.277100
2774.644947	17468.205667	677.949219	670.793701
2774.644947	17468.205667	676.733398	672.230347
2774.644947	17468.205667	675.517578	781.443909
2774.644947	17468.205667	674.301758	998.367676
2774.644947	17468.205667	673.084961	1140.089233
2774.644947	17468.205667	671.869141	1229.756226
2774.644947	17468.205667	670.651367	1377.046387
2774.644947	17468.205667	669.434570	1572.320190
2774.644947	17468.205667	668.216797	1611.699707
2774.644947	17468.205667	667.000000	1981.712646
2774.644947	17468.205667	665.781250	1976.688843
2774.644947	17468.205667	664.563477	1602.644409
2774.644947	17468.205667	663.344727	1664.867188
2774.644947	17468.205667	662.125977	1450.401733
2774.644947	17468.205667	660.907227	1508.709839
2774.644947	17468.205667	659.688477	1163.717773
2774.644947	17468.205667	658.468750	1160.546265
2774.644947	17468.205667	657.249023	1285.936523
2774.644947	17468.205667	656.029297	1019.768066
2774.644947	17468.205667	654.808594	1006.921265
2774.644947	17468.205667	653.587891	807.983154
2774.644947	17468.205667	652.367188	881.414368
2774.644947	17468.205667	651.146484	851.244141
2774.644947	17468.205667	649.924805	713.699402
2774.644947	17468.205667	648.704102	675.846130
2774.644947	17468.205667	647.482422	722.281189
2774.644947	17468.205667	646.259766	628.812866
2774.644947	17468.205667	645.037109	627.290100
2774.644947	17468.205667	643.815430	616.169434
2774.644947	17468.205667	642.591797	691.166992
2774.644947	17468.205667	641.369141	557.474609
2774.644947	17468.205667	640.145508	729.998474
2774.644947	17468.205667	638.921875	586.730225
2774.644947	17468.205667	637.698242	600.355347
2774.644947	17468.205667	636.474609	298.392456
2774.644947	17468.205667	635.250000	338.790070
2774.644947	17468.205667	634.025391	537.817322
2774.644947	17468.205667	632.800781	492.098297
2774.644947	17468.205667	631.575195	440.640167
2774.644947	17468.205667	630.349609	194.319565
2774.644947	17468.205667	629.124023	437.058380
2774.644947	17468.205667	627.898438	251.917267
2774.644947	17468.205667	626.671875	315.034241
2774.644947	17468.205667	625.445313	164.320236
2774.644947	17468.205667	624.218750	431.603455
2774.644947	17468.205667	622.992188	347.683777
2774.644947	17468.205667	621.764648	294.305725
2774.644947	17468.205667	620.537109	118.877342
2774.644947	17468.205667	619.309570	277.206390
2774.644947	17468.205667	618.081055	241.000275
2774.644947	17468.205667	616.852539	29.451271
2774.644947	17468.205667	615.624023	73.335892
2774.644947	17468.205667	614.395508	90.525391
2774.644947	17468.205667	613.166992	204.847092
2774.644947	17468.205667	611.937500	-37.006207
2774.644947	17468.205667	610.708008	124.884384
2774.644947	17468.205667	609.477539	43.043728
2774.644947	17468.205667	608.248047	-42.561703
2774.644947	17468.205667	607.017578	35.503387
2774.644947	17468.205667	605.787109	52.662785
2774.644947	17468.205667	604.555664	-48.106461
2774.644947	17468.205667	603.325195	-21.417965
2774.644947	17468.205667	602.093750	180.167542
2774.644947	17468.205667	600.861328	-76.410210
2774.644947	17468.205667	599.629883	-23.108662
2774.644947	17468.205667	598.397461	-87.620277
2774.644947	17468.205667	597.165039	252.507980
2774.644947	17468.205667	595.932617	-51.298836
2774.644947	17468.205667	594.699219	-53.071350
2774.644947	17468.205667	593.465820	-60.521580
2774.644947	17468.205667	592.232422	-39.484238
2774.644947	17468.205667	590.999023	101.106354
2774.644947	17468.205667	589.764648	124.030190
2774.644947	17468.205667	588.530273	69.201172
2774.644947	17468.205667	587.295898	-67.124588
2774.644947	17468.205667	586.061523	-87.719307
2774.644947	17468.205667	584.826172	13.025219
2774.644947	17468.205667	583.590820	7.628278
2774.644947	17468.205667	582.355469	-147.420624
2774.644947	17468.205667	581.119141	-63.700733
2774.644947	17468.205667	579.882813	27.588427
2774.644947	17468.205667	578.646484	31.769348
2774.644947	17468.205667	577.410156	-126.822777
2774.644947	17468.205667	576.172852	-61.985840
2774.644947	17468.205667	574.935547	-61.478092
2774.644947	17468.205667	573.698242	152.843246
2774.644947	17468.205667	572.460938	13.409058
2774.644947	17468.205667	571.222656	38.588535
2774.644947	17468.205667	569.984375	249.079330
2774.644947	17468.205667	568.746094	13.424585
2774.644947	17468.205667	567.506836	165.322693
2774.644947	17468.205667	566.267578	88.577621
2774.644947	17468.205667	565.028320	140.363342
2774.644947	17468.205667	563.789063	375.368469
2774.644947	17468.205667	562.548828	353.516083
2774.644947	17468.205667	561.309570	197.689896
2774.644947	17468.205667	560.068359	259.021362
2774.644947	17468.205667	558.828125	210.934860
2774.644947	17468.205667	557.586914	202.533463
2774.644947	17468.205667	556.345703	126.283791
2774.644947	17468.205667	555.104492	50.119480
2774.644947	17468.205667	553.863281	96.592308
2774.644947	17468.205667	552.621094	133.671494
2774.644947	17468.205667	551.378906	178.328308
2774.644947	17468.205667	550.136719	322.884003
2774.644947	17468.205667	548.893555	134.002213
2774.644947	17468.205667	547.650391	148.664764
2774.644947	17468.205667	546.407227	253.763138
2774.644947	17468.205667	545.164063	127.320648
2774.644947	17468.205667	543.919922	305.901428
2774.644947	17468.205667	542.675781	51.660839
2774.644947	17468.205667	541.431641	123.068390
2774.644947	17468.205667	540.186523	375.078918
2774.644947	17468.205667	538.941406	371.288971
2774.644947	17468.205667	537.696289	109.983406
2774.644947	17468.205667	536.451172	420.302521
2774.644947	17468.205667	535.205078	296.420959
2774.644947	17468.205667	533.959961	240.305786
2774.644947	17468.205667	532.712891	379.644836
2774.644947	17468.205667	531.466797	158.391983
2774.644947	17468.205667	530.219727	352.279846
2774.644947	17468.205667	528.972656	245.781174
2774.644947	17468.205667	527.725586	-40.788132
2774.644947	17468.205667	526.478516	108.191422
2774.644947	17468.205667	525.230469	165.244278
2774.644947	17468.205667	523.982422	42.274483
2774.644947	17468.205667	522.734375	125.714905
2774.644947	17468.205667	521.485352	-34.551548
2774.644947	17468.205667	520.236328	-44.714897
2774.644947	17468.205667	518.987305	-200.983994
2774.644947	17468.205667	517.737305	-44.205410
2774.644947	17468.205667	516.488281	256.826935
2774.644947	17468.205667	515.238281	145.759628
2774.644947	17468.205667	513.988281	154.652145
2774.644947	17468.205667	512.737305	144.890396
2774.644947	17468.205667	511.486328	-57.580639
2774.644947	17468.205667	510.235352	163.022003
2774.644947	17468.205667	508.984375	-157.088074
2774.644947	17468.205667	507.732422	-140.301315
2774.644947	17468.205667	506.480469	44.858051
2774.644947	17468.205667	505.228516	35.561447
2774.644947	17468.205667	503.976563	-175.545151
2774.644947	17468.205667	502.723633	-186.521149
2774.644947	17468.205667	501.470703	-214.238892
2774.644947	17468.205667	500.217773	-279.238129
2774.644947	17468.205667	498.963867	42.467587
2774.644947	17468.205667	497.709961	33.593437
2774.644947	17468.205667	496.456055	-49.884911
2774.644947	17468.205667	495.202148	-56.736000
2774.644947	17468.205667	493.947266	-173.620895
2774.644947	17468.205667	492.692383	-6.808300
2774.644947	17468.205667	491.437500	79.788475
2774.644947	17468.205667	490.181641	121.650879
2774.644947	17468.205667	488.926758	6.941125
2774.644947	17468.205667	487.670898	56.375210
2774.644947	17468.205667	486.414063	20.115841
2774.644947	17468.205667	485.158203	17.468256
2774.644947	17468.205667	483.901367	18.600637
2774.644947	17468.205667	482.644531	194.855545
2774.644947	17468.205667	481.386719	4.258096
2774.644947	17468.205667	480.128906	46.499233
2774.644947	17468.205667	478.871094	174.386520
2774.644947	17468.205667	477.613281	190.612183
2774.644947	17468.205667	476.355469	-38.706802
2774.644947	17468.205667	475.096680	206.427048
2774.644947	17468.205667	473.837891	-4.123116
2774.644947	17468.205667	472.578125	108.963303
2774.644947	17468.205667	471.319336	73.325676
2774.644947	17468.205667	470.059570	87.911232
2774.644947	17468.205667	468.799805	-51.699635
2774.644947	17468.205667	467.539063	-139.212036
2774.644947	17468.205667	466.278320	94.638741
2774.644947	17468.205667	465.017578	7.172823
2774.644947	17468.205667	463.756836	-95.091507
2774.644947	17468.205667	462.495117	231.445938
2774.644947	17468.205667	461.233398	75.384300
2774.644947	17468.205667	459.971680	39.985653
2774.644947	17468.205667	458.709961	280.975830
2774.644947	17468.205667	457.447266	100.899879
2774.644947	17468.205667	456.184570	171.192383
2774.644947	17468.205667	454.921875	111.689156
2774.644947	17468.205667	453.658203	200.455353
2774.644947	17468.205667	452.394531	259.518951
2774.644947	17468.205667	451.130859	444.500549
2774.644947	17468.205667	449.867188	446.022522
2774.644947	17468.205667	448.602539	440.104584
2774.644947	17468.205667	447.337891	280.498810
2774.644947	17468.205667	446.073242	335.618225
2774.644947	17468.205667	444.807617	510.942902
2774.644947	17468.205667	443.542969	576.989502
2774.644947	17468.205667	442.276367	459.833038
2774.644947	17468.205667	441.010742	614.502869
2774.644947	17468.205667	439.744141	584.151917
2774.644947	17468.205667	438.478516	435.440216
2774.644947	17468.205667	437.210938	582.395569
2774.644947	17468.205667	435.944336	562.914673
2774.644947	17468.205667	434.676758	317.984283
2774.644947	17468.205667	433.409180	616.031189
2774.644947	17468.205667	432.141602	319.289001
2774.644947	17468.205667	430.873047	426.842926
2774.644947	17468.205667	429.604492	434.565735
2774.644947	17468.205667	428.335938	324.062653
2774.644947	17468.205667	427.067383	368.438843
2774.644947	17468.205667	425.797852	357.318390
2774.644947	17468.205667	424.528320	314.705627
2774.644947	17468.205667	423.258789	670.177795
2774.644947	17468.205667	421.988281	560.832764
2774.644947	17468.205667	420.717773	543.503662
2774.644947	17468.205667	419.447266	680.764404
2774.644947	17468.205667	418.175781	607.779175
2774.644947	17468.205667	416.905273	481.221161
2774.644947	17468.205667	415.633789	575.456177
2774.644947	17468.205667	414.362305	616.047668
2774.644947	17468.205667	413.089844	457.623322
2774.644947	17468.205667	411.817383	291.671326
2774.644947	17468.205667	410.544922	392.292450
2774.644947	17468.205667	409.272461	461.347076
2774.644947	17468.205667	407.999023	412.415527
2774.644947	17468.205667	406.725586	804.454590
2774.644947	17468.205667	405.452148	578.452942
2774.644947	17468.205667	404.177734	411.050201
2774.644947	17468.205667	402.903320	563.092773
2774.644947	17468.205667	401.628906	802.916443
2774.644947	17468.205667	400.354492	669.506042
2774.644947	17468.205667	399.079102	734.097046
2774.644947	17468.205667	397.803711	539.477356
2774.644947	17468.205667	396.528320	506.076538
2774.644947	17468.205667	395.251953	562.211487
2774.644947	17468.205667	393.976563	410.643524
2774.644947	17468.205667	392.700195	475.147491
2774.644947	17468.205667	391.422852	330.159912
2774.644947	17468.205667	390.145508	327.797272
2774.644947	17468.205667	388.869141	484.458313
2774.644947	17468.205667	387.590820	580.102661
2774.644947	17468.205667	386.313477	506.691925
2774.644947	17468.205667	385.035156	434.646912
2774.644947	17468.205667	383.756836	453.695862
2774.644947	17468.205667	382.478516	523.483582
2774.644947	17468.205667	381.199219	600.019714
2774.644947	17468.205667	379.919922	708.916748
2774.644947	17468.205667	378.640625	632.406494
2774.644947	17468.205667	377.360352	741.925354
2774.644947	17468.205667	376.080078	693.516785
2774.644947	17468.205667	374.799805	613.434509
2774.644947	17468.205667	373.519531	730.191589
2774.644947	17468.205667	372.238281	416.733246
2774.644947	17468.205667	370.957031	530.334167
2774.644947	17468.205667	369.675781	286.962769
2774.644947	17468.205667	368.394531	472.225891
2774.644947	17468.205667	367.112305	338.936584
2774.644947	17468.205667	365.830078	99.081467
2774.644947	17468.205667	364.546875	112.277527
2774.644947	17468.205667	363.264648	121.063026
2774.644947	17468.205667	361.981445	65.180046
2774.644947	17468.205667	360.698242	-40.741108
2774.644947	17468.205667	359.414063	144.329041
2774.644947	17468.205667	358.129883	31.268459
2774.644947	17468.205667	356.845703	119.728333
2774.644947	17468.205667	355.561523	37.765823
2774.644947	17468.205667	354.276367	-56.028984
2774.644947	17468.205667	352.991211	151.689117
2774.644947	17468.205667	351.706055	59.663879
2774.644947	17468.205667	350.420898	-71.537964
2774.644947	17468.205667	349.134766	153.117813
2774.644947	17468.205667	347.848633	5.344233
2774.644947	17468.205667	346.561523	340.614746
2774.644947	17468.205667	345.275391	-23.930609
2774.644947	17468.205667	343.988281	-22.010784
2774.644947	17468.205667	342.700195	27.864347
2774.644947	17468.205667	341.413086	-112.482491
2774.644947	17468.205667	340.125000	7.794104
2774.644947	17468.205667	338.836914	30.508158
2774.644947	17468.205667	337.548828	95.603180
2774.644947	17468.205667	336.259766	-9.544724
2774.644947	17468.205667	334.970703	85.679955
2774.644947	17468.205667	333.681641	223.149445
2774.644947	17468.205667	332.391602	253.909760
2774.644947	17468.205667	331.101563	78.214966
2774.644947	17468.205667	329.811523	-42.524647
2774.644947	17468.205667	328.521484	-164.613953
2774.644947	17468.205667	327.230469	74.638008
2774.644947	17468.205667	325.939453	-84.807945
2774.644947	17468.205667	324.648438	-24.485209
2774.644947	17468.205667	323.356445	-147.009964
2774.644947	17468.205667	322.064453	-82.558784
2774.644947	17468.205667	320.772461	-103.055786
2774.644947	17468.205667	319.480469	-29.145090
2774.644947	17468.205667	318.187500	8.638889
2774.644947	17468.205667	316.894531	-123.651627
2774.644947	17468.205667	315.601563	-139.917664
2774.644947	17468.205667	314.307617	39.311241
2774.644947	17468.205667	313.013672	59.275505
2774.644947	17468.205667	311.719727	-213.820541
2774.644947	17468.205667	310.425781	-45.507240
2774.644947	17468.205667	309.130859	-72.669571
2774.644947	17468.205667	307.835938	37.488464
2774.644947	17468.205667	306.541016	151.090698
2774.644947	17468.205667	305.245117	25.891298
2774.644947	17468.205667	303.949219	209.494034
2774.644947	17468.205667	302.653320	103.783386
2774.644947	17468.205667	301.356445	237.969788
2774.644947	17468.205667	300.060547	245.481079
2774.644947	17468.205667	298.763672	369.914215
