#X		#Y		#Wave		#Intensity
2823.032553	17350.764833	2000.043945	51.288975
2823.032553	17350.764833	1999.080078	40.542690
2823.032553	17350.764833	1998.116211	-105.775955
2823.032553	17350.764833	1997.151367	-96.139664
2823.032553	17350.764833	1996.186523	-4.961579
2823.032553	17350.764833	1995.222656	-62.665863
2823.032553	17350.764833	1994.256836	-46.241814
2823.032553	17350.764833	1993.291992	175.512512
2823.032553	17350.764833	1992.327148	211.307159
2823.032553	17350.764833	1991.361328	-50.136532
2823.032553	17350.764833	1990.395508	-24.563534
2823.032553	17350.764833	1989.429688	-140.211792
2823.032553	17350.764833	1988.463867	73.069229
2823.032553	17350.764833	1987.497070	73.393585
2823.032553	17350.764833	1986.531250	26.581163
2823.032553	17350.764833	1985.564453	130.479736
2823.032553	17350.764833	1984.597656	125.430328
2823.032553	17350.764833	1983.630859	83.179359
2823.032553	17350.764833	1982.664063	-55.556686
2823.032553	17350.764833	1981.696289	196.032776
2823.032553	17350.764833	1980.728516	94.158340
2823.032553	17350.764833	1979.761719	-22.602430
2823.032553	17350.764833	1978.792969	139.628860
2823.032553	17350.764833	1977.825195	91.842476
2823.032553	17350.764833	1976.857422	-57.224182
2823.032553	17350.764833	1975.888672	70.104248
2823.032553	17350.764833	1974.919922	101.070351
2823.032553	17350.764833	1973.951172	112.213074
2823.032553	17350.764833	1972.982422	61.615646
2823.032553	17350.764833	1972.013672	25.768896
2823.032553	17350.764833	1971.043945	199.465363
2823.032553	17350.764833	1970.075195	-36.200630
2823.032553	17350.764833	1969.105469	157.052505
2823.032553	17350.764833	1968.135742	74.173012
2823.032553	17350.764833	1967.165039	-11.183976
2823.032553	17350.764833	1966.195313	36.477165
2823.032553	17350.764833	1965.224609	-24.289396
2823.032553	17350.764833	1964.253906	134.100540
2823.032553	17350.764833	1963.283203	58.501453
2823.032553	17350.764833	1962.312500	-66.329933
2823.032553	17350.764833	1961.341797	18.062195
2823.032553	17350.764833	1960.370117	-64.928276
2823.032553	17350.764833	1959.399414	-59.335377
2823.032553	17350.764833	1958.427734	221.739609
2823.032553	17350.764833	1957.455078	104.280861
2823.032553	17350.764833	1956.483398	63.082260
2823.032553	17350.764833	1955.511719	98.103546
2823.032553	17350.764833	1954.539063	273.212036
2823.032553	17350.764833	1953.566406	-26.050428
2823.032553	17350.764833	1952.593750	63.015652
2823.032553	17350.764833	1951.621094	166.790894
2823.032553	17350.764833	1950.647461	10.178402
2823.032553	17350.764833	1949.674805	-3.938731
2823.032553	17350.764833	1948.701172	28.606720
2823.032553	17350.764833	1947.727539	132.339401
2823.032553	17350.764833	1946.753906	-78.110031
2823.032553	17350.764833	1945.780273	128.691727
2823.032553	17350.764833	1944.805664	-54.663227
2823.032553	17350.764833	1943.831055	36.799103
2823.032553	17350.764833	1942.856445	145.412659
2823.032553	17350.764833	1941.881836	124.045967
2823.032553	17350.764833	1940.907227	-24.774803
2823.032553	17350.764833	1939.932617	127.971558
2823.032553	17350.764833	1938.957031	265.979370
2823.032553	17350.764833	1937.981445	168.738647
2823.032553	17350.764833	1937.005859	0.515516
2823.032553	17350.764833	1936.030273	33.224449
2823.032553	17350.764833	1935.054688	-32.006756
2823.032553	17350.764833	1934.078125	-4.146595
2823.032553	17350.764833	1933.101563	16.387756
2823.032553	17350.764833	1932.125000	12.468525
2823.032553	17350.764833	1931.148438	-47.701557
2823.032553	17350.764833	1930.171875	-235.041397
2823.032553	17350.764833	1929.194336	62.051132
2823.032553	17350.764833	1928.217773	46.018623
2823.032553	17350.764833	1927.240234	54.475948
2823.032553	17350.764833	1926.262695	-69.054749
2823.032553	17350.764833	1925.284180	93.474869
2823.032553	17350.764833	1924.306641	141.115768
2823.032553	17350.764833	1923.328125	39.724594
2823.032553	17350.764833	1922.350586	60.549831
2823.032553	17350.764833	1921.372070	3.241103
2823.032553	17350.764833	1920.392578	-2.731297
2823.032553	17350.764833	1919.414063	32.837330
2823.032553	17350.764833	1918.434570	107.482887
2823.032553	17350.764833	1917.456055	-27.763487
2823.032553	17350.764833	1916.476563	-43.357548
2823.032553	17350.764833	1915.497070	-105.269264
2823.032553	17350.764833	1914.516602	25.577852
2823.032553	17350.764833	1913.537109	-92.353844
2823.032553	17350.764833	1912.556641	84.833008
2823.032553	17350.764833	1911.576172	-52.507153
2823.032553	17350.764833	1910.595703	105.166733
2823.032553	17350.764833	1909.615234	-5.259582
2823.032553	17350.764833	1908.633789	13.522751
2823.032553	17350.764833	1907.653320	56.686440
2823.032553	17350.764833	1906.671875	-141.265564
2823.032553	17350.764833	1905.690430	-15.236504
2823.032553	17350.764833	1904.708984	52.338375
2823.032553	17350.764833	1903.727539	236.759171
2823.032553	17350.764833	1902.745117	75.534897
2823.032553	17350.764833	1901.762695	79.864601
2823.032553	17350.764833	1900.780273	-159.075256
2823.032553	17350.764833	1899.797852	-106.007629
2823.032553	17350.764833	1898.815430	83.254623
2823.032553	17350.764833	1897.832031	-133.599808
2823.032553	17350.764833	1896.849609	-90.227234
2823.032553	17350.764833	1895.866211	1.763245
2823.032553	17350.764833	1894.882813	-27.771484
2823.032553	17350.764833	1893.898438	-91.292656
2823.032553	17350.764833	1892.915039	204.759003
2823.032553	17350.764833	1891.930664	-48.197254
2823.032553	17350.764833	1890.947266	-58.208687
2823.032553	17350.764833	1889.962891	-34.210022
2823.032553	17350.764833	1888.977539	174.280151
2823.032553	17350.764833	1887.993164	86.608459
2823.032553	17350.764833	1887.007813	-185.436646
2823.032553	17350.764833	1886.023438	18.143745
2823.032553	17350.764833	1885.038086	95.523811
2823.032553	17350.764833	1884.051758	-35.682804
2823.032553	17350.764833	1883.066406	107.159912
2823.032553	17350.764833	1882.081055	-230.053421
2823.032553	17350.764833	1881.094727	-2.383743
2823.032553	17350.764833	1880.108398	26.486326
2823.032553	17350.764833	1879.122070	-162.714905
2823.032553	17350.764833	1878.135742	-0.588269
2823.032553	17350.764833	1877.148438	161.478607
2823.032553	17350.764833	1876.162109	13.521521
2823.032553	17350.764833	1875.174805	141.623795
2823.032553	17350.764833	1874.187500	-32.907997
2823.032553	17350.764833	1873.199219	-33.124634
2823.032553	17350.764833	1872.211914	-166.435623
2823.032553	17350.764833	1871.223633	-43.259190
2823.032553	17350.764833	1870.236328	89.535713
2823.032553	17350.764833	1869.248047	89.259834
2823.032553	17350.764833	1868.258789	-140.729752
2823.032553	17350.764833	1867.270508	-49.124199
2823.032553	17350.764833	1866.282227	-165.431412
2823.032553	17350.764833	1865.292969	-305.875641
2823.032553	17350.764833	1864.303711	65.931755
2823.032553	17350.764833	1863.314453	14.840564
2823.032553	17350.764833	1862.324219	231.836914
2823.032553	17350.764833	1861.334961	-7.658352
2823.032553	17350.764833	1860.344727	-37.041847
2823.032553	17350.764833	1859.354492	189.430145
2823.032553	17350.764833	1858.364258	34.475098
2823.032553	17350.764833	1857.374023	70.174225
2823.032553	17350.764833	1856.383789	202.331436
2823.032553	17350.764833	1855.392578	262.050354
2823.032553	17350.764833	1854.401367	-64.137589
2823.032553	17350.764833	1853.410156	-9.275640
2823.032553	17350.764833	1852.418945	-14.734720
2823.032553	17350.764833	1851.426758	81.004219
2823.032553	17350.764833	1850.435547	85.098969
2823.032553	17350.764833	1849.443359	96.384743
2823.032553	17350.764833	1848.451172	100.401009
2823.032553	17350.764833	1847.458984	82.700233
2823.032553	17350.764833	1846.466797	36.070240
2823.032553	17350.764833	1845.473633	47.196857
2823.032553	17350.764833	1844.480469	193.070419
2823.032553	17350.764833	1843.487305	42.832752
2823.032553	17350.764833	1842.494141	106.752670
2823.032553	17350.764833	1841.500977	153.762070
2823.032553	17350.764833	1840.506836	25.122772
2823.032553	17350.764833	1839.513672	-26.564571
2823.032553	17350.764833	1838.519531	37.125240
2823.032553	17350.764833	1837.525391	62.277130
2823.032553	17350.764833	1836.530273	147.452560
2823.032553	17350.764833	1835.536133	52.317562
2823.032553	17350.764833	1834.541016	82.094322
2823.032553	17350.764833	1833.545898	181.463226
2823.032553	17350.764833	1832.550781	66.992989
2823.032553	17350.764833	1831.555664	89.372910
2823.032553	17350.764833	1830.560547	99.680992
2823.032553	17350.764833	1829.564453	237.137573
2823.032553	17350.764833	1828.568359	36.106445
2823.032553	17350.764833	1827.572266	-20.951027
2823.032553	17350.764833	1826.576172	101.866440
2823.032553	17350.764833	1825.580078	181.399597
2823.032553	17350.764833	1824.583008	-94.068985
2823.032553	17350.764833	1823.585938	-17.061352
2823.032553	17350.764833	1822.588867	19.097284
2823.032553	17350.764833	1821.591797	-2.346995
2823.032553	17350.764833	1820.594727	14.484717
2823.032553	17350.764833	1819.596680	100.714066
2823.032553	17350.764833	1818.599609	-23.947161
2823.032553	17350.764833	1817.601563	172.272095
2823.032553	17350.764833	1816.603516	83.410912
2823.032553	17350.764833	1815.604492	116.596069
2823.032553	17350.764833	1814.606445	77.889114
2823.032553	17350.764833	1813.607422	12.793973
2823.032553	17350.764833	1812.608398	72.059067
2823.032553	17350.764833	1811.609375	104.908638
2823.032553	17350.764833	1810.610352	25.256426
2823.032553	17350.764833	1809.610352	53.156078
2823.032553	17350.764833	1808.611328	11.633046
2823.032553	17350.764833	1807.611328	3.504877
2823.032553	17350.764833	1806.611328	9.634797
2823.032553	17350.764833	1805.610352	46.738800
2823.032553	17350.764833	1804.610352	90.911896
2823.032553	17350.764833	1803.609375	-70.432281
2823.032553	17350.764833	1802.608398	14.167541
2823.032553	17350.764833	1801.607422	-35.058357
2823.032553	17350.764833	1800.606445	221.201859
2823.032553	17350.764833	1799.605469	95.403114
2823.032553	17350.764833	1798.603516	-8.963686
2823.032553	17350.764833	1797.601563	8.293704
2823.032553	17350.764833	1796.599609	137.564819
2823.032553	17350.764833	1795.597656	233.306625
2823.032553	17350.764833	1794.595703	-59.745628
2823.032553	17350.764833	1793.592773	95.408394
2823.032553	17350.764833	1792.589844	126.465851
2823.032553	17350.764833	1791.587891	52.563736
2823.032553	17350.764833	1790.583984	35.771965
2823.032553	17350.764833	1789.581055	-45.424679
2823.032553	17350.764833	1788.577148	-31.420574
2823.032553	17350.764833	1787.574219	106.312225
2823.032553	17350.764833	1786.570313	-20.380762
2823.032553	17350.764833	1785.566406	45.688622
2823.032553	17350.764833	1784.561523	33.092781
2823.032553	17350.764833	1783.557617	-31.941280
2823.032553	17350.764833	1782.552734	178.914688
2823.032553	17350.764833	1781.547852	-121.803558
2823.032553	17350.764833	1780.542969	-118.107063
2823.032553	17350.764833	1779.538086	-43.181183
2823.032553	17350.764833	1778.532227	131.455200
2823.032553	17350.764833	1777.527344	-45.833908
2823.032553	17350.764833	1776.521484	42.987186
2823.032553	17350.764833	1775.515625	200.573593
2823.032553	17350.764833	1774.508789	-64.831200
2823.032553	17350.764833	1773.502930	-35.735878
2823.032553	17350.764833	1772.496094	19.361357
2823.032553	17350.764833	1771.489258	-18.253571
2823.032553	17350.764833	1770.482422	-15.605207
2823.032553	17350.764833	1769.475586	98.478699
2823.032553	17350.764833	1768.467773	-252.641647
2823.032553	17350.764833	1767.460938	-15.403828
2823.032553	17350.764833	1766.453125	126.762222
2823.032553	17350.764833	1765.445313	88.547424
2823.032553	17350.764833	1764.437500	73.952721
2823.032553	17350.764833	1763.428711	127.998085
2823.032553	17350.764833	1762.420898	68.164467
2823.032553	17350.764833	1761.412109	-110.233826
2823.032553	17350.764833	1760.403320	-6.744072
2823.032553	17350.764833	1759.393555	-0.518006
2823.032553	17350.764833	1758.384766	-153.062119
2823.032553	17350.764833	1757.375000	18.724787
2823.032553	17350.764833	1756.366211	-131.604767
2823.032553	17350.764833	1755.356445	25.704874
2823.032553	17350.764833	1754.345703	31.393784
2823.032553	17350.764833	1753.335938	46.448227
2823.032553	17350.764833	1752.325195	-63.985085
2823.032553	17350.764833	1751.315430	59.667442
2823.032553	17350.764833	1750.304688	-107.682701
2823.032553	17350.764833	1749.292969	103.185623
2823.032553	17350.764833	1748.282227	16.050747
2823.032553	17350.764833	1747.270508	-90.066505
2823.032553	17350.764833	1746.259766	96.749321
2823.032553	17350.764833	1745.248047	87.309731
2823.032553	17350.764833	1744.235352	-7.264156
2823.032553	17350.764833	1743.223633	35.067772
2823.032553	17350.764833	1742.211914	-85.626579
2823.032553	17350.764833	1741.199219	-55.308945
2823.032553	17350.764833	1740.186523	125.943909
2823.032553	17350.764833	1739.173828	-58.719177
2823.032553	17350.764833	1738.160156	-21.654715
2823.032553	17350.764833	1737.147461	12.945229
2823.032553	17350.764833	1736.133789	165.338837
2823.032553	17350.764833	1735.120117	55.854214
2823.032553	17350.764833	1734.106445	-1.823616
2823.032553	17350.764833	1733.091797	-182.148697
2823.032553	17350.764833	1732.078125	-65.574318
2823.032553	17350.764833	1731.063477	90.902489
2823.032553	17350.764833	1730.048828	-23.671400
2823.032553	17350.764833	1729.034180	66.601044
2823.032553	17350.764833	1728.019531	-121.112610
2823.032553	17350.764833	1727.003906	56.051003
2823.032553	17350.764833	1725.988281	-42.343727
2823.032553	17350.764833	1724.972656	186.320999
2823.032553	17350.764833	1723.957031	40.694229
2823.032553	17350.764833	1722.941406	5.594976
2823.032553	17350.764833	1721.924805	55.078632
2823.032553	17350.764833	1720.909180	-161.263535
2823.032553	17350.764833	1719.892578	29.116096
2823.032553	17350.764833	1718.875977	104.150749
2823.032553	17350.764833	1717.858398	63.896530
2823.032553	17350.764833	1716.841797	-2.269409
2823.032553	17350.764833	1715.824219	-12.125274
2823.032553	17350.764833	1714.806641	-108.971809
2823.032553	17350.764833	1713.789063	129.951508
2823.032553	17350.764833	1712.770508	44.669205
2823.032553	17350.764833	1711.752930	-66.477829
2823.032553	17350.764833	1710.734375	-163.596634
2823.032553	17350.764833	1709.715820	9.096461
2823.032553	17350.764833	1708.697266	-10.743401
2823.032553	17350.764833	1707.678711	37.366047
2823.032553	17350.764833	1706.659180	-53.006134
2823.032553	17350.764833	1705.640625	-91.828606
2823.032553	17350.764833	1704.621094	-27.575466
2823.032553	17350.764833	1703.600586	-10.316374
2823.032553	17350.764833	1702.581055	142.789078
2823.032553	17350.764833	1701.561523	234.839172
2823.032553	17350.764833	1700.541016	315.052979
2823.032553	17350.764833	1699.520508	90.686737
2823.032553	17350.764833	1698.500000	177.770676
2823.032553	17350.764833	1697.478516	206.204391
2823.032553	17350.764833	1696.458008	108.165108
2823.032553	17350.764833	1695.436523	335.380707
2823.032553	17350.764833	1694.415039	267.615601
2823.032553	17350.764833	1693.393555	262.970428
2823.032553	17350.764833	1692.372070	232.527191
2823.032553	17350.764833	1691.349609	328.294556
2823.032553	17350.764833	1690.327148	351.477661
2823.032553	17350.764833	1689.304688	454.062897
2823.032553	17350.764833	1688.282227	413.976105
2823.032553	17350.764833	1687.259766	411.227112
2823.032553	17350.764833	1686.236328	693.425842
2823.032553	17350.764833	1685.213867	620.421875
2823.032553	17350.764833	1684.190430	622.104065
2823.032553	17350.764833	1683.166016	593.357971
2823.032553	17350.764833	1682.142578	683.632141
2823.032553	17350.764833	1681.119141	629.104919
2823.032553	17350.764833	1680.094727	672.536377
2823.032553	17350.764833	1679.070313	580.574707
2823.032553	17350.764833	1678.045898	798.836304
2823.032553	17350.764833	1677.020508	704.429749
2823.032553	17350.764833	1675.996094	782.568909
2823.032553	17350.764833	1674.970703	622.819397
2823.032553	17350.764833	1673.945313	567.968445
2823.032553	17350.764833	1672.919922	664.564087
2823.032553	17350.764833	1671.893555	514.084839
2823.032553	17350.764833	1670.868164	489.422760
2823.032553	17350.764833	1669.841797	678.982910
2823.032553	17350.764833	1668.815430	409.687622
2823.032553	17350.764833	1667.789063	436.127777
2823.032553	17350.764833	1666.761719	467.156830
2823.032553	17350.764833	1665.735352	479.526611
2823.032553	17350.764833	1664.708008	536.046143
2823.032553	17350.764833	1663.680664	627.399597
2823.032553	17350.764833	1662.653320	611.686829
2823.032553	17350.764833	1661.625000	642.437805
2823.032553	17350.764833	1660.597656	568.527771
2823.032553	17350.764833	1659.569336	610.825989
2823.032553	17350.764833	1658.541016	739.065674
2823.032553	17350.764833	1657.512695	832.368164
2823.032553	17350.764833	1656.483398	916.296570
2823.032553	17350.764833	1655.455078	814.352295
2823.032553	17350.764833	1654.425781	844.777527
2823.032553	17350.764833	1653.396484	896.059509
2823.032553	17350.764833	1652.366211	812.638184
2823.032553	17350.764833	1651.336914	801.187073
2823.032553	17350.764833	1650.306641	924.293884
2823.032553	17350.764833	1649.276367	973.085571
2823.032553	17350.764833	1648.246094	1228.284058
2823.032553	17350.764833	1647.215820	1109.974609
2823.032553	17350.764833	1646.185547	1061.253296
2823.032553	17350.764833	1645.154297	1216.526611
2823.032553	17350.764833	1644.123047	1401.855347
2823.032553	17350.764833	1643.091797	1387.801147
2823.032553	17350.764833	1642.060547	1369.102783
2823.032553	17350.764833	1641.028320	1600.566162
2823.032553	17350.764833	1639.997070	1472.954956
2823.032553	17350.764833	1638.964844	1613.975952
2823.032553	17350.764833	1637.931641	1629.902710
2823.032553	17350.764833	1636.899414	1773.135620
2823.032553	17350.764833	1635.867188	1988.047241
2823.032553	17350.764833	1634.833984	2080.223877
2823.032553	17350.764833	1633.800781	2322.728271
2823.032553	17350.764833	1632.767578	2345.410400
2823.032553	17350.764833	1631.734375	2409.704834
2823.032553	17350.764833	1630.700195	2351.423584
2823.032553	17350.764833	1629.666016	2568.239014
2823.032553	17350.764833	1628.631836	2662.483887
2823.032553	17350.764833	1627.597656	2537.183350
2823.032553	17350.764833	1626.563477	2726.122803
2823.032553	17350.764833	1625.528320	2453.029053
2823.032553	17350.764833	1624.493164	2549.537842
2823.032553	17350.764833	1623.458008	2371.262207
2823.032553	17350.764833	1622.422852	2539.325928
2823.032553	17350.764833	1621.387695	2169.580322
2823.032553	17350.764833	1620.351563	2243.019043
2823.032553	17350.764833	1619.315430	2231.080322
2823.032553	17350.764833	1618.279297	2050.777100
2823.032553	17350.764833	1617.243164	2133.462646
2823.032553	17350.764833	1616.207031	2017.840942
2823.032553	17350.764833	1615.169922	1985.258301
2823.032553	17350.764833	1614.132813	2028.765625
2823.032553	17350.764833	1613.095703	1996.233276
2823.032553	17350.764833	1612.058594	1687.263916
2823.032553	17350.764833	1611.020508	1760.801758
2823.032553	17350.764833	1609.983398	1958.711182
2823.032553	17350.764833	1608.945313	2080.569824
2823.032553	17350.764833	1607.907227	2089.603760
2823.032553	17350.764833	1606.868164	1988.168457
2823.032553	17350.764833	1605.830078	2008.780640
2823.032553	17350.764833	1604.791016	1939.670166
2823.032553	17350.764833	1603.751953	2079.948975
2823.032553	17350.764833	1602.712891	2291.501953
2823.032553	17350.764833	1601.673828	2047.719116
2823.032553	17350.764833	1600.633789	2307.530273
2823.032553	17350.764833	1599.594727	2204.121338
2823.032553	17350.764833	1598.554688	2500.643555
2823.032553	17350.764833	1597.513672	2367.418945
2823.032553	17350.764833	1596.473633	2484.691406
2823.032553	17350.764833	1595.433594	2535.354004
2823.032553	17350.764833	1594.392578	2560.767334
2823.032553	17350.764833	1593.351563	2648.202881
2823.032553	17350.764833	1592.310547	2655.309082
2823.032553	17350.764833	1591.268555	2809.322266
2823.032553	17350.764833	1590.227539	2761.419434
2823.032553	17350.764833	1589.185547	2621.808594
2823.032553	17350.764833	1588.143555	3037.353516
2823.032553	17350.764833	1587.100586	2973.504395
2823.032553	17350.764833	1586.058594	2857.012207
2823.032553	17350.764833	1585.015625	2907.941895
2823.032553	17350.764833	1583.972656	2787.019043
2823.032553	17350.764833	1582.929688	3041.981689
2823.032553	17350.764833	1581.886719	2774.572754
2823.032553	17350.764833	1580.843750	2931.061279
2823.032553	17350.764833	1579.799805	2670.753174
2823.032553	17350.764833	1578.755859	2786.094727
2823.032553	17350.764833	1577.711914	2816.754883
2823.032553	17350.764833	1576.666992	2648.337891
2823.032553	17350.764833	1575.623047	2420.567871
2823.032553	17350.764833	1574.578125	2664.220947
2823.032553	17350.764833	1573.533203	2443.517334
2823.032553	17350.764833	1572.488281	2577.431152
2823.032553	17350.764833	1571.443359	2736.509766
2823.032553	17350.764833	1570.397461	2504.681152
2823.032553	17350.764833	1569.351563	2595.272217
2823.032553	17350.764833	1568.305664	2530.512451
2823.032553	17350.764833	1567.259766	2529.820068
2823.032553	17350.764833	1566.213867	2588.588135
2823.032553	17350.764833	1565.166992	2505.804199
2823.032553	17350.764833	1564.120117	2582.957520
2823.032553	17350.764833	1563.073242	2399.911621
2823.032553	17350.764833	1562.026367	2474.924072
2823.032553	17350.764833	1560.978516	2308.088623
2823.032553	17350.764833	1559.930664	2362.701660
2823.032553	17350.764833	1558.883789	2066.101807
2823.032553	17350.764833	1557.834961	2191.588623
2823.032553	17350.764833	1556.787109	2134.706543
2823.032553	17350.764833	1555.739258	2162.276855
2823.032553	17350.764833	1554.690430	1795.599487
2823.032553	17350.764833	1553.641602	1761.855103
2823.032553	17350.764833	1552.592773	1892.250732
2823.032553	17350.764833	1551.542969	1829.049927
2823.032553	17350.764833	1550.494141	1841.125610
2823.032553	17350.764833	1549.444336	1632.405518
2823.032553	17350.764833	1548.394531	1508.088623
2823.032553	17350.764833	1547.344727	1857.341797
2823.032553	17350.764833	1546.293945	1767.335205
2823.032553	17350.764833	1545.244141	1716.143311
2823.032553	17350.764833	1544.193359	1737.846558
2823.032553	17350.764833	1543.142578	1796.024658
2823.032553	17350.764833	1542.090820	1754.213135
2823.032553	17350.764833	1541.040039	1919.403564
2823.032553	17350.764833	1539.988281	1843.679443
2823.032553	17350.764833	1538.936523	1640.820068
2823.032553	17350.764833	1537.884766	1740.324951
2823.032553	17350.764833	1536.833008	1649.071045
2823.032553	17350.764833	1535.780273	1746.450684
2823.032553	17350.764833	1534.727539	1750.791870
2823.032553	17350.764833	1533.674805	1741.609741
2823.032553	17350.764833	1532.622070	1927.739014
2823.032553	17350.764833	1531.569336	1680.441162
2823.032553	17350.764833	1530.515625	1469.638306
2823.032553	17350.764833	1529.461914	1583.417603
2823.032553	17350.764833	1528.408203	1375.192627
2823.032553	17350.764833	1527.354492	1382.576538
2823.032553	17350.764833	1526.299805	1233.621582
2823.032553	17350.764833	1525.246094	1250.307739
2823.032553	17350.764833	1524.191406	1156.040283
2823.032553	17350.764833	1523.136719	1104.968140
2823.032553	17350.764833	1522.081055	902.235962
2823.032553	17350.764833	1521.026367	1025.849121
2823.032553	17350.764833	1519.970703	961.563171
2823.032553	17350.764833	1518.915039	1024.198608
2823.032553	17350.764833	1517.859375	722.484253
2823.032553	17350.764833	1516.802734	735.567444
2823.032553	17350.764833	1515.747070	812.118164
2823.032553	17350.764833	1514.690430	829.926575
2823.032553	17350.764833	1513.633789	832.008545
2823.032553	17350.764833	1512.577148	716.613525
2823.032553	17350.764833	1511.519531	795.807190
2823.032553	17350.764833	1510.461914	884.125549
2823.032553	17350.764833	1509.405273	848.231201
2823.032553	17350.764833	1508.346680	679.141052
2823.032553	17350.764833	1507.289063	794.885864
2823.032553	17350.764833	1506.231445	822.612549
2823.032553	17350.764833	1505.172852	647.202698
2823.032553	17350.764833	1504.114258	620.990417
2823.032553	17350.764833	1503.055664	486.556274
2823.032553	17350.764833	1501.996094	381.627869
2823.032553	17350.764833	1500.937500	245.274429
2823.032553	17350.764833	1499.877930	546.744995
2823.032553	17350.764833	1498.818359	336.214905
2823.032553	17350.764833	1497.757813	470.907318
2823.032553	17350.764833	1496.698242	28.490181
2823.032553	17350.764833	1495.637695	-23.664576
2823.032553	17350.764833	1494.577148	-8.065699
2823.032553	17350.764833	1493.516602	278.040985
2823.032553	17350.764833	1492.456055	151.888107
2823.032553	17350.764833	1491.394531	145.279556
2823.032553	17350.764833	1490.333008	-16.586863
2823.032553	17350.764833	1489.271484	6.354469
2823.032553	17350.764833	1488.209961	78.932861
2823.032553	17350.764833	1487.148438	-77.955025
2823.032553	17350.764833	1486.085938	91.610435
2823.032553	17350.764833	1485.023438	52.009998
2823.032553	17350.764833	1483.960938	248.720383
2823.032553	17350.764833	1482.898438	101.412613
2823.032553	17350.764833	1481.834961	228.582901
2823.032553	17350.764833	1480.772461	537.905334
2823.032553	17350.764833	1479.708984	258.429962
2823.032553	17350.764833	1478.644531	248.800720
2823.032553	17350.764833	1477.581055	479.678284
2823.032553	17350.764833	1476.517578	479.267059
2823.032553	17350.764833	1475.453125	416.053131
2823.032553	17350.764833	1474.388672	362.107422
2823.032553	17350.764833	1473.323242	348.585144
2823.032553	17350.764833	1472.258789	590.963135
2823.032553	17350.764833	1471.193359	640.495300
2823.032553	17350.764833	1470.127930	501.672974
2823.032553	17350.764833	1469.062500	517.690430
2823.032553	17350.764833	1467.997070	280.825958
2823.032553	17350.764833	1466.930664	445.174927
2823.032553	17350.764833	1465.865234	658.944153
2823.032553	17350.764833	1464.798828	569.862488
2823.032553	17350.764833	1463.731445	696.651001
2823.032553	17350.764833	1462.665039	489.596710
2823.032553	17350.764833	1461.597656	645.211487
2823.032553	17350.764833	1460.530273	573.029297
2823.032553	17350.764833	1459.462891	568.214233
2823.032553	17350.764833	1458.395508	733.162537
2823.032553	17350.764833	1457.327148	846.252808
2823.032553	17350.764833	1456.259766	566.618286
2823.032553	17350.764833	1455.191406	741.048523
2823.032553	17350.764833	1454.123047	889.827820
2823.032553	17350.764833	1453.053711	686.987427
2823.032553	17350.764833	1451.985352	721.386169
2823.032553	17350.764833	1450.916016	912.403381
2823.032553	17350.764833	1449.846680	922.440979
2823.032553	17350.764833	1448.776367	948.940857
2823.032553	17350.764833	1447.707031	715.530396
2823.032553	17350.764833	1446.636719	550.324158
2823.032553	17350.764833	1445.566406	781.662964
2823.032553	17350.764833	1444.496094	781.954834
2823.032553	17350.764833	1443.425781	701.221008
2823.032553	17350.764833	1442.354492	720.491760
2823.032553	17350.764833	1441.283203	830.588074
2823.032553	17350.764833	1440.211914	809.416748
2823.032553	17350.764833	1439.140625	661.605469
2823.032553	17350.764833	1438.069336	558.704712
2823.032553	17350.764833	1436.997070	648.539307
2823.032553	17350.764833	1435.924805	650.850403
2823.032553	17350.764833	1434.852539	560.903259
2823.032553	17350.764833	1433.780273	415.906555
2823.032553	17350.764833	1432.707031	351.161041
2823.032553	17350.764833	1431.633789	424.328308
2823.032553	17350.764833	1430.560547	600.987061
2823.032553	17350.764833	1429.487305	573.229736
2823.032553	17350.764833	1428.413086	363.195374
2823.032553	17350.764833	1427.339844	328.238434
2823.032553	17350.764833	1426.265625	485.599609
2823.032553	17350.764833	1425.191406	160.959213
2823.032553	17350.764833	1424.116211	490.477325
2823.032553	17350.764833	1423.041992	425.867767
2823.032553	17350.764833	1421.966797	276.066406
2823.032553	17350.764833	1420.891602	298.017761
2823.032553	17350.764833	1419.816406	193.020157
2823.032553	17350.764833	1418.740234	206.479279
2823.032553	17350.764833	1417.665039	494.658630
2823.032553	17350.764833	1416.588867	405.246063
2823.032553	17350.764833	1415.512695	449.187469
2823.032553	17350.764833	1414.435547	421.061768
2823.032553	17350.764833	1413.359375	534.665710
2823.032553	17350.764833	1412.282227	431.250488
2823.032553	17350.764833	1411.205078	240.149261
2823.032553	17350.764833	1410.127930	374.589966
2823.032553	17350.764833	1409.049805	430.166595
2823.032553	17350.764833	1407.972656	436.801880
2823.032553	17350.764833	1406.894531	366.872955
2823.032553	17350.764833	1405.816406	428.304199
2823.032553	17350.764833	1404.737305	566.263245
2823.032553	17350.764833	1403.659180	493.713867
2823.032553	17350.764833	1402.580078	659.967651
2823.032553	17350.764833	1401.500977	536.268860
2823.032553	17350.764833	1400.421875	515.378540
2823.032553	17350.764833	1399.341797	575.576172
2823.032553	17350.764833	1398.262695	454.117432
2823.032553	17350.764833	1397.182617	404.176178
2823.032553	17350.764833	1396.102539	347.568390
2823.032553	17350.764833	1395.021484	480.387329
2823.032553	17350.764833	1393.941406	362.663300
2823.032553	17350.764833	1392.860352	594.327759
2823.032553	17350.764833	1391.779297	467.042908
2823.032553	17350.764833	1390.698242	528.220154
2823.032553	17350.764833	1389.616211	502.459076
2823.032553	17350.764833	1388.535156	555.303711
2823.032553	17350.764833	1387.453125	413.231201
2823.032553	17350.764833	1386.371094	650.075195
2823.032553	17350.764833	1385.288086	401.480560
2823.032553	17350.764833	1384.206055	536.147705
2823.032553	17350.764833	1383.123047	521.462769
2823.032553	17350.764833	1382.040039	628.081299
2823.032553	17350.764833	1380.957031	684.368713
2823.032553	17350.764833	1379.873047	466.868622
2823.032553	17350.764833	1378.789063	526.298828
2823.032553	17350.764833	1377.705078	755.264893
2823.032553	17350.764833	1376.621094	641.998596
2823.032553	17350.764833	1375.537109	747.893616
2823.032553	17350.764833	1374.452148	807.453003
2823.032553	17350.764833	1373.367188	705.060059
2823.032553	17350.764833	1372.282227	1012.392639
2823.032553	17350.764833	1371.197266	1035.599365
2823.032553	17350.764833	1370.112305	1191.068115
2823.032553	17350.764833	1369.026367	1127.210693
2823.032553	17350.764833	1367.940430	1166.521851
2823.032553	17350.764833	1366.854492	1260.210083
2823.032553	17350.764833	1365.767578	1410.508423
2823.032553	17350.764833	1364.681641	1060.222656
2823.032553	17350.764833	1363.594727	1408.323730
2823.032553	17350.764833	1362.507813	1298.267334
2823.032553	17350.764833	1361.419922	1170.642456
2823.032553	17350.764833	1360.333008	1300.548096
2823.032553	17350.764833	1359.245117	1179.559326
2823.032553	17350.764833	1358.157227	1057.927490
2823.032553	17350.764833	1357.069336	1063.826538
2823.032553	17350.764833	1355.981445	1053.986084
2823.032553	17350.764833	1354.892578	806.514954
2823.032553	17350.764833	1353.803711	1228.047729
2823.032553	17350.764833	1352.714844	1037.022217
2823.032553	17350.764833	1351.625000	1001.292358
2823.032553	17350.764833	1350.536133	988.657166
2823.032553	17350.764833	1349.446289	1247.934326
2823.032553	17350.764833	1348.356445	1120.879150
2823.032553	17350.764833	1347.266602	1089.955566
2823.032553	17350.764833	1346.175781	1272.556396
2823.032553	17350.764833	1345.085938	1348.328125
2823.032553	17350.764833	1343.995117	1297.221191
2823.032553	17350.764833	1342.903320	1156.660522
2823.032553	17350.764833	1341.812500	1245.918457
2823.032553	17350.764833	1340.720703	1164.673218
2823.032553	17350.764833	1339.629883	1237.159790
2823.032553	17350.764833	1338.538086	1304.556519
2823.032553	17350.764833	1337.445313	1277.244385
2823.032553	17350.764833	1336.353516	1128.722778
2823.032553	17350.764833	1335.260742	1085.441772
2823.032553	17350.764833	1334.167969	1129.268433
2823.032553	17350.764833	1333.075195	1219.097168
2823.032553	17350.764833	1331.981445	1135.829956
2823.032553	17350.764833	1330.888672	942.847717
2823.032553	17350.764833	1329.794922	970.161499
2823.032553	17350.764833	1328.701172	927.826294
2823.032553	17350.764833	1327.606445	813.991516
2823.032553	17350.764833	1326.512695	965.537415
2823.032553	17350.764833	1325.417969	1050.538940
2823.032553	17350.764833	1324.323242	983.153625
2823.032553	17350.764833	1323.227539	929.516296
2823.032553	17350.764833	1322.132813	785.906189
2823.032553	17350.764833	1321.037109	808.420166
2823.032553	17350.764833	1319.941406	779.893250
2823.032553	17350.764833	1318.845703	728.635986
2823.032553	17350.764833	1317.750000	731.627930
2823.032553	17350.764833	1316.653320	716.457336
2823.032553	17350.764833	1315.556641	735.512695
2823.032553	17350.764833	1314.459961	740.828186
2823.032553	17350.764833	1313.363281	846.372681
2823.032553	17350.764833	1312.265625	646.159302
2823.032553	17350.764833	1311.167969	711.050049
2823.032553	17350.764833	1310.070313	579.635803
2823.032553	17350.764833	1308.972656	575.307129
2823.032553	17350.764833	1307.874023	591.426208
2823.032553	17350.764833	1306.776367	500.679169
2823.032553	17350.764833	1305.677734	541.432739
2823.032553	17350.764833	1304.579102	648.380554
2823.032553	17350.764833	1303.479492	571.707153
2823.032553	17350.764833	1302.380859	572.440247
2823.032553	17350.764833	1301.281250	531.633240
2823.032553	17350.764833	1300.181641	555.863586
2823.032553	17350.764833	1299.081055	624.821655
2823.032553	17350.764833	1297.981445	635.851440
2823.032553	17350.764833	1296.880859	625.593445
2823.032553	17350.764833	1295.780273	652.541077
2823.032553	17350.764833	1294.679688	613.244080
2823.032553	17350.764833	1293.578125	573.200684
2823.032553	17350.764833	1292.476563	737.433350
2823.032553	17350.764833	1291.375000	720.487122
2823.032553	17350.764833	1290.273438	789.769226
2823.032553	17350.764833	1289.171875	858.692871
2823.032553	17350.764833	1288.069336	917.380310
2823.032553	17350.764833	1286.966797	1054.848145
2823.032553	17350.764833	1285.864258	1039.859131
2823.032553	17350.764833	1284.761719	1255.980591
2823.032553	17350.764833	1283.658203	1300.979614
2823.032553	17350.764833	1282.554688	1311.635376
2823.032553	17350.764833	1281.451172	1381.762329
2823.032553	17350.764833	1280.347656	1455.996216
2823.032553	17350.764833	1279.244141	1608.540405
2823.032553	17350.764833	1278.139648	1359.967529
2823.032553	17350.764833	1277.035156	1148.721680
2823.032553	17350.764833	1275.930664	1099.619385
2823.032553	17350.764833	1274.825195	892.523499
2823.032553	17350.764833	1273.720703	827.955688
2823.032553	17350.764833	1272.615234	711.051697
2823.032553	17350.764833	1271.508789	647.085999
2823.032553	17350.764833	1270.403320	577.748352
2823.032553	17350.764833	1269.297852	533.930969
2823.032553	17350.764833	1268.191406	493.631317
2823.032553	17350.764833	1267.084961	386.200745
2823.032553	17350.764833	1265.977539	446.153503
2823.032553	17350.764833	1264.871094	494.319855
2823.032553	17350.764833	1263.763672	269.512390
2823.032553	17350.764833	1262.656250	245.540314
2823.032553	17350.764833	1261.548828	238.358887
2823.032553	17350.764833	1260.440430	377.960876
2823.032553	17350.764833	1259.333008	269.510590
2823.032553	17350.764833	1258.224609	258.665283
2823.032553	17350.764833	1257.115234	301.743561
2823.032553	17350.764833	1256.006836	324.679169
2823.032553	17350.764833	1254.897461	236.770065
2823.032553	17350.764833	1253.788086	328.463257
2823.032553	17350.764833	1252.678711	337.709106
2823.032553	17350.764833	1251.569336	321.916962
2823.032553	17350.764833	1250.458984	322.721222
2823.032553	17350.764833	1249.349609	463.717896
2823.032553	17350.764833	1248.239258	367.268402
2823.032553	17350.764833	1247.127930	487.473511
2823.032553	17350.764833	1246.017578	452.772003
2823.032553	17350.764833	1244.906250	306.874878
2823.032553	17350.764833	1243.794922	440.588623
2823.032553	17350.764833	1242.683594	296.767883
2823.032553	17350.764833	1241.571289	475.962128
2823.032553	17350.764833	1240.459961	360.308502
2823.032553	17350.764833	1239.347656	368.858765
2823.032553	17350.764833	1238.234375	426.822144
2823.032553	17350.764833	1237.122070	396.290894
2823.032553	17350.764833	1236.008789	379.684906
2823.032553	17350.764833	1234.896484	280.539917
2823.032553	17350.764833	1233.782227	247.576859
2823.032553	17350.764833	1232.668945	413.521606
2823.032553	17350.764833	1231.555664	194.051529
2823.032553	17350.764833	1230.441406	121.328255
2823.032553	17350.764833	1229.327148	96.341072
2823.032553	17350.764833	1228.211914	166.908829
2823.032553	17350.764833	1227.097656	243.432755
2823.032553	17350.764833	1225.982422	66.605934
2823.032553	17350.764833	1224.867188	39.153065
2823.032553	17350.764833	1223.751953	157.944595
2823.032553	17350.764833	1222.635742	311.903809
2823.032553	17350.764833	1221.520508	406.585449
2823.032553	17350.764833	1220.404297	305.944153
2823.032553	17350.764833	1219.287109	379.404083
2823.032553	17350.764833	1218.170898	391.209564
2823.032553	17350.764833	1217.053711	388.527985
2823.032553	17350.764833	1215.936523	495.202484
2823.032553	17350.764833	1214.819336	475.426727
2823.032553	17350.764833	1213.702148	448.470673
2823.032553	17350.764833	1212.583984	365.620697
2823.032553	17350.764833	1211.465820	204.406555
2823.032553	17350.764833	1210.347656	133.081528
2823.032553	17350.764833	1209.229492	125.497604
2823.032553	17350.764833	1208.110352	117.224327
2823.032553	17350.764833	1206.992188	-16.331301
2823.032553	17350.764833	1205.873047	-85.500313
2823.032553	17350.764833	1204.752930	-45.902489
2823.032553	17350.764833	1203.633789	-139.771255
2823.032553	17350.764833	1202.513672	10.966486
2823.032553	17350.764833	1201.393555	41.997982
2823.032553	17350.764833	1200.273438	-28.347214
2823.032553	17350.764833	1199.152344	-24.689188
2823.032553	17350.764833	1198.032227	-86.792282
2823.032553	17350.764833	1196.911133	-45.888344
2823.032553	17350.764833	1195.790039	64.112389
2823.032553	17350.764833	1194.667969	-22.705187
2823.032553	17350.764833	1193.545898	35.755615
2823.032553	17350.764833	1192.424805	140.950989
2823.032553	17350.764833	1191.301758	42.209671
2823.032553	17350.764833	1190.179688	49.630703
2823.032553	17350.764833	1189.056641	141.766983
2823.032553	17350.764833	1187.933594	94.481010
2823.032553	17350.764833	1186.810547	44.186424
2823.032553	17350.764833	1185.687500	-39.542023
2823.032553	17350.764833	1184.563477	-59.261288
2823.032553	17350.764833	1183.440430	-57.109737
2823.032553	17350.764833	1182.316406	13.550094
2823.032553	17350.764833	1181.191406	-48.378990
2823.032553	17350.764833	1180.067383	-113.485306
2823.032553	17350.764833	1178.942383	-182.520264
2823.032553	17350.764833	1177.817383	-42.576046
2823.032553	17350.764833	1176.692383	-59.758484
2823.032553	17350.764833	1175.566406	-144.059357
2823.032553	17350.764833	1174.440430	34.980064
2823.032553	17350.764833	1173.314453	3.367260
2823.032553	17350.764833	1172.188477	63.618477
2823.032553	17350.764833	1171.062500	92.884743
2823.032553	17350.764833	1169.935547	266.368469
2823.032553	17350.764833	1168.808594	321.189728
2823.032553	17350.764833	1167.681641	368.834595
2823.032553	17350.764833	1166.553711	361.038513
2823.032553	17350.764833	1165.426758	391.488708
2823.032553	17350.764833	1164.298828	348.056915
2823.032553	17350.764833	1163.170898	341.479614
2823.032553	17350.764833	1162.041992	347.509796
2823.032553	17350.764833	1160.914063	271.502014
2823.032553	17350.764833	1159.785156	408.657715
2823.032553	17350.764833	1158.656250	189.763474
2823.032553	17350.764833	1157.526367	220.872864
2823.032553	17350.764833	1156.397461	140.580093
2823.032553	17350.764833	1155.267578	229.051117
2823.032553	17350.764833	1154.137695	183.521957
2823.032553	17350.764833	1153.006836	25.157343
2823.032553	17350.764833	1151.876953	66.913200
2823.032553	17350.764833	1150.746094	14.761824
2823.032553	17350.764833	1149.615234	0.404237
2823.032553	17350.764833	1148.484375	44.665451
2823.032553	17350.764833	1147.352539	1.678298
2823.032553	17350.764833	1146.220703	24.386644
2823.032553	17350.764833	1145.088867	-122.760460
2823.032553	17350.764833	1143.957031	-176.048813
2823.032553	17350.764833	1142.825195	-68.684151
2823.032553	17350.764833	1141.692383	-52.869751
2823.032553	17350.764833	1140.559570	-20.705931
2823.032553	17350.764833	1139.426758	49.282768
2823.032553	17350.764833	1138.292969	-137.290665
2823.032553	17350.764833	1137.159180	-21.916496
2823.032553	17350.764833	1136.025391	-31.670536
2823.032553	17350.764833	1134.891602	-95.183739
2823.032553	17350.764833	1133.757813	-34.045078
2823.032553	17350.764833	1132.623047	-10.464013
2823.032553	17350.764833	1131.488281	-88.126366
2823.032553	17350.764833	1130.353516	86.278343
2823.032553	17350.764833	1129.217773	127.242180
2823.032553	17350.764833	1128.083008	59.740719
2823.032553	17350.764833	1126.947266	-13.544109
2823.032553	17350.764833	1125.811523	130.587402
2823.032553	17350.764833	1124.674805	71.881561
2823.032553	17350.764833	1123.539063	-51.643665
2823.032553	17350.764833	1122.402344	-55.927788
2823.032553	17350.764833	1121.265625	-36.038464
2823.032553	17350.764833	1120.127930	-13.501033
2823.032553	17350.764833	1118.990234	-97.523178
2823.032553	17350.764833	1117.853516	11.160271
2823.032553	17350.764833	1116.714844	66.441795
2823.032553	17350.764833	1115.577148	35.675514
2823.032553	17350.764833	1114.439453	-27.348057
2823.032553	17350.764833	1113.300781	76.496857
2823.032553	17350.764833	1112.162109	-58.087429
2823.032553	17350.764833	1111.022461	6.720573
2823.032553	17350.764833	1109.883789	73.253052
2823.032553	17350.764833	1108.744141	49.732025
2823.032553	17350.764833	1107.604492	151.080231
2823.032553	17350.764833	1106.463867	20.849962
2823.032553	17350.764833	1105.324219	130.502228
2823.032553	17350.764833	1104.183594	35.932014
2823.032553	17350.764833	1103.042969	152.905075
2823.032553	17350.764833	1101.902344	12.402429
2823.032553	17350.764833	1100.760742	113.457138
2823.032553	17350.764833	1099.619141	119.277473
2823.032553	17350.764833	1098.477539	181.538330
2823.032553	17350.764833	1097.335938	251.582123
2823.032553	17350.764833	1096.193359	64.108704
2823.032553	17350.764833	1095.051758	191.492096
2823.032553	17350.764833	1093.909180	47.376034
2823.032553	17350.764833	1092.765625	159.360107
2823.032553	17350.764833	1091.623047	13.101830
2823.032553	17350.764833	1090.479492	136.302780
2823.032553	17350.764833	1089.335938	125.730766
2823.032553	17350.764833	1088.192383	93.261452
2823.032553	17350.764833	1087.047852	144.549454
2823.032553	17350.764833	1085.903320	133.555130
2823.032553	17350.764833	1084.758789	173.222504
2823.032553	17350.764833	1083.614258	131.307129
2823.032553	17350.764833	1082.469727	39.832127
2823.032553	17350.764833	1081.324219	71.183861
2823.032553	17350.764833	1080.178711	95.911331
2823.032553	17350.764833	1079.033203	183.818924
2823.032553	17350.764833	1077.886719	238.785065
2823.032553	17350.764833	1076.740234	306.943878
2823.032553	17350.764833	1075.593750	278.161255
2823.032553	17350.764833	1074.447266	224.511185
2823.032553	17350.764833	1073.300781	224.951889
2823.032553	17350.764833	1072.153320	107.041763
2823.032553	17350.764833	1071.005859	182.421997
2823.032553	17350.764833	1069.858398	294.442413
2823.032553	17350.764833	1068.709961	259.028534
2823.032553	17350.764833	1067.561523	187.257690
2823.032553	17350.764833	1066.413086	191.837173
2823.032553	17350.764833	1065.264648	42.755993
2823.032553	17350.764833	1064.116211	155.831802
2823.032553	17350.764833	1062.966797	203.235962
2823.032553	17350.764833	1061.817383	189.896667
2823.032553	17350.764833	1060.667969	120.947983
2823.032553	17350.764833	1059.517578	91.680313
2823.032553	17350.764833	1058.368164	193.615646
2823.032553	17350.764833	1057.217773	216.995667
2823.032553	17350.764833	1056.067383	45.128147
2823.032553	17350.764833	1054.916016	73.100235
2823.032553	17350.764833	1053.764648	196.179779
2823.032553	17350.764833	1052.613281	241.436905
2823.032553	17350.764833	1051.461914	303.756653
2823.032553	17350.764833	1050.310547	343.855682
2823.032553	17350.764833	1049.158203	236.203201
2823.032553	17350.764833	1048.005859	215.876907
2823.032553	17350.764833	1046.853516	208.369751
2823.032553	17350.764833	1045.700195	256.247589
2823.032553	17350.764833	1044.547852	236.303452
2823.032553	17350.764833	1043.394531	49.295666
2823.032553	17350.764833	1042.240234	178.931946
2823.032553	17350.764833	1041.086914	216.526535
2823.032553	17350.764833	1039.932617	144.356583
2823.032553	17350.764833	1038.778320	119.920464
2823.032553	17350.764833	1037.624023	234.121353
2823.032553	17350.764833	1036.469727	338.824799
2823.032553	17350.764833	1035.314453	398.326813
2823.032553	17350.764833	1034.159180	275.802704
2823.032553	17350.764833	1033.003906	516.127808
2823.032553	17350.764833	1031.847656	446.795776
2823.032553	17350.764833	1030.692383	327.164032
2823.032553	17350.764833	1029.536133	415.290314
2823.032553	17350.764833	1028.378906	325.064026
2823.032553	17350.764833	1027.222656	391.947815
2823.032553	17350.764833	1026.065430	252.793610
2823.032553	17350.764833	1024.908203	323.497742
2823.032553	17350.764833	1023.750977	267.187042
2823.032553	17350.764833	1022.593750	147.638168
2823.032553	17350.764833	1021.435547	211.736160
2823.032553	17350.764833	1020.277344	75.159645
2823.032553	17350.764833	1019.119141	85.080368
2823.032553	17350.764833	1017.959961	90.496017
2823.032553	17350.764833	1016.800781	162.051163
2823.032553	17350.764833	1015.641602	-129.511154
2823.032553	17350.764833	1014.482422	55.198574
2823.032553	17350.764833	1013.323242	44.620174
2823.032553	17350.764833	1012.163086	44.784378
2823.032553	17350.764833	1011.002930	108.970192
2823.032553	17350.764833	1009.842773	101.373299
2823.032553	17350.764833	1008.681641	-6.879468
2823.032553	17350.764833	1007.520508	25.840605
2823.032553	17350.764833	1006.359375	-75.904106
2823.032553	17350.764833	1005.198242	-33.977985
2823.032553	17350.764833	1004.037109	72.245796
2823.032553	17350.764833	1002.875000	80.222069
2823.032553	17350.764833	1001.712891	62.886803
2823.032553	17350.764833	1000.550781	130.773575
2823.032553	17350.764833	999.387695	73.350792
2823.032553	17350.764833	998.224609	-2.879550
2823.032553	17350.764833	997.061523	88.348038
2823.032553	17350.764833	995.898438	40.319565
2823.032553	17350.764833	994.734375	24.864666
2823.032553	17350.764833	993.571289	-130.709061
2823.032553	17350.764833	992.407227	21.798792
2823.032553	17350.764833	991.242188	-60.154476
2823.032553	17350.764833	990.078125	-146.165894
2823.032553	17350.764833	988.913086	-33.106522
2823.032553	17350.764833	987.748047	-89.028824
2823.032553	17350.764833	986.583008	-16.473963
2823.032553	17350.764833	985.416992	-21.872746
2823.032553	17350.764833	984.250977	-45.622803
2823.032553	17350.764833	983.084961	-81.656891
2823.032553	17350.764833	981.918945	11.819773
2823.032553	17350.764833	980.751953	11.786920
2823.032553	17350.764833	979.584961	40.192715
2823.032553	17350.764833	978.417969	90.796288
2823.032553	17350.764833	977.250977	54.484211
2823.032553	17350.764833	976.083008	-14.671588
2823.032553	17350.764833	974.915039	147.949493
2823.032553	17350.764833	973.747070	34.152481
2823.032553	17350.764833	972.579102	-192.128204
2823.032553	17350.764833	971.410156	-142.070267
2823.032553	17350.764833	970.242188	-162.078568
2823.032553	17350.764833	969.072266	57.008415
2823.032553	17350.764833	967.903320	-33.170403
2823.032553	17350.764833	966.733398	51.125858
2823.032553	17350.764833	965.563477	-106.071884
2823.032553	17350.764833	964.393555	39.947613
2823.032553	17350.764833	963.223633	106.852150
2823.032553	17350.764833	962.052734	38.644539
2823.032553	17350.764833	960.881836	95.279099
2823.032553	17350.764833	959.710938	-48.599831
2823.032553	17350.764833	958.540039	52.294189
2823.032553	17350.764833	957.368164	95.551300
2823.032553	17350.764833	956.196289	-64.811150
2823.032553	17350.764833	955.024414	57.710075
2823.032553	17350.764833	953.851563	-32.789093
2823.032553	17350.764833	952.679688	43.060375
2823.032553	17350.764833	951.506836	64.300629
2823.032553	17350.764833	950.333984	-65.409294
2823.032553	17350.764833	949.160156	-35.753819
2823.032553	17350.764833	947.986328	124.054535
2823.032553	17350.764833	946.812500	-12.788664
2823.032553	17350.764833	945.638672	-47.258240
2823.032553	17350.764833	944.464844	61.739819
2823.032553	17350.764833	943.290039	-52.080551
2823.032553	17350.764833	942.115234	25.559868
2823.032553	17350.764833	940.940430	-68.418747
2823.032553	17350.764833	939.764648	71.429413
2823.032553	17350.764833	938.588867	21.439766
2823.032553	17350.764833	937.413086	-3.100350
2823.032553	17350.764833	936.237305	-43.444607
2823.032553	17350.764833	935.060547	-39.249794
2823.032553	17350.764833	933.883789	17.365433
2823.032553	17350.764833	932.707031	72.000893
2823.032553	17350.764833	931.530273	24.024981
2823.032553	17350.764833	930.352539	119.249580
2823.032553	17350.764833	929.175781	86.682381
2823.032553	17350.764833	927.998047	261.197906
2823.032553	17350.764833	926.819336	176.339813
2823.032553	17350.764833	925.641602	37.349701
2823.032553	17350.764833	924.462891	196.270477
2823.032553	17350.764833	923.284180	270.034332
2823.032553	17350.764833	922.104492	74.986771
2823.032553	17350.764833	920.924805	162.257217
2823.032553	17350.764833	919.746094	165.870209
2823.032553	17350.764833	919.551758	170.827621
2823.032553	17350.764833	918.386719	-18.370192
2823.032553	17350.764833	917.220703	64.929100
2823.032553	17350.764833	916.054688	-62.374989
2823.032553	17350.764833	914.887695	51.781174
2823.032553	17350.764833	913.721680	111.811256
2823.032553	17350.764833	912.554688	-133.218170
2823.032553	17350.764833	911.387695	-34.590687
2823.032553	17350.764833	910.220703	-11.274433
2823.032553	17350.764833	909.052734	13.954310
2823.032553	17350.764833	907.885742	-82.366203
2823.032553	17350.764833	906.717773	52.775295
2823.032553	17350.764833	905.548828	64.450172
2823.032553	17350.764833	904.380859	103.096619
2823.032553	17350.764833	903.211914	-6.690175
2823.032553	17350.764833	902.042969	128.288666
2823.032553	17350.764833	900.874023	-33.497059
2823.032553	17350.764833	899.704102	68.669922
2823.032553	17350.764833	898.535156	66.787437
2823.032553	17350.764833	897.365234	-17.895147
2823.032553	17350.764833	896.194336	159.256958
2823.032553	17350.764833	895.024414	-67.854065
2823.032553	17350.764833	893.853516	-2.390062
2823.032553	17350.764833	892.682617	7.244843
2823.032553	17350.764833	891.511719	-6.214931
2823.032553	17350.764833	890.340820	-11.986631
2823.032553	17350.764833	889.168945	-50.447849
2823.032553	17350.764833	887.997070	195.597885
2823.032553	17350.764833	886.825195	112.887428
2823.032553	17350.764833	885.653320	76.317749
2823.032553	17350.764833	884.480469	118.522438
2823.032553	17350.764833	883.307617	10.883044
2823.032553	17350.764833	882.134766	-79.437836
2823.032553	17350.764833	880.961914	-4.615992
2823.032553	17350.764833	879.788086	6.823416
2823.032553	17350.764833	878.614258	81.580795
2823.032553	17350.764833	877.440430	-24.066044
2823.032553	17350.764833	876.266602	-54.862247
2823.032553	17350.764833	875.091797	-26.195339
2823.032553	17350.764833	873.916992	69.566742
2823.032553	17350.764833	872.742188	-16.854851
2823.032553	17350.764833	871.567383	52.011505
2823.032553	17350.764833	870.391602	-120.626556
2823.032553	17350.764833	869.215820	-126.509018
2823.032553	17350.764833	868.040039	-88.339577
2823.032553	17350.764833	866.864258	-132.551392
2823.032553	17350.764833	865.687500	-10.160046
2823.032553	17350.764833	864.510742	79.624763
2823.032553	17350.764833	863.333984	98.542694
2823.032553	17350.764833	862.157227	-146.644135
2823.032553	17350.764833	860.979492	-45.435253
2823.032553	17350.764833	859.802734	71.022568
2823.032553	17350.764833	858.625000	-87.974709
2823.032553	17350.764833	857.446289	-72.913544
2823.032553	17350.764833	856.268555	41.536839
2823.032553	17350.764833	855.089844	-16.086926
2823.032553	17350.764833	853.911133	-33.568726
2823.032553	17350.764833	852.731445	-26.215313
2823.032553	17350.764833	851.552734	40.335899
2823.032553	17350.764833	850.373047	101.120949
2823.032553	17350.764833	849.193359	49.217789
2823.032553	17350.764833	848.013672	-54.218475
2823.032553	17350.764833	846.833008	98.126930
2823.032553	17350.764833	845.652344	-14.839434
2823.032553	17350.764833	844.471680	-141.126511
2823.032553	17350.764833	843.291016	18.735237
2823.032553	17350.764833	842.110352	50.749546
2823.032553	17350.764833	840.928711	33.167622
2823.032553	17350.764833	839.747070	-28.263111
2823.032553	17350.764833	838.564453	-13.446756
2823.032553	17350.764833	837.382813	-15.801294
2823.032553	17350.764833	836.200195	-117.228012
2823.032553	17350.764833	835.017578	-144.346161
2823.032553	17350.764833	833.834961	-142.903519
2823.032553	17350.764833	832.651367	-29.145559
2823.032553	17350.764833	831.467773	-63.920036
2823.032553	17350.764833	830.284180	-233.814087
2823.032553	17350.764833	829.100586	-44.044739
2823.032553	17350.764833	827.916992	-94.058998
2823.032553	17350.764833	826.732422	-115.537018
2823.032553	17350.764833	825.547852	-97.090652
2823.032553	17350.764833	824.363281	98.136299
2823.032553	17350.764833	823.177734	120.302490
2823.032553	17350.764833	821.992188	-57.093060
2823.032553	17350.764833	820.806641	10.660328
2823.032553	17350.764833	819.621094	46.076550
2823.032553	17350.764833	818.434570	66.269272
2823.032553	17350.764833	817.249023	52.255470
2823.032553	17350.764833	816.062500	-28.211405
2823.032553	17350.764833	814.875000	-4.272297
2823.032553	17350.764833	813.688477	48.100098
2823.032553	17350.764833	812.500977	-58.931198
2823.032553	17350.764833	811.313477	78.751083
2823.032553	17350.764833	810.125977	72.229187
2823.032553	17350.764833	808.937500	-36.693451
2823.032553	17350.764833	807.749023	91.362701
2823.032553	17350.764833	806.560547	-55.464481
2823.032553	17350.764833	805.372070	-41.189938
2823.032553	17350.764833	804.182617	-57.251511
2823.032553	17350.764833	802.994141	-88.482460
2823.032553	17350.764833	801.803711	29.881874
2823.032553	17350.764833	800.614258	-82.807579
2823.032553	17350.764833	799.424805	-81.899323
2823.032553	17350.764833	798.234375	-1.527610
2823.032553	17350.764833	797.043945	97.709198
2823.032553	17350.764833	795.852539	-103.899834
2823.032553	17350.764833	794.662109	157.923111
2823.032553	17350.764833	793.470703	-11.516981
2823.032553	17350.764833	792.279297	-5.091362
2823.032553	17350.764833	791.087891	22.098076
2823.032553	17350.764833	789.895508	71.930122
2823.032553	17350.764833	788.703125	144.388077
2823.032553	17350.764833	787.510742	31.670826
2823.032553	17350.764833	786.318359	138.049515
2823.032553	17350.764833	785.125000	29.104988
2823.032553	17350.764833	783.931641	10.793282
2823.032553	17350.764833	782.738281	-71.710648
2823.032553	17350.764833	781.544922	-84.388107
2823.032553	17350.764833	780.350586	112.328964
2823.032553	17350.764833	779.156250	75.042198
2823.032553	17350.764833	777.961914	83.002708
2823.032553	17350.764833	776.767578	-50.478325
2823.032553	17350.764833	775.572266	46.044991
2823.032553	17350.764833	774.376953	25.648975
2823.032553	17350.764833	773.181641	7.115515
2823.032553	17350.764833	771.986328	-62.305737
2823.032553	17350.764833	770.790039	35.902782
2823.032553	17350.764833	769.593750	135.921997
2823.032553	17350.764833	768.397461	75.837975
2823.032553	17350.764833	767.201172	27.040512
2823.032553	17350.764833	766.003906	168.306351
2823.032553	17350.764833	764.806641	83.696388
2823.032553	17350.764833	763.609375	19.781088
2823.032553	17350.764833	762.412109	59.299850
2823.032553	17350.764833	761.213867	21.674328
2823.032553	17350.764833	760.015625	93.068558
2823.032553	17350.764833	758.817383	-49.873264
2823.032553	17350.764833	757.618164	-42.455162
2823.032553	17350.764833	756.419922	177.227234
2823.032553	17350.764833	755.220703	-18.343966
2823.032553	17350.764833	754.021484	64.075996
2823.032553	17350.764833	752.821289	-77.010857
2823.032553	17350.764833	751.621094	1.559729
2823.032553	17350.764833	750.420898	113.843575
2823.032553	17350.764833	749.220703	-2.883770
2823.032553	17350.764833	748.020508	43.616638
2823.032553	17350.764833	746.819336	5.655266
2823.032553	17350.764833	745.618164	254.587936
2823.032553	17350.764833	744.416992	122.776154
2823.032553	17350.764833	743.214844	-7.144507
2823.032553	17350.764833	742.012695	168.427490
2823.032553	17350.764833	740.810547	180.873169
2823.032553	17350.764833	739.608398	361.872406
2823.032553	17350.764833	738.406250	319.876587
2823.032553	17350.764833	737.203125	459.493774
2823.032553	17350.764833	736.000000	649.559082
2823.032553	17350.764833	734.795898	805.812378
2823.032553	17350.764833	733.592773	961.957642
2823.032553	17350.764833	732.388672	1224.641235
2823.032553	17350.764833	731.184570	935.350952
2823.032553	17350.764833	729.979492	1057.580322
2823.032553	17350.764833	728.775391	772.098450
2823.032553	17350.764833	727.570313	703.544434
2823.032553	17350.764833	726.365234	489.191528
2823.032553	17350.764833	725.160156	448.666504
2823.032553	17350.764833	723.954102	352.066833
2823.032553	17350.764833	722.748047	380.608398
2823.032553	17350.764833	721.541992	164.457016
2823.032553	17350.764833	720.334961	64.108032
2823.032553	17350.764833	719.128906	122.423012
2823.032553	17350.764833	717.921875	260.917786
2823.032553	17350.764833	716.714844	69.046257
2823.032553	17350.764833	715.506836	7.792919
2823.032553	17350.764833	714.298828	235.610779
2823.032553	17350.764833	713.090820	51.183704
2823.032553	17350.764833	711.882813	116.606735
2823.032553	17350.764833	710.674805	-41.717003
2823.032553	17350.764833	709.465820	-2.486275
2823.032553	17350.764833	708.256836	96.300964
2823.032553	17350.764833	707.047852	92.546906
2823.032553	17350.764833	705.837891	-0.648017
2823.032553	17350.764833	704.627930	-75.232292
2823.032553	17350.764833	703.417969	129.404785
2823.032553	17350.764833	702.208008	69.617065
2823.032553	17350.764833	700.998047	-34.853386
2823.032553	17350.764833	699.787109	61.595188
2823.032553	17350.764833	698.576172	94.713249
2823.032553	17350.764833	697.364258	211.451126
2823.032553	17350.764833	696.153320	-92.098534
2823.032553	17350.764833	694.941406	-3.352372
2823.032553	17350.764833	693.729492	63.005199
2823.032553	17350.764833	692.516602	129.284729
2823.032553	17350.764833	691.304688	128.610474
2823.032553	17350.764833	690.091797	75.880928
2823.032553	17350.764833	688.878906	160.534927
2823.032553	17350.764833	687.665039	293.371185
2823.032553	17350.764833	686.451172	140.258316
2823.032553	17350.764833	685.237305	130.050781
2823.032553	17350.764833	684.023438	90.111855
2823.032553	17350.764833	682.809570	103.932739
2823.032553	17350.764833	681.594727	160.351547
2823.032553	17350.764833	680.379883	185.174652
2823.032553	17350.764833	679.165039	143.200882
2823.032553	17350.764833	677.949219	243.904495
2823.032553	17350.764833	676.733398	311.160370
2823.032553	17350.764833	675.517578	220.865997
2823.032553	17350.764833	674.301758	228.726532
2823.032553	17350.764833	673.084961	314.308899
2823.032553	17350.764833	671.869141	210.959396
2823.032553	17350.764833	670.651367	272.343414
2823.032553	17350.764833	669.434570	217.061386
2823.032553	17350.764833	668.216797	128.445679
2823.032553	17350.764833	667.000000	419.044159
2823.032553	17350.764833	665.781250	443.140350
2823.032553	17350.764833	664.563477	439.441711
2823.032553	17350.764833	663.344727	439.390198
2823.032553	17350.764833	662.125977	278.484741
2823.032553	17350.764833	660.907227	355.980927
2823.032553	17350.764833	659.688477	341.018127
2823.032553	17350.764833	658.468750	466.393799
2823.032553	17350.764833	657.249023	545.497803
2823.032553	17350.764833	656.029297	380.799103
2823.032553	17350.764833	654.808594	387.795319
2823.032553	17350.764833	653.587891	512.857422
2823.032553	17350.764833	652.367188	364.729248
2823.032553	17350.764833	651.146484	408.475586
2823.032553	17350.764833	649.924805	236.356140
2823.032553	17350.764833	648.704102	368.528992
2823.032553	17350.764833	647.482422	443.443512
2823.032553	17350.764833	646.259766	223.356735
2823.032553	17350.764833	645.037109	388.473907
2823.032553	17350.764833	643.815430	466.881317
2823.032553	17350.764833	642.591797	342.575378
2823.032553	17350.764833	641.369141	304.838196
2823.032553	17350.764833	640.145508	320.466919
2823.032553	17350.764833	638.921875	393.111359
2823.032553	17350.764833	637.698242	368.133240
2823.032553	17350.764833	636.474609	332.079834
2823.032553	17350.764833	635.250000	308.873688
2823.032553	17350.764833	634.025391	313.223419
2823.032553	17350.764833	632.800781	365.341339
2823.032553	17350.764833	631.575195	229.856506
2823.032553	17350.764833	630.349609	272.691010
2823.032553	17350.764833	629.124023	93.091911
2823.032553	17350.764833	627.898438	214.861450
2823.032553	17350.764833	626.671875	303.469391
2823.032553	17350.764833	625.445313	272.618286
2823.032553	17350.764833	624.218750	216.032776
2823.032553	17350.764833	622.992188	251.224152
2823.032553	17350.764833	621.764648	91.799767
2823.032553	17350.764833	620.537109	196.653763
2823.032553	17350.764833	619.309570	70.255951
2823.032553	17350.764833	618.081055	68.602814
2823.032553	17350.764833	616.852539	-35.784927
2823.032553	17350.764833	615.624023	-11.819761
2823.032553	17350.764833	614.395508	147.750870
2823.032553	17350.764833	613.166992	89.123375
2823.032553	17350.764833	611.937500	48.805889
2823.032553	17350.764833	610.708008	-55.646984
2823.032553	17350.764833	609.477539	-48.366306
2823.032553	17350.764833	608.248047	118.193710
2823.032553	17350.764833	607.017578	46.644802
2823.032553	17350.764833	605.787109	50.141327
2823.032553	17350.764833	604.555664	-6.788159
2823.032553	17350.764833	603.325195	-107.631332
2823.032553	17350.764833	602.093750	-129.807373
2823.032553	17350.764833	600.861328	-44.104668
2823.032553	17350.764833	599.629883	-0.518082
2823.032553	17350.764833	598.397461	-28.274977
2823.032553	17350.764833	597.165039	37.164478
2823.032553	17350.764833	595.932617	-72.868881
2823.032553	17350.764833	594.699219	-23.944738
2823.032553	17350.764833	593.465820	26.761007
2823.032553	17350.764833	592.232422	66.463982
2823.032553	17350.764833	590.999023	-19.847738
2823.032553	17350.764833	589.764648	61.783005
2823.032553	17350.764833	588.530273	143.357162
2823.032553	17350.764833	587.295898	140.945862
2823.032553	17350.764833	586.061523	107.504982
2823.032553	17350.764833	584.826172	156.125931
2823.032553	17350.764833	583.590820	155.476730
2823.032553	17350.764833	582.355469	163.924942
2823.032553	17350.764833	581.119141	310.868073
2823.032553	17350.764833	579.882813	189.865326
2823.032553	17350.764833	578.646484	241.974213
2823.032553	17350.764833	577.410156	128.294220
2823.032553	17350.764833	576.172852	244.100296
2823.032553	17350.764833	574.935547	277.913605
2823.032553	17350.764833	573.698242	262.553436
2823.032553	17350.764833	572.460938	278.127533
2823.032553	17350.764833	571.222656	226.359589
2823.032553	17350.764833	569.984375	207.348969
2823.032553	17350.764833	568.746094	153.782593
2823.032553	17350.764833	567.506836	67.497406
2823.032553	17350.764833	566.267578	195.762222
2823.032553	17350.764833	565.028320	142.209763
2823.032553	17350.764833	563.789063	239.502045
2823.032553	17350.764833	562.548828	233.187958
2823.032553	17350.764833	561.309570	314.064972
2823.032553	17350.764833	560.068359	242.352661
2823.032553	17350.764833	558.828125	141.623276
2823.032553	17350.764833	557.586914	-4.447710
2823.032553	17350.764833	556.345703	52.808434
2823.032553	17350.764833	555.104492	41.091805
2823.032553	17350.764833	553.863281	63.850548
2823.032553	17350.764833	552.621094	10.424075
2823.032553	17350.764833	551.378906	-99.187378
2823.032553	17350.764833	550.136719	132.081039
2823.032553	17350.764833	548.893555	307.064331
2823.032553	17350.764833	547.650391	163.043457
2823.032553	17350.764833	546.407227	0.974881
2823.032553	17350.764833	545.164063	87.140671
2823.032553	17350.764833	543.919922	42.885143
2823.032553	17350.764833	542.675781	56.597618
2823.032553	17350.764833	541.431641	37.732037
2823.032553	17350.764833	540.186523	-1.024991
2823.032553	17350.764833	538.941406	-115.748070
2823.032553	17350.764833	537.696289	-24.178598
2823.032553	17350.764833	536.451172	116.199348
2823.032553	17350.764833	535.205078	119.101204
2823.032553	17350.764833	533.959961	131.060837
2823.032553	17350.764833	532.712891	-8.803869
2823.032553	17350.764833	531.466797	-87.145927
2823.032553	17350.764833	530.219727	-31.743261
2823.032553	17350.764833	528.972656	50.749249
2823.032553	17350.764833	527.725586	79.048111
2823.032553	17350.764833	526.478516	-105.699036
2823.032553	17350.764833	525.230469	119.421494
2823.032553	17350.764833	523.982422	106.237587
2823.032553	17350.764833	522.734375	6.471045
2823.032553	17350.764833	521.485352	-102.253502
2823.032553	17350.764833	520.236328	21.758400
2823.032553	17350.764833	518.987305	-43.597176
2823.032553	17350.764833	517.737305	-58.424126
2823.032553	17350.764833	516.488281	-145.313843
2823.032553	17350.764833	515.238281	-80.771072
2823.032553	17350.764833	513.988281	-48.659668
2823.032553	17350.764833	512.737305	-119.211952
2823.032553	17350.764833	511.486328	11.994246
2823.032553	17350.764833	510.235352	-63.887863
2823.032553	17350.764833	508.984375	-49.702652
2823.032553	17350.764833	507.732422	-193.875824
2823.032553	17350.764833	506.480469	-156.223709
2823.032553	17350.764833	505.228516	-154.538528
2823.032553	17350.764833	503.976563	-35.917217
2823.032553	17350.764833	502.723633	39.523071
2823.032553	17350.764833	501.470703	-97.181183
2823.032553	17350.764833	500.217773	3.462317
2823.032553	17350.764833	498.963867	-197.812042
2823.032553	17350.764833	497.709961	-273.204773
2823.032553	17350.764833	496.456055	-7.245697
2823.032553	17350.764833	495.202148	-53.853287
2823.032553	17350.764833	493.947266	48.611069
2823.032553	17350.764833	492.692383	39.764927
2823.032553	17350.764833	491.437500	158.377167
2823.032553	17350.764833	490.181641	-10.128036
2823.032553	17350.764833	488.926758	18.804554
2823.032553	17350.764833	487.670898	28.022007
2823.032553	17350.764833	486.414063	-68.536034
2823.032553	17350.764833	485.158203	3.499806
2823.032553	17350.764833	483.901367	-26.637180
2823.032553	17350.764833	482.644531	-157.086365
2823.032553	17350.764833	481.386719	-42.003345
2823.032553	17350.764833	480.128906	-9.341126
2823.032553	17350.764833	478.871094	-32.183910
2823.032553	17350.764833	477.613281	86.454361
2823.032553	17350.764833	476.355469	4.576282
2823.032553	17350.764833	475.096680	53.401546
2823.032553	17350.764833	473.837891	19.919605
2823.032553	17350.764833	472.578125	50.871044
2823.032553	17350.764833	471.319336	169.469818
2823.032553	17350.764833	470.059570	23.387959
2823.032553	17350.764833	468.799805	102.644341
2823.032553	17350.764833	467.539063	62.126308
2823.032553	17350.764833	466.278320	66.314964
2823.032553	17350.764833	465.017578	6.197632
2823.032553	17350.764833	463.756836	-46.736988
2823.032553	17350.764833	462.495117	78.942619
2823.032553	17350.764833	461.233398	26.031649
2823.032553	17350.764833	459.971680	126.665520
2823.032553	17350.764833	458.709961	177.290146
2823.032553	17350.764833	457.447266	42.327431
2823.032553	17350.764833	456.184570	105.436943
2823.032553	17350.764833	454.921875	216.673676
2823.032553	17350.764833	453.658203	247.615540
2823.032553	17350.764833	452.394531	191.183517
2823.032553	17350.764833	451.130859	211.409378
2823.032553	17350.764833	449.867188	281.511322
2823.032553	17350.764833	448.602539	225.074127
2823.032553	17350.764833	447.337891	173.989120
2823.032553	17350.764833	446.073242	121.127029
2823.032553	17350.764833	444.807617	20.191429
2823.032553	17350.764833	443.542969	36.760880
2823.032553	17350.764833	442.276367	44.391655
2823.032553	17350.764833	441.010742	121.382896
2823.032553	17350.764833	439.744141	308.594849
2823.032553	17350.764833	438.478516	232.470978
2823.032553	17350.764833	437.210938	99.432541
2823.032553	17350.764833	435.944336	76.629097
2823.032553	17350.764833	434.676758	135.541718
2823.032553	17350.764833	433.409180	199.706650
2823.032553	17350.764833	432.141602	187.392731
2823.032553	17350.764833	430.873047	150.152451
2823.032553	17350.764833	429.604492	31.174599
2823.032553	17350.764833	428.335938	176.716858
2823.032553	17350.764833	427.067383	233.368317
2823.032553	17350.764833	425.797852	32.585007
2823.032553	17350.764833	424.528320	30.523113
2823.032553	17350.764833	423.258789	60.301083
2823.032553	17350.764833	421.988281	-7.575920
2823.032553	17350.764833	420.717773	52.139835
2823.032553	17350.764833	419.447266	35.495045
2823.032553	17350.764833	418.175781	-30.884747
2823.032553	17350.764833	416.905273	83.389732
2823.032553	17350.764833	415.633789	130.166153
2823.032553	17350.764833	414.362305	194.502899
2823.032553	17350.764833	413.089844	152.420914
2823.032553	17350.764833	411.817383	163.326096
2823.032553	17350.764833	410.544922	207.705826
2823.032553	17350.764833	409.272461	76.710968
2823.032553	17350.764833	407.999023	-38.472675
2823.032553	17350.764833	406.725586	118.630783
2823.032553	17350.764833	405.452148	88.023186
2823.032553	17350.764833	404.177734	32.482132
2823.032553	17350.764833	402.903320	36.872490
2823.032553	17350.764833	401.628906	108.216515
2823.032553	17350.764833	400.354492	168.714478
2823.032553	17350.764833	399.079102	78.798820
2823.032553	17350.764833	397.803711	99.963577
2823.032553	17350.764833	396.528320	138.538300
2823.032553	17350.764833	395.251953	-27.950062
2823.032553	17350.764833	393.976563	-30.467215
2823.032553	17350.764833	392.700195	192.621902
2823.032553	17350.764833	391.422852	78.349953
2823.032553	17350.764833	390.145508	0.881147
2823.032553	17350.764833	388.869141	124.197754
2823.032553	17350.764833	387.590820	90.217384
2823.032553	17350.764833	386.313477	70.041458
2823.032553	17350.764833	385.035156	181.714554
2823.032553	17350.764833	383.756836	-40.020058
2823.032553	17350.764833	382.478516	25.130461
2823.032553	17350.764833	381.199219	236.060455
2823.032553	17350.764833	379.919922	76.742661
2823.032553	17350.764833	378.640625	-70.572815
2823.032553	17350.764833	377.360352	121.458832
2823.032553	17350.764833	376.080078	-5.514306
2823.032553	17350.764833	374.799805	-11.469504
2823.032553	17350.764833	373.519531	96.465782
2823.032553	17350.764833	372.238281	40.341476
2823.032553	17350.764833	370.957031	-40.843594
2823.032553	17350.764833	369.675781	-166.423782
2823.032553	17350.764833	368.394531	6.309239
2823.032553	17350.764833	367.112305	-21.860443
2823.032553	17350.764833	365.830078	-47.035309
2823.032553	17350.764833	364.546875	73.010643
2823.032553	17350.764833	363.264648	11.600788
2823.032553	17350.764833	361.981445	14.578259
2823.032553	17350.764833	360.698242	38.020142
2823.032553	17350.764833	359.414063	-88.326195
2823.032553	17350.764833	358.129883	123.340187
2823.032553	17350.764833	356.845703	-107.730774
2823.032553	17350.764833	355.561523	-58.793850
2823.032553	17350.764833	354.276367	71.821297
2823.032553	17350.764833	352.991211	126.306274
2823.032553	17350.764833	351.706055	52.118164
2823.032553	17350.764833	350.420898	-45.554840
2823.032553	17350.764833	349.134766	-205.273071
2823.032553	17350.764833	347.848633	10.823269
2823.032553	17350.764833	346.561523	-148.689926
2823.032553	17350.764833	345.275391	-27.101915
2823.032553	17350.764833	343.988281	-6.190067
2823.032553	17350.764833	342.700195	-101.659012
2823.032553	17350.764833	341.413086	76.699745
2823.032553	17350.764833	340.125000	-3.055888
2823.032553	17350.764833	338.836914	98.145409
2823.032553	17350.764833	337.548828	68.976318
2823.032553	17350.764833	336.259766	5.604786
2823.032553	17350.764833	334.970703	-23.795464
2823.032553	17350.764833	333.681641	101.277084
2823.032553	17350.764833	332.391602	-47.273964
2823.032553	17350.764833	331.101563	16.210445
2823.032553	17350.764833	329.811523	136.174866
2823.032553	17350.764833	328.521484	-118.595757
2823.032553	17350.764833	327.230469	-88.237099
2823.032553	17350.764833	325.939453	-43.377716
2823.032553	17350.764833	324.648438	-1.498659
2823.032553	17350.764833	323.356445	-41.141106
2823.032553	17350.764833	322.064453	-75.066162
2823.032553	17350.764833	320.772461	-101.563919
2823.032553	17350.764833	319.480469	-5.636824
2823.032553	17350.764833	318.187500	-54.038952
2823.032553	17350.764833	316.894531	77.366951
2823.032553	17350.764833	315.601563	-125.384972
2823.032553	17350.764833	314.307617	175.450409
2823.032553	17350.764833	313.013672	-92.900208
2823.032553	17350.764833	311.719727	-91.121986
2823.032553	17350.764833	310.425781	-3.890830
2823.032553	17350.764833	309.130859	62.527802
2823.032553	17350.764833	307.835938	76.845367
2823.032553	17350.764833	306.541016	136.450775
2823.032553	17350.764833	305.245117	142.122009
2823.032553	17350.764833	303.949219	66.092972
2823.032553	17350.764833	302.653320	132.574142
2823.032553	17350.764833	301.356445	374.396454
2823.032553	17350.764833	300.060547	41.046379
2823.032553	17350.764833	298.763672	285.995789
