#X		#Y		#Wave		#Intensity
2718.786543	17397.064167	2000.043945	48.211815
2718.786543	17397.064167	1999.080078	-100.718506
2718.786543	17397.064167	1998.116211	119.079681
2718.786543	17397.064167	1997.151367	58.777458
2718.786543	17397.064167	1996.186523	8.420796
2718.786543	17397.064167	1995.222656	-49.337444
2718.786543	17397.064167	1994.256836	-12.945742
2718.786543	17397.064167	1993.291992	127.448517
2718.786543	17397.064167	1992.327148	10.311451
2718.786543	17397.064167	1991.361328	26.898540
2718.786543	17397.064167	1990.395508	38.538715
2718.786543	17397.064167	1989.429688	30.386990
2718.786543	17397.064167	1988.463867	39.564445
2718.786543	17397.064167	1987.497070	-74.932144
2718.786543	17397.064167	1986.531250	80.189110
2718.786543	17397.064167	1985.564453	52.283592
2718.786543	17397.064167	1984.597656	-20.104897
2718.786543	17397.064167	1983.630859	48.427746
2718.786543	17397.064167	1982.664063	87.284904
2718.786543	17397.064167	1981.696289	-207.427170
2718.786543	17397.064167	1980.728516	-35.128536
2718.786543	17397.064167	1979.761719	119.820808
2718.786543	17397.064167	1978.792969	35.180943
2718.786543	17397.064167	1977.825195	-98.803604
2718.786543	17397.064167	1976.857422	154.821854
2718.786543	17397.064167	1975.888672	48.018906
2718.786543	17397.064167	1974.919922	37.494453
2718.786543	17397.064167	1973.951172	-84.045776
2718.786543	17397.064167	1972.982422	-3.271305
2718.786543	17397.064167	1972.013672	52.812416
2718.786543	17397.064167	1971.043945	64.492188
2718.786543	17397.064167	1970.075195	-10.117569
2718.786543	17397.064167	1969.105469	122.348351
2718.786543	17397.064167	1968.135742	67.470932
2718.786543	17397.064167	1967.165039	103.779449
2718.786543	17397.064167	1966.195313	29.217205
2718.786543	17397.064167	1965.224609	-0.983633
2718.786543	17397.064167	1964.253906	72.253326
2718.786543	17397.064167	1963.283203	0.197343
2718.786543	17397.064167	1962.312500	26.632355
2718.786543	17397.064167	1961.341797	72.745613
2718.786543	17397.064167	1960.370117	3.184821
2718.786543	17397.064167	1959.399414	-17.146687
2718.786543	17397.064167	1958.427734	1.883667
2718.786543	17397.064167	1957.455078	62.713394
2718.786543	17397.064167	1956.483398	32.538090
2718.786543	17397.064167	1955.511719	-68.924202
2718.786543	17397.064167	1954.539063	-0.751104
2718.786543	17397.064167	1953.566406	91.968567
2718.786543	17397.064167	1952.593750	0.369138
2718.786543	17397.064167	1951.621094	63.566616
2718.786543	17397.064167	1950.647461	-106.598885
2718.786543	17397.064167	1949.674805	35.168892
2718.786543	17397.064167	1948.701172	-51.458675
2718.786543	17397.064167	1947.727539	-57.050827
2718.786543	17397.064167	1946.753906	-20.922192
2718.786543	17397.064167	1945.780273	20.095516
2718.786543	17397.064167	1944.805664	24.291370
2718.786543	17397.064167	1943.831055	45.650852
2718.786543	17397.064167	1942.856445	-80.153595
2718.786543	17397.064167	1941.881836	-36.725647
2718.786543	17397.064167	1940.907227	45.905731
2718.786543	17397.064167	1939.932617	-60.237644
2718.786543	17397.064167	1938.957031	-2.152117
2718.786543	17397.064167	1937.981445	41.203999
2718.786543	17397.064167	1937.005859	-6.104258
2718.786543	17397.064167	1936.030273	-9.314095
2718.786543	17397.064167	1935.054688	78.078255
2718.786543	17397.064167	1934.078125	123.807861
2718.786543	17397.064167	1933.101563	5.501179
2718.786543	17397.064167	1932.125000	-73.609024
2718.786543	17397.064167	1931.148438	-32.792900
2718.786543	17397.064167	1930.171875	10.447214
2718.786543	17397.064167	1929.194336	12.079043
2718.786543	17397.064167	1928.217773	87.072510
2718.786543	17397.064167	1927.240234	47.104870
2718.786543	17397.064167	1926.262695	26.702295
2718.786543	17397.064167	1925.284180	-150.136520
2718.786543	17397.064167	1924.306641	15.220277
2718.786543	17397.064167	1923.328125	65.667427
2718.786543	17397.064167	1922.350586	52.571182
2718.786543	17397.064167	1921.372070	5.276211
2718.786543	17397.064167	1920.392578	-56.662464
2718.786543	17397.064167	1919.414063	106.036758
2718.786543	17397.064167	1918.434570	56.289524
2718.786543	17397.064167	1917.456055	128.584259
2718.786543	17397.064167	1916.476563	95.913986
2718.786543	17397.064167	1915.497070	-78.258774
2718.786543	17397.064167	1914.516602	-47.476418
2718.786543	17397.064167	1913.537109	49.133102
2718.786543	17397.064167	1912.556641	35.969456
2718.786543	17397.064167	1911.576172	15.486922
2718.786543	17397.064167	1910.595703	-53.747475
2718.786543	17397.064167	1909.615234	33.002235
2718.786543	17397.064167	1908.633789	-2.118918
2718.786543	17397.064167	1907.653320	21.229252
2718.786543	17397.064167	1906.671875	-11.462393
2718.786543	17397.064167	1905.690430	14.291981
2718.786543	17397.064167	1904.708984	-45.190117
2718.786543	17397.064167	1903.727539	-58.409531
2718.786543	17397.064167	1902.745117	-86.238876
2718.786543	17397.064167	1901.762695	63.567013
2718.786543	17397.064167	1900.780273	28.404005
2718.786543	17397.064167	1899.797852	-26.217274
2718.786543	17397.064167	1898.815430	-129.470032
2718.786543	17397.064167	1897.832031	32.342644
2718.786543	17397.064167	1896.849609	-22.284288
2718.786543	17397.064167	1895.866211	5.738427
2718.786543	17397.064167	1894.882813	19.157484
2718.786543	17397.064167	1893.898438	8.261056
2718.786543	17397.064167	1892.915039	-2.643302
2718.786543	17397.064167	1891.930664	69.023552
2718.786543	17397.064167	1890.947266	-14.764513
2718.786543	17397.064167	1889.962891	-20.841253
2718.786543	17397.064167	1888.977539	94.443565
2718.786543	17397.064167	1887.993164	17.939367
2718.786543	17397.064167	1887.007813	40.938545
2718.786543	17397.064167	1886.023438	-13.718948
2718.786543	17397.064167	1885.038086	14.101760
2718.786543	17397.064167	1884.051758	54.023796
2718.786543	17397.064167	1883.066406	72.094948
2718.786543	17397.064167	1882.081055	51.356697
2718.786543	17397.064167	1881.094727	42.730827
2718.786543	17397.064167	1880.108398	-24.067034
2718.786543	17397.064167	1879.122070	39.983490
2718.786543	17397.064167	1878.135742	53.123482
2718.786543	17397.064167	1877.148438	75.931412
2718.786543	17397.064167	1876.162109	16.383730
2718.786543	17397.064167	1875.174805	-40.736294
2718.786543	17397.064167	1874.187500	11.079281
2718.786543	17397.064167	1873.199219	-31.528393
2718.786543	17397.064167	1872.211914	-83.813469
2718.786543	17397.064167	1871.223633	-92.547966
2718.786543	17397.064167	1870.236328	55.930275
2718.786543	17397.064167	1869.248047	35.049370
2718.786543	17397.064167	1868.258789	-60.796322
2718.786543	17397.064167	1867.270508	-57.504868
2718.786543	17397.064167	1866.282227	88.373428
2718.786543	17397.064167	1865.292969	-36.475975
2718.786543	17397.064167	1864.303711	-4.247638
2718.786543	17397.064167	1863.314453	-13.114059
2718.786543	17397.064167	1862.324219	26.308903
2718.786543	17397.064167	1861.334961	-86.428375
2718.786543	17397.064167	1860.344727	78.503052
2718.786543	17397.064167	1859.354492	35.764423
2718.786543	17397.064167	1858.364258	149.894897
2718.786543	17397.064167	1857.374023	29.909731
2718.786543	17397.064167	1856.383789	25.751146
2718.786543	17397.064167	1855.392578	55.343700
2718.786543	17397.064167	1854.401367	22.205881
2718.786543	17397.064167	1853.410156	104.796532
2718.786543	17397.064167	1852.418945	25.822292
2718.786543	17397.064167	1851.426758	4.703492
2718.786543	17397.064167	1850.435547	26.950832
2718.786543	17397.064167	1849.443359	-64.068054
2718.786543	17397.064167	1848.451172	-8.130953
2718.786543	17397.064167	1847.458984	62.216328
2718.786543	17397.064167	1846.466797	98.806160
2718.786543	17397.064167	1845.473633	65.544121
2718.786543	17397.064167	1844.480469	8.204230
2718.786543	17397.064167	1843.487305	102.481911
2718.786543	17397.064167	1842.494141	57.147518
2718.786543	17397.064167	1841.500977	59.923805
2718.786543	17397.064167	1840.506836	-40.747868
2718.786543	17397.064167	1839.513672	53.387016
2718.786543	17397.064167	1838.519531	29.651974
2718.786543	17397.064167	1837.525391	3.501351
2718.786543	17397.064167	1836.530273	32.616905
2718.786543	17397.064167	1835.536133	-94.491814
2718.786543	17397.064167	1834.541016	-48.593475
2718.786543	17397.064167	1833.545898	-31.558861
2718.786543	17397.064167	1832.550781	-16.953793
2718.786543	17397.064167	1831.555664	9.629545
2718.786543	17397.064167	1830.560547	-40.641762
2718.786543	17397.064167	1829.564453	0.292323
2718.786543	17397.064167	1828.568359	-66.803131
2718.786543	17397.064167	1827.572266	38.858349
2718.786543	17397.064167	1826.576172	-45.056393
2718.786543	17397.064167	1825.580078	24.538927
2718.786543	17397.064167	1824.583008	17.347059
2718.786543	17397.064167	1823.585938	98.844360
2718.786543	17397.064167	1822.588867	-138.526443
2718.786543	17397.064167	1821.591797	72.341682
2718.786543	17397.064167	1820.594727	-57.152729
2718.786543	17397.064167	1819.596680	45.763035
2718.786543	17397.064167	1818.599609	-33.424179
2718.786543	17397.064167	1817.601563	-28.787977
2718.786543	17397.064167	1816.603516	-5.022737
2718.786543	17397.064167	1815.604492	30.676876
2718.786543	17397.064167	1814.606445	-29.398888
2718.786543	17397.064167	1813.607422	-46.404133
2718.786543	17397.064167	1812.608398	-113.671814
2718.786543	17397.064167	1811.609375	29.567942
2718.786543	17397.064167	1810.610352	69.886292
2718.786543	17397.064167	1809.610352	-9.398872
2718.786543	17397.064167	1808.611328	-38.471622
2718.786543	17397.064167	1807.611328	92.590561
2718.786543	17397.064167	1806.611328	154.271042
2718.786543	17397.064167	1805.610352	34.304832
2718.786543	17397.064167	1804.610352	-35.472153
2718.786543	17397.064167	1803.609375	-59.869026
2718.786543	17397.064167	1802.608398	-41.298340
2718.786543	17397.064167	1801.607422	13.053017
2718.786543	17397.064167	1800.606445	-40.064846
2718.786543	17397.064167	1799.605469	95.360153
2718.786543	17397.064167	1798.603516	8.783101
2718.786543	17397.064167	1797.601563	74.902908
2718.786543	17397.064167	1796.599609	21.703094
2718.786543	17397.064167	1795.597656	-17.194881
2718.786543	17397.064167	1794.595703	36.887817
2718.786543	17397.064167	1793.592773	102.839989
2718.786543	17397.064167	1792.589844	118.684906
2718.786543	17397.064167	1791.587891	67.771614
2718.786543	17397.064167	1790.583984	93.089111
2718.786543	17397.064167	1789.581055	18.319071
2718.786543	17397.064167	1788.577148	48.343288
2718.786543	17397.064167	1787.574219	-14.540269
2718.786543	17397.064167	1786.570313	39.229778
2718.786543	17397.064167	1785.566406	159.601700
2718.786543	17397.064167	1784.561523	-53.294731
2718.786543	17397.064167	1783.557617	5.124575
2718.786543	17397.064167	1782.552734	56.352673
2718.786543	17397.064167	1781.547852	-16.154253
2718.786543	17397.064167	1780.542969	51.646671
2718.786543	17397.064167	1779.538086	147.924545
2718.786543	17397.064167	1778.532227	56.332428
2718.786543	17397.064167	1777.527344	66.949615
2718.786543	17397.064167	1776.521484	-74.554878
2718.786543	17397.064167	1775.515625	-18.837727
2718.786543	17397.064167	1774.508789	72.456429
2718.786543	17397.064167	1773.502930	11.690307
2718.786543	17397.064167	1772.496094	100.509026
2718.786543	17397.064167	1771.489258	156.026535
2718.786543	17397.064167	1770.482422	-40.111233
2718.786543	17397.064167	1769.475586	-24.992994
2718.786543	17397.064167	1768.467773	4.322161
2718.786543	17397.064167	1767.460938	-42.314171
2718.786543	17397.064167	1766.453125	72.316765
2718.786543	17397.064167	1765.445313	25.620380
2718.786543	17397.064167	1764.437500	4.990644
2718.786543	17397.064167	1763.428711	-44.111164
2718.786543	17397.064167	1762.420898	56.088722
2718.786543	17397.064167	1761.412109	9.302935
2718.786543	17397.064167	1760.403320	-25.650621
2718.786543	17397.064167	1759.393555	109.917496
2718.786543	17397.064167	1758.384766	10.953418
2718.786543	17397.064167	1757.375000	51.689571
2718.786543	17397.064167	1756.366211	40.301453
2718.786543	17397.064167	1755.356445	-32.655865
2718.786543	17397.064167	1754.345703	22.165148
2718.786543	17397.064167	1753.335938	98.230698
2718.786543	17397.064167	1752.325195	145.845932
2718.786543	17397.064167	1751.315430	-9.980321
2718.786543	17397.064167	1750.304688	-87.750908
2718.786543	17397.064167	1749.292969	-9.493279
2718.786543	17397.064167	1748.282227	66.342339
2718.786543	17397.064167	1747.270508	-103.665024
2718.786543	17397.064167	1746.259766	-134.230606
2718.786543	17397.064167	1745.248047	113.936913
2718.786543	17397.064167	1744.235352	0.602820
2718.786543	17397.064167	1743.223633	0.633110
2718.786543	17397.064167	1742.211914	59.656315
2718.786543	17397.064167	1741.199219	-126.876884
2718.786543	17397.064167	1740.186523	-34.879143
2718.786543	17397.064167	1739.173828	66.489876
2718.786543	17397.064167	1738.160156	-37.466934
2718.786543	17397.064167	1737.147461	-30.550928
2718.786543	17397.064167	1736.133789	4.625401
2718.786543	17397.064167	1735.120117	4.388080
2718.786543	17397.064167	1734.106445	-137.325363
2718.786543	17397.064167	1733.091797	-5.615257
2718.786543	17397.064167	1732.078125	-34.225746
2718.786543	17397.064167	1731.063477	-18.096764
2718.786543	17397.064167	1730.048828	136.973618
2718.786543	17397.064167	1729.034180	16.400242
2718.786543	17397.064167	1728.019531	51.250515
2718.786543	17397.064167	1727.003906	-29.307228
2718.786543	17397.064167	1725.988281	10.176875
2718.786543	17397.064167	1724.972656	19.020254
2718.786543	17397.064167	1723.957031	-33.347595
2718.786543	17397.064167	1722.941406	10.722797
2718.786543	17397.064167	1721.924805	21.811741
2718.786543	17397.064167	1720.909180	42.274632
2718.786543	17397.064167	1719.892578	-66.617149
2718.786543	17397.064167	1718.875977	104.227844
2718.786543	17397.064167	1717.858398	-4.702948
2718.786543	17397.064167	1716.841797	114.305969
2718.786543	17397.064167	1715.824219	106.370987
2718.786543	17397.064167	1714.806641	37.336842
2718.786543	17397.064167	1713.789063	66.929939
2718.786543	17397.064167	1712.770508	162.217926
2718.786543	17397.064167	1711.752930	97.812340
2718.786543	17397.064167	1710.734375	38.089069
2718.786543	17397.064167	1709.715820	-56.841595
2718.786543	17397.064167	1708.697266	148.539490
2718.786543	17397.064167	1707.678711	55.906502
2718.786543	17397.064167	1706.659180	150.892838
2718.786543	17397.064167	1705.640625	62.922440
2718.786543	17397.064167	1704.621094	101.544197
2718.786543	17397.064167	1703.600586	41.671482
2718.786543	17397.064167	1702.581055	220.827759
2718.786543	17397.064167	1701.561523	200.728928
2718.786543	17397.064167	1700.541016	143.121506
2718.786543	17397.064167	1699.520508	200.268951
2718.786543	17397.064167	1698.500000	121.547852
2718.786543	17397.064167	1697.478516	204.363861
2718.786543	17397.064167	1696.458008	184.130203
2718.786543	17397.064167	1695.436523	180.251266
2718.786543	17397.064167	1694.415039	73.390076
2718.786543	17397.064167	1693.393555	104.564827
2718.786543	17397.064167	1692.372070	285.390930
2718.786543	17397.064167	1691.349609	307.094696
2718.786543	17397.064167	1690.327148	258.618561
2718.786543	17397.064167	1689.304688	123.640388
2718.786543	17397.064167	1688.282227	189.680405
2718.786543	17397.064167	1687.259766	381.848145
2718.786543	17397.064167	1686.236328	134.691605
2718.786543	17397.064167	1685.213867	258.999603
2718.786543	17397.064167	1684.190430	184.720932
2718.786543	17397.064167	1683.166016	234.187256
2718.786543	17397.064167	1682.142578	171.557205
2718.786543	17397.064167	1681.119141	325.986633
2718.786543	17397.064167	1680.094727	337.975525
2718.786543	17397.064167	1679.070313	328.934906
2718.786543	17397.064167	1678.045898	417.841522
2718.786543	17397.064167	1677.020508	411.060089
2718.786543	17397.064167	1675.996094	301.662628
2718.786543	17397.064167	1674.970703	388.105316
2718.786543	17397.064167	1673.945313	288.018524
2718.786543	17397.064167	1672.919922	420.985016
2718.786543	17397.064167	1671.893555	421.060791
2718.786543	17397.064167	1670.868164	504.978271
2718.786543	17397.064167	1669.841797	442.101135
2718.786543	17397.064167	1668.815430	367.578949
2718.786543	17397.064167	1667.789063	470.001312
2718.786543	17397.064167	1666.761719	467.605316
2718.786543	17397.064167	1665.735352	535.009277
2718.786543	17397.064167	1664.708008	523.245300
2718.786543	17397.064167	1663.680664	446.322754
2718.786543	17397.064167	1662.653320	474.072083
2718.786543	17397.064167	1661.625000	499.454834
2718.786543	17397.064167	1660.597656	466.684845
2718.786543	17397.064167	1659.569336	431.573700
2718.786543	17397.064167	1658.541016	552.168640
2718.786543	17397.064167	1657.512695	491.447998
2718.786543	17397.064167	1656.483398	556.175964
2718.786543	17397.064167	1655.455078	558.147156
2718.786543	17397.064167	1654.425781	560.089966
2718.786543	17397.064167	1653.396484	557.365784
2718.786543	17397.064167	1652.366211	547.651245
2718.786543	17397.064167	1651.336914	588.986389
2718.786543	17397.064167	1650.306641	630.278076
2718.786543	17397.064167	1649.276367	676.173462
2718.786543	17397.064167	1648.246094	763.784058
2718.786543	17397.064167	1647.215820	758.573181
2718.786543	17397.064167	1646.185547	822.905823
2718.786543	17397.064167	1645.154297	887.188110
2718.786543	17397.064167	1644.123047	932.883728
2718.786543	17397.064167	1643.091797	906.703369
2718.786543	17397.064167	1642.060547	764.667908
2718.786543	17397.064167	1641.028320	986.350952
2718.786543	17397.064167	1639.997070	980.965088
2718.786543	17397.064167	1638.964844	996.396973
2718.786543	17397.064167	1637.931641	1034.950684
2718.786543	17397.064167	1636.899414	1064.220093
2718.786543	17397.064167	1635.867188	912.950439
2718.786543	17397.064167	1634.833984	983.840637
2718.786543	17397.064167	1633.800781	978.346558
2718.786543	17397.064167	1632.767578	1153.245483
2718.786543	17397.064167	1631.734375	1189.313721
2718.786543	17397.064167	1630.700195	1008.018616
2718.786543	17397.064167	1629.666016	1090.295776
2718.786543	17397.064167	1628.631836	1093.949341
2718.786543	17397.064167	1627.597656	1109.140747
2718.786543	17397.064167	1626.563477	1202.859009
2718.786543	17397.064167	1625.528320	1321.928833
2718.786543	17397.064167	1624.493164	1293.143921
2718.786543	17397.064167	1623.458008	1250.503784
2718.786543	17397.064167	1622.422852	1330.214355
2718.786543	17397.064167	1621.387695	1112.154907
2718.786543	17397.064167	1620.351563	1159.525879
2718.786543	17397.064167	1619.315430	1199.946411
2718.786543	17397.064167	1618.279297	1309.538574
2718.786543	17397.064167	1617.243164	1197.686401
2718.786543	17397.064167	1616.207031	1104.313232
2718.786543	17397.064167	1615.169922	1269.150146
2718.786543	17397.064167	1614.132813	1244.918457
2718.786543	17397.064167	1613.095703	1278.296875
2718.786543	17397.064167	1612.058594	1265.575317
2718.786543	17397.064167	1611.020508	1096.208008
2718.786543	17397.064167	1609.983398	1299.995605
2718.786543	17397.064167	1608.945313	1218.170532
2718.786543	17397.064167	1607.907227	1318.238647
2718.786543	17397.064167	1606.868164	1208.802002
2718.786543	17397.064167	1605.830078	1354.845093
2718.786543	17397.064167	1604.791016	1436.397217
2718.786543	17397.064167	1603.751953	1255.674805
2718.786543	17397.064167	1602.712891	1449.898682
2718.786543	17397.064167	1601.673828	1400.302490
2718.786543	17397.064167	1600.633789	1511.644287
2718.786543	17397.064167	1599.594727	1650.527954
2718.786543	17397.064167	1598.554688	1545.750488
2718.786543	17397.064167	1597.513672	1585.756348
2718.786543	17397.064167	1596.473633	1717.638062
2718.786543	17397.064167	1595.433594	1759.893677
2718.786543	17397.064167	1594.392578	1629.902832
2718.786543	17397.064167	1593.351563	1612.458252
2718.786543	17397.064167	1592.310547	1464.182373
2718.786543	17397.064167	1591.268555	1465.129639
2718.786543	17397.064167	1590.227539	1440.843872
2718.786543	17397.064167	1589.185547	1416.561523
2718.786543	17397.064167	1588.143555	1461.098511
2718.786543	17397.064167	1587.100586	1611.098145
2718.786543	17397.064167	1586.058594	1595.973145
2718.786543	17397.064167	1585.015625	1539.589111
2718.786543	17397.064167	1583.972656	1549.693237
2718.786543	17397.064167	1582.929688	1472.724976
2718.786543	17397.064167	1581.886719	1464.518311
2718.786543	17397.064167	1580.843750	1385.314819
2718.786543	17397.064167	1579.799805	1381.711182
2718.786543	17397.064167	1578.755859	1510.908936
2718.786543	17397.064167	1577.711914	1216.575684
2718.786543	17397.064167	1576.666992	1373.224976
2718.786543	17397.064167	1575.623047	1255.239746
2718.786543	17397.064167	1574.578125	1187.632446
2718.786543	17397.064167	1573.533203	1268.735718
2718.786543	17397.064167	1572.488281	1253.766357
2718.786543	17397.064167	1571.443359	1126.776489
2718.786543	17397.064167	1570.397461	1164.429688
2718.786543	17397.064167	1569.351563	1062.660156
2718.786543	17397.064167	1568.305664	1038.633667
2718.786543	17397.064167	1567.259766	1156.274170
2718.786543	17397.064167	1566.213867	1091.144653
2718.786543	17397.064167	1565.166992	852.481750
2718.786543	17397.064167	1564.120117	1113.964844
2718.786543	17397.064167	1563.073242	996.406372
2718.786543	17397.064167	1562.026367	1009.003052
2718.786543	17397.064167	1560.978516	1005.628418
2718.786543	17397.064167	1559.930664	970.327881
2718.786543	17397.064167	1558.883789	964.715637
2718.786543	17397.064167	1557.834961	1064.015503
2718.786543	17397.064167	1556.787109	939.842896
2718.786543	17397.064167	1555.739258	1048.264282
2718.786543	17397.064167	1554.690430	937.844849
2718.786543	17397.064167	1553.641602	952.820190
2718.786543	17397.064167	1552.592773	1125.013550
2718.786543	17397.064167	1551.542969	1035.190674
2718.786543	17397.064167	1550.494141	1111.682373
2718.786543	17397.064167	1549.444336	1131.231079
2718.786543	17397.064167	1548.394531	1219.088623
2718.786543	17397.064167	1547.344727	1149.878540
2718.786543	17397.064167	1546.293945	1472.124878
2718.786543	17397.064167	1545.244141	1270.970215
2718.786543	17397.064167	1544.193359	1213.220825
2718.786543	17397.064167	1543.142578	1171.435913
2718.786543	17397.064167	1542.090820	1384.357056
2718.786543	17397.064167	1541.040039	1169.818970
2718.786543	17397.064167	1539.988281	1237.231567
2718.786543	17397.064167	1538.936523	1281.916260
2718.786543	17397.064167	1537.884766	1147.112183
2718.786543	17397.064167	1536.833008	1266.809204
2718.786543	17397.064167	1535.780273	1168.443726
2718.786543	17397.064167	1534.727539	1101.932739
2718.786543	17397.064167	1533.674805	1310.179565
2718.786543	17397.064167	1532.622070	1146.115967
2718.786543	17397.064167	1531.569336	1159.157104
2718.786543	17397.064167	1530.515625	1115.490967
2718.786543	17397.064167	1529.461914	1114.971191
2718.786543	17397.064167	1528.408203	1153.036743
2718.786543	17397.064167	1527.354492	1039.186646
2718.786543	17397.064167	1526.299805	975.282532
2718.786543	17397.064167	1525.246094	1020.241150
2718.786543	17397.064167	1524.191406	951.893311
2718.786543	17397.064167	1523.136719	976.501770
2718.786543	17397.064167	1522.081055	973.941895
2718.786543	17397.064167	1521.026367	921.591370
2718.786543	17397.064167	1519.970703	953.073914
2718.786543	17397.064167	1518.915039	887.223633
2718.786543	17397.064167	1517.859375	911.975525
2718.786543	17397.064167	1516.802734	810.010803
2718.786543	17397.064167	1515.747070	807.683167
2718.786543	17397.064167	1514.690430	780.501221
2718.786543	17397.064167	1513.633789	699.082458
2718.786543	17397.064167	1512.577148	581.549805
2718.786543	17397.064167	1511.519531	588.443115
2718.786543	17397.064167	1510.461914	622.494995
2718.786543	17397.064167	1509.405273	552.616150
2718.786543	17397.064167	1508.346680	507.646454
2718.786543	17397.064167	1507.289063	616.356262
2718.786543	17397.064167	1506.231445	447.247375
2718.786543	17397.064167	1505.172852	366.308960
2718.786543	17397.064167	1504.114258	387.040039
2718.786543	17397.064167	1503.055664	335.568939
2718.786543	17397.064167	1501.996094	216.447968
2718.786543	17397.064167	1500.937500	230.547455
2718.786543	17397.064167	1499.877930	292.052185
2718.786543	17397.064167	1498.818359	197.943863
2718.786543	17397.064167	1497.757813	90.379456
2718.786543	17397.064167	1496.698242	156.509689
2718.786543	17397.064167	1495.637695	37.810215
2718.786543	17397.064167	1494.577148	45.409542
2718.786543	17397.064167	1493.516602	165.712372
2718.786543	17397.064167	1492.456055	126.060890
2718.786543	17397.064167	1491.394531	-53.182156
2718.786543	17397.064167	1490.333008	-85.933823
2718.786543	17397.064167	1489.271484	-51.082882
2718.786543	17397.064167	1488.209961	85.096138
2718.786543	17397.064167	1487.148438	-1.541393
2718.786543	17397.064167	1486.085938	-58.849808
2718.786543	17397.064167	1485.023438	34.640316
2718.786543	17397.064167	1483.960938	47.168125
2718.786543	17397.064167	1482.898438	57.492290
2718.786543	17397.064167	1481.834961	58.867535
2718.786543	17397.064167	1480.772461	-92.552834
2718.786543	17397.064167	1479.708984	88.752525
2718.786543	17397.064167	1478.644531	-24.315014
2718.786543	17397.064167	1477.581055	-110.307030
2718.786543	17397.064167	1476.517578	-30.036583
2718.786543	17397.064167	1475.453125	39.019878
2718.786543	17397.064167	1474.388672	-40.016857
2718.786543	17397.064167	1473.323242	-101.036232
2718.786543	17397.064167	1472.258789	-11.678704
2718.786543	17397.064167	1471.193359	62.020687
2718.786543	17397.064167	1470.127930	1.152740
2718.786543	17397.064167	1469.062500	27.793463
2718.786543	17397.064167	1467.997070	90.313301
2718.786543	17397.064167	1466.930664	110.409515
2718.786543	17397.064167	1465.865234	-84.572159
2718.786543	17397.064167	1464.798828	38.490078
2718.786543	17397.064167	1463.731445	29.616703
2718.786543	17397.064167	1462.665039	54.250305
2718.786543	17397.064167	1461.597656	125.865517
2718.786543	17397.064167	1460.530273	172.970123
2718.786543	17397.064167	1459.462891	251.209946
2718.786543	17397.064167	1458.395508	200.229782
2718.786543	17397.064167	1457.327148	41.880676
2718.786543	17397.064167	1456.259766	57.981014
2718.786543	17397.064167	1455.191406	274.679382
2718.786543	17397.064167	1454.123047	152.405594
2718.786543	17397.064167	1453.053711	146.126099
2718.786543	17397.064167	1451.985352	264.860535
2718.786543	17397.064167	1450.916016	235.034729
2718.786543	17397.064167	1449.846680	268.532867
2718.786543	17397.064167	1448.776367	129.354813
2718.786543	17397.064167	1447.707031	187.265823
2718.786543	17397.064167	1446.636719	284.499298
2718.786543	17397.064167	1445.566406	154.058319
2718.786543	17397.064167	1444.496094	197.324478
2718.786543	17397.064167	1443.425781	92.499176
2718.786543	17397.064167	1442.354492	240.723221
2718.786543	17397.064167	1441.283203	127.563408
2718.786543	17397.064167	1440.211914	202.885681
2718.786543	17397.064167	1439.140625	167.157089
2718.786543	17397.064167	1438.069336	219.648804
2718.786543	17397.064167	1436.997070	207.823669
2718.786543	17397.064167	1435.924805	232.003098
2718.786543	17397.064167	1434.852539	118.274193
2718.786543	17397.064167	1433.780273	177.180588
2718.786543	17397.064167	1432.707031	-54.612480
2718.786543	17397.064167	1431.633789	64.371376
2718.786543	17397.064167	1430.560547	64.920433
2718.786543	17397.064167	1429.487305	159.475296
2718.786543	17397.064167	1428.413086	195.757065
2718.786543	17397.064167	1427.339844	196.029205
2718.786543	17397.064167	1426.265625	239.685928
2718.786543	17397.064167	1425.191406	215.183716
2718.786543	17397.064167	1424.116211	161.546631
2718.786543	17397.064167	1423.041992	174.054245
2718.786543	17397.064167	1421.966797	269.883453
2718.786543	17397.064167	1420.891602	216.496841
2718.786543	17397.064167	1419.816406	243.389175
2718.786543	17397.064167	1418.740234	358.716614
2718.786543	17397.064167	1417.665039	290.537903
2718.786543	17397.064167	1416.588867	224.504608
2718.786543	17397.064167	1415.512695	250.516525
2718.786543	17397.064167	1414.435547	478.074738
2718.786543	17397.064167	1413.359375	306.766815
2718.786543	17397.064167	1412.282227	237.327286
2718.786543	17397.064167	1411.205078	231.283127
2718.786543	17397.064167	1410.127930	229.295059
2718.786543	17397.064167	1409.049805	307.170135
2718.786543	17397.064167	1407.972656	159.392746
2718.786543	17397.064167	1406.894531	299.775177
2718.786543	17397.064167	1405.816406	423.200958
2718.786543	17397.064167	1404.737305	314.829956
2718.786543	17397.064167	1403.659180	313.886200
2718.786543	17397.064167	1402.580078	302.033112
2718.786543	17397.064167	1401.500977	404.181763
2718.786543	17397.064167	1400.421875	428.403503
2718.786543	17397.064167	1399.341797	329.915588
2718.786543	17397.064167	1398.262695	408.228027
2718.786543	17397.064167	1397.182617	287.255341
2718.786543	17397.064167	1396.102539	437.140686
2718.786543	17397.064167	1395.021484	457.542450
2718.786543	17397.064167	1393.941406	387.376892
2718.786543	17397.064167	1392.860352	273.450104
2718.786543	17397.064167	1391.779297	270.475800
2718.786543	17397.064167	1390.698242	276.932465
2718.786543	17397.064167	1389.616211	350.556915
2718.786543	17397.064167	1388.535156	417.740875
2718.786543	17397.064167	1387.453125	416.133728
2718.786543	17397.064167	1386.371094	547.144714
2718.786543	17397.064167	1385.288086	498.547394
2718.786543	17397.064167	1384.206055	449.149048
2718.786543	17397.064167	1383.123047	414.967194
2718.786543	17397.064167	1382.040039	445.793121
2718.786543	17397.064167	1380.957031	511.432434
2718.786543	17397.064167	1379.873047	567.793823
2718.786543	17397.064167	1378.789063	486.915924
2718.786543	17397.064167	1377.705078	479.585236
2718.786543	17397.064167	1376.621094	427.047333
2718.786543	17397.064167	1375.537109	318.407104
2718.786543	17397.064167	1374.452148	407.851929
2718.786543	17397.064167	1373.367188	509.599182
2718.786543	17397.064167	1372.282227	466.909088
2718.786543	17397.064167	1371.197266	379.748810
2718.786543	17397.064167	1370.112305	333.254028
2718.786543	17397.064167	1369.026367	259.519043
2718.786543	17397.064167	1367.940430	414.358643
2718.786543	17397.064167	1366.854492	374.619385
2718.786543	17397.064167	1365.767578	410.262024
2718.786543	17397.064167	1364.681641	450.676819
2718.786543	17397.064167	1363.594727	324.949921
2718.786543	17397.064167	1362.507813	482.007599
2718.786543	17397.064167	1361.419922	498.408905
2718.786543	17397.064167	1360.333008	489.500702
2718.786543	17397.064167	1359.245117	471.226990
2718.786543	17397.064167	1358.157227	670.948364
2718.786543	17397.064167	1357.069336	646.954651
2718.786543	17397.064167	1355.981445	489.806305
2718.786543	17397.064167	1354.892578	926.527039
2718.786543	17397.064167	1353.803711	895.873657
2718.786543	17397.064167	1352.714844	927.928040
2718.786543	17397.064167	1351.625000	777.547546
2718.786543	17397.064167	1350.536133	1061.171753
2718.786543	17397.064167	1349.446289	938.918396
2718.786543	17397.064167	1348.356445	972.820007
2718.786543	17397.064167	1347.266602	1008.691162
2718.786543	17397.064167	1346.175781	866.389648
2718.786543	17397.064167	1345.085938	904.339111
2718.786543	17397.064167	1343.995117	995.056519
2718.786543	17397.064167	1342.903320	1034.543823
2718.786543	17397.064167	1341.812500	1026.070801
2718.786543	17397.064167	1340.720703	965.308838
2718.786543	17397.064167	1339.629883	1185.451782
2718.786543	17397.064167	1338.538086	1091.060181
2718.786543	17397.064167	1337.445313	1096.776001
2718.786543	17397.064167	1336.353516	1068.541016
2718.786543	17397.064167	1335.260742	1209.864868
2718.786543	17397.064167	1334.167969	1448.701172
2718.786543	17397.064167	1333.075195	1295.910767
2718.786543	17397.064167	1331.981445	1429.653076
2718.786543	17397.064167	1330.888672	1345.215210
2718.786543	17397.064167	1329.794922	1367.566040
2718.786543	17397.064167	1328.701172	1317.983276
2718.786543	17397.064167	1327.606445	1372.717407
2718.786543	17397.064167	1326.512695	1371.497314
2718.786543	17397.064167	1325.417969	1452.477417
2718.786543	17397.064167	1324.323242	1336.264648
2718.786543	17397.064167	1323.227539	1285.868652
2718.786543	17397.064167	1322.132813	1260.537842
2718.786543	17397.064167	1321.037109	1162.760620
2718.786543	17397.064167	1319.941406	1035.161987
2718.786543	17397.064167	1318.845703	1040.465332
2718.786543	17397.064167	1317.750000	876.688171
2718.786543	17397.064167	1316.653320	903.932373
2718.786543	17397.064167	1315.556641	856.168945
2718.786543	17397.064167	1314.459961	703.870117
2718.786543	17397.064167	1313.363281	588.154663
2718.786543	17397.064167	1312.265625	656.533752
2718.786543	17397.064167	1311.167969	555.769592
2718.786543	17397.064167	1310.070313	470.355438
2718.786543	17397.064167	1308.972656	402.584412
2718.786543	17397.064167	1307.874023	293.275909
2718.786543	17397.064167	1306.776367	409.965820
2718.786543	17397.064167	1305.677734	369.505829
2718.786543	17397.064167	1304.579102	206.550308
2718.786543	17397.064167	1303.479492	297.063965
2718.786543	17397.064167	1302.380859	264.514801
2718.786543	17397.064167	1301.281250	96.043968
2718.786543	17397.064167	1300.181641	207.844238
2718.786543	17397.064167	1299.081055	142.509827
2718.786543	17397.064167	1297.981445	58.492767
2718.786543	17397.064167	1296.880859	248.665985
2718.786543	17397.064167	1295.780273	-1.118768
2718.786543	17397.064167	1294.679688	87.746017
2718.786543	17397.064167	1293.578125	66.907967
2718.786543	17397.064167	1292.476563	-0.506890
2718.786543	17397.064167	1291.375000	135.106979
2718.786543	17397.064167	1290.273438	135.394638
2718.786543	17397.064167	1289.171875	30.793640
2718.786543	17397.064167	1288.069336	-23.301090
2718.786543	17397.064167	1286.966797	56.764538
2718.786543	17397.064167	1285.864258	20.833826
2718.786543	17397.064167	1284.761719	-33.656174
2718.786543	17397.064167	1283.658203	-12.386560
2718.786543	17397.064167	1282.554688	26.353210
2718.786543	17397.064167	1281.451172	-77.911446
2718.786543	17397.064167	1280.347656	-63.126785
2718.786543	17397.064167	1279.244141	-54.631660
2718.786543	17397.064167	1278.139648	-4.175831
2718.786543	17397.064167	1277.035156	-13.961084
2718.786543	17397.064167	1275.930664	120.993057
2718.786543	17397.064167	1274.825195	78.433533
2718.786543	17397.064167	1273.720703	-116.041183
2718.786543	17397.064167	1272.615234	-69.359077
2718.786543	17397.064167	1271.508789	-43.713398
2718.786543	17397.064167	1270.403320	-66.718796
2718.786543	17397.064167	1269.297852	20.527491
2718.786543	17397.064167	1268.191406	-100.879745
2718.786543	17397.064167	1267.084961	-116.731544
2718.786543	17397.064167	1265.977539	2.849183
2718.786543	17397.064167	1264.871094	38.702488
2718.786543	17397.064167	1263.763672	14.192447
2718.786543	17397.064167	1262.656250	15.148479
2718.786543	17397.064167	1261.548828	8.538327
2718.786543	17397.064167	1260.440430	57.217754
2718.786543	17397.064167	1259.333008	49.410233
2718.786543	17397.064167	1258.224609	98.961136
2718.786543	17397.064167	1257.115234	41.442303
2718.786543	17397.064167	1256.006836	54.212738
2718.786543	17397.064167	1254.897461	88.268394
2718.786543	17397.064167	1253.788086	66.243080
2718.786543	17397.064167	1252.678711	37.595242
2718.786543	17397.064167	1251.569336	-57.195675
2718.786543	17397.064167	1250.458984	18.331331
2718.786543	17397.064167	1249.349609	35.012917
2718.786543	17397.064167	1248.239258	17.506020
2718.786543	17397.064167	1247.127930	34.875614
2718.786543	17397.064167	1246.017578	-29.451008
2718.786543	17397.064167	1244.906250	72.064613
2718.786543	17397.064167	1243.794922	45.265469
2718.786543	17397.064167	1242.683594	163.475220
2718.786543	17397.064167	1241.571289	177.088669
2718.786543	17397.064167	1240.459961	170.605591
2718.786543	17397.064167	1239.347656	254.650146
2718.786543	17397.064167	1238.234375	260.399078
2718.786543	17397.064167	1237.122070	301.473602
2718.786543	17397.064167	1236.008789	310.388611
2718.786543	17397.064167	1234.896484	231.682251
2718.786543	17397.064167	1233.782227	235.192276
2718.786543	17397.064167	1232.668945	225.156418
2718.786543	17397.064167	1231.555664	312.589752
2718.786543	17397.064167	1230.441406	148.756378
2718.786543	17397.064167	1229.327148	149.544907
2718.786543	17397.064167	1228.211914	123.194580
2718.786543	17397.064167	1227.097656	140.534225
2718.786543	17397.064167	1225.982422	46.653835
2718.786543	17397.064167	1224.867188	144.603012
2718.786543	17397.064167	1223.751953	91.306961
2718.786543	17397.064167	1222.635742	157.828781
2718.786543	17397.064167	1221.520508	89.538589
2718.786543	17397.064167	1220.404297	105.822456
2718.786543	17397.064167	1219.287109	154.858566
2718.786543	17397.064167	1218.170898	199.181488
2718.786543	17397.064167	1217.053711	217.924454
2718.786543	17397.064167	1215.936523	276.863983
2718.786543	17397.064167	1214.819336	327.981384
2718.786543	17397.064167	1213.702148	327.525635
2718.786543	17397.064167	1212.583984	422.126831
2718.786543	17397.064167	1211.465820	405.403198
2718.786543	17397.064167	1210.347656	482.516266
2718.786543	17397.064167	1209.229492	576.401489
2718.786543	17397.064167	1208.110352	523.715942
2718.786543	17397.064167	1206.992188	436.103699
2718.786543	17397.064167	1205.873047	431.922394
2718.786543	17397.064167	1204.752930	377.934662
2718.786543	17397.064167	1203.633789	331.555634
2718.786543	17397.064167	1202.513672	270.976410
2718.786543	17397.064167	1201.393555	215.201904
2718.786543	17397.064167	1200.273438	220.465866
2718.786543	17397.064167	1199.152344	305.844849
2718.786543	17397.064167	1198.032227	281.451599
2718.786543	17397.064167	1196.911133	289.751282
2718.786543	17397.064167	1195.790039	275.675964
2718.786543	17397.064167	1194.667969	212.203568
2718.786543	17397.064167	1193.545898	188.462448
2718.786543	17397.064167	1192.424805	111.211296
2718.786543	17397.064167	1191.301758	84.559341
2718.786543	17397.064167	1190.179688	145.125198
2718.786543	17397.064167	1189.056641	135.612350
2718.786543	17397.064167	1187.933594	-12.576452
2718.786543	17397.064167	1186.810547	23.894638
2718.786543	17397.064167	1185.687500	-31.569204
2718.786543	17397.064167	1184.563477	46.716011
2718.786543	17397.064167	1183.440430	110.371780
2718.786543	17397.064167	1182.316406	70.096245
2718.786543	17397.064167	1181.191406	133.769684
2718.786543	17397.064167	1180.067383	65.037521
2718.786543	17397.064167	1178.942383	138.066177
2718.786543	17397.064167	1177.817383	215.816971
2718.786543	17397.064167	1176.692383	253.001755
2718.786543	17397.064167	1175.566406	230.537888
2718.786543	17397.064167	1174.440430	327.978058
2718.786543	17397.064167	1173.314453	382.162964
2718.786543	17397.064167	1172.188477	356.858704
2718.786543	17397.064167	1171.062500	456.498230
2718.786543	17397.064167	1169.935547	327.976471
2718.786543	17397.064167	1168.808594	297.475555
2718.786543	17397.064167	1167.681641	244.335190
2718.786543	17397.064167	1166.553711	136.149506
2718.786543	17397.064167	1165.426758	121.147079
2718.786543	17397.064167	1164.298828	70.094292
2718.786543	17397.064167	1163.170898	160.777283
2718.786543	17397.064167	1162.041992	186.543533
2718.786543	17397.064167	1160.914063	134.267700
2718.786543	17397.064167	1159.785156	90.831345
2718.786543	17397.064167	1158.656250	185.579224
2718.786543	17397.064167	1157.526367	105.351974
2718.786543	17397.064167	1156.397461	145.107346
2718.786543	17397.064167	1155.267578	97.585197
2718.786543	17397.064167	1154.137695	131.148926
2718.786543	17397.064167	1153.006836	145.357834
2718.786543	17397.064167	1151.876953	172.481842
2718.786543	17397.064167	1150.746094	208.116150
2718.786543	17397.064167	1149.615234	241.062698
2718.786543	17397.064167	1148.484375	258.664215
2718.786543	17397.064167	1147.352539	252.485840
2718.786543	17397.064167	1146.220703	229.160110
2718.786543	17397.064167	1145.088867	278.396454
2718.786543	17397.064167	1143.957031	307.238312
2718.786543	17397.064167	1142.825195	270.325317
2718.786543	17397.064167	1141.692383	291.571136
2718.786543	17397.064167	1140.559570	251.036636
2718.786543	17397.064167	1139.426758	182.328018
2718.786543	17397.064167	1138.292969	229.638428
2718.786543	17397.064167	1137.159180	187.656006
2718.786543	17397.064167	1136.025391	127.130005
2718.786543	17397.064167	1134.891602	12.858537
2718.786543	17397.064167	1133.757813	51.800827
2718.786543	17397.064167	1132.623047	44.558151
2718.786543	17397.064167	1131.488281	40.307526
2718.786543	17397.064167	1130.353516	71.809219
2718.786543	17397.064167	1129.217773	152.413483
2718.786543	17397.064167	1128.083008	116.515305
2718.786543	17397.064167	1126.947266	113.596397
2718.786543	17397.064167	1125.811523	185.543625
2718.786543	17397.064167	1124.674805	225.259628
2718.786543	17397.064167	1123.539063	220.420883
2718.786543	17397.064167	1122.402344	215.110703
2718.786543	17397.064167	1121.265625	212.750488
2718.786543	17397.064167	1120.127930	165.513565
2718.786543	17397.064167	1118.990234	159.328217
2718.786543	17397.064167	1117.853516	219.553513
2718.786543	17397.064167	1116.714844	151.173264
2718.786543	17397.064167	1115.577148	139.652985
2718.786543	17397.064167	1114.439453	-50.071091
2718.786543	17397.064167	1113.300781	-22.868027
2718.786543	17397.064167	1112.162109	-52.351585
2718.786543	17397.064167	1111.022461	1.501947
2718.786543	17397.064167	1109.883789	-82.299225
2718.786543	17397.064167	1108.744141	-117.955826
2718.786543	17397.064167	1107.604492	-82.880066
2718.786543	17397.064167	1106.463867	-78.300781
2718.786543	17397.064167	1105.324219	-27.859659
2718.786543	17397.064167	1104.183594	-58.035473
2718.786543	17397.064167	1103.042969	11.183040
2718.786543	17397.064167	1101.902344	19.361176
2718.786543	17397.064167	1100.760742	-33.867485
2718.786543	17397.064167	1099.619141	-123.715446
2718.786543	17397.064167	1098.477539	-37.597874
2718.786543	17397.064167	1097.335938	-89.519020
2718.786543	17397.064167	1096.193359	-150.980682
2718.786543	17397.064167	1095.051758	-102.684219
2718.786543	17397.064167	1093.909180	-113.462471
2718.786543	17397.064167	1092.765625	-31.178677
2718.786543	17397.064167	1091.623047	19.716019
2718.786543	17397.064167	1090.479492	-56.298672
2718.786543	17397.064167	1089.335938	-27.461525
2718.786543	17397.064167	1088.192383	69.744965
2718.786543	17397.064167	1087.047852	106.840248
2718.786543	17397.064167	1085.903320	85.205795
2718.786543	17397.064167	1084.758789	67.791733
2718.786543	17397.064167	1083.614258	88.145363
2718.786543	17397.064167	1082.469727	31.348923
2718.786543	17397.064167	1081.324219	39.617020
2718.786543	17397.064167	1080.178711	90.826675
2718.786543	17397.064167	1079.033203	119.515701
2718.786543	17397.064167	1077.886719	-46.000553
2718.786543	17397.064167	1076.740234	23.358177
2718.786543	17397.064167	1075.593750	74.680260
2718.786543	17397.064167	1074.447266	56.293312
2718.786543	17397.064167	1073.300781	37.924129
2718.786543	17397.064167	1072.153320	70.402061
2718.786543	17397.064167	1071.005859	166.741913
2718.786543	17397.064167	1069.858398	118.469337
2718.786543	17397.064167	1068.709961	221.455307
2718.786543	17397.064167	1067.561523	187.437454
2718.786543	17397.064167	1066.413086	153.842773
2718.786543	17397.064167	1065.264648	155.058990
2718.786543	17397.064167	1064.116211	136.852768
2718.786543	17397.064167	1062.966797	143.107834
2718.786543	17397.064167	1061.817383	110.083008
2718.786543	17397.064167	1060.667969	58.508591
2718.786543	17397.064167	1059.517578	46.128071
2718.786543	17397.064167	1058.368164	56.020245
2718.786543	17397.064167	1057.217773	26.280684
2718.786543	17397.064167	1056.067383	-11.868177
2718.786543	17397.064167	1054.916016	-66.435410
2718.786543	17397.064167	1053.764648	35.387451
2718.786543	17397.064167	1052.613281	-112.528900
2718.786543	17397.064167	1051.461914	33.042191
2718.786543	17397.064167	1050.310547	-44.294197
2718.786543	17397.064167	1049.158203	32.026657
2718.786543	17397.064167	1048.005859	11.367411
2718.786543	17397.064167	1046.853516	31.573393
2718.786543	17397.064167	1045.700195	31.921368
2718.786543	17397.064167	1044.547852	11.726300
2718.786543	17397.064167	1043.394531	35.283020
2718.786543	17397.064167	1042.240234	44.172100
2718.786543	17397.064167	1041.086914	45.204876
2718.786543	17397.064167	1039.932617	161.071930
2718.786543	17397.064167	1038.778320	67.445137
2718.786543	17397.064167	1037.624023	204.096649
2718.786543	17397.064167	1036.469727	141.220703
2718.786543	17397.064167	1035.314453	137.165771
2718.786543	17397.064167	1034.159180	138.220856
2718.786543	17397.064167	1033.003906	179.130768
2718.786543	17397.064167	1031.847656	209.437454
2718.786543	17397.064167	1030.692383	86.446732
2718.786543	17397.064167	1029.536133	254.834290
2718.786543	17397.064167	1028.378906	175.189072
2718.786543	17397.064167	1027.222656	201.710220
2718.786543	17397.064167	1026.065430	213.843964
2718.786543	17397.064167	1024.908203	311.158997
2718.786543	17397.064167	1023.750977	307.174103
2718.786543	17397.064167	1022.593750	341.202026
2718.786543	17397.064167	1021.435547	378.505066
2718.786543	17397.064167	1020.277344	324.324951
2718.786543	17397.064167	1019.119141	349.194458
2718.786543	17397.064167	1017.959961	396.336914
2718.786543	17397.064167	1016.800781	272.853333
2718.786543	17397.064167	1015.641602	392.580475
2718.786543	17397.064167	1014.482422	358.816437
2718.786543	17397.064167	1013.323242	391.055359
2718.786543	17397.064167	1012.163086	375.424011
2718.786543	17397.064167	1011.002930	403.505127
2718.786543	17397.064167	1009.842773	397.144958
2718.786543	17397.064167	1008.681641	444.845337
2718.786543	17397.064167	1007.520508	459.404022
2718.786543	17397.064167	1006.359375	336.060822
2718.786543	17397.064167	1005.198242	358.348267
2718.786543	17397.064167	1004.037109	310.298889
2718.786543	17397.064167	1002.875000	290.121185
2718.786543	17397.064167	1001.712891	349.459076
2718.786543	17397.064167	1000.550781	328.225464
2718.786543	17397.064167	999.387695	320.886780
2718.786543	17397.064167	998.224609	229.987946
2718.786543	17397.064167	997.061523	177.026413
2718.786543	17397.064167	995.898438	176.670975
2718.786543	17397.064167	994.734375	184.925262
2718.786543	17397.064167	993.571289	152.844376
2718.786543	17397.064167	992.407227	251.423920
2718.786543	17397.064167	991.242188	147.241287
2718.786543	17397.064167	990.078125	200.368454
2718.786543	17397.064167	988.913086	226.697052
2718.786543	17397.064167	987.748047	209.860794
2718.786543	17397.064167	986.583008	97.917480
2718.786543	17397.064167	985.416992	206.191208
2718.786543	17397.064167	984.250977	177.175262
2718.786543	17397.064167	983.084961	267.893494
2718.786543	17397.064167	981.918945	283.835815
2718.786543	17397.064167	980.751953	252.925552
2718.786543	17397.064167	979.584961	246.375916
2718.786543	17397.064167	978.417969	224.464188
2718.786543	17397.064167	977.250977	233.609009
2718.786543	17397.064167	976.083008	346.081238
2718.786543	17397.064167	974.915039	255.231689
2718.786543	17397.064167	973.747070	198.153336
2718.786543	17397.064167	972.579102	110.815643
2718.786543	17397.064167	971.410156	177.238586
2718.786543	17397.064167	970.242188	236.431915
2718.786543	17397.064167	969.072266	286.163483
2718.786543	17397.064167	967.903320	272.476196
2718.786543	17397.064167	966.733398	417.051697
2718.786543	17397.064167	965.563477	332.393768
2718.786543	17397.064167	964.393555	320.656403
2718.786543	17397.064167	963.223633	334.842621
2718.786543	17397.064167	962.052734	215.949081
2718.786543	17397.064167	960.881836	268.059387
2718.786543	17397.064167	959.710938	281.686188
2718.786543	17397.064167	958.540039	344.986572
2718.786543	17397.064167	957.368164	377.139435
2718.786543	17397.064167	956.196289	390.350616
2718.786543	17397.064167	955.024414	418.164764
2718.786543	17397.064167	953.851563	339.794525
2718.786543	17397.064167	952.679688	333.729828
2718.786543	17397.064167	951.506836	449.615234
2718.786543	17397.064167	950.333984	368.954102
2718.786543	17397.064167	949.160156	335.221832
2718.786543	17397.064167	947.986328	312.054382
2718.786543	17397.064167	946.812500	367.979187
2718.786543	17397.064167	945.638672	306.452087
2718.786543	17397.064167	944.464844	253.057877
2718.786543	17397.064167	943.290039	345.354095
2718.786543	17397.064167	942.115234	334.070160
2718.786543	17397.064167	940.940430	313.989380
2718.786543	17397.064167	939.764648	203.965744
2718.786543	17397.064167	938.588867	218.598740
2718.786543	17397.064167	937.413086	179.908218
2718.786543	17397.064167	936.237305	141.325897
2718.786543	17397.064167	935.060547	69.107338
2718.786543	17397.064167	933.883789	146.083054
2718.786543	17397.064167	932.707031	130.160400
2718.786543	17397.064167	931.530273	251.004745
2718.786543	17397.064167	930.352539	165.083435
2718.786543	17397.064167	929.175781	238.751160
2718.786543	17397.064167	927.998047	288.059387
2718.786543	17397.064167	926.819336	249.172958
2718.786543	17397.064167	925.641602	202.648651
2718.786543	17397.064167	924.462891	238.169601
2718.786543	17397.064167	923.284180	141.474152
2718.786543	17397.064167	922.104492	255.916855
2718.786543	17397.064167	920.924805	206.279816
2718.786543	17397.064167	919.746094	207.361130
2718.786543	17397.064167	919.551758	147.699051
2718.786543	17397.064167	918.386719	189.102524
2718.786543	17397.064167	917.220703	225.903732
2718.786543	17397.064167	916.054688	162.513306
2718.786543	17397.064167	914.887695	165.865723
2718.786543	17397.064167	913.721680	166.150253
2718.786543	17397.064167	912.554688	87.550392
2718.786543	17397.064167	911.387695	90.820168
2718.786543	17397.064167	910.220703	127.404533
2718.786543	17397.064167	909.052734	18.457829
2718.786543	17397.064167	907.885742	80.738419
2718.786543	17397.064167	906.717773	17.230839
2718.786543	17397.064167	905.548828	11.272811
2718.786543	17397.064167	904.380859	44.657520
2718.786543	17397.064167	903.211914	6.845195
2718.786543	17397.064167	902.042969	134.004852
2718.786543	17397.064167	900.874023	32.573174
2718.786543	17397.064167	899.704102	80.943321
2718.786543	17397.064167	898.535156	65.732208
2718.786543	17397.064167	897.365234	70.161804
2718.786543	17397.064167	896.194336	44.321308
2718.786543	17397.064167	895.024414	-38.983265
2718.786543	17397.064167	893.853516	80.257523
2718.786543	17397.064167	892.682617	45.285625
2718.786543	17397.064167	891.511719	-33.512314
2718.786543	17397.064167	890.340820	81.046715
2718.786543	17397.064167	889.168945	-31.000742
2718.786543	17397.064167	887.997070	-4.113316
2718.786543	17397.064167	886.825195	-25.568438
2718.786543	17397.064167	885.653320	-24.398415
2718.786543	17397.064167	884.480469	-17.215960
2718.786543	17397.064167	883.307617	0.501831
2718.786543	17397.064167	882.134766	-21.027843
2718.786543	17397.064167	880.961914	100.696640
2718.786543	17397.064167	879.788086	18.801281
2718.786543	17397.064167	878.614258	3.246542
2718.786543	17397.064167	877.440430	1.241819
2718.786543	17397.064167	876.266602	-15.850915
2718.786543	17397.064167	875.091797	40.863796
2718.786543	17397.064167	873.916992	-42.543644
2718.786543	17397.064167	872.742188	36.703297
2718.786543	17397.064167	871.567383	58.685825
2718.786543	17397.064167	870.391602	-3.656228
2718.786543	17397.064167	869.215820	-19.335649
2718.786543	17397.064167	868.040039	52.245373
2718.786543	17397.064167	866.864258	-71.789223
2718.786543	17397.064167	865.687500	-72.456459
2718.786543	17397.064167	864.510742	-19.004168
2718.786543	17397.064167	863.333984	-37.755928
2718.786543	17397.064167	862.157227	-133.175949
2718.786543	17397.064167	860.979492	-57.248817
2718.786543	17397.064167	859.802734	-47.478779
2718.786543	17397.064167	858.625000	-22.705564
2718.786543	17397.064167	857.446289	63.621964
2718.786543	17397.064167	856.268555	89.836075
2718.786543	17397.064167	855.089844	37.958282
2718.786543	17397.064167	853.911133	79.150040
2718.786543	17397.064167	852.731445	6.260391
2718.786543	17397.064167	851.552734	84.926132
2718.786543	17397.064167	850.373047	-64.462418
2718.786543	17397.064167	849.193359	-21.832399
2718.786543	17397.064167	848.013672	-49.704910
2718.786543	17397.064167	846.833008	-47.594486
2718.786543	17397.064167	845.652344	-8.024431
2718.786543	17397.064167	844.471680	0.050303
2718.786543	17397.064167	843.291016	56.054893
2718.786543	17397.064167	842.110352	35.633755
2718.786543	17397.064167	840.928711	94.584557
2718.786543	17397.064167	839.747070	128.048584
2718.786543	17397.064167	838.564453	61.192131
2718.786543	17397.064167	837.382813	114.089920
2718.786543	17397.064167	836.200195	138.526825
2718.786543	17397.064167	835.017578	177.907089
2718.786543	17397.064167	833.834961	166.408554
2718.786543	17397.064167	832.651367	102.567589
2718.786543	17397.064167	831.467773	40.241577
2718.786543	17397.064167	830.284180	102.006302
2718.786543	17397.064167	829.100586	11.298867
2718.786543	17397.064167	827.916992	84.987045
2718.786543	17397.064167	826.732422	151.170181
2718.786543	17397.064167	825.547852	47.051346
2718.786543	17397.064167	824.363281	89.313492
2718.786543	17397.064167	823.177734	80.792747
2718.786543	17397.064167	821.992188	15.550364
2718.786543	17397.064167	820.806641	98.075905
2718.786543	17397.064167	819.621094	22.406319
2718.786543	17397.064167	818.434570	-1.023895
2718.786543	17397.064167	817.249023	36.702831
2718.786543	17397.064167	816.062500	-13.565316
2718.786543	17397.064167	814.875000	-31.016762
2718.786543	17397.064167	813.688477	-5.236624
2718.786543	17397.064167	812.500977	13.080049
2718.786543	17397.064167	811.313477	-31.187408
2718.786543	17397.064167	810.125977	-94.802132
2718.786543	17397.064167	808.937500	-95.840881
2718.786543	17397.064167	807.749023	8.838359
2718.786543	17397.064167	806.560547	0.335728
2718.786543	17397.064167	805.372070	-75.139275
2718.786543	17397.064167	804.182617	-6.241060
2718.786543	17397.064167	802.994141	52.215725
2718.786543	17397.064167	801.803711	101.724350
2718.786543	17397.064167	800.614258	133.369217
2718.786543	17397.064167	799.424805	173.923615
2718.786543	17397.064167	798.234375	293.248291
2718.786543	17397.064167	797.043945	262.419037
2718.786543	17397.064167	795.852539	253.893280
2718.786543	17397.064167	794.662109	286.970764
2718.786543	17397.064167	793.470703	238.346603
2718.786543	17397.064167	792.279297	165.986206
2718.786543	17397.064167	791.087891	118.898811
2718.786543	17397.064167	789.895508	54.022064
2718.786543	17397.064167	788.703125	94.544014
2718.786543	17397.064167	787.510742	72.736115
2718.786543	17397.064167	786.318359	111.762634
2718.786543	17397.064167	785.125000	-3.468607
2718.786543	17397.064167	783.931641	-4.469521
2718.786543	17397.064167	782.738281	-61.800709
2718.786543	17397.064167	781.544922	-21.277176
2718.786543	17397.064167	780.350586	37.017452
2718.786543	17397.064167	779.156250	16.769218
2718.786543	17397.064167	777.961914	-1.983863
2718.786543	17397.064167	776.767578	-59.228687
2718.786543	17397.064167	775.572266	13.855408
2718.786543	17397.064167	774.376953	-21.151522
2718.786543	17397.064167	773.181641	40.066345
2718.786543	17397.064167	771.986328	108.664185
2718.786543	17397.064167	770.790039	61.843281
2718.786543	17397.064167	769.593750	83.088913
2718.786543	17397.064167	768.397461	98.417336
2718.786543	17397.064167	767.201172	178.801559
2718.786543	17397.064167	766.003906	109.859627
2718.786543	17397.064167	764.806641	-3.383183
2718.786543	17397.064167	763.609375	-8.707034
2718.786543	17397.064167	762.412109	-8.111823
2718.786543	17397.064167	761.213867	13.168443
2718.786543	17397.064167	760.015625	19.680721
2718.786543	17397.064167	758.817383	-4.805365
2718.786543	17397.064167	757.618164	1.723493
2718.786543	17397.064167	756.419922	-24.208536
2718.786543	17397.064167	755.220703	118.079132
2718.786543	17397.064167	754.021484	56.746445
2718.786543	17397.064167	752.821289	70.663887
2718.786543	17397.064167	751.621094	102.278236
2718.786543	17397.064167	750.420898	185.485306
2718.786543	17397.064167	749.220703	255.400848
2718.786543	17397.064167	748.020508	192.671906
2718.786543	17397.064167	746.819336	178.595963
2718.786543	17397.064167	745.618164	204.305038
2718.786543	17397.064167	744.416992	156.378281
2718.786543	17397.064167	743.214844	143.816803
2718.786543	17397.064167	742.012695	176.903458
2718.786543	17397.064167	740.810547	208.513016
2718.786543	17397.064167	739.608398	220.989487
2718.786543	17397.064167	738.406250	309.968597
2718.786543	17397.064167	737.203125	394.506683
2718.786543	17397.064167	736.000000	671.657532
2718.786543	17397.064167	734.795898	766.393677
2718.786543	17397.064167	733.592773	971.342712
2718.786543	17397.064167	732.388672	1064.524292
2718.786543	17397.064167	731.184570	1094.495728
2718.786543	17397.064167	729.979492	1009.881592
2718.786543	17397.064167	728.775391	782.848877
2718.786543	17397.064167	727.570313	636.680359
2718.786543	17397.064167	726.365234	368.731506
2718.786543	17397.064167	725.160156	268.228394
2718.786543	17397.064167	723.954102	183.917770
2718.786543	17397.064167	722.748047	177.409668
2718.786543	17397.064167	721.541992	94.636658
2718.786543	17397.064167	720.334961	25.105249
2718.786543	17397.064167	719.128906	62.646156
2718.786543	17397.064167	717.921875	50.337704
2718.786543	17397.064167	716.714844	16.058445
2718.786543	17397.064167	715.506836	43.344219
2718.786543	17397.064167	714.298828	-34.853687
2718.786543	17397.064167	713.090820	-36.846905
2718.786543	17397.064167	711.882813	-98.871628
2718.786543	17397.064167	710.674805	25.075451
2718.786543	17397.064167	709.465820	-91.080910
2718.786543	17397.064167	708.256836	-72.542549
2718.786543	17397.064167	707.047852	-21.814972
2718.786543	17397.064167	705.837891	-9.136004
2718.786543	17397.064167	704.627930	-59.344734
2718.786543	17397.064167	703.417969	52.782818
2718.786543	17397.064167	702.208008	33.296070
2718.786543	17397.064167	700.998047	-56.333935
2718.786543	17397.064167	699.787109	1.673045
2718.786543	17397.064167	698.576172	96.187347
2718.786543	17397.064167	697.364258	88.418663
2718.786543	17397.064167	696.153320	12.020131
2718.786543	17397.064167	694.941406	55.387360
2718.786543	17397.064167	693.729492	6.775169
2718.786543	17397.064167	692.516602	133.326355
2718.786543	17397.064167	691.304688	131.422287
2718.786543	17397.064167	690.091797	123.688812
2718.786543	17397.064167	688.878906	97.002052
2718.786543	17397.064167	687.665039	162.201355
2718.786543	17397.064167	686.451172	169.059540
2718.786543	17397.064167	685.237305	234.224869
2718.786543	17397.064167	684.023438	257.104095
2718.786543	17397.064167	682.809570	220.239532
2718.786543	17397.064167	681.594727	218.355743
2718.786543	17397.064167	680.379883	178.609329
2718.786543	17397.064167	679.165039	207.319656
2718.786543	17397.064167	677.949219	260.769897
2718.786543	17397.064167	676.733398	436.461609
2718.786543	17397.064167	675.517578	459.287415
2718.786543	17397.064167	674.301758	460.282684
2718.786543	17397.064167	673.084961	331.823181
2718.786543	17397.064167	671.869141	344.483185
2718.786543	17397.064167	670.651367	221.921768
2718.786543	17397.064167	669.434570	270.944244
2718.786543	17397.064167	668.216797	314.134094
2718.786543	17397.064167	667.000000	254.140488
2718.786543	17397.064167	665.781250	297.317627
2718.786543	17397.064167	664.563477	260.593323
2718.786543	17397.064167	663.344727	308.107910
2718.786543	17397.064167	662.125977	317.855072
2718.786543	17397.064167	660.907227	240.507889
2718.786543	17397.064167	659.688477	213.984589
2718.786543	17397.064167	658.468750	229.548050
2718.786543	17397.064167	657.249023	258.159027
2718.786543	17397.064167	656.029297	360.721283
2718.786543	17397.064167	654.808594	183.393723
2718.786543	17397.064167	653.587891	290.274292
2718.786543	17397.064167	652.367188	279.709381
2718.786543	17397.064167	651.146484	263.350403
2718.786543	17397.064167	649.924805	290.458710
2718.786543	17397.064167	648.704102	371.144775
2718.786543	17397.064167	647.482422	340.287628
2718.786543	17397.064167	646.259766	315.231476
2718.786543	17397.064167	645.037109	342.293274
2718.786543	17397.064167	643.815430	328.817749
2718.786543	17397.064167	642.591797	248.785980
2718.786543	17397.064167	641.369141	225.201263
2718.786543	17397.064167	640.145508	97.488510
2718.786543	17397.064167	638.921875	234.441971
2718.786543	17397.064167	637.698242	242.666107
2718.786543	17397.064167	636.474609	224.864548
2718.786543	17397.064167	635.250000	289.434387
2718.786543	17397.064167	634.025391	170.485336
2718.786543	17397.064167	632.800781	274.027893
2718.786543	17397.064167	631.575195	197.000366
2718.786543	17397.064167	630.349609	262.940521
2718.786543	17397.064167	629.124023	171.499161
2718.786543	17397.064167	627.898438	194.105270
2718.786543	17397.064167	626.671875	177.735535
2718.786543	17397.064167	625.445313	201.758469
2718.786543	17397.064167	624.218750	127.685547
2718.786543	17397.064167	622.992188	187.743576
2718.786543	17397.064167	621.764648	259.301331
2718.786543	17397.064167	620.537109	260.191193
2718.786543	17397.064167	619.309570	259.630737
2718.786543	17397.064167	618.081055	296.522125
2718.786543	17397.064167	616.852539	287.293030
2718.786543	17397.064167	615.624023	292.459808
2718.786543	17397.064167	614.395508	358.089661
2718.786543	17397.064167	613.166992	325.790710
2718.786543	17397.064167	611.937500	274.784760
2718.786543	17397.064167	610.708008	338.906677
2718.786543	17397.064167	609.477539	361.269623
2718.786543	17397.064167	608.248047	372.105469
2718.786543	17397.064167	607.017578	381.487305
2718.786543	17397.064167	605.787109	389.416351
2718.786543	17397.064167	604.555664	454.827484
2718.786543	17397.064167	603.325195	432.534485
2718.786543	17397.064167	602.093750	392.997070
2718.786543	17397.064167	600.861328	465.512177
2718.786543	17397.064167	599.629883	604.049866
2718.786543	17397.064167	598.397461	729.593079
2718.786543	17397.064167	597.165039	784.725586
2718.786543	17397.064167	595.932617	892.927551
2718.786543	17397.064167	594.699219	904.925903
2718.786543	17397.064167	593.465820	992.944275
2718.786543	17397.064167	592.232422	1053.658447
2718.786543	17397.064167	590.999023	1067.008545
2718.786543	17397.064167	589.764648	1166.365356
2718.786543	17397.064167	588.530273	957.471680
2718.786543	17397.064167	587.295898	820.310913
2718.786543	17397.064167	586.061523	694.656799
2718.786543	17397.064167	584.826172	617.748474
2718.786543	17397.064167	583.590820	490.729889
2718.786543	17397.064167	582.355469	518.399658
2718.786543	17397.064167	581.119141	430.080994
2718.786543	17397.064167	579.882813	313.158478
2718.786543	17397.064167	578.646484	320.769501
2718.786543	17397.064167	577.410156	336.946381
2718.786543	17397.064167	576.172852	315.910522
2718.786543	17397.064167	574.935547	237.664215
2718.786543	17397.064167	573.698242	341.020172
2718.786543	17397.064167	572.460938	284.213654
2718.786543	17397.064167	571.222656	267.432739
2718.786543	17397.064167	569.984375	257.787811
2718.786543	17397.064167	568.746094	246.702881
2718.786543	17397.064167	567.506836	165.621140
2718.786543	17397.064167	566.267578	275.905914
2718.786543	17397.064167	565.028320	273.342590
2718.786543	17397.064167	563.789063	280.756042
2718.786543	17397.064167	562.548828	345.232117
2718.786543	17397.064167	561.309570	286.965088
2718.786543	17397.064167	560.068359	281.484558
2718.786543	17397.064167	558.828125	288.825897
2718.786543	17397.064167	557.586914	424.472626
2718.786543	17397.064167	556.345703	386.131256
2718.786543	17397.064167	555.104492	404.799347
2718.786543	17397.064167	553.863281	357.897095
2718.786543	17397.064167	552.621094	363.709167
2718.786543	17397.064167	551.378906	499.114990
2718.786543	17397.064167	550.136719	526.222778
2718.786543	17397.064167	548.893555	526.252502
2718.786543	17397.064167	547.650391	462.213470
2718.786543	17397.064167	546.407227	477.878998
2718.786543	17397.064167	545.164063	512.018616
2718.786543	17397.064167	543.919922	601.604065
2718.786543	17397.064167	542.675781	675.491638
2718.786543	17397.064167	541.431641	759.284973
2718.786543	17397.064167	540.186523	789.007141
2718.786543	17397.064167	538.941406	747.637939
2718.786543	17397.064167	537.696289	765.951355
2718.786543	17397.064167	536.451172	799.869080
2718.786543	17397.064167	535.205078	676.097900
2718.786543	17397.064167	533.959961	566.565735
2718.786543	17397.064167	532.712891	449.965759
2718.786543	17397.064167	531.466797	429.923401
2718.786543	17397.064167	530.219727	385.748962
2718.786543	17397.064167	528.972656	375.630981
2718.786543	17397.064167	527.725586	416.569641
2718.786543	17397.064167	526.478516	514.205383
2718.786543	17397.064167	525.230469	549.396118
2718.786543	17397.064167	523.982422	380.422211
2718.786543	17397.064167	522.734375	401.425934
2718.786543	17397.064167	521.485352	411.070190
2718.786543	17397.064167	520.236328	298.860840
2718.786543	17397.064167	518.987305	428.889587
2718.786543	17397.064167	517.737305	345.019104
2718.786543	17397.064167	516.488281	334.793365
2718.786543	17397.064167	515.238281	491.584961
2718.786543	17397.064167	513.988281	460.078217
2718.786543	17397.064167	512.737305	456.869202
2718.786543	17397.064167	511.486328	535.693970
2718.786543	17397.064167	510.235352	396.676300
2718.786543	17397.064167	508.984375	403.344147
2718.786543	17397.064167	507.732422	238.944183
2718.786543	17397.064167	506.480469	248.445709
2718.786543	17397.064167	505.228516	205.648697
2718.786543	17397.064167	503.976563	213.717896
2718.786543	17397.064167	502.723633	113.013664
2718.786543	17397.064167	501.470703	95.657936
2718.786543	17397.064167	500.217773	119.242203
2718.786543	17397.064167	498.963867	155.508636
2718.786543	17397.064167	497.709961	231.263489
2718.786543	17397.064167	496.456055	232.196671
2718.786543	17397.064167	495.202148	123.091034
2718.786543	17397.064167	493.947266	243.903076
2718.786543	17397.064167	492.692383	268.772369
2718.786543	17397.064167	491.437500	148.421661
2718.786543	17397.064167	490.181641	146.502533
2718.786543	17397.064167	488.926758	141.757538
2718.786543	17397.064167	487.670898	72.199997
2718.786543	17397.064167	486.414063	118.158882
2718.786543	17397.064167	485.158203	27.495453
2718.786543	17397.064167	483.901367	84.689751
2718.786543	17397.064167	482.644531	63.025845
2718.786543	17397.064167	481.386719	23.067274
2718.786543	17397.064167	480.128906	73.163773
2718.786543	17397.064167	478.871094	102.130363
2718.786543	17397.064167	477.613281	146.545975
2718.786543	17397.064167	476.355469	126.255386
2718.786543	17397.064167	475.096680	235.294220
2718.786543	17397.064167	473.837891	248.706757
2718.786543	17397.064167	472.578125	323.930908
2718.786543	17397.064167	471.319336	231.938049
2718.786543	17397.064167	470.059570	208.798538
2718.786543	17397.064167	468.799805	178.639618
2718.786543	17397.064167	467.539063	19.321249
2718.786543	17397.064167	466.278320	137.984329
2718.786543	17397.064167	465.017578	69.943451
2718.786543	17397.064167	463.756836	0.520551
2718.786543	17397.064167	462.495117	-89.923073
2718.786543	17397.064167	461.233398	-54.118172
2718.786543	17397.064167	459.971680	-35.163055
2718.786543	17397.064167	458.709961	-79.307686
2718.786543	17397.064167	457.447266	-37.951130
2718.786543	17397.064167	456.184570	-48.467030
2718.786543	17397.064167	454.921875	-7.154737
2718.786543	17397.064167	453.658203	-28.899513
2718.786543	17397.064167	452.394531	-21.238884
2718.786543	17397.064167	451.130859	-128.393433
2718.786543	17397.064167	449.867188	-0.362841
2718.786543	17397.064167	448.602539	61.827591
2718.786543	17397.064167	447.337891	-56.505527
2718.786543	17397.064167	446.073242	5.644623
2718.786543	17397.064167	444.807617	2.023831
2718.786543	17397.064167	443.542969	-1.608247
2718.786543	17397.064167	442.276367	85.606621
2718.786543	17397.064167	441.010742	176.962463
2718.786543	17397.064167	439.744141	125.738304
2718.786543	17397.064167	438.478516	95.475212
2718.786543	17397.064167	437.210938	79.171722
2718.786543	17397.064167	435.944336	50.290531
2718.786543	17397.064167	434.676758	148.443863
2718.786543	17397.064167	433.409180	66.479454
2718.786543	17397.064167	432.141602	119.889725
2718.786543	17397.064167	430.873047	156.510620
2718.786543	17397.064167	429.604492	141.481995
2718.786543	17397.064167	428.335938	97.148865
2718.786543	17397.064167	427.067383	149.012924
2718.786543	17397.064167	425.797852	138.097336
2718.786543	17397.064167	424.528320	127.157471
2718.786543	17397.064167	423.258789	135.699005
2718.786543	17397.064167	421.988281	106.590759
2718.786543	17397.064167	420.717773	94.174904
2718.786543	17397.064167	419.447266	51.095081
2718.786543	17397.064167	418.175781	112.406815
2718.786543	17397.064167	416.905273	151.385162
2718.786543	17397.064167	415.633789	184.738190
2718.786543	17397.064167	414.362305	134.559525
2718.786543	17397.064167	413.089844	62.101528
2718.786543	17397.064167	411.817383	32.737526
2718.786543	17397.064167	410.544922	104.832016
2718.786543	17397.064167	409.272461	179.623917
2718.786543	17397.064167	407.999023	180.671722
2718.786543	17397.064167	406.725586	159.432037
2718.786543	17397.064167	405.452148	179.816330
2718.786543	17397.064167	404.177734	229.293579
2718.786543	17397.064167	402.903320	138.443481
2718.786543	17397.064167	401.628906	175.282196
2718.786543	17397.064167	400.354492	277.266968
2718.786543	17397.064167	399.079102	159.887070
2718.786543	17397.064167	397.803711	107.685631
2718.786543	17397.064167	396.528320	194.128311
2718.786543	17397.064167	395.251953	216.658234
2718.786543	17397.064167	393.976563	115.702370
2718.786543	17397.064167	392.700195	269.741882
2718.786543	17397.064167	391.422852	131.210022
2718.786543	17397.064167	390.145508	82.697350
2718.786543	17397.064167	388.869141	121.373688
2718.786543	17397.064167	387.590820	104.523613
2718.786543	17397.064167	386.313477	252.340302
2718.786543	17397.064167	385.035156	4.060770
2718.786543	17397.064167	383.756836	60.249374
2718.786543	17397.064167	382.478516	36.032421
2718.786543	17397.064167	381.199219	37.975849
2718.786543	17397.064167	379.919922	120.002228
2718.786543	17397.064167	378.640625	2.726891
2718.786543	17397.064167	377.360352	34.661736
2718.786543	17397.064167	376.080078	-78.702011
2718.786543	17397.064167	374.799805	17.873510
2718.786543	17397.064167	373.519531	-11.483869
2718.786543	17397.064167	372.238281	-47.910656
2718.786543	17397.064167	370.957031	-102.452995
2718.786543	17397.064167	369.675781	-104.689423
2718.786543	17397.064167	368.394531	-31.194765
2718.786543	17397.064167	367.112305	-40.741142
2718.786543	17397.064167	365.830078	8.842099
2718.786543	17397.064167	364.546875	25.077265
2718.786543	17397.064167	363.264648	21.780235
2718.786543	17397.064167	361.981445	-1.054054
2718.786543	17397.064167	360.698242	21.378120
2718.786543	17397.064167	359.414063	-46.040211
2718.786543	17397.064167	358.129883	-106.793533
2718.786543	17397.064167	356.845703	-103.032097
2718.786543	17397.064167	355.561523	64.365829
2718.786543	17397.064167	354.276367	23.461191
2718.786543	17397.064167	352.991211	0.181179
2718.786543	17397.064167	351.706055	111.506874
2718.786543	17397.064167	350.420898	47.695961
2718.786543	17397.064167	349.134766	67.513496
2718.786543	17397.064167	347.848633	31.965837
2718.786543	17397.064167	346.561523	16.711983
2718.786543	17397.064167	345.275391	-33.257183
2718.786543	17397.064167	343.988281	42.893047
2718.786543	17397.064167	342.700195	154.357300
2718.786543	17397.064167	341.413086	163.708267
2718.786543	17397.064167	340.125000	113.569572
2718.786543	17397.064167	338.836914	131.711746
2718.786543	17397.064167	337.548828	49.173992
2718.786543	17397.064167	336.259766	93.898827
2718.786543	17397.064167	334.970703	193.051758
2718.786543	17397.064167	333.681641	46.049397
2718.786543	17397.064167	332.391602	126.366852
2718.786543	17397.064167	331.101563	175.971359
2718.786543	17397.064167	329.811523	226.410583
2718.786543	17397.064167	328.521484	288.636841
2718.786543	17397.064167	327.230469	169.330719
2718.786543	17397.064167	325.939453	174.228775
2718.786543	17397.064167	324.648438	204.578339
2718.786543	17397.064167	323.356445	117.861496
2718.786543	17397.064167	322.064453	159.309967
2718.786543	17397.064167	320.772461	94.670631
2718.786543	17397.064167	319.480469	111.548615
2718.786543	17397.064167	318.187500	42.873314
2718.786543	17397.064167	316.894531	98.062691
2718.786543	17397.064167	315.601563	14.339707
2718.786543	17397.064167	314.307617	29.755611
2718.786543	17397.064167	313.013672	82.704117
2718.786543	17397.064167	311.719727	-25.106110
2718.786543	17397.064167	310.425781	-44.813541
2718.786543	17397.064167	309.130859	-57.147999
2718.786543	17397.064167	307.835938	-11.564296
2718.786543	17397.064167	306.541016	15.379420
2718.786543	17397.064167	305.245117	59.158630
2718.786543	17397.064167	303.949219	14.621339
2718.786543	17397.064167	302.653320	-24.005524
2718.786543	17397.064167	301.356445	14.195149
2718.786543	17397.064167	300.060547	-12.714867
2718.786543	17397.064167	298.763672	-39.286343
