#X		#Y		#Wave		#Intensity
2830.985904	17364.965167	2000.043945	63.327740
2830.985904	17364.965167	1999.080078	-48.503578
2830.985904	17364.965167	1998.116211	91.022568
2830.985904	17364.965167	1997.151367	-57.086597
2830.985904	17364.965167	1996.186523	-103.675278
2830.985904	17364.965167	1995.222656	-150.367996
2830.985904	17364.965167	1994.256836	23.283628
2830.985904	17364.965167	1993.291992	50.651978
2830.985904	17364.965167	1992.327148	11.052931
2830.985904	17364.965167	1991.361328	-41.011593
2830.985904	17364.965167	1990.395508	-6.538627
2830.985904	17364.965167	1989.429688	35.243362
2830.985904	17364.965167	1988.463867	0.215254
2830.985904	17364.965167	1987.497070	-42.314468
2830.985904	17364.965167	1986.531250	1.631736
2830.985904	17364.965167	1985.564453	139.432907
2830.985904	17364.965167	1984.597656	64.484016
2830.985904	17364.965167	1983.630859	6.777074
2830.985904	17364.965167	1982.664063	25.614601
2830.985904	17364.965167	1981.696289	49.305790
2830.985904	17364.965167	1980.728516	-3.675073
2830.985904	17364.965167	1979.761719	69.246208
2830.985904	17364.965167	1978.792969	55.637234
2830.985904	17364.965167	1977.825195	19.734341
2830.985904	17364.965167	1976.857422	43.015312
2830.985904	17364.965167	1975.888672	108.174881
2830.985904	17364.965167	1974.919922	69.601181
2830.985904	17364.965167	1973.951172	-57.844025
2830.985904	17364.965167	1972.982422	-44.706722
2830.985904	17364.965167	1972.013672	148.395294
2830.985904	17364.965167	1971.043945	114.513649
2830.985904	17364.965167	1970.075195	-0.773382
2830.985904	17364.965167	1969.105469	44.140442
2830.985904	17364.965167	1968.135742	7.654225
2830.985904	17364.965167	1967.165039	121.427139
2830.985904	17364.965167	1966.195313	148.880081
2830.985904	17364.965167	1965.224609	43.267597
2830.985904	17364.965167	1964.253906	31.220345
2830.985904	17364.965167	1963.283203	-81.818756
2830.985904	17364.965167	1962.312500	-25.010830
2830.985904	17364.965167	1961.341797	-86.408630
2830.985904	17364.965167	1960.370117	127.773872
2830.985904	17364.965167	1959.399414	24.455091
2830.985904	17364.965167	1958.427734	125.297852
2830.985904	17364.965167	1957.455078	98.175896
2830.985904	17364.965167	1956.483398	66.103996
2830.985904	17364.965167	1955.511719	186.427994
2830.985904	17364.965167	1954.539063	100.199074
2830.985904	17364.965167	1953.566406	107.350784
2830.985904	17364.965167	1952.593750	139.034653
2830.985904	17364.965167	1951.621094	-99.555832
2830.985904	17364.965167	1950.647461	45.070225
2830.985904	17364.965167	1949.674805	64.367340
2830.985904	17364.965167	1948.701172	7.514341
2830.985904	17364.965167	1947.727539	83.209427
2830.985904	17364.965167	1946.753906	-32.591362
2830.985904	17364.965167	1945.780273	-57.584862
2830.985904	17364.965167	1944.805664	-28.620888
2830.985904	17364.965167	1943.831055	22.381086
2830.985904	17364.965167	1942.856445	117.482933
2830.985904	17364.965167	1941.881836	23.715237
2830.985904	17364.965167	1940.907227	-123.977371
2830.985904	17364.965167	1939.932617	-60.841713
2830.985904	17364.965167	1938.957031	-51.667873
2830.985904	17364.965167	1937.981445	104.493797
2830.985904	17364.965167	1937.005859	49.894444
2830.985904	17364.965167	1936.030273	-107.577606
2830.985904	17364.965167	1935.054688	53.339489
2830.985904	17364.965167	1934.078125	10.959380
2830.985904	17364.965167	1933.101563	-77.936272
2830.985904	17364.965167	1932.125000	51.008522
2830.985904	17364.965167	1931.148438	-1.194515
2830.985904	17364.965167	1930.171875	-19.144527
2830.985904	17364.965167	1929.194336	-115.381111
2830.985904	17364.965167	1928.217773	72.096611
2830.985904	17364.965167	1927.240234	198.356888
2830.985904	17364.965167	1926.262695	138.752609
2830.985904	17364.965167	1925.284180	96.263550
2830.985904	17364.965167	1924.306641	205.291977
2830.985904	17364.965167	1923.328125	-57.130238
2830.985904	17364.965167	1922.350586	-111.822464
2830.985904	17364.965167	1921.372070	11.790997
2830.985904	17364.965167	1920.392578	18.126337
2830.985904	17364.965167	1919.414063	58.625408
2830.985904	17364.965167	1918.434570	8.773921
2830.985904	17364.965167	1917.456055	-116.734787
2830.985904	17364.965167	1916.476563	-25.033770
2830.985904	17364.965167	1915.497070	37.341110
2830.985904	17364.965167	1914.516602	-41.800735
2830.985904	17364.965167	1913.537109	76.617844
2830.985904	17364.965167	1912.556641	53.551483
2830.985904	17364.965167	1911.576172	6.100029
2830.985904	17364.965167	1910.595703	-129.097382
2830.985904	17364.965167	1909.615234	42.803951
2830.985904	17364.965167	1908.633789	-104.562073
2830.985904	17364.965167	1907.653320	1.465723
2830.985904	17364.965167	1906.671875	46.548222
2830.985904	17364.965167	1905.690430	1.496657
2830.985904	17364.965167	1904.708984	160.963715
2830.985904	17364.965167	1903.727539	45.282745
2830.985904	17364.965167	1902.745117	0.209992
2830.985904	17364.965167	1901.762695	130.340363
2830.985904	17364.965167	1900.780273	51.175598
2830.985904	17364.965167	1899.797852	3.646125
2830.985904	17364.965167	1898.815430	16.917221
2830.985904	17364.965167	1897.832031	78.797707
2830.985904	17364.965167	1896.849609	-22.245449
2830.985904	17364.965167	1895.866211	22.570160
2830.985904	17364.965167	1894.882813	-66.309502
2830.985904	17364.965167	1893.898438	80.509697
2830.985904	17364.965167	1892.915039	54.776531
2830.985904	17364.965167	1891.930664	14.461193
2830.985904	17364.965167	1890.947266	93.131836
2830.985904	17364.965167	1889.962891	152.329834
2830.985904	17364.965167	1888.977539	85.256866
2830.985904	17364.965167	1887.993164	-32.778614
2830.985904	17364.965167	1887.007813	-97.406784
2830.985904	17364.965167	1886.023438	-91.676064
2830.985904	17364.965167	1885.038086	108.082092
2830.985904	17364.965167	1884.051758	171.932068
2830.985904	17364.965167	1883.066406	53.879719
2830.985904	17364.965167	1882.081055	127.366196
2830.985904	17364.965167	1881.094727	16.589857
2830.985904	17364.965167	1880.108398	46.385895
2830.985904	17364.965167	1879.122070	-8.656887
2830.985904	17364.965167	1878.135742	-39.480457
2830.985904	17364.965167	1877.148438	67.734970
2830.985904	17364.965167	1876.162109	-86.644615
2830.985904	17364.965167	1875.174805	-40.042599
2830.985904	17364.965167	1874.187500	42.823086
2830.985904	17364.965167	1873.199219	-26.844149
2830.985904	17364.965167	1872.211914	-33.601479
2830.985904	17364.965167	1871.223633	-33.129383
2830.985904	17364.965167	1870.236328	64.065842
2830.985904	17364.965167	1869.248047	233.743515
2830.985904	17364.965167	1868.258789	139.770554
2830.985904	17364.965167	1867.270508	125.576843
2830.985904	17364.965167	1866.282227	31.592670
2830.985904	17364.965167	1865.292969	19.772114
2830.985904	17364.965167	1864.303711	-66.979042
2830.985904	17364.965167	1863.314453	-127.161507
2830.985904	17364.965167	1862.324219	-71.428757
2830.985904	17364.965167	1861.334961	68.762733
2830.985904	17364.965167	1860.344727	71.246803
2830.985904	17364.965167	1859.354492	148.520691
2830.985904	17364.965167	1858.364258	73.681320
2830.985904	17364.965167	1857.374023	206.343155
2830.985904	17364.965167	1856.383789	240.001038
2830.985904	17364.965167	1855.392578	63.756069
2830.985904	17364.965167	1854.401367	-8.767410
2830.985904	17364.965167	1853.410156	32.015278
2830.985904	17364.965167	1852.418945	214.967606
2830.985904	17364.965167	1851.426758	-11.933066
2830.985904	17364.965167	1850.435547	197.374695
2830.985904	17364.965167	1849.443359	107.800446
2830.985904	17364.965167	1848.451172	1.349609
2830.985904	17364.965167	1847.458984	3.268460
2830.985904	17364.965167	1846.466797	53.295937
2830.985904	17364.965167	1845.473633	124.920326
2830.985904	17364.965167	1844.480469	184.431412
2830.985904	17364.965167	1843.487305	29.680437
2830.985904	17364.965167	1842.494141	69.832100
2830.985904	17364.965167	1841.500977	56.990089
2830.985904	17364.965167	1840.506836	142.710770
2830.985904	17364.965167	1839.513672	-38.585968
2830.985904	17364.965167	1838.519531	-157.359848
2830.985904	17364.965167	1837.525391	5.107974
2830.985904	17364.965167	1836.530273	-24.820705
2830.985904	17364.965167	1835.536133	46.130409
2830.985904	17364.965167	1834.541016	102.577789
2830.985904	17364.965167	1833.545898	7.612083
2830.985904	17364.965167	1832.550781	23.095247
2830.985904	17364.965167	1831.555664	105.742767
2830.985904	17364.965167	1830.560547	89.866318
2830.985904	17364.965167	1829.564453	-36.483250
2830.985904	17364.965167	1828.568359	55.532555
2830.985904	17364.965167	1827.572266	44.275208
2830.985904	17364.965167	1826.576172	32.954834
2830.985904	17364.965167	1825.580078	-235.063187
2830.985904	17364.965167	1824.583008	-37.839638
2830.985904	17364.965167	1823.585938	310.286072
2830.985904	17364.965167	1822.588867	145.231079
2830.985904	17364.965167	1821.591797	61.652798
2830.985904	17364.965167	1820.594727	114.617302
2830.985904	17364.965167	1819.596680	112.383293
2830.985904	17364.965167	1818.599609	110.079819
2830.985904	17364.965167	1817.601563	172.359283
2830.985904	17364.965167	1816.603516	102.849106
2830.985904	17364.965167	1815.604492	131.436584
2830.985904	17364.965167	1814.606445	131.217209
2830.985904	17364.965167	1813.607422	195.528336
2830.985904	17364.965167	1812.608398	58.759903
2830.985904	17364.965167	1811.609375	-140.232422
2830.985904	17364.965167	1810.610352	119.971466
2830.985904	17364.965167	1809.610352	119.348816
2830.985904	17364.965167	1808.611328	27.798761
2830.985904	17364.965167	1807.611328	115.469810
2830.985904	17364.965167	1806.611328	162.396393
2830.985904	17364.965167	1805.610352	-44.061729
2830.985904	17364.965167	1804.610352	91.098740
2830.985904	17364.965167	1803.609375	-105.885933
2830.985904	17364.965167	1802.608398	79.207039
2830.985904	17364.965167	1801.607422	56.419891
2830.985904	17364.965167	1800.606445	-2.254916
2830.985904	17364.965167	1799.605469	196.767365
2830.985904	17364.965167	1798.603516	-41.064732
2830.985904	17364.965167	1797.601563	5.012570
2830.985904	17364.965167	1796.599609	115.385292
2830.985904	17364.965167	1795.597656	120.688019
2830.985904	17364.965167	1794.595703	63.900051
2830.985904	17364.965167	1793.592773	80.938301
2830.985904	17364.965167	1792.589844	155.080658
2830.985904	17364.965167	1791.587891	226.721603
2830.985904	17364.965167	1790.583984	205.306000
2830.985904	17364.965167	1789.581055	114.723160
2830.985904	17364.965167	1788.577148	171.739578
2830.985904	17364.965167	1787.574219	123.865540
2830.985904	17364.965167	1786.570313	-188.368164
2830.985904	17364.965167	1785.566406	-31.646799
2830.985904	17364.965167	1784.561523	-29.786652
2830.985904	17364.965167	1783.557617	33.844456
2830.985904	17364.965167	1782.552734	-52.534927
2830.985904	17364.965167	1781.547852	44.166695
2830.985904	17364.965167	1780.542969	93.166557
2830.985904	17364.965167	1779.538086	-60.057854
2830.985904	17364.965167	1778.532227	-65.946861
2830.985904	17364.965167	1777.527344	-57.670795
2830.985904	17364.965167	1776.521484	-68.520020
2830.985904	17364.965167	1775.515625	-24.825726
2830.985904	17364.965167	1774.508789	54.370316
2830.985904	17364.965167	1773.502930	-61.311329
2830.985904	17364.965167	1772.496094	79.384590
2830.985904	17364.965167	1771.489258	184.308472
2830.985904	17364.965167	1770.482422	184.644943
2830.985904	17364.965167	1769.475586	199.110840
2830.985904	17364.965167	1768.467773	-38.053398
2830.985904	17364.965167	1767.460938	73.493774
2830.985904	17364.965167	1766.453125	71.032829
2830.985904	17364.965167	1765.445313	-118.875183
2830.985904	17364.965167	1764.437500	82.378235
2830.985904	17364.965167	1763.428711	3.720542
2830.985904	17364.965167	1762.420898	62.449482
2830.985904	17364.965167	1761.412109	33.361626
2830.985904	17364.965167	1760.403320	134.473175
2830.985904	17364.965167	1759.393555	8.032511
2830.985904	17364.965167	1758.384766	-85.309692
2830.985904	17364.965167	1757.375000	-91.132660
2830.985904	17364.965167	1756.366211	-104.160736
2830.985904	17364.965167	1755.356445	57.839931
2830.985904	17364.965167	1754.345703	-69.047241
2830.985904	17364.965167	1753.335938	-37.472683
2830.985904	17364.965167	1752.325195	5.791481
2830.985904	17364.965167	1751.315430	117.519600
2830.985904	17364.965167	1750.304688	-7.381166
2830.985904	17364.965167	1749.292969	106.418747
2830.985904	17364.965167	1748.282227	40.426796
2830.985904	17364.965167	1747.270508	118.491425
2830.985904	17364.965167	1746.259766	59.376408
2830.985904	17364.965167	1745.248047	28.503996
2830.985904	17364.965167	1744.235352	91.991905
2830.985904	17364.965167	1743.223633	-83.159058
2830.985904	17364.965167	1742.211914	79.262047
2830.985904	17364.965167	1741.199219	64.451065
2830.985904	17364.965167	1740.186523	73.128288
2830.985904	17364.965167	1739.173828	100.560760
2830.985904	17364.965167	1738.160156	-25.494926
2830.985904	17364.965167	1737.147461	-90.283142
2830.985904	17364.965167	1736.133789	35.846001
2830.985904	17364.965167	1735.120117	109.934692
2830.985904	17364.965167	1734.106445	181.519073
2830.985904	17364.965167	1733.091797	106.814270
2830.985904	17364.965167	1732.078125	-5.673429
2830.985904	17364.965167	1731.063477	129.135986
2830.985904	17364.965167	1730.048828	120.082703
2830.985904	17364.965167	1729.034180	127.400185
2830.985904	17364.965167	1728.019531	148.723312
2830.985904	17364.965167	1727.003906	-124.373512
2830.985904	17364.965167	1725.988281	-105.614571
2830.985904	17364.965167	1724.972656	-4.614947
2830.985904	17364.965167	1723.957031	-42.593727
2830.985904	17364.965167	1722.941406	1.658735
2830.985904	17364.965167	1721.924805	26.946348
2830.985904	17364.965167	1720.909180	-9.021340
2830.985904	17364.965167	1719.892578	25.425714
2830.985904	17364.965167	1718.875977	45.637344
2830.985904	17364.965167	1717.858398	65.709557
2830.985904	17364.965167	1716.841797	-38.866901
2830.985904	17364.965167	1715.824219	-42.515564
2830.985904	17364.965167	1714.806641	0.696898
2830.985904	17364.965167	1713.789063	-38.419159
2830.985904	17364.965167	1712.770508	143.055542
2830.985904	17364.965167	1711.752930	61.438087
2830.985904	17364.965167	1710.734375	-64.872818
2830.985904	17364.965167	1709.715820	-17.603874
2830.985904	17364.965167	1708.697266	266.491852
2830.985904	17364.965167	1707.678711	69.494377
2830.985904	17364.965167	1706.659180	-24.366091
2830.985904	17364.965167	1705.640625	254.530182
2830.985904	17364.965167	1704.621094	162.783844
2830.985904	17364.965167	1703.600586	136.572754
2830.985904	17364.965167	1702.581055	93.866898
2830.985904	17364.965167	1701.561523	79.180580
2830.985904	17364.965167	1700.541016	207.265976
2830.985904	17364.965167	1699.520508	229.795502
2830.985904	17364.965167	1698.500000	146.828293
2830.985904	17364.965167	1697.478516	300.227570
2830.985904	17364.965167	1696.458008	43.840611
2830.985904	17364.965167	1695.436523	248.463623
2830.985904	17364.965167	1694.415039	382.702240
2830.985904	17364.965167	1693.393555	205.638077
2830.985904	17364.965167	1692.372070	414.459259
2830.985904	17364.965167	1691.349609	499.134949
2830.985904	17364.965167	1690.327148	352.201904
2830.985904	17364.965167	1689.304688	438.977142
2830.985904	17364.965167	1688.282227	504.576599
2830.985904	17364.965167	1687.259766	329.364166
2830.985904	17364.965167	1686.236328	240.537170
2830.985904	17364.965167	1685.213867	667.868042
2830.985904	17364.965167	1684.190430	466.701721
2830.985904	17364.965167	1683.166016	555.021118
2830.985904	17364.965167	1682.142578	552.174438
2830.985904	17364.965167	1681.119141	691.600098
2830.985904	17364.965167	1680.094727	809.851318
2830.985904	17364.965167	1679.070313	619.984558
2830.985904	17364.965167	1678.045898	581.712585
2830.985904	17364.965167	1677.020508	785.887207
2830.985904	17364.965167	1675.996094	602.828552
2830.985904	17364.965167	1674.970703	655.186768
2830.985904	17364.965167	1673.945313	588.552002
2830.985904	17364.965167	1672.919922	556.803040
2830.985904	17364.965167	1671.893555	797.557007
2830.985904	17364.965167	1670.868164	728.314636
2830.985904	17364.965167	1669.841797	663.644226
2830.985904	17364.965167	1668.815430	820.122742
2830.985904	17364.965167	1667.789063	801.836060
2830.985904	17364.965167	1666.761719	729.907837
2830.985904	17364.965167	1665.735352	576.479309
2830.985904	17364.965167	1664.708008	846.482239
2830.985904	17364.965167	1663.680664	495.150360
2830.985904	17364.965167	1662.653320	692.782532
2830.985904	17364.965167	1661.625000	769.307678
2830.985904	17364.965167	1660.597656	603.932373
2830.985904	17364.965167	1659.569336	842.991882
2830.985904	17364.965167	1658.541016	974.964661
2830.985904	17364.965167	1657.512695	839.579224
2830.985904	17364.965167	1656.483398	787.779846
2830.985904	17364.965167	1655.455078	847.431091
2830.985904	17364.965167	1654.425781	879.090332
2830.985904	17364.965167	1653.396484	706.332947
2830.985904	17364.965167	1652.366211	1014.079529
2830.985904	17364.965167	1651.336914	1015.278320
2830.985904	17364.965167	1650.306641	930.521301
2830.985904	17364.965167	1649.276367	885.161499
2830.985904	17364.965167	1648.246094	1087.946289
2830.985904	17364.965167	1647.215820	1269.704834
2830.985904	17364.965167	1646.185547	1221.766357
2830.985904	17364.965167	1645.154297	1322.125488
2830.985904	17364.965167	1644.123047	1264.762451
2830.985904	17364.965167	1643.091797	1355.664917
2830.985904	17364.965167	1642.060547	1515.971802
2830.985904	17364.965167	1641.028320	1465.329590
2830.985904	17364.965167	1639.997070	1532.778687
2830.985904	17364.965167	1638.964844	1662.637573
2830.985904	17364.965167	1637.931641	1618.727661
2830.985904	17364.965167	1636.899414	1702.100342
2830.985904	17364.965167	1635.867188	1859.435303
2830.985904	17364.965167	1634.833984	2055.963135
2830.985904	17364.965167	1633.800781	2134.375732
2830.985904	17364.965167	1632.767578	2090.117676
2830.985904	17364.965167	1631.734375	2247.001953
2830.985904	17364.965167	1630.700195	2073.135498
2830.985904	17364.965167	1629.666016	2354.657959
2830.985904	17364.965167	1628.631836	2090.597900
2830.985904	17364.965167	1627.597656	2374.214600
2830.985904	17364.965167	1626.563477	2512.128418
2830.985904	17364.965167	1625.528320	2483.617188
2830.985904	17364.965167	1624.493164	2505.874512
2830.985904	17364.965167	1623.458008	2382.618652
2830.985904	17364.965167	1622.422852	2559.459229
2830.985904	17364.965167	1621.387695	2535.395508
2830.985904	17364.965167	1620.351563	2654.344238
2830.985904	17364.965167	1619.315430	2440.989990
2830.985904	17364.965167	1618.279297	2499.858887
2830.985904	17364.965167	1617.243164	2510.238281
2830.985904	17364.965167	1616.207031	2469.850342
2830.985904	17364.965167	1615.169922	2544.686768
2830.985904	17364.965167	1614.132813	2485.779785
2830.985904	17364.965167	1613.095703	2535.169434
2830.985904	17364.965167	1612.058594	2492.353027
2830.985904	17364.965167	1611.020508	2387.308594
2830.985904	17364.965167	1609.983398	2305.327637
2830.985904	17364.965167	1608.945313	2453.589111
2830.985904	17364.965167	1607.907227	2327.814209
2830.985904	17364.965167	1606.868164	2119.184326
2830.985904	17364.965167	1605.830078	2315.650146
2830.985904	17364.965167	1604.791016	2360.146240
2830.985904	17364.965167	1603.751953	2563.328125
2830.985904	17364.965167	1602.712891	2527.226318
2830.985904	17364.965167	1601.673828	2258.878174
2830.985904	17364.965167	1600.633789	2271.075195
2830.985904	17364.965167	1599.594727	2467.158447
2830.985904	17364.965167	1598.554688	2350.592529
2830.985904	17364.965167	1597.513672	2169.707275
2830.985904	17364.965167	1596.473633	2404.694824
2830.985904	17364.965167	1595.433594	2200.906250
2830.985904	17364.965167	1594.392578	2410.504150
2830.985904	17364.965167	1593.351563	2298.596191
2830.985904	17364.965167	1592.310547	2216.570313
2830.985904	17364.965167	1591.268555	2070.295654
2830.985904	17364.965167	1590.227539	2233.856201
2830.985904	17364.965167	1589.185547	2335.394775
2830.985904	17364.965167	1588.143555	2159.371826
2830.985904	17364.965167	1587.100586	2231.061768
2830.985904	17364.965167	1586.058594	2149.139893
2830.985904	17364.965167	1585.015625	2039.730469
2830.985904	17364.965167	1583.972656	2044.963257
2830.985904	17364.965167	1582.929688	2086.867188
2830.985904	17364.965167	1581.886719	2179.167725
2830.985904	17364.965167	1580.843750	2085.918457
2830.985904	17364.965167	1579.799805	2059.111816
2830.985904	17364.965167	1578.755859	1906.407349
2830.985904	17364.965167	1577.711914	2197.870117
2830.985904	17364.965167	1576.666992	2026.907837
2830.985904	17364.965167	1575.623047	1981.907227
2830.985904	17364.965167	1574.578125	1870.581421
2830.985904	17364.965167	1573.533203	1960.609863
2830.985904	17364.965167	1572.488281	1954.582153
2830.985904	17364.965167	1571.443359	1804.539673
2830.985904	17364.965167	1570.397461	2024.894531
2830.985904	17364.965167	1569.351563	1916.077759
2830.985904	17364.965167	1568.305664	1827.903442
2830.985904	17364.965167	1567.259766	1840.322388
2830.985904	17364.965167	1566.213867	1615.218018
2830.985904	17364.965167	1565.166992	1801.292480
2830.985904	17364.965167	1564.120117	1765.855591
2830.985904	17364.965167	1563.073242	1760.150146
2830.985904	17364.965167	1562.026367	1836.655396
2830.985904	17364.965167	1560.978516	1796.777588
2830.985904	17364.965167	1559.930664	1868.754272
2830.985904	17364.965167	1558.883789	1744.599854
2830.985904	17364.965167	1557.834961	2058.379639
2830.985904	17364.965167	1556.787109	1963.960205
2830.985904	17364.965167	1555.739258	2026.928833
2830.985904	17364.965167	1554.690430	2149.168945
2830.985904	17364.965167	1553.641602	2207.609619
2830.985904	17364.965167	1552.592773	2195.456055
2830.985904	17364.965167	1551.542969	2064.895264
2830.985904	17364.965167	1550.494141	1893.471436
2830.985904	17364.965167	1549.444336	2195.777344
2830.985904	17364.965167	1548.394531	2163.373047
2830.985904	17364.965167	1547.344727	2233.471191
2830.985904	17364.965167	1546.293945	2294.488525
2830.985904	17364.965167	1545.244141	2225.880615
2830.985904	17364.965167	1544.193359	2271.089111
2830.985904	17364.965167	1543.142578	2302.706299
2830.985904	17364.965167	1542.090820	2268.423340
2830.985904	17364.965167	1541.040039	2345.645508
2830.985904	17364.965167	1539.988281	2306.973389
2830.985904	17364.965167	1538.936523	2304.754395
2830.985904	17364.965167	1537.884766	2409.404297
2830.985904	17364.965167	1536.833008	2455.031738
2830.985904	17364.965167	1535.780273	2375.789307
2830.985904	17364.965167	1534.727539	2396.576660
2830.985904	17364.965167	1533.674805	2238.087402
2830.985904	17364.965167	1532.622070	2313.541992
2830.985904	17364.965167	1531.569336	1862.557251
2830.985904	17364.965167	1530.515625	1745.356812
2830.985904	17364.965167	1529.461914	1644.176147
2830.985904	17364.965167	1528.408203	1670.138672
2830.985904	17364.965167	1527.354492	1675.778198
2830.985904	17364.965167	1526.299805	1413.970337
2830.985904	17364.965167	1525.246094	1354.118408
2830.985904	17364.965167	1524.191406	1319.300781
2830.985904	17364.965167	1523.136719	1327.649414
2830.985904	17364.965167	1522.081055	1116.340088
2830.985904	17364.965167	1521.026367	1272.152588
2830.985904	17364.965167	1519.970703	1027.180298
2830.985904	17364.965167	1518.915039	807.317688
2830.985904	17364.965167	1517.859375	863.806396
2830.985904	17364.965167	1516.802734	947.523804
2830.985904	17364.965167	1515.747070	807.330627
2830.985904	17364.965167	1514.690430	692.174866
2830.985904	17364.965167	1513.633789	823.713989
2830.985904	17364.965167	1512.577148	536.969910
2830.985904	17364.965167	1511.519531	618.966064
2830.985904	17364.965167	1510.461914	578.984741
2830.985904	17364.965167	1509.405273	762.894287
2830.985904	17364.965167	1508.346680	506.210785
2830.985904	17364.965167	1507.289063	672.218689
2830.985904	17364.965167	1506.231445	677.921326
2830.985904	17364.965167	1505.172852	636.310669
2830.985904	17364.965167	1504.114258	703.215881
2830.985904	17364.965167	1503.055664	704.761292
2830.985904	17364.965167	1501.996094	950.161987
2830.985904	17364.965167	1500.937500	1042.176392
2830.985904	17364.965167	1499.877930	1107.201050
2830.985904	17364.965167	1498.818359	1237.743408
2830.985904	17364.965167	1497.757813	1406.691650
2830.985904	17364.965167	1496.698242	1512.595215
2830.985904	17364.965167	1495.637695	1463.043213
2830.985904	17364.965167	1494.577148	1654.798096
2830.985904	17364.965167	1493.516602	1745.220337
2830.985904	17364.965167	1492.456055	1826.738159
2830.985904	17364.965167	1491.394531	2307.023682
2830.985904	17364.965167	1490.333008	2080.158203
2830.985904	17364.965167	1489.271484	2148.471924
2830.985904	17364.965167	1488.209961	2385.733643
2830.985904	17364.965167	1487.148438	2562.284180
2830.985904	17364.965167	1486.085938	3051.669922
2830.985904	17364.965167	1485.023438	3228.304932
2830.985904	17364.965167	1483.960938	3335.295166
2830.985904	17364.965167	1482.898438	3406.415039
2830.985904	17364.965167	1481.834961	3556.341797
2830.985904	17364.965167	1480.772461	3942.389160
2830.985904	17364.965167	1479.708984	4065.491943
2830.985904	17364.965167	1478.644531	4170.698730
2830.985904	17364.965167	1477.581055	4177.217285
2830.985904	17364.965167	1476.517578	4199.628906
2830.985904	17364.965167	1475.453125	4249.124512
2830.985904	17364.965167	1474.388672	4096.667969
2830.985904	17364.965167	1473.323242	3852.448242
2830.985904	17364.965167	1472.258789	3559.123047
2830.985904	17364.965167	1471.193359	3351.472656
2830.985904	17364.965167	1470.127930	2930.870850
2830.985904	17364.965167	1469.062500	2466.002686
2830.985904	17364.965167	1467.997070	2375.736816
2830.985904	17364.965167	1466.930664	2187.054688
2830.985904	17364.965167	1465.865234	1978.535645
2830.985904	17364.965167	1464.798828	1904.506714
2830.985904	17364.965167	1463.731445	1802.113647
2830.985904	17364.965167	1462.665039	1647.751343
2830.985904	17364.965167	1461.597656	1798.177490
2830.985904	17364.965167	1460.530273	1843.339600
2830.985904	17364.965167	1459.462891	1636.323608
2830.985904	17364.965167	1458.395508	1592.186890
2830.985904	17364.965167	1457.327148	1617.355347
2830.985904	17364.965167	1456.259766	1372.808838
2830.985904	17364.965167	1455.191406	1244.575195
2830.985904	17364.965167	1454.123047	1124.925415
2830.985904	17364.965167	1453.053711	937.868103
2830.985904	17364.965167	1451.985352	762.835571
2830.985904	17364.965167	1450.916016	908.564209
2830.985904	17364.965167	1449.846680	449.582977
2830.985904	17364.965167	1448.776367	550.476257
2830.985904	17364.965167	1447.707031	370.132080
2830.985904	17364.965167	1446.636719	174.733414
2830.985904	17364.965167	1445.566406	109.107285
2830.985904	17364.965167	1444.496094	72.211334
2830.985904	17364.965167	1443.425781	68.063728
2830.985904	17364.965167	1442.354492	5.719572
2830.985904	17364.965167	1441.283203	-173.718491
2830.985904	17364.965167	1440.211914	-96.367088
2830.985904	17364.965167	1439.140625	-74.727654
2830.985904	17364.965167	1438.069336	59.176910
2830.985904	17364.965167	1436.997070	61.917152
2830.985904	17364.965167	1435.924805	145.586945
2830.985904	17364.965167	1434.852539	18.657486
2830.985904	17364.965167	1433.780273	147.292297
2830.985904	17364.965167	1432.707031	360.794067
2830.985904	17364.965167	1431.633789	148.526367
2830.985904	17364.965167	1430.560547	231.408569
2830.985904	17364.965167	1429.487305	440.237946
2830.985904	17364.965167	1428.413086	535.341309
2830.985904	17364.965167	1427.339844	294.968689
2830.985904	17364.965167	1426.265625	450.836914
2830.985904	17364.965167	1425.191406	520.697083
2830.985904	17364.965167	1424.116211	556.058289
2830.985904	17364.965167	1423.041992	501.616364
2830.985904	17364.965167	1421.966797	601.426392
2830.985904	17364.965167	1420.891602	825.129333
2830.985904	17364.965167	1419.816406	915.071106
2830.985904	17364.965167	1418.740234	583.233398
2830.985904	17364.965167	1417.665039	929.684021
2830.985904	17364.965167	1416.588867	1036.231934
2830.985904	17364.965167	1415.512695	917.267944
2830.985904	17364.965167	1414.435547	1202.356323
2830.985904	17364.965167	1413.359375	1102.190552
2830.985904	17364.965167	1412.282227	1165.172729
2830.985904	17364.965167	1411.205078	1187.203369
2830.985904	17364.965167	1410.127930	1030.371826
2830.985904	17364.965167	1409.049805	879.376770
2830.985904	17364.965167	1407.972656	950.668518
2830.985904	17364.965167	1406.894531	989.740723
2830.985904	17364.965167	1405.816406	935.074280
2830.985904	17364.965167	1404.737305	1037.902100
2830.985904	17364.965167	1403.659180	1179.479248
2830.985904	17364.965167	1402.580078	1183.258911
2830.985904	17364.965167	1401.500977	1440.838501
2830.985904	17364.965167	1400.421875	1484.145508
2830.985904	17364.965167	1399.341797	1393.171631
2830.985904	17364.965167	1398.262695	1439.536133
2830.985904	17364.965167	1397.182617	1795.777222
2830.985904	17364.965167	1396.102539	2001.153076
2830.985904	17364.965167	1395.021484	2234.564941
2830.985904	17364.965167	1393.941406	2175.452393
2830.985904	17364.965167	1392.860352	2262.604492
2830.985904	17364.965167	1391.779297	2666.058105
2830.985904	17364.965167	1390.698242	3029.726318
2830.985904	17364.965167	1389.616211	3154.932129
2830.985904	17364.965167	1388.535156	3509.706543
2830.985904	17364.965167	1387.453125	3633.683350
2830.985904	17364.965167	1386.371094	4217.406738
2830.985904	17364.965167	1385.288086	4206.637207
2830.985904	17364.965167	1384.206055	3996.427979
2830.985904	17364.965167	1383.123047	3802.685303
2830.985904	17364.965167	1382.040039	3451.851807
2830.985904	17364.965167	1380.957031	3274.988037
2830.985904	17364.965167	1379.873047	2780.534912
2830.985904	17364.965167	1378.789063	2281.537354
2830.985904	17364.965167	1377.705078	2163.068115
2830.985904	17364.965167	1376.621094	1969.934570
2830.985904	17364.965167	1375.537109	2131.338623
2830.985904	17364.965167	1374.452148	1991.588867
2830.985904	17364.965167	1373.367188	1933.303833
2830.985904	17364.965167	1372.282227	1803.944824
2830.985904	17364.965167	1371.197266	1891.915771
2830.985904	17364.965167	1370.112305	1676.757080
2830.985904	17364.965167	1369.026367	1748.721924
2830.985904	17364.965167	1367.940430	1718.043945
2830.985904	17364.965167	1366.854492	1689.250732
2830.985904	17364.965167	1365.767578	1666.192627
2830.985904	17364.965167	1364.681641	1700.745728
2830.985904	17364.965167	1363.594727	1720.749878
2830.985904	17364.965167	1362.507813	1471.186768
2830.985904	17364.965167	1361.419922	1523.091797
2830.985904	17364.965167	1360.333008	1436.708740
2830.985904	17364.965167	1359.245117	1170.165894
2830.985904	17364.965167	1358.157227	995.628784
2830.985904	17364.965167	1357.069336	1140.474487
2830.985904	17364.965167	1355.981445	1103.911377
2830.985904	17364.965167	1354.892578	1287.375244
2830.985904	17364.965167	1353.803711	896.826721
2830.985904	17364.965167	1352.714844	1047.926147
2830.985904	17364.965167	1351.625000	1011.709351
2830.985904	17364.965167	1350.536133	1150.523315
2830.985904	17364.965167	1349.446289	1184.282715
2830.985904	17364.965167	1348.356445	1152.381470
2830.985904	17364.965167	1347.266602	1297.055176
2830.985904	17364.965167	1346.175781	1190.722534
2830.985904	17364.965167	1345.085938	1243.518433
2830.985904	17364.965167	1343.995117	1303.223511
2830.985904	17364.965167	1342.903320	1239.983887
2830.985904	17364.965167	1341.812500	1498.753906
2830.985904	17364.965167	1340.720703	1426.786621
2830.985904	17364.965167	1339.629883	1533.920532
2830.985904	17364.965167	1338.538086	1557.604736
2830.985904	17364.965167	1337.445313	1620.558594
2830.985904	17364.965167	1336.353516	1505.928955
2830.985904	17364.965167	1335.260742	1881.845581
2830.985904	17364.965167	1334.167969	1768.607422
2830.985904	17364.965167	1333.075195	1915.225220
2830.985904	17364.965167	1331.981445	1993.333374
2830.985904	17364.965167	1330.888672	1877.951050
2830.985904	17364.965167	1329.794922	1915.772217
2830.985904	17364.965167	1328.701172	1983.230591
2830.985904	17364.965167	1327.606445	2021.982666
2830.985904	17364.965167	1326.512695	2035.795410
2830.985904	17364.965167	1325.417969	2080.615723
2830.985904	17364.965167	1324.323242	1946.450073
2830.985904	17364.965167	1323.227539	1965.960327
2830.985904	17364.965167	1322.132813	2134.620361
2830.985904	17364.965167	1321.037109	2199.831055
2830.985904	17364.965167	1319.941406	2098.574951
2830.985904	17364.965167	1318.845703	2251.794922
2830.985904	17364.965167	1317.750000	2405.634766
2830.985904	17364.965167	1316.653320	2563.639648
2830.985904	17364.965167	1315.556641	2735.612549
2830.985904	17364.965167	1314.459961	2757.494873
2830.985904	17364.965167	1313.363281	3007.190186
2830.985904	17364.965167	1312.265625	2757.880615
2830.985904	17364.965167	1311.167969	2659.501221
2830.985904	17364.965167	1310.070313	2648.927734
2830.985904	17364.965167	1308.972656	2720.487549
2830.985904	17364.965167	1307.874023	2523.064697
2830.985904	17364.965167	1306.776367	2135.630371
2830.985904	17364.965167	1305.677734	1874.844360
2830.985904	17364.965167	1304.579102	1762.327759
2830.985904	17364.965167	1303.479492	1665.631226
2830.985904	17364.965167	1302.380859	1360.127563
2830.985904	17364.965167	1301.281250	1185.205200
2830.985904	17364.965167	1300.181641	1126.402466
2830.985904	17364.965167	1299.081055	1233.677734
2830.985904	17364.965167	1297.981445	877.956482
2830.985904	17364.965167	1296.880859	946.726746
2830.985904	17364.965167	1295.780273	776.351379
2830.985904	17364.965167	1294.679688	663.876770
2830.985904	17364.965167	1293.578125	755.104858
2830.985904	17364.965167	1292.476563	809.216309
2830.985904	17364.965167	1291.375000	794.572083
2830.985904	17364.965167	1290.273438	774.583679
2830.985904	17364.965167	1289.171875	833.939148
2830.985904	17364.965167	1288.069336	720.247620
2830.985904	17364.965167	1286.966797	689.151062
2830.985904	17364.965167	1285.864258	656.300293
2830.985904	17364.965167	1284.761719	917.568787
2830.985904	17364.965167	1283.658203	912.780029
2830.985904	17364.965167	1282.554688	903.269775
2830.985904	17364.965167	1281.451172	916.208374
2830.985904	17364.965167	1280.347656	907.055237
2830.985904	17364.965167	1279.244141	988.785339
2830.985904	17364.965167	1278.139648	994.366089
2830.985904	17364.965167	1277.035156	1053.750000
2830.985904	17364.965167	1275.930664	1143.770508
2830.985904	17364.965167	1274.825195	1358.673462
2830.985904	17364.965167	1273.720703	1387.366577
2830.985904	17364.965167	1272.615234	1634.675537
2830.985904	17364.965167	1271.508789	1464.554077
2830.985904	17364.965167	1270.403320	1539.576172
2830.985904	17364.965167	1269.297852	1454.778931
2830.985904	17364.965167	1268.191406	1665.034912
2830.985904	17364.965167	1267.084961	1531.188232
2830.985904	17364.965167	1265.977539	1449.549194
2830.985904	17364.965167	1264.871094	1698.291138
2830.985904	17364.965167	1263.763672	1570.710205
2830.985904	17364.965167	1262.656250	1471.809204
2830.985904	17364.965167	1261.548828	1398.682983
2830.985904	17364.965167	1260.440430	1070.677612
2830.985904	17364.965167	1259.333008	1028.549438
2830.985904	17364.965167	1258.224609	851.015259
2830.985904	17364.965167	1257.115234	872.529663
2830.985904	17364.965167	1256.006836	699.082214
2830.985904	17364.965167	1254.897461	479.261139
2830.985904	17364.965167	1253.788086	606.229736
2830.985904	17364.965167	1252.678711	430.532166
2830.985904	17364.965167	1251.569336	280.728271
2830.985904	17364.965167	1250.458984	315.935883
2830.985904	17364.965167	1249.349609	49.195396
2830.985904	17364.965167	1248.239258	173.260925
2830.985904	17364.965167	1247.127930	143.462936
2830.985904	17364.965167	1246.017578	191.084641
2830.985904	17364.965167	1244.906250	56.631432
2830.985904	17364.965167	1243.794922	39.944706
2830.985904	17364.965167	1242.683594	-27.372810
2830.985904	17364.965167	1241.571289	157.351852
2830.985904	17364.965167	1240.459961	135.872040
2830.985904	17364.965167	1239.347656	129.249329
2830.985904	17364.965167	1238.234375	288.287811
2830.985904	17364.965167	1237.122070	392.898651
2830.985904	17364.965167	1236.008789	472.239502
2830.985904	17364.965167	1234.896484	512.324890
2830.985904	17364.965167	1233.782227	545.873352
2830.985904	17364.965167	1232.668945	640.910828
2830.985904	17364.965167	1231.555664	807.960205
2830.985904	17364.965167	1230.441406	968.321838
2830.985904	17364.965167	1229.327148	811.874451
2830.985904	17364.965167	1228.211914	1163.581543
2830.985904	17364.965167	1227.097656	1077.145630
2830.985904	17364.965167	1225.982422	1128.378296
2830.985904	17364.965167	1224.867188	1125.840820
2830.985904	17364.965167	1223.751953	1164.937622
2830.985904	17364.965167	1222.635742	1080.757324
2830.985904	17364.965167	1221.520508	853.774658
2830.985904	17364.965167	1220.404297	626.723328
2830.985904	17364.965167	1219.287109	597.430725
2830.985904	17364.965167	1218.170898	539.596924
2830.985904	17364.965167	1217.053711	473.610107
2830.985904	17364.965167	1215.936523	466.075287
2830.985904	17364.965167	1214.819336	304.122498
2830.985904	17364.965167	1213.702148	357.097626
2830.985904	17364.965167	1212.583984	407.448883
2830.985904	17364.965167	1211.465820	562.064392
2830.985904	17364.965167	1210.347656	504.084930
2830.985904	17364.965167	1209.229492	442.562439
2830.985904	17364.965167	1208.110352	511.633636
2830.985904	17364.965167	1206.992188	508.933838
2830.985904	17364.965167	1205.873047	387.671875
2830.985904	17364.965167	1204.752930	401.570618
2830.985904	17364.965167	1203.633789	260.426453
2830.985904	17364.965167	1202.513672	404.587891
2830.985904	17364.965167	1201.393555	305.587555
2830.985904	17364.965167	1200.273438	296.772278
2830.985904	17364.965167	1199.152344	337.376465
2830.985904	17364.965167	1198.032227	335.944641
2830.985904	17364.965167	1196.911133	308.842865
2830.985904	17364.965167	1195.790039	142.429901
2830.985904	17364.965167	1194.667969	247.731186
2830.985904	17364.965167	1193.545898	349.329132
2830.985904	17364.965167	1192.424805	173.785751
2830.985904	17364.965167	1191.301758	154.859329
2830.985904	17364.965167	1190.179688	82.660210
2830.985904	17364.965167	1189.056641	163.558212
2830.985904	17364.965167	1187.933594	24.933729
2830.985904	17364.965167	1186.810547	-2.839950
2830.985904	17364.965167	1185.687500	-17.627796
2830.985904	17364.965167	1184.563477	125.690193
2830.985904	17364.965167	1183.440430	25.438261
2830.985904	17364.965167	1182.316406	-34.438786
2830.985904	17364.965167	1181.191406	-7.970041
2830.985904	17364.965167	1180.067383	1.549769
2830.985904	17364.965167	1178.942383	171.775269
2830.985904	17364.965167	1177.817383	22.655445
2830.985904	17364.965167	1176.692383	128.753113
2830.985904	17364.965167	1175.566406	376.599213
2830.985904	17364.965167	1174.440430	534.913391
2830.985904	17364.965167	1173.314453	341.958618
2830.985904	17364.965167	1172.188477	398.535065
2830.985904	17364.965167	1171.062500	581.799316
2830.985904	17364.965167	1169.935547	390.476532
2830.985904	17364.965167	1168.808594	210.662476
2830.985904	17364.965167	1167.681641	134.101669
2830.985904	17364.965167	1166.553711	113.226158
2830.985904	17364.965167	1165.426758	156.008896
2830.985904	17364.965167	1164.298828	39.868214
2830.985904	17364.965167	1163.170898	-75.274590
2830.985904	17364.965167	1162.041992	54.266247
2830.985904	17364.965167	1160.914063	11.264913
2830.985904	17364.965167	1159.785156	90.430374
2830.985904	17364.965167	1158.656250	9.441974
2830.985904	17364.965167	1157.526367	-32.648502
2830.985904	17364.965167	1156.397461	-46.306618
2830.985904	17364.965167	1155.267578	-141.958588
2830.985904	17364.965167	1154.137695	-108.342773
2830.985904	17364.965167	1153.006836	-22.634163
2830.985904	17364.965167	1151.876953	-3.727478
2830.985904	17364.965167	1150.746094	-5.165600
2830.985904	17364.965167	1149.615234	254.398346
2830.985904	17364.965167	1148.484375	334.624084
2830.985904	17364.965167	1147.352539	391.818756
2830.985904	17364.965167	1146.220703	595.033569
2830.985904	17364.965167	1145.088867	608.317932
2830.985904	17364.965167	1143.957031	745.889160
2830.985904	17364.965167	1142.825195	818.989075
2830.985904	17364.965167	1141.692383	1006.809326
2830.985904	17364.965167	1140.559570	964.943481
2830.985904	17364.965167	1139.426758	988.653931
2830.985904	17364.965167	1138.292969	1040.786255
2830.985904	17364.965167	1137.159180	1220.222534
2830.985904	17364.965167	1136.025391	1187.243652
2830.985904	17364.965167	1134.891602	1187.320068
2830.985904	17364.965167	1133.757813	1264.447510
2830.985904	17364.965167	1132.623047	1234.732910
2830.985904	17364.965167	1131.488281	1320.422241
2830.985904	17364.965167	1130.353516	1303.425293
2830.985904	17364.965167	1129.217773	1388.518799
2830.985904	17364.965167	1128.083008	1421.963745
2830.985904	17364.965167	1126.947266	1385.312134
2830.985904	17364.965167	1125.811523	1323.367554
2830.985904	17364.965167	1124.674805	1499.055054
2830.985904	17364.965167	1123.539063	1521.067993
2830.985904	17364.965167	1122.402344	1591.110962
2830.985904	17364.965167	1121.265625	1876.521118
2830.985904	17364.965167	1120.127930	2196.308350
2830.985904	17364.965167	1118.990234	2501.580566
2830.985904	17364.965167	1117.853516	2698.631836
2830.985904	17364.965167	1116.714844	3086.825928
2830.985904	17364.965167	1115.577148	3229.019287
2830.985904	17364.965167	1114.439453	3462.485596
2830.985904	17364.965167	1113.300781	3230.939697
2830.985904	17364.965167	1112.162109	3107.469238
2830.985904	17364.965167	1111.022461	2886.796387
2830.985904	17364.965167	1109.883789	2803.993408
2830.985904	17364.965167	1108.744141	2691.641602
2830.985904	17364.965167	1107.604492	2374.875244
2830.985904	17364.965167	1106.463867	2364.970703
2830.985904	17364.965167	1105.324219	2266.069336
2830.985904	17364.965167	1104.183594	2079.804688
2830.985904	17364.965167	1103.042969	1906.616211
2830.985904	17364.965167	1101.902344	1942.320923
2830.985904	17364.965167	1100.760742	1851.303101
2830.985904	17364.965167	1099.619141	1984.221558
2830.985904	17364.965167	1098.477539	2041.146851
2830.985904	17364.965167	1097.335938	2140.630859
2830.985904	17364.965167	1096.193359	2270.623535
2830.985904	17364.965167	1095.051758	2405.795410
2830.985904	17364.965167	1093.909180	2531.632568
2830.985904	17364.965167	1092.765625	2725.042969
2830.985904	17364.965167	1091.623047	2919.754639
2830.985904	17364.965167	1090.479492	2932.858887
2830.985904	17364.965167	1089.335938	2901.812988
2830.985904	17364.965167	1088.192383	2863.317383
2830.985904	17364.965167	1087.047852	2689.577881
2830.985904	17364.965167	1085.903320	2337.260254
2830.985904	17364.965167	1084.758789	2089.035400
2830.985904	17364.965167	1083.614258	1766.192017
2830.985904	17364.965167	1082.469727	1562.131714
2830.985904	17364.965167	1081.324219	1350.631226
2830.985904	17364.965167	1080.178711	1252.553955
2830.985904	17364.965167	1079.033203	1055.337891
2830.985904	17364.965167	1077.886719	892.934204
2830.985904	17364.965167	1076.740234	757.105225
2830.985904	17364.965167	1075.593750	679.399719
2830.985904	17364.965167	1074.447266	639.467529
2830.985904	17364.965167	1073.300781	559.902954
2830.985904	17364.965167	1072.153320	491.589325
2830.985904	17364.965167	1071.005859	622.292053
2830.985904	17364.965167	1069.858398	515.186401
2830.985904	17364.965167	1068.709961	539.447937
2830.985904	17364.965167	1067.561523	637.457703
2830.985904	17364.965167	1066.413086	668.289551
2830.985904	17364.965167	1065.264648	754.915222
2830.985904	17364.965167	1064.116211	993.839294
2830.985904	17364.965167	1062.966797	864.110718
2830.985904	17364.965167	1061.817383	689.414978
2830.985904	17364.965167	1060.667969	972.701965
2830.985904	17364.965167	1059.517578	830.332886
2830.985904	17364.965167	1058.368164	800.126404
2830.985904	17364.965167	1057.217773	821.166809
2830.985904	17364.965167	1056.067383	917.195496
2830.985904	17364.965167	1054.916016	785.703552
2830.985904	17364.965167	1053.764648	726.882385
2830.985904	17364.965167	1052.613281	740.646729
2830.985904	17364.965167	1051.461914	850.162048
2830.985904	17364.965167	1050.310547	774.454529
2830.985904	17364.965167	1049.158203	762.528870
2830.985904	17364.965167	1048.005859	883.507813
2830.985904	17364.965167	1046.853516	868.730164
2830.985904	17364.965167	1045.700195	882.236816
2830.985904	17364.965167	1044.547852	896.916260
2830.985904	17364.965167	1043.394531	950.896240
2830.985904	17364.965167	1042.240234	1015.550903
2830.985904	17364.965167	1041.086914	1191.803223
2830.985904	17364.965167	1039.932617	974.773438
2830.985904	17364.965167	1038.778320	1097.430664
2830.985904	17364.965167	1037.624023	1315.855957
2830.985904	17364.965167	1036.469727	1394.668579
2830.985904	17364.965167	1035.314453	1473.782959
2830.985904	17364.965167	1034.159180	1205.999023
2830.985904	17364.965167	1033.003906	1247.326416
2830.985904	17364.965167	1031.847656	1249.331299
2830.985904	17364.965167	1030.692383	1286.919922
2830.985904	17364.965167	1029.536133	1020.968872
2830.985904	17364.965167	1028.378906	1102.926392
2830.985904	17364.965167	1027.222656	1032.346924
2830.985904	17364.965167	1026.065430	1125.136230
2830.985904	17364.965167	1024.908203	991.447937
2830.985904	17364.965167	1023.750977	880.370605
2830.985904	17364.965167	1022.593750	649.793152
2830.985904	17364.965167	1021.435547	721.187683
2830.985904	17364.965167	1020.277344	682.361328
2830.985904	17364.965167	1019.119141	652.169739
2830.985904	17364.965167	1017.959961	655.416748
2830.985904	17364.965167	1016.800781	557.706726
2830.985904	17364.965167	1015.641602	715.481445
2830.985904	17364.965167	1014.482422	792.194763
2830.985904	17364.965167	1013.323242	635.784729
2830.985904	17364.965167	1012.163086	780.675598
2830.985904	17364.965167	1011.002930	647.302979
2830.985904	17364.965167	1009.842773	718.795227
2830.985904	17364.965167	1008.681641	728.450439
2830.985904	17364.965167	1007.520508	855.112366
2830.985904	17364.965167	1006.359375	741.953796
2830.985904	17364.965167	1005.198242	906.005005
2830.985904	17364.965167	1004.037109	904.416443
2830.985904	17364.965167	1002.875000	902.270264
2830.985904	17364.965167	1001.712891	1184.408569
2830.985904	17364.965167	1000.550781	1044.559204
2830.985904	17364.965167	999.387695	974.513306
2830.985904	17364.965167	998.224609	720.997864
2830.985904	17364.965167	997.061523	842.891907
2830.985904	17364.965167	995.898438	945.731262
2830.985904	17364.965167	994.734375	832.577820
2830.985904	17364.965167	993.571289	680.211426
2830.985904	17364.965167	992.407227	771.915344
2830.985904	17364.965167	991.242188	701.160034
2830.985904	17364.965167	990.078125	619.134827
2830.985904	17364.965167	988.913086	512.037354
2830.985904	17364.965167	987.748047	440.088623
2830.985904	17364.965167	986.583008	445.622894
2830.985904	17364.965167	985.416992	366.570862
2830.985904	17364.965167	984.250977	366.020691
2830.985904	17364.965167	983.084961	290.088837
2830.985904	17364.965167	981.918945	396.088165
2830.985904	17364.965167	980.751953	483.384430
2830.985904	17364.965167	979.584961	571.700623
2830.985904	17364.965167	978.417969	568.059570
2830.985904	17364.965167	977.250977	387.248657
2830.985904	17364.965167	976.083008	691.244202
2830.985904	17364.965167	974.915039	650.894226
2830.985904	17364.965167	973.747070	789.428528
2830.985904	17364.965167	972.579102	785.720032
2830.985904	17364.965167	971.410156	797.980103
2830.985904	17364.965167	970.242188	929.713074
2830.985904	17364.965167	969.072266	969.920715
2830.985904	17364.965167	967.903320	1027.403931
2830.985904	17364.965167	966.733398	1095.312256
2830.985904	17364.965167	965.563477	1088.242310
2830.985904	17364.965167	964.393555	1473.907471
2830.985904	17364.965167	963.223633	1215.437988
2830.985904	17364.965167	962.052734	1259.055542
2830.985904	17364.965167	960.881836	1505.238159
2830.985904	17364.965167	959.710938	1631.110718
2830.985904	17364.965167	958.540039	1542.952515
2830.985904	17364.965167	957.368164	1332.567139
2830.985904	17364.965167	956.196289	1213.210571
2830.985904	17364.965167	955.024414	1149.063477
2830.985904	17364.965167	953.851563	917.953918
2830.985904	17364.965167	952.679688	1095.594727
2830.985904	17364.965167	951.506836	984.619263
2830.985904	17364.965167	950.333984	931.464417
2830.985904	17364.965167	949.160156	818.839172
2830.985904	17364.965167	947.986328	903.093567
2830.985904	17364.965167	946.812500	868.078491
2830.985904	17364.965167	945.638672	887.970215
2830.985904	17364.965167	944.464844	1003.737671
2830.985904	17364.965167	943.290039	799.258423
2830.985904	17364.965167	942.115234	887.249817
2830.985904	17364.965167	940.940430	806.172974
2830.985904	17364.965167	939.764648	848.413452
2830.985904	17364.965167	938.588867	751.280212
2830.985904	17364.965167	937.413086	672.082031
2830.985904	17364.965167	936.237305	707.061768
2830.985904	17364.965167	935.060547	460.780029
2830.985904	17364.965167	933.883789	756.418701
2830.985904	17364.965167	932.707031	637.958008
2830.985904	17364.965167	931.530273	677.274048
2830.985904	17364.965167	930.352539	677.481873
2830.985904	17364.965167	929.175781	696.004456
2830.985904	17364.965167	927.998047	702.996338
2830.985904	17364.965167	926.819336	846.977966
2830.985904	17364.965167	925.641602	693.819153
2830.985904	17364.965167	924.462891	540.643677
2830.985904	17364.965167	923.284180	682.043274
2830.985904	17364.965167	922.104492	871.270203
2830.985904	17364.965167	920.924805	660.805481
2830.985904	17364.965167	919.746094	659.513428
2830.985904	17364.965167	919.551758	696.640198
2830.985904	17364.965167	918.386719	785.090515
2830.985904	17364.965167	917.220703	779.875916
2830.985904	17364.965167	916.054688	790.552429
2830.985904	17364.965167	914.887695	803.427002
2830.985904	17364.965167	913.721680	768.335144
2830.985904	17364.965167	912.554688	758.259155
2830.985904	17364.965167	911.387695	768.626892
2830.985904	17364.965167	910.220703	753.849731
2830.985904	17364.965167	909.052734	627.362793
2830.985904	17364.965167	907.885742	566.919128
2830.985904	17364.965167	906.717773	674.963379
2830.985904	17364.965167	905.548828	593.899841
2830.985904	17364.965167	904.380859	722.248169
2830.985904	17364.965167	903.211914	563.687866
2830.985904	17364.965167	902.042969	450.640472
2830.985904	17364.965167	900.874023	742.555542
2830.985904	17364.965167	899.704102	761.322815
2830.985904	17364.965167	898.535156	795.942749
2830.985904	17364.965167	897.365234	412.111084
2830.985904	17364.965167	896.194336	537.597961
2830.985904	17364.965167	895.024414	328.869019
2830.985904	17364.965167	893.853516	513.289124
2830.985904	17364.965167	892.682617	661.228455
2830.985904	17364.965167	891.511719	597.807373
2830.985904	17364.965167	890.340820	484.397705
2830.985904	17364.965167	889.168945	570.786743
2830.985904	17364.965167	887.997070	430.083679
2830.985904	17364.965167	886.825195	321.162689
2830.985904	17364.965167	885.653320	253.082642
2830.985904	17364.965167	884.480469	173.638000
2830.985904	17364.965167	883.307617	223.467804
2830.985904	17364.965167	882.134766	318.587952
2830.985904	17364.965167	880.961914	232.242783
2830.985904	17364.965167	879.788086	161.755905
2830.985904	17364.965167	878.614258	52.728416
2830.985904	17364.965167	877.440430	292.654205
2830.985904	17364.965167	876.266602	163.177032
2830.985904	17364.965167	875.091797	126.576416
2830.985904	17364.965167	873.916992	110.334923
2830.985904	17364.965167	872.742188	96.328735
2830.985904	17364.965167	871.567383	66.449646
2830.985904	17364.965167	870.391602	68.229973
2830.985904	17364.965167	869.215820	20.199257
2830.985904	17364.965167	868.040039	67.169693
2830.985904	17364.965167	866.864258	21.360687
2830.985904	17364.965167	865.687500	29.809330
2830.985904	17364.965167	864.510742	-101.942558
2830.985904	17364.965167	863.333984	35.313671
2830.985904	17364.965167	862.157227	-15.081495
2830.985904	17364.965167	860.979492	106.232651
2830.985904	17364.965167	859.802734	130.342712
2830.985904	17364.965167	858.625000	204.104218
2830.985904	17364.965167	857.446289	187.490372
2830.985904	17364.965167	856.268555	177.640106
2830.985904	17364.965167	855.089844	201.628082
2830.985904	17364.965167	853.911133	372.270111
2830.985904	17364.965167	852.731445	172.810577
2830.985904	17364.965167	851.552734	282.452423
2830.985904	17364.965167	850.373047	173.273117
2830.985904	17364.965167	849.193359	354.991821
2830.985904	17364.965167	848.013672	293.156921
2830.985904	17364.965167	846.833008	154.702148
2830.985904	17364.965167	845.652344	128.963379
2830.985904	17364.965167	844.471680	276.701385
2830.985904	17364.965167	843.291016	370.311218
2830.985904	17364.965167	842.110352	418.834869
2830.985904	17364.965167	840.928711	638.446167
2830.985904	17364.965167	839.747070	448.265717
2830.985904	17364.965167	838.564453	521.477112
2830.985904	17364.965167	837.382813	587.907837
2830.985904	17364.965167	836.200195	557.569153
2830.985904	17364.965167	835.017578	511.496185
2830.985904	17364.965167	833.834961	436.207336
2830.985904	17364.965167	832.651367	412.657715
2830.985904	17364.965167	831.467773	461.048828
2830.985904	17364.965167	830.284180	343.116394
2830.985904	17364.965167	829.100586	411.728973
2830.985904	17364.965167	827.916992	466.838074
2830.985904	17364.965167	826.732422	528.663391
2830.985904	17364.965167	825.547852	550.049377
2830.985904	17364.965167	824.363281	602.863098
2830.985904	17364.965167	823.177734	487.313965
2830.985904	17364.965167	821.992188	739.857727
2830.985904	17364.965167	820.806641	680.435608
2830.985904	17364.965167	819.621094	636.750000
2830.985904	17364.965167	818.434570	716.439941
2830.985904	17364.965167	817.249023	764.718872
2830.985904	17364.965167	816.062500	608.980347
2830.985904	17364.965167	814.875000	590.038086
2830.985904	17364.965167	813.688477	434.425140
2830.985904	17364.965167	812.500977	437.957489
2830.985904	17364.965167	811.313477	210.785583
2830.985904	17364.965167	810.125977	151.685394
2830.985904	17364.965167	808.937500	265.027954
2830.985904	17364.965167	807.749023	163.436691
2830.985904	17364.965167	806.560547	182.762329
2830.985904	17364.965167	805.372070	190.908783
2830.985904	17364.965167	804.182617	301.977478
2830.985904	17364.965167	802.994141	160.272156
2830.985904	17364.965167	801.803711	36.528160
2830.985904	17364.965167	800.614258	44.770958
2830.985904	17364.965167	799.424805	-63.207603
2830.985904	17364.965167	798.234375	112.705177
2830.985904	17364.965167	797.043945	-24.250818
2830.985904	17364.965167	795.852539	-65.071770
2830.985904	17364.965167	794.662109	159.933838
2830.985904	17364.965167	793.470703	143.699936
2830.985904	17364.965167	792.279297	462.379822
2830.985904	17364.965167	791.087891	309.978302
2830.985904	17364.965167	789.895508	311.643768
2830.985904	17364.965167	788.703125	360.187592
2830.985904	17364.965167	787.510742	259.278137
2830.985904	17364.965167	786.318359	187.428909
2830.985904	17364.965167	785.125000	111.172104
2830.985904	17364.965167	783.931641	387.206177
2830.985904	17364.965167	782.738281	255.269684
2830.985904	17364.965167	781.544922	147.926880
2830.985904	17364.965167	780.350586	-35.097141
2830.985904	17364.965167	779.156250	15.866129
2830.985904	17364.965167	777.961914	-91.282211
2830.985904	17364.965167	776.767578	-131.562454
2830.985904	17364.965167	775.572266	-96.114235
2830.985904	17364.965167	774.376953	-51.750156
2830.985904	17364.965167	773.181641	-29.628262
2830.985904	17364.965167	771.986328	-183.239136
2830.985904	17364.965167	770.790039	-52.057835
2830.985904	17364.965167	769.593750	34.621929
2830.985904	17364.965167	768.397461	1.234810
2830.985904	17364.965167	767.201172	-89.903694
2830.985904	17364.965167	766.003906	-5.409226
2830.985904	17364.965167	764.806641	30.196301
2830.985904	17364.965167	763.609375	16.943176
2830.985904	17364.965167	762.412109	-31.811176
2830.985904	17364.965167	761.213867	163.739990
2830.985904	17364.965167	760.015625	35.107815
2830.985904	17364.965167	758.817383	61.930412
2830.985904	17364.965167	757.618164	59.919353
2830.985904	17364.965167	756.419922	133.375931
2830.985904	17364.965167	755.220703	193.518723
2830.985904	17364.965167	754.021484	34.105732
2830.985904	17364.965167	752.821289	167.469635
2830.985904	17364.965167	751.621094	132.326324
2830.985904	17364.965167	750.420898	126.038445
2830.985904	17364.965167	749.220703	281.543304
2830.985904	17364.965167	748.020508	204.388062
2830.985904	17364.965167	746.819336	346.575348
2830.985904	17364.965167	745.618164	200.840927
2830.985904	17364.965167	744.416992	176.968201
2830.985904	17364.965167	743.214844	277.092682
2830.985904	17364.965167	742.012695	284.249725
2830.985904	17364.965167	740.810547	313.557220
2830.985904	17364.965167	739.608398	453.489471
2830.985904	17364.965167	738.406250	462.894775
2830.985904	17364.965167	737.203125	587.307556
2830.985904	17364.965167	736.000000	881.927551
2830.985904	17364.965167	734.795898	1094.663818
2830.985904	17364.965167	733.592773	1420.042847
2830.985904	17364.965167	732.388672	1579.598877
2830.985904	17364.965167	731.184570	1657.378174
2830.985904	17364.965167	729.979492	1655.640381
2830.985904	17364.965167	728.775391	1545.732056
2830.985904	17364.965167	727.570313	1469.003906
2830.985904	17364.965167	726.365234	1341.565430
2830.985904	17364.965167	725.160156	1068.560913
2830.985904	17364.965167	723.954102	870.700500
2830.985904	17364.965167	722.748047	769.996521
2830.985904	17364.965167	721.541992	477.493866
2830.985904	17364.965167	720.334961	346.083954
2830.985904	17364.965167	719.128906	203.727371
2830.985904	17364.965167	717.921875	83.486328
2830.985904	17364.965167	716.714844	256.371582
2830.985904	17364.965167	715.506836	76.721802
2830.985904	17364.965167	714.298828	278.200531
2830.985904	17364.965167	713.090820	272.616669
2830.985904	17364.965167	711.882813	260.445160
2830.985904	17364.965167	710.674805	164.649704
2830.985904	17364.965167	709.465820	346.192535
2830.985904	17364.965167	708.256836	191.038788
2830.985904	17364.965167	707.047852	258.137451
2830.985904	17364.965167	705.837891	331.816528
2830.985904	17364.965167	704.627930	236.165039
2830.985904	17364.965167	703.417969	424.154449
2830.985904	17364.965167	702.208008	491.189331
2830.985904	17364.965167	700.998047	683.458801
2830.985904	17364.965167	699.787109	497.772247
2830.985904	17364.965167	698.576172	371.476990
2830.985904	17364.965167	697.364258	205.711029
2830.985904	17364.965167	696.153320	220.060730
2830.985904	17364.965167	694.941406	197.090958
2830.985904	17364.965167	693.729492	46.842766
2830.985904	17364.965167	692.516602	39.284203
2830.985904	17364.965167	691.304688	189.682755
2830.985904	17364.965167	690.091797	258.866943
2830.985904	17364.965167	688.878906	306.094055
2830.985904	17364.965167	687.665039	153.793076
2830.985904	17364.965167	686.451172	352.261841
2830.985904	17364.965167	685.237305	526.539490
2830.985904	17364.965167	684.023438	461.922577
2830.985904	17364.965167	682.809570	653.621094
2830.985904	17364.965167	681.594727	740.109802
2830.985904	17364.965167	680.379883	666.714966
2830.985904	17364.965167	679.165039	779.422363
2830.985904	17364.965167	677.949219	832.978821
2830.985904	17364.965167	676.733398	873.375000
2830.985904	17364.965167	675.517578	894.054810
2830.985904	17364.965167	674.301758	884.093994
2830.985904	17364.965167	673.084961	882.872009
2830.985904	17364.965167	671.869141	796.370728
2830.985904	17364.965167	670.651367	757.981018
2830.985904	17364.965167	669.434570	723.965393
2830.985904	17364.965167	668.216797	672.467590
2830.985904	17364.965167	667.000000	594.763367
2830.985904	17364.965167	665.781250	704.902710
2830.985904	17364.965167	664.563477	496.170654
2830.985904	17364.965167	663.344727	540.753357
2830.985904	17364.965167	662.125977	733.721069
2830.985904	17364.965167	660.907227	677.811646
2830.985904	17364.965167	659.688477	669.903076
2830.985904	17364.965167	658.468750	644.523132
2830.985904	17364.965167	657.249023	671.471191
2830.985904	17364.965167	656.029297	827.027039
2830.985904	17364.965167	654.808594	871.313171
2830.985904	17364.965167	653.587891	743.375610
2830.985904	17364.965167	652.367188	759.279785
2830.985904	17364.965167	651.146484	646.613708
2830.985904	17364.965167	649.924805	566.636414
2830.985904	17364.965167	648.704102	545.460205
2830.985904	17364.965167	647.482422	604.815186
2830.985904	17364.965167	646.259766	389.845764
2830.985904	17364.965167	645.037109	510.077209
2830.985904	17364.965167	643.815430	541.017700
2830.985904	17364.965167	642.591797	558.854858
2830.985904	17364.965167	641.369141	391.785950
2830.985904	17364.965167	640.145508	461.760101
2830.985904	17364.965167	638.921875	386.012543
2830.985904	17364.965167	637.698242	523.260254
2830.985904	17364.965167	636.474609	510.471069
2830.985904	17364.965167	635.250000	593.238281
2830.985904	17364.965167	634.025391	615.110413
2830.985904	17364.965167	632.800781	647.788757
2830.985904	17364.965167	631.575195	680.408508
2830.985904	17364.965167	630.349609	864.921143
2830.985904	17364.965167	629.124023	830.113831
2830.985904	17364.965167	627.898438	1001.408203
2830.985904	17364.965167	626.671875	944.798340
2830.985904	17364.965167	625.445313	710.316772
2830.985904	17364.965167	624.218750	519.254761
2830.985904	17364.965167	622.992188	558.030518
2830.985904	17364.965167	621.764648	633.585266
2830.985904	17364.965167	620.537109	412.171021
2830.985904	17364.965167	619.309570	561.287109
2830.985904	17364.965167	618.081055	318.215912
2830.985904	17364.965167	616.852539	408.708252
2830.985904	17364.965167	615.624023	219.796631
2830.985904	17364.965167	614.395508	186.773361
2830.985904	17364.965167	613.166992	51.987431
2830.985904	17364.965167	611.937500	122.765053
2830.985904	17364.965167	610.708008	135.045288
2830.985904	17364.965167	609.477539	71.559097
2830.985904	17364.965167	608.248047	36.157207
2830.985904	17364.965167	607.017578	-57.664181
2830.985904	17364.965167	605.787109	-78.012154
2830.985904	17364.965167	604.555664	132.821671
2830.985904	17364.965167	603.325195	88.556625
2830.985904	17364.965167	602.093750	115.532379
2830.985904	17364.965167	600.861328	250.417770
2830.985904	17364.965167	599.629883	89.372375
2830.985904	17364.965167	598.397461	303.957825
2830.985904	17364.965167	597.165039	201.117310
2830.985904	17364.965167	595.932617	342.096039
2830.985904	17364.965167	594.699219	368.606567
2830.985904	17364.965167	593.465820	289.352081
2830.985904	17364.965167	592.232422	296.326874
2830.985904	17364.965167	590.999023	393.787994
2830.985904	17364.965167	589.764648	316.538727
2830.985904	17364.965167	588.530273	219.862122
2830.985904	17364.965167	587.295898	364.482025
2830.985904	17364.965167	586.061523	75.983261
2830.985904	17364.965167	584.826172	35.217827
2830.985904	17364.965167	583.590820	298.014923
2830.985904	17364.965167	582.355469	300.143982
2830.985904	17364.965167	581.119141	134.319260
2830.985904	17364.965167	579.882813	332.169495
2830.985904	17364.965167	578.646484	405.085754
2830.985904	17364.965167	577.410156	490.810211
2830.985904	17364.965167	576.172852	600.084412
2830.985904	17364.965167	574.935547	530.790283
2830.985904	17364.965167	573.698242	472.207672
2830.985904	17364.965167	572.460938	346.960754
2830.985904	17364.965167	571.222656	331.279175
2830.985904	17364.965167	569.984375	242.499329
2830.985904	17364.965167	568.746094	439.344055
2830.985904	17364.965167	567.506836	511.490784
2830.985904	17364.965167	566.267578	422.527527
2830.985904	17364.965167	565.028320	305.633789
2830.985904	17364.965167	563.789063	366.837189
2830.985904	17364.965167	562.548828	455.836029
2830.985904	17364.965167	561.309570	285.190216
2830.985904	17364.965167	560.068359	449.094513
2830.985904	17364.965167	558.828125	351.289459
2830.985904	17364.965167	557.586914	431.380249
2830.985904	17364.965167	556.345703	348.492188
2830.985904	17364.965167	555.104492	430.566223
2830.985904	17364.965167	553.863281	431.136993
2830.985904	17364.965167	552.621094	506.603882
2830.985904	17364.965167	551.378906	464.203308
2830.985904	17364.965167	550.136719	451.732819
2830.985904	17364.965167	548.893555	312.916809
2830.985904	17364.965167	547.650391	413.777649
2830.985904	17364.965167	546.407227	345.515259
2830.985904	17364.965167	545.164063	307.170410
2830.985904	17364.965167	543.919922	61.335152
2830.985904	17364.965167	542.675781	164.065826
2830.985904	17364.965167	541.431641	104.232368
2830.985904	17364.965167	540.186523	300.831116
2830.985904	17364.965167	538.941406	362.674988
2830.985904	17364.965167	537.696289	142.445969
2830.985904	17364.965167	536.451172	129.436508
2830.985904	17364.965167	535.205078	-84.352219
2830.985904	17364.965167	533.959961	28.551413
2830.985904	17364.965167	532.712891	-159.616608
2830.985904	17364.965167	531.466797	-61.788025
2830.985904	17364.965167	530.219727	-85.668015
2830.985904	17364.965167	528.972656	-28.526693
2830.985904	17364.965167	527.725586	-58.894215
2830.985904	17364.965167	526.478516	15.184149
2830.985904	17364.965167	525.230469	84.917511
2830.985904	17364.965167	523.982422	-122.487442
2830.985904	17364.965167	522.734375	185.813736
2830.985904	17364.965167	521.485352	95.558464
2830.985904	17364.965167	520.236328	150.136688
2830.985904	17364.965167	518.987305	25.780130
2830.985904	17364.965167	517.737305	146.268173
2830.985904	17364.965167	516.488281	283.703522
2830.985904	17364.965167	515.238281	252.921570
2830.985904	17364.965167	513.988281	151.908661
2830.985904	17364.965167	512.737305	442.299622
2830.985904	17364.965167	511.486328	209.366104
2830.985904	17364.965167	510.235352	291.189026
2830.985904	17364.965167	508.984375	328.307373
2830.985904	17364.965167	507.732422	356.875977
2830.985904	17364.965167	506.480469	247.291092
2830.985904	17364.965167	505.228516	337.424744
2830.985904	17364.965167	503.976563	314.928223
2830.985904	17364.965167	502.723633	358.243500
2830.985904	17364.965167	501.470703	516.165344
2830.985904	17364.965167	500.217773	548.769409
2830.985904	17364.965167	498.963867	859.335449
2830.985904	17364.965167	497.709961	815.433838
2830.985904	17364.965167	496.456055	930.628357
2830.985904	17364.965167	495.202148	1162.403931
2830.985904	17364.965167	493.947266	1273.205933
2830.985904	17364.965167	492.692383	1400.909180
2830.985904	17364.965167	491.437500	1320.849243
2830.985904	17364.965167	490.181641	1495.083496
2830.985904	17364.965167	488.926758	1497.646851
2830.985904	17364.965167	487.670898	1409.124390
2830.985904	17364.965167	486.414063	1259.222900
2830.985904	17364.965167	485.158203	990.832153
2830.985904	17364.965167	483.901367	910.935181
2830.985904	17364.965167	482.644531	701.985901
2830.985904	17364.965167	481.386719	537.554504
2830.985904	17364.965167	480.128906	178.592041
2830.985904	17364.965167	478.871094	46.077805
2830.985904	17364.965167	477.613281	148.324097
2830.985904	17364.965167	476.355469	3.206192
2830.985904	17364.965167	475.096680	67.387474
2830.985904	17364.965167	473.837891	-166.382401
2830.985904	17364.965167	472.578125	-95.837044
2830.985904	17364.965167	471.319336	19.051291
2830.985904	17364.965167	470.059570	-127.945587
2830.985904	17364.965167	468.799805	-99.635376
2830.985904	17364.965167	467.539063	4.659849
2830.985904	17364.965167	466.278320	-89.439026
2830.985904	17364.965167	465.017578	-46.340290
2830.985904	17364.965167	463.756836	95.899246
2830.985904	17364.965167	462.495117	235.982254
2830.985904	17364.965167	461.233398	430.844299
2830.985904	17364.965167	459.971680	469.652527
2830.985904	17364.965167	458.709961	575.907471
2830.985904	17364.965167	457.447266	540.957153
2830.985904	17364.965167	456.184570	466.019043
2830.985904	17364.965167	454.921875	281.614929
2830.985904	17364.965167	453.658203	17.290428
2830.985904	17364.965167	452.394531	75.210396
2830.985904	17364.965167	451.130859	4.735779
2830.985904	17364.965167	449.867188	56.367573
2830.985904	17364.965167	448.602539	70.125206
2830.985904	17364.965167	447.337891	132.280045
2830.985904	17364.965167	446.073242	240.697021
2830.985904	17364.965167	444.807617	220.829407
2830.985904	17364.965167	443.542969	402.798706
2830.985904	17364.965167	442.276367	334.605438
2830.985904	17364.965167	441.010742	335.808289
2830.985904	17364.965167	439.744141	173.168228
2830.985904	17364.965167	438.478516	-29.280277
2830.985904	17364.965167	437.210938	30.841446
2830.985904	17364.965167	435.944336	53.170856
2830.985904	17364.965167	434.676758	-25.245760
2830.985904	17364.965167	433.409180	-30.169411
2830.985904	17364.965167	432.141602	124.369377
2830.985904	17364.965167	430.873047	69.092094
2830.985904	17364.965167	429.604492	34.818268
2830.985904	17364.965167	428.335938	-9.918184
2830.985904	17364.965167	427.067383	-46.246117
2830.985904	17364.965167	425.797852	49.467396
2830.985904	17364.965167	424.528320	27.803827
2830.985904	17364.965167	423.258789	73.178680
2830.985904	17364.965167	421.988281	168.785324
2830.985904	17364.965167	420.717773	142.892624
2830.985904	17364.965167	419.447266	140.025314
2830.985904	17364.965167	418.175781	126.670059
2830.985904	17364.965167	416.905273	92.379036
2830.985904	17364.965167	415.633789	281.923798
2830.985904	17364.965167	414.362305	291.474457
2830.985904	17364.965167	413.089844	321.890686
2830.985904	17364.965167	411.817383	400.340118
2830.985904	17364.965167	410.544922	520.514832
2830.985904	17364.965167	409.272461	646.855530
2830.985904	17364.965167	407.999023	679.055725
2830.985904	17364.965167	406.725586	1068.382568
2830.985904	17364.965167	405.452148	1208.944214
2830.985904	17364.965167	404.177734	1595.745239
2830.985904	17364.965167	402.903320	1675.425415
2830.985904	17364.965167	401.628906	1800.895508
2830.985904	17364.965167	400.354492	1730.067627
2830.985904	17364.965167	399.079102	1519.381592
2830.985904	17364.965167	397.803711	1106.355103
2830.985904	17364.965167	396.528320	987.410034
2830.985904	17364.965167	395.251953	824.595215
2830.985904	17364.965167	393.976563	824.296326
2830.985904	17364.965167	392.700195	555.012756
2830.985904	17364.965167	391.422852	527.359070
2830.985904	17364.965167	390.145508	395.392944
2830.985904	17364.965167	388.869141	311.206451
2830.985904	17364.965167	387.590820	268.489197
2830.985904	17364.965167	386.313477	396.285370
2830.985904	17364.965167	385.035156	563.342163
2830.985904	17364.965167	383.756836	222.387848
2830.985904	17364.965167	382.478516	212.104568
2830.985904	17364.965167	381.199219	359.626770
2830.985904	17364.965167	379.919922	294.712006
2830.985904	17364.965167	378.640625	370.904327
2830.985904	17364.965167	377.360352	577.696350
2830.985904	17364.965167	376.080078	491.073212
2830.985904	17364.965167	374.799805	356.367493
2830.985904	17364.965167	373.519531	246.292084
2830.985904	17364.965167	372.238281	316.556183
2830.985904	17364.965167	370.957031	351.104614
2830.985904	17364.965167	369.675781	470.339050
2830.985904	17364.965167	368.394531	244.588272
2830.985904	17364.965167	367.112305	178.245377
2830.985904	17364.965167	365.830078	457.893677
2830.985904	17364.965167	364.546875	510.857819
2830.985904	17364.965167	363.264648	476.211517
2830.985904	17364.965167	361.981445	575.786133
2830.985904	17364.965167	360.698242	741.086792
2830.985904	17364.965167	359.414063	998.969849
2830.985904	17364.965167	358.129883	1160.837280
2830.985904	17364.965167	356.845703	1276.437622
2830.985904	17364.965167	355.561523	1412.040405
2830.985904	17364.965167	354.276367	1551.027588
2830.985904	17364.965167	352.991211	1312.519531
2830.985904	17364.965167	351.706055	1094.072510
2830.985904	17364.965167	350.420898	992.887512
2830.985904	17364.965167	349.134766	888.864441
2830.985904	17364.965167	347.848633	633.085632
2830.985904	17364.965167	346.561523	275.225342
2830.985904	17364.965167	345.275391	123.367744
2830.985904	17364.965167	343.988281	175.240677
2830.985904	17364.965167	342.700195	151.722443
2830.985904	17364.965167	341.413086	61.132984
2830.985904	17364.965167	340.125000	-38.733643
2830.985904	17364.965167	338.836914	81.324295
2830.985904	17364.965167	337.548828	-51.646610
2830.985904	17364.965167	336.259766	-53.632019
2830.985904	17364.965167	334.970703	-118.712059
2830.985904	17364.965167	333.681641	15.133415
2830.985904	17364.965167	332.391602	21.796642
2830.985904	17364.965167	331.101563	-53.286423
2830.985904	17364.965167	329.811523	-74.028519
2830.985904	17364.965167	328.521484	-67.307343
2830.985904	17364.965167	327.230469	-103.290962
2830.985904	17364.965167	325.939453	81.769547
2830.985904	17364.965167	324.648438	20.057495
2830.985904	17364.965167	323.356445	119.441711
2830.985904	17364.965167	322.064453	35.927673
2830.985904	17364.965167	320.772461	185.430405
2830.985904	17364.965167	319.480469	156.101974
2830.985904	17364.965167	318.187500	301.896698
2830.985904	17364.965167	316.894531	157.732040
2830.985904	17364.965167	315.601563	38.436817
2830.985904	17364.965167	314.307617	114.572182
2830.985904	17364.965167	313.013672	213.291977
2830.985904	17364.965167	311.719727	46.747055
2830.985904	17364.965167	310.425781	93.874931
2830.985904	17364.965167	309.130859	13.355503
2830.985904	17364.965167	307.835938	-89.985130
2830.985904	17364.965167	306.541016	118.554665
2830.985904	17364.965167	305.245117	-8.134458
2830.985904	17364.965167	303.949219	61.827797
2830.985904	17364.965167	302.653320	53.222347
2830.985904	17364.965167	301.356445	-17.621595
2830.985904	17364.965167	300.060547	183.773682
2830.985904	17364.965167	298.763672	-48.527706
