#X		#Y		#Wave		#Intensity
2710.110160	17392.412333	2000.043945	-7.559518
2710.110160	17392.412333	1999.080078	29.204615
2710.110160	17392.412333	1998.116211	-80.699608
2710.110160	17392.412333	1997.151367	-20.040956
2710.110160	17392.412333	1996.186523	-98.621910
2710.110160	17392.412333	1995.222656	-58.720947
2710.110160	17392.412333	1994.256836	27.804569
2710.110160	17392.412333	1993.291992	-156.045563
2710.110160	17392.412333	1992.327148	100.472847
2710.110160	17392.412333	1991.361328	-103.910713
2710.110160	17392.412333	1990.395508	-118.023438
2710.110160	17392.412333	1989.429688	-233.946014
2710.110160	17392.412333	1988.463867	3.611664
2710.110160	17392.412333	1987.497070	-83.284760
2710.110160	17392.412333	1986.531250	2.643034
2710.110160	17392.412333	1985.564453	18.998379
2710.110160	17392.412333	1984.597656	133.939713
2710.110160	17392.412333	1983.630859	147.211639
2710.110160	17392.412333	1982.664063	53.941238
2710.110160	17392.412333	1981.696289	98.811707
2710.110160	17392.412333	1980.728516	12.486399
2710.110160	17392.412333	1979.761719	-54.290524
2710.110160	17392.412333	1978.792969	128.145721
2710.110160	17392.412333	1977.825195	-156.343597
2710.110160	17392.412333	1976.857422	-1.541062
2710.110160	17392.412333	1975.888672	7.391733
2710.110160	17392.412333	1974.919922	156.783966
2710.110160	17392.412333	1973.951172	106.101051
2710.110160	17392.412333	1972.982422	50.331619
2710.110160	17392.412333	1972.013672	-69.701027
2710.110160	17392.412333	1971.043945	29.609890
2710.110160	17392.412333	1970.075195	126.272530
2710.110160	17392.412333	1969.105469	148.815445
2710.110160	17392.412333	1968.135742	222.972549
2710.110160	17392.412333	1967.165039	-28.261169
2710.110160	17392.412333	1966.195313	33.344246
2710.110160	17392.412333	1965.224609	139.153305
2710.110160	17392.412333	1964.253906	82.293098
2710.110160	17392.412333	1963.283203	-112.520615
2710.110160	17392.412333	1962.312500	-26.720743
2710.110160	17392.412333	1961.341797	157.411926
2710.110160	17392.412333	1960.370117	169.148468
2710.110160	17392.412333	1959.399414	116.843689
2710.110160	17392.412333	1958.427734	-11.760767
2710.110160	17392.412333	1957.455078	98.180275
2710.110160	17392.412333	1956.483398	77.705978
2710.110160	17392.412333	1955.511719	209.614639
2710.110160	17392.412333	1954.539063	88.255898
2710.110160	17392.412333	1953.566406	232.317047
2710.110160	17392.412333	1952.593750	71.612236
2710.110160	17392.412333	1951.621094	-71.865868
2710.110160	17392.412333	1950.647461	192.404404
2710.110160	17392.412333	1949.674805	-22.307062
2710.110160	17392.412333	1948.701172	-82.276932
2710.110160	17392.412333	1947.727539	-73.504303
2710.110160	17392.412333	1946.753906	43.244831
2710.110160	17392.412333	1945.780273	-46.183376
2710.110160	17392.412333	1944.805664	200.535416
2710.110160	17392.412333	1943.831055	201.864395
2710.110160	17392.412333	1942.856445	-103.368324
2710.110160	17392.412333	1941.881836	-45.579884
2710.110160	17392.412333	1940.907227	161.742096
2710.110160	17392.412333	1939.932617	-121.231941
2710.110160	17392.412333	1938.957031	-7.079867
2710.110160	17392.412333	1937.981445	65.391106
2710.110160	17392.412333	1937.005859	103.554123
2710.110160	17392.412333	1936.030273	-76.267578
2710.110160	17392.412333	1935.054688	-62.542908
2710.110160	17392.412333	1934.078125	122.585243
2710.110160	17392.412333	1933.101563	-76.659821
2710.110160	17392.412333	1932.125000	159.847366
2710.110160	17392.412333	1931.148438	-19.703438
2710.110160	17392.412333	1930.171875	-45.025867
2710.110160	17392.412333	1929.194336	113.147865
2710.110160	17392.412333	1928.217773	-139.578934
2710.110160	17392.412333	1927.240234	133.537018
2710.110160	17392.412333	1926.262695	-99.481155
2710.110160	17392.412333	1925.284180	-224.832779
2710.110160	17392.412333	1924.306641	-71.507034
2710.110160	17392.412333	1923.328125	-28.158215
2710.110160	17392.412333	1922.350586	76.280815
2710.110160	17392.412333	1921.372070	-56.206642
2710.110160	17392.412333	1920.392578	-186.170120
2710.110160	17392.412333	1919.414063	-230.595688
2710.110160	17392.412333	1918.434570	-116.299927
2710.110160	17392.412333	1917.456055	-21.537752
2710.110160	17392.412333	1916.476563	-197.640411
2710.110160	17392.412333	1915.497070	116.743866
2710.110160	17392.412333	1914.516602	28.560652
2710.110160	17392.412333	1913.537109	72.139374
2710.110160	17392.412333	1912.556641	-79.336609
2710.110160	17392.412333	1911.576172	-220.972031
2710.110160	17392.412333	1910.595703	-109.029243
2710.110160	17392.412333	1909.615234	158.870880
2710.110160	17392.412333	1908.633789	31.978336
2710.110160	17392.412333	1907.653320	-31.500309
2710.110160	17392.412333	1906.671875	41.467854
2710.110160	17392.412333	1905.690430	-38.981274
2710.110160	17392.412333	1904.708984	60.794815
2710.110160	17392.412333	1903.727539	-14.710858
2710.110160	17392.412333	1902.745117	-12.282692
2710.110160	17392.412333	1901.762695	43.701206
2710.110160	17392.412333	1900.780273	72.922173
2710.110160	17392.412333	1899.797852	75.394493
2710.110160	17392.412333	1898.815430	46.267181
2710.110160	17392.412333	1897.832031	-160.335144
2710.110160	17392.412333	1896.849609	-172.358429
2710.110160	17392.412333	1895.866211	5.227225
2710.110160	17392.412333	1894.882813	-35.958744
2710.110160	17392.412333	1893.898438	-18.805511
2710.110160	17392.412333	1892.915039	27.501448
2710.110160	17392.412333	1891.930664	73.797600
2710.110160	17392.412333	1890.947266	-130.040115
2710.110160	17392.412333	1889.962891	-108.001495
2710.110160	17392.412333	1888.977539	11.128488
2710.110160	17392.412333	1887.993164	159.337952
2710.110160	17392.412333	1887.007813	11.450513
2710.110160	17392.412333	1886.023438	62.554821
2710.110160	17392.412333	1885.038086	-75.565605
2710.110160	17392.412333	1884.051758	-128.761368
2710.110160	17392.412333	1883.066406	2.333463
2710.110160	17392.412333	1882.081055	43.669186
2710.110160	17392.412333	1881.094727	26.804411
2710.110160	17392.412333	1880.108398	121.403976
2710.110160	17392.412333	1879.122070	46.346680
2710.110160	17392.412333	1878.135742	-101.376396
2710.110160	17392.412333	1877.148438	-207.892349
2710.110160	17392.412333	1876.162109	-38.335155
2710.110160	17392.412333	1875.174805	-278.034119
2710.110160	17392.412333	1874.187500	172.213715
2710.110160	17392.412333	1873.199219	-38.452351
2710.110160	17392.412333	1872.211914	-43.393677
2710.110160	17392.412333	1871.223633	128.239868
2710.110160	17392.412333	1870.236328	-99.336838
2710.110160	17392.412333	1869.248047	-123.723015
2710.110160	17392.412333	1868.258789	-32.082138
2710.110160	17392.412333	1867.270508	-119.411987
2710.110160	17392.412333	1866.282227	-126.994316
2710.110160	17392.412333	1865.292969	-105.623764
2710.110160	17392.412333	1864.303711	241.863770
2710.110160	17392.412333	1863.314453	159.179947
2710.110160	17392.412333	1862.324219	-41.874352
2710.110160	17392.412333	1861.334961	-54.559036
2710.110160	17392.412333	1860.344727	-130.071899
2710.110160	17392.412333	1859.354492	1.972132
2710.110160	17392.412333	1858.364258	148.383316
2710.110160	17392.412333	1857.374023	87.159454
2710.110160	17392.412333	1856.383789	-80.260300
2710.110160	17392.412333	1855.392578	198.536850
2710.110160	17392.412333	1854.401367	-36.509998
2710.110160	17392.412333	1853.410156	73.245392
2710.110160	17392.412333	1852.418945	219.042999
2710.110160	17392.412333	1851.426758	205.628342
2710.110160	17392.412333	1850.435547	64.419792
2710.110160	17392.412333	1849.443359	125.561844
2710.110160	17392.412333	1848.451172	22.790001
2710.110160	17392.412333	1847.458984	47.613831
2710.110160	17392.412333	1846.466797	74.744087
2710.110160	17392.412333	1845.473633	77.694382
2710.110160	17392.412333	1844.480469	232.191818
2710.110160	17392.412333	1843.487305	102.553612
2710.110160	17392.412333	1842.494141	124.452507
2710.110160	17392.412333	1841.500977	300.204773
2710.110160	17392.412333	1840.506836	86.135170
2710.110160	17392.412333	1839.513672	-152.006729
2710.110160	17392.412333	1838.519531	-31.923010
2710.110160	17392.412333	1837.525391	104.831963
2710.110160	17392.412333	1836.530273	39.530804
2710.110160	17392.412333	1835.536133	55.844936
2710.110160	17392.412333	1834.541016	-103.352371
2710.110160	17392.412333	1833.545898	40.053020
2710.110160	17392.412333	1832.550781	-78.493530
2710.110160	17392.412333	1831.555664	98.225822
2710.110160	17392.412333	1830.560547	116.306892
2710.110160	17392.412333	1829.564453	-4.964742
2710.110160	17392.412333	1828.568359	224.053085
2710.110160	17392.412333	1827.572266	145.736511
2710.110160	17392.412333	1826.576172	249.633575
2710.110160	17392.412333	1825.580078	245.427124
2710.110160	17392.412333	1824.583008	-41.882946
2710.110160	17392.412333	1823.585938	207.829666
2710.110160	17392.412333	1822.588867	100.140450
2710.110160	17392.412333	1821.591797	28.300695
2710.110160	17392.412333	1820.594727	219.925980
2710.110160	17392.412333	1819.596680	190.921890
2710.110160	17392.412333	1818.599609	264.783905
2710.110160	17392.412333	1817.601563	144.482895
2710.110160	17392.412333	1816.603516	328.165863
2710.110160	17392.412333	1815.604492	35.229122
2710.110160	17392.412333	1814.606445	31.866665
2710.110160	17392.412333	1813.607422	224.574722
2710.110160	17392.412333	1812.608398	170.618134
2710.110160	17392.412333	1811.609375	54.328529
2710.110160	17392.412333	1810.610352	191.442871
2710.110160	17392.412333	1809.610352	151.388046
2710.110160	17392.412333	1808.611328	216.386322
2710.110160	17392.412333	1807.611328	159.284866
2710.110160	17392.412333	1806.611328	44.684551
2710.110160	17392.412333	1805.610352	-117.833961
2710.110160	17392.412333	1804.610352	-79.778435
2710.110160	17392.412333	1803.609375	108.564308
2710.110160	17392.412333	1802.608398	-104.528305
2710.110160	17392.412333	1801.607422	64.306915
2710.110160	17392.412333	1800.606445	8.513294
2710.110160	17392.412333	1799.605469	164.985336
2710.110160	17392.412333	1798.603516	49.183636
2710.110160	17392.412333	1797.601563	-61.978642
2710.110160	17392.412333	1796.599609	72.416542
2710.110160	17392.412333	1795.597656	-43.829910
2710.110160	17392.412333	1794.595703	104.462807
2710.110160	17392.412333	1793.592773	123.776085
2710.110160	17392.412333	1792.589844	88.080719
2710.110160	17392.412333	1791.587891	207.128510
2710.110160	17392.412333	1790.583984	-102.944290
2710.110160	17392.412333	1789.581055	-3.336834
2710.110160	17392.412333	1788.577148	-142.132462
2710.110160	17392.412333	1787.574219	-19.109089
2710.110160	17392.412333	1786.570313	-1.082116
2710.110160	17392.412333	1785.566406	-102.267792
2710.110160	17392.412333	1784.561523	-96.513138
2710.110160	17392.412333	1783.557617	78.006065
2710.110160	17392.412333	1782.552734	-64.149910
2710.110160	17392.412333	1781.547852	26.660940
2710.110160	17392.412333	1780.542969	136.274185
2710.110160	17392.412333	1779.538086	34.044968
2710.110160	17392.412333	1778.532227	-8.915623
2710.110160	17392.412333	1777.527344	-282.585724
2710.110160	17392.412333	1776.521484	-90.593506
2710.110160	17392.412333	1775.515625	-264.747864
2710.110160	17392.412333	1774.508789	88.303917
2710.110160	17392.412333	1773.502930	289.045227
2710.110160	17392.412333	1772.496094	14.603404
2710.110160	17392.412333	1771.489258	41.580589
2710.110160	17392.412333	1770.482422	-45.577938
2710.110160	17392.412333	1769.475586	94.930550
2710.110160	17392.412333	1768.467773	80.952995
2710.110160	17392.412333	1767.460938	152.204636
2710.110160	17392.412333	1766.453125	-49.534836
2710.110160	17392.412333	1765.445313	7.088958
2710.110160	17392.412333	1764.437500	-88.238274
2710.110160	17392.412333	1763.428711	143.388275
2710.110160	17392.412333	1762.420898	170.927994
2710.110160	17392.412333	1761.412109	134.273178
2710.110160	17392.412333	1760.403320	92.703125
2710.110160	17392.412333	1759.393555	294.915009
2710.110160	17392.412333	1758.384766	368.989868
2710.110160	17392.412333	1757.375000	16.634193
2710.110160	17392.412333	1756.366211	104.557716
2710.110160	17392.412333	1755.356445	175.673264
2710.110160	17392.412333	1754.345703	92.739563
2710.110160	17392.412333	1753.335938	-82.607628
2710.110160	17392.412333	1752.325195	-177.667404
2710.110160	17392.412333	1751.315430	-95.482956
2710.110160	17392.412333	1750.304688	-13.533706
2710.110160	17392.412333	1749.292969	27.988089
2710.110160	17392.412333	1748.282227	-110.317039
2710.110160	17392.412333	1747.270508	-168.422623
2710.110160	17392.412333	1746.259766	-47.101410
2710.110160	17392.412333	1745.248047	-22.886145
2710.110160	17392.412333	1744.235352	-31.948433
2710.110160	17392.412333	1743.223633	-112.017899
2710.110160	17392.412333	1742.211914	-123.770370
2710.110160	17392.412333	1741.199219	114.499496
2710.110160	17392.412333	1740.186523	-126.603615
2710.110160	17392.412333	1739.173828	137.169296
2710.110160	17392.412333	1738.160156	176.519241
2710.110160	17392.412333	1737.147461	-116.890564
2710.110160	17392.412333	1736.133789	-219.364212
2710.110160	17392.412333	1735.120117	-64.968903
2710.110160	17392.412333	1734.106445	-33.394943
2710.110160	17392.412333	1733.091797	-244.793549
2710.110160	17392.412333	1732.078125	99.867447
2710.110160	17392.412333	1731.063477	79.015854
2710.110160	17392.412333	1730.048828	-73.914551
2710.110160	17392.412333	1729.034180	163.997360
2710.110160	17392.412333	1728.019531	74.345619
2710.110160	17392.412333	1727.003906	-15.462213
2710.110160	17392.412333	1725.988281	-53.619545
2710.110160	17392.412333	1724.972656	-103.696358
2710.110160	17392.412333	1723.957031	-132.743057
2710.110160	17392.412333	1722.941406	-91.369621
2710.110160	17392.412333	1721.924805	-158.387817
2710.110160	17392.412333	1720.909180	-112.646614
2710.110160	17392.412333	1719.892578	-130.584518
2710.110160	17392.412333	1718.875977	-143.973816
2710.110160	17392.412333	1717.858398	-58.828922
2710.110160	17392.412333	1716.841797	-27.894987
2710.110160	17392.412333	1715.824219	52.185284
2710.110160	17392.412333	1714.806641	21.685204
2710.110160	17392.412333	1713.789063	-27.742283
2710.110160	17392.412333	1712.770508	-18.624849
2710.110160	17392.412333	1711.752930	314.317261
2710.110160	17392.412333	1710.734375	125.917671
2710.110160	17392.412333	1709.715820	97.011978
2710.110160	17392.412333	1708.697266	293.203430
2710.110160	17392.412333	1707.678711	-17.494516
2710.110160	17392.412333	1706.659180	-159.378769
2710.110160	17392.412333	1705.640625	-26.983284
2710.110160	17392.412333	1704.621094	25.491869
2710.110160	17392.412333	1703.600586	52.004173
2710.110160	17392.412333	1702.581055	45.587830
2710.110160	17392.412333	1701.561523	-127.312981
2710.110160	17392.412333	1700.541016	69.821663
2710.110160	17392.412333	1699.520508	180.093475
2710.110160	17392.412333	1698.500000	201.213348
2710.110160	17392.412333	1697.478516	165.986053
2710.110160	17392.412333	1696.458008	210.257813
2710.110160	17392.412333	1695.436523	85.864769
2710.110160	17392.412333	1694.415039	136.888779
2710.110160	17392.412333	1693.393555	377.266388
2710.110160	17392.412333	1692.372070	-7.065834
2710.110160	17392.412333	1691.349609	438.780365
2710.110160	17392.412333	1690.327148	269.433197
2710.110160	17392.412333	1689.304688	417.955322
2710.110160	17392.412333	1688.282227	384.013763
2710.110160	17392.412333	1687.259766	462.140869
2710.110160	17392.412333	1686.236328	339.189392
2710.110160	17392.412333	1685.213867	237.230499
2710.110160	17392.412333	1684.190430	272.971436
2710.110160	17392.412333	1683.166016	289.894531
2710.110160	17392.412333	1682.142578	579.872314
2710.110160	17392.412333	1681.119141	248.797485
2710.110160	17392.412333	1680.094727	459.118011
2710.110160	17392.412333	1679.070313	440.622498
2710.110160	17392.412333	1678.045898	513.020142
2710.110160	17392.412333	1677.020508	648.247070
2710.110160	17392.412333	1675.996094	643.458069
2710.110160	17392.412333	1674.970703	452.059265
2710.110160	17392.412333	1673.945313	761.788879
2710.110160	17392.412333	1672.919922	647.187195
2710.110160	17392.412333	1671.893555	509.229187
2710.110160	17392.412333	1670.868164	748.658203
2710.110160	17392.412333	1669.841797	782.940369
2710.110160	17392.412333	1668.815430	684.408936
2710.110160	17392.412333	1667.789063	648.710754
2710.110160	17392.412333	1666.761719	806.135925
2710.110160	17392.412333	1665.735352	1072.846436
2710.110160	17392.412333	1664.708008	843.754150
2710.110160	17392.412333	1663.680664	742.645813
2710.110160	17392.412333	1662.653320	990.408508
2710.110160	17392.412333	1661.625000	1135.673950
2710.110160	17392.412333	1660.597656	1041.382935
2710.110160	17392.412333	1659.569336	926.134521
2710.110160	17392.412333	1658.541016	968.922546
2710.110160	17392.412333	1657.512695	1218.458496
2710.110160	17392.412333	1656.483398	1137.930664
2710.110160	17392.412333	1655.455078	1315.250610
2710.110160	17392.412333	1654.425781	1190.536865
2710.110160	17392.412333	1653.396484	1207.470947
2710.110160	17392.412333	1652.366211	1591.125854
2710.110160	17392.412333	1651.336914	1600.952637
2710.110160	17392.412333	1650.306641	1754.593018
2710.110160	17392.412333	1649.276367	1840.867188
2710.110160	17392.412333	1648.246094	2022.189819
2710.110160	17392.412333	1647.215820	2089.781982
2710.110160	17392.412333	1646.185547	2180.517334
2710.110160	17392.412333	1645.154297	1921.114990
2710.110160	17392.412333	1644.123047	2208.809814
2710.110160	17392.412333	1643.091797	2345.752441
2710.110160	17392.412333	1642.060547	2318.130615
2710.110160	17392.412333	1641.028320	2670.388916
2710.110160	17392.412333	1639.997070	2559.329590
2710.110160	17392.412333	1638.964844	2543.221436
2710.110160	17392.412333	1637.931641	2388.187744
2710.110160	17392.412333	1636.899414	2603.593750
2710.110160	17392.412333	1635.867188	2869.836670
2710.110160	17392.412333	1634.833984	2726.415283
2710.110160	17392.412333	1633.800781	2539.109131
2710.110160	17392.412333	1632.767578	2758.955566
2710.110160	17392.412333	1631.734375	2594.869141
2710.110160	17392.412333	1630.700195	2708.274658
2710.110160	17392.412333	1629.666016	2888.693359
2710.110160	17392.412333	1628.631836	3048.264893
2710.110160	17392.412333	1627.597656	3096.887451
2710.110160	17392.412333	1626.563477	3110.866699
2710.110160	17392.412333	1625.528320	3367.367188
2710.110160	17392.412333	1624.493164	3381.322998
2710.110160	17392.412333	1623.458008	3376.837402
2710.110160	17392.412333	1622.422852	3515.512939
2710.110160	17392.412333	1621.387695	3674.943359
2710.110160	17392.412333	1620.351563	3878.173096
2710.110160	17392.412333	1619.315430	4102.129395
2710.110160	17392.412333	1618.279297	4109.222656
2710.110160	17392.412333	1617.243164	4531.473145
2710.110160	17392.412333	1616.207031	4478.635254
2710.110160	17392.412333	1615.169922	4709.389160
2710.110160	17392.412333	1614.132813	4870.967773
2710.110160	17392.412333	1613.095703	4905.798828
2710.110160	17392.412333	1612.058594	5099.649902
2710.110160	17392.412333	1611.020508	4936.423340
2710.110160	17392.412333	1609.983398	4870.077637
2710.110160	17392.412333	1608.945313	5163.002441
2710.110160	17392.412333	1607.907227	4822.796875
2710.110160	17392.412333	1606.868164	5111.130859
2710.110160	17392.412333	1605.830078	5127.904785
2710.110160	17392.412333	1604.791016	4737.486816
2710.110160	17392.412333	1603.751953	4713.052246
2710.110160	17392.412333	1602.712891	4895.699707
2710.110160	17392.412333	1601.673828	5096.753418
2710.110160	17392.412333	1600.633789	4906.961914
2710.110160	17392.412333	1599.594727	4342.696289
2710.110160	17392.412333	1598.554688	4626.710938
2710.110160	17392.412333	1597.513672	4313.297852
2710.110160	17392.412333	1596.473633	4514.695801
2710.110160	17392.412333	1595.433594	4435.909668
2710.110160	17392.412333	1594.392578	4338.858398
2710.110160	17392.412333	1593.351563	4023.842529
2710.110160	17392.412333	1592.310547	4165.836914
2710.110160	17392.412333	1591.268555	3860.342041
2710.110160	17392.412333	1590.227539	3814.375977
2710.110160	17392.412333	1589.185547	4114.917969
2710.110160	17392.412333	1588.143555	3984.255615
2710.110160	17392.412333	1587.100586	3502.885254
2710.110160	17392.412333	1586.058594	3794.482910
2710.110160	17392.412333	1585.015625	4264.858887
2710.110160	17392.412333	1583.972656	3960.539307
2710.110160	17392.412333	1582.929688	3864.976807
2710.110160	17392.412333	1581.886719	3829.138672
2710.110160	17392.412333	1580.843750	3772.829102
2710.110160	17392.412333	1579.799805	3913.588135
2710.110160	17392.412333	1578.755859	4123.110352
2710.110160	17392.412333	1577.711914	4179.312012
2710.110160	17392.412333	1576.666992	3821.354492
2710.110160	17392.412333	1575.623047	4060.924805
2710.110160	17392.412333	1574.578125	3980.228271
2710.110160	17392.412333	1573.533203	3998.060791
2710.110160	17392.412333	1572.488281	4221.846191
2710.110160	17392.412333	1571.443359	3967.825928
2710.110160	17392.412333	1570.397461	4050.070557
2710.110160	17392.412333	1569.351563	4285.561035
2710.110160	17392.412333	1568.305664	4217.194824
2710.110160	17392.412333	1567.259766	4151.292969
2710.110160	17392.412333	1566.213867	4170.084961
2710.110160	17392.412333	1565.166992	4141.045898
2710.110160	17392.412333	1564.120117	4440.970703
2710.110160	17392.412333	1563.073242	4503.522949
2710.110160	17392.412333	1562.026367	4123.426270
2710.110160	17392.412333	1560.978516	4384.850586
2710.110160	17392.412333	1559.930664	4322.364746
2710.110160	17392.412333	1558.883789	4298.866699
2710.110160	17392.412333	1557.834961	4571.986328
2710.110160	17392.412333	1556.787109	4521.407715
2710.110160	17392.412333	1555.739258	4352.476074
2710.110160	17392.412333	1554.690430	4140.458496
2710.110160	17392.412333	1553.641602	4234.060059
2710.110160	17392.412333	1552.592773	4068.068848
2710.110160	17392.412333	1551.542969	4020.755615
2710.110160	17392.412333	1550.494141	3504.502441
2710.110160	17392.412333	1549.444336	3514.605713
2710.110160	17392.412333	1548.394531	3288.126953
2710.110160	17392.412333	1547.344727	3159.795654
2710.110160	17392.412333	1546.293945	2995.271484
2710.110160	17392.412333	1545.244141	2844.671387
2710.110160	17392.412333	1544.193359	2678.377686
2710.110160	17392.412333	1543.142578	2535.084961
2710.110160	17392.412333	1542.090820	2332.902832
2710.110160	17392.412333	1541.040039	2512.948730
2710.110160	17392.412333	1539.988281	2488.533691
2710.110160	17392.412333	1538.936523	2214.347900
2710.110160	17392.412333	1537.884766	2197.213135
2710.110160	17392.412333	1536.833008	2359.745605
2710.110160	17392.412333	1535.780273	2299.821533
2710.110160	17392.412333	1534.727539	1947.200439
2710.110160	17392.412333	1533.674805	1883.248535
2710.110160	17392.412333	1532.622070	1746.890869
2710.110160	17392.412333	1531.569336	1560.868774
2710.110160	17392.412333	1530.515625	1359.229248
2710.110160	17392.412333	1529.461914	1650.142822
2710.110160	17392.412333	1528.408203	1408.159180
2710.110160	17392.412333	1527.354492	1152.879272
2710.110160	17392.412333	1526.299805	1156.352295
2710.110160	17392.412333	1525.246094	702.178040
2710.110160	17392.412333	1524.191406	622.315857
2710.110160	17392.412333	1523.136719	905.233887
2710.110160	17392.412333	1522.081055	857.499939
2710.110160	17392.412333	1521.026367	773.776306
2710.110160	17392.412333	1519.970703	728.789551
2710.110160	17392.412333	1518.915039	518.768677
2710.110160	17392.412333	1517.859375	352.058258
2710.110160	17392.412333	1516.802734	196.941940
2710.110160	17392.412333	1515.747070	431.302338
2710.110160	17392.412333	1514.690430	432.772522
2710.110160	17392.412333	1513.633789	68.058716
2710.110160	17392.412333	1512.577148	418.298370
2710.110160	17392.412333	1511.519531	264.436218
2710.110160	17392.412333	1510.461914	438.627045
2710.110160	17392.412333	1509.405273	106.753220
2710.110160	17392.412333	1508.346680	134.484741
2710.110160	17392.412333	1507.289063	108.227119
2710.110160	17392.412333	1506.231445	283.232056
2710.110160	17392.412333	1505.172852	356.771667
2710.110160	17392.412333	1504.114258	53.470005
2710.110160	17392.412333	1503.055664	116.206474
2710.110160	17392.412333	1501.996094	-114.248138
2710.110160	17392.412333	1500.937500	-190.931641
2710.110160	17392.412333	1499.877930	-86.882927
2710.110160	17392.412333	1498.818359	85.028610
2710.110160	17392.412333	1497.757813	-49.587563
2710.110160	17392.412333	1496.698242	-256.054321
2710.110160	17392.412333	1495.637695	-18.135422
2710.110160	17392.412333	1494.577148	-36.996159
2710.110160	17392.412333	1493.516602	-8.292428
2710.110160	17392.412333	1492.456055	140.038605
2710.110160	17392.412333	1491.394531	27.269712
2710.110160	17392.412333	1490.333008	99.445572
2710.110160	17392.412333	1489.271484	430.753937
2710.110160	17392.412333	1488.209961	474.038849
2710.110160	17392.412333	1487.148438	251.982101
2710.110160	17392.412333	1486.085938	329.515747
2710.110160	17392.412333	1485.023438	443.257416
2710.110160	17392.412333	1483.960938	883.338135
2710.110160	17392.412333	1482.898438	608.371338
2710.110160	17392.412333	1481.834961	637.278137
2710.110160	17392.412333	1480.772461	578.750000
2710.110160	17392.412333	1479.708984	934.008179
2710.110160	17392.412333	1478.644531	923.110107
2710.110160	17392.412333	1477.581055	948.380493
2710.110160	17392.412333	1476.517578	1142.299561
2710.110160	17392.412333	1475.453125	1172.492676
2710.110160	17392.412333	1474.388672	1131.147339
2710.110160	17392.412333	1473.323242	1125.951904
2710.110160	17392.412333	1472.258789	1013.099915
2710.110160	17392.412333	1471.193359	1237.216553
2710.110160	17392.412333	1470.127930	1300.074097
2710.110160	17392.412333	1469.062500	1349.709473
2710.110160	17392.412333	1467.997070	1379.022949
2710.110160	17392.412333	1466.930664	1126.251221
2710.110160	17392.412333	1465.865234	1297.375732
2710.110160	17392.412333	1464.798828	1251.672729
2710.110160	17392.412333	1463.731445	1705.488403
2710.110160	17392.412333	1462.665039	1467.672241
2710.110160	17392.412333	1461.597656	1535.661621
2710.110160	17392.412333	1460.530273	1414.910400
2710.110160	17392.412333	1459.462891	1332.715088
2710.110160	17392.412333	1458.395508	1371.145752
2710.110160	17392.412333	1457.327148	1462.292114
2710.110160	17392.412333	1456.259766	1260.612427
2710.110160	17392.412333	1455.191406	1243.458618
2710.110160	17392.412333	1454.123047	1042.490234
2710.110160	17392.412333	1453.053711	961.760864
2710.110160	17392.412333	1451.985352	1023.681580
2710.110160	17392.412333	1450.916016	868.174744
2710.110160	17392.412333	1449.846680	1145.965088
2710.110160	17392.412333	1448.776367	1016.714539
2710.110160	17392.412333	1447.707031	1170.062744
2710.110160	17392.412333	1446.636719	837.256104
2710.110160	17392.412333	1445.566406	539.016357
2710.110160	17392.412333	1444.496094	686.467957
2710.110160	17392.412333	1443.425781	293.684479
2710.110160	17392.412333	1442.354492	517.147400
2710.110160	17392.412333	1441.283203	786.620483
2710.110160	17392.412333	1440.211914	754.421448
2710.110160	17392.412333	1439.140625	593.223389
2710.110160	17392.412333	1438.069336	799.619446
2710.110160	17392.412333	1436.997070	951.213074
2710.110160	17392.412333	1435.924805	659.864502
2710.110160	17392.412333	1434.852539	762.102417
2710.110160	17392.412333	1433.780273	609.818481
2710.110160	17392.412333	1432.707031	637.089783
2710.110160	17392.412333	1431.633789	726.140808
2710.110160	17392.412333	1430.560547	599.736328
2710.110160	17392.412333	1429.487305	597.641235
2710.110160	17392.412333	1428.413086	706.665649
2710.110160	17392.412333	1427.339844	947.485657
2710.110160	17392.412333	1426.265625	677.150330
2710.110160	17392.412333	1425.191406	966.255981
2710.110160	17392.412333	1424.116211	639.379150
2710.110160	17392.412333	1423.041992	730.756653
2710.110160	17392.412333	1421.966797	1209.493896
2710.110160	17392.412333	1420.891602	1103.535889
2710.110160	17392.412333	1419.816406	729.408997
2710.110160	17392.412333	1418.740234	741.887939
2710.110160	17392.412333	1417.665039	932.633179
2710.110160	17392.412333	1416.588867	660.179871
2710.110160	17392.412333	1415.512695	1263.745239
2710.110160	17392.412333	1414.435547	949.790527
2710.110160	17392.412333	1413.359375	770.275085
2710.110160	17392.412333	1412.282227	953.960388
2710.110160	17392.412333	1411.205078	1098.244385
2710.110160	17392.412333	1410.127930	1052.901245
2710.110160	17392.412333	1409.049805	940.168579
2710.110160	17392.412333	1407.972656	1218.724365
2710.110160	17392.412333	1406.894531	1437.841797
2710.110160	17392.412333	1405.816406	1401.946899
2710.110160	17392.412333	1404.737305	1390.147095
2710.110160	17392.412333	1403.659180	1576.824097
2710.110160	17392.412333	1402.580078	1705.826416
2710.110160	17392.412333	1401.500977	2029.513062
2710.110160	17392.412333	1400.421875	1952.351807
2710.110160	17392.412333	1399.341797	2162.757080
2710.110160	17392.412333	1398.262695	2032.044434
2710.110160	17392.412333	1397.182617	2122.200684
2710.110160	17392.412333	1396.102539	2429.611816
2710.110160	17392.412333	1395.021484	1999.885986
2710.110160	17392.412333	1393.941406	2290.198486
2710.110160	17392.412333	1392.860352	2345.923096
2710.110160	17392.412333	1391.779297	2599.602051
2710.110160	17392.412333	1390.698242	2426.570068
2710.110160	17392.412333	1389.616211	2446.659424
2710.110160	17392.412333	1388.535156	2450.733154
2710.110160	17392.412333	1387.453125	2539.144287
2710.110160	17392.412333	1386.371094	2512.245850
2710.110160	17392.412333	1385.288086	2375.116211
2710.110160	17392.412333	1384.206055	2315.785156
2710.110160	17392.412333	1383.123047	2360.945068
2710.110160	17392.412333	1382.040039	2200.150879
2710.110160	17392.412333	1380.957031	2442.389648
2710.110160	17392.412333	1379.873047	2795.916504
2710.110160	17392.412333	1378.789063	2447.092773
2710.110160	17392.412333	1377.705078	2317.281982
2710.110160	17392.412333	1376.621094	2416.763672
2710.110160	17392.412333	1375.537109	2136.818115
2710.110160	17392.412333	1374.452148	2277.620850
2710.110160	17392.412333	1373.367188	2483.303955
2710.110160	17392.412333	1372.282227	2628.656738
2710.110160	17392.412333	1371.197266	2291.370850
2710.110160	17392.412333	1370.112305	2208.345215
2710.110160	17392.412333	1369.026367	1963.194092
2710.110160	17392.412333	1367.940430	1830.937256
2710.110160	17392.412333	1366.854492	1938.928345
2710.110160	17392.412333	1365.767578	1525.375977
2710.110160	17392.412333	1364.681641	1633.666992
2710.110160	17392.412333	1363.594727	1386.516968
2710.110160	17392.412333	1362.507813	1343.792236
2710.110160	17392.412333	1361.419922	1358.407227
2710.110160	17392.412333	1360.333008	1411.614380
2710.110160	17392.412333	1359.245117	1170.290894
2710.110160	17392.412333	1358.157227	1088.564209
2710.110160	17392.412333	1357.069336	1123.461914
2710.110160	17392.412333	1355.981445	1110.689453
2710.110160	17392.412333	1354.892578	1231.509277
2710.110160	17392.412333	1353.803711	1227.501465
2710.110160	17392.412333	1352.714844	1274.883057
2710.110160	17392.412333	1351.625000	1436.684570
2710.110160	17392.412333	1350.536133	1290.242432
2710.110160	17392.412333	1349.446289	1576.955322
2710.110160	17392.412333	1348.356445	1754.283447
2710.110160	17392.412333	1347.266602	1353.674194
2710.110160	17392.412333	1346.175781	1666.311401
2710.110160	17392.412333	1345.085938	1684.721069
2710.110160	17392.412333	1343.995117	2049.121826
2710.110160	17392.412333	1342.903320	1744.774170
2710.110160	17392.412333	1341.812500	1940.613525
2710.110160	17392.412333	1340.720703	2145.972656
2710.110160	17392.412333	1339.629883	2103.667480
2710.110160	17392.412333	1338.538086	2253.218506
2710.110160	17392.412333	1337.445313	2292.923096
2710.110160	17392.412333	1336.353516	2135.811523
2710.110160	17392.412333	1335.260742	2239.291748
2710.110160	17392.412333	1334.167969	2428.333984
2710.110160	17392.412333	1333.075195	2676.479248
2710.110160	17392.412333	1331.981445	2647.680176
2710.110160	17392.412333	1330.888672	2725.759033
2710.110160	17392.412333	1329.794922	2815.673340
2710.110160	17392.412333	1328.701172	2810.357666
2710.110160	17392.412333	1327.606445	2843.841064
2710.110160	17392.412333	1326.512695	2984.839844
2710.110160	17392.412333	1325.417969	2780.428955
2710.110160	17392.412333	1324.323242	2822.810547
2710.110160	17392.412333	1323.227539	2800.392822
2710.110160	17392.412333	1322.132813	2875.363770
2710.110160	17392.412333	1321.037109	2937.530029
2710.110160	17392.412333	1319.941406	3211.993164
2710.110160	17392.412333	1318.845703	3023.564453
2710.110160	17392.412333	1317.750000	3227.251465
2710.110160	17392.412333	1316.653320	3210.254150
2710.110160	17392.412333	1315.556641	3240.013672
2710.110160	17392.412333	1314.459961	3170.754883
2710.110160	17392.412333	1313.363281	3400.046387
2710.110160	17392.412333	1312.265625	3724.967041
2710.110160	17392.412333	1311.167969	3480.053467
2710.110160	17392.412333	1310.070313	3430.798340
2710.110160	17392.412333	1308.972656	3455.547119
2710.110160	17392.412333	1307.874023	3572.723145
2710.110160	17392.412333	1306.776367	3558.875488
2710.110160	17392.412333	1305.677734	3433.576416
2710.110160	17392.412333	1304.579102	3303.071533
2710.110160	17392.412333	1303.479492	3499.582520
2710.110160	17392.412333	1302.380859	3581.179688
2710.110160	17392.412333	1301.281250	3522.136963
2710.110160	17392.412333	1300.181641	3427.500732
2710.110160	17392.412333	1299.081055	3394.113770
2710.110160	17392.412333	1297.981445	3141.676758
2710.110160	17392.412333	1296.880859	3324.443115
2710.110160	17392.412333	1295.780273	2974.260986
2710.110160	17392.412333	1294.679688	2866.284668
2710.110160	17392.412333	1293.578125	2498.043457
2710.110160	17392.412333	1292.476563	2313.866211
2710.110160	17392.412333	1291.375000	2006.778564
2710.110160	17392.412333	1290.273438	1824.833252
2710.110160	17392.412333	1289.171875	1466.218140
2710.110160	17392.412333	1288.069336	1449.776978
2710.110160	17392.412333	1286.966797	1473.639160
2710.110160	17392.412333	1285.864258	1341.841797
2710.110160	17392.412333	1284.761719	967.240967
2710.110160	17392.412333	1283.658203	1102.328735
2710.110160	17392.412333	1282.554688	964.130981
2710.110160	17392.412333	1281.451172	1051.733887
2710.110160	17392.412333	1280.347656	1150.727417
2710.110160	17392.412333	1279.244141	1028.412720
2710.110160	17392.412333	1278.139648	1056.249146
2710.110160	17392.412333	1277.035156	909.924316
2710.110160	17392.412333	1275.930664	1038.655273
2710.110160	17392.412333	1274.825195	924.753174
2710.110160	17392.412333	1273.720703	615.698364
2710.110160	17392.412333	1272.615234	859.897644
2710.110160	17392.412333	1271.508789	744.947144
2710.110160	17392.412333	1270.403320	890.278381
2710.110160	17392.412333	1269.297852	769.507080
2710.110160	17392.412333	1268.191406	647.215820
2710.110160	17392.412333	1267.084961	758.959412
2710.110160	17392.412333	1265.977539	550.435669
2710.110160	17392.412333	1264.871094	693.396423
2710.110160	17392.412333	1263.763672	397.059265
2710.110160	17392.412333	1262.656250	681.779785
2710.110160	17392.412333	1261.548828	630.544678
2710.110160	17392.412333	1260.440430	732.276367
2710.110160	17392.412333	1259.333008	710.847900
2710.110160	17392.412333	1258.224609	672.058838
2710.110160	17392.412333	1257.115234	689.886169
2710.110160	17392.412333	1256.006836	687.099365
2710.110160	17392.412333	1254.897461	803.289124
2710.110160	17392.412333	1253.788086	944.631409
2710.110160	17392.412333	1252.678711	930.679321
2710.110160	17392.412333	1251.569336	974.489929
2710.110160	17392.412333	1250.458984	1008.419373
2710.110160	17392.412333	1249.349609	953.895447
2710.110160	17392.412333	1248.239258	1326.879883
2710.110160	17392.412333	1247.127930	915.554688
2710.110160	17392.412333	1246.017578	970.912292
2710.110160	17392.412333	1244.906250	1044.998291
2710.110160	17392.412333	1243.794922	991.127625
2710.110160	17392.412333	1242.683594	972.474487
2710.110160	17392.412333	1241.571289	818.998352
2710.110160	17392.412333	1240.459961	900.533813
2710.110160	17392.412333	1239.347656	737.093018
2710.110160	17392.412333	1238.234375	753.619873
2710.110160	17392.412333	1237.122070	748.542603
2710.110160	17392.412333	1236.008789	581.571716
2710.110160	17392.412333	1234.896484	568.718689
2710.110160	17392.412333	1233.782227	507.236572
2710.110160	17392.412333	1232.668945	477.492615
2710.110160	17392.412333	1231.555664	452.281189
2710.110160	17392.412333	1230.441406	510.771606
2710.110160	17392.412333	1229.327148	534.345520
2710.110160	17392.412333	1228.211914	476.061859
2710.110160	17392.412333	1227.097656	468.123993
2710.110160	17392.412333	1225.982422	482.643250
2710.110160	17392.412333	1224.867188	394.397888
2710.110160	17392.412333	1223.751953	320.754883
2710.110160	17392.412333	1222.635742	374.730896
2710.110160	17392.412333	1221.520508	332.338440
2710.110160	17392.412333	1220.404297	269.057587
2710.110160	17392.412333	1219.287109	300.837128
2710.110160	17392.412333	1218.170898	365.118561
2710.110160	17392.412333	1217.053711	295.993011
2710.110160	17392.412333	1215.936523	293.253906
2710.110160	17392.412333	1214.819336	284.861023
2710.110160	17392.412333	1213.702148	443.537750
2710.110160	17392.412333	1212.583984	354.226257
2710.110160	17392.412333	1211.465820	195.044510
2710.110160	17392.412333	1210.347656	324.873138
2710.110160	17392.412333	1209.229492	370.505951
2710.110160	17392.412333	1208.110352	193.336121
2710.110160	17392.412333	1206.992188	227.843445
2710.110160	17392.412333	1205.873047	225.516510
2710.110160	17392.412333	1204.752930	357.052307
2710.110160	17392.412333	1203.633789	339.490570
2710.110160	17392.412333	1202.513672	373.901611
2710.110160	17392.412333	1201.393555	257.022095
2710.110160	17392.412333	1200.273438	288.681122
2710.110160	17392.412333	1199.152344	310.197174
2710.110160	17392.412333	1198.032227	311.546295
2710.110160	17392.412333	1196.911133	371.061859
2710.110160	17392.412333	1195.790039	391.177216
2710.110160	17392.412333	1194.667969	434.990021
2710.110160	17392.412333	1193.545898	356.635864
2710.110160	17392.412333	1192.424805	121.926544
2710.110160	17392.412333	1191.301758	116.599838
2710.110160	17392.412333	1190.179688	0.933658
2710.110160	17392.412333	1189.056641	152.837677
2710.110160	17392.412333	1187.933594	-64.139923
2710.110160	17392.412333	1186.810547	-97.245148
2710.110160	17392.412333	1185.687500	26.821917
2710.110160	17392.412333	1184.563477	-78.200035
2710.110160	17392.412333	1183.440430	-29.590828
2710.110160	17392.412333	1182.316406	176.270309
2710.110160	17392.412333	1181.191406	157.410660
2710.110160	17392.412333	1180.067383	142.990341
2710.110160	17392.412333	1178.942383	136.924622
2710.110160	17392.412333	1177.817383	149.151138
2710.110160	17392.412333	1176.692383	88.950386
2710.110160	17392.412333	1175.566406	141.781219
2710.110160	17392.412333	1174.440430	166.424347
2710.110160	17392.412333	1173.314453	125.899529
2710.110160	17392.412333	1172.188477	0.787114
2710.110160	17392.412333	1171.062500	127.392067
2710.110160	17392.412333	1169.935547	54.730534
2710.110160	17392.412333	1168.808594	167.567062
2710.110160	17392.412333	1167.681641	69.786751
2710.110160	17392.412333	1166.553711	135.663315
2710.110160	17392.412333	1165.426758	-52.704277
2710.110160	17392.412333	1164.298828	23.825773
2710.110160	17392.412333	1163.170898	53.019493
2710.110160	17392.412333	1162.041992	-27.741282
2710.110160	17392.412333	1160.914063	-54.857822
2710.110160	17392.412333	1159.785156	-290.320801
2710.110160	17392.412333	1158.656250	124.379349
2710.110160	17392.412333	1157.526367	-113.639488
2710.110160	17392.412333	1156.397461	-189.271973
2710.110160	17392.412333	1155.267578	-26.389324
2710.110160	17392.412333	1154.137695	-56.416115
2710.110160	17392.412333	1153.006836	-83.235771
2710.110160	17392.412333	1151.876953	-9.804672
2710.110160	17392.412333	1150.746094	-16.832605
2710.110160	17392.412333	1149.615234	-120.802315
2710.110160	17392.412333	1148.484375	4.337508
2710.110160	17392.412333	1147.352539	-175.453201
2710.110160	17392.412333	1146.220703	-119.775055
2710.110160	17392.412333	1145.088867	-43.653831
2710.110160	17392.412333	1143.957031	-257.862366
2710.110160	17392.412333	1142.825195	-136.525101
2710.110160	17392.412333	1141.692383	-265.128754
2710.110160	17392.412333	1140.559570	-254.049805
2710.110160	17392.412333	1139.426758	-130.886215
2710.110160	17392.412333	1138.292969	-257.683624
2710.110160	17392.412333	1137.159180	-284.330811
2710.110160	17392.412333	1136.025391	-459.281219
2710.110160	17392.412333	1134.891602	-184.152298
2710.110160	17392.412333	1133.757813	-162.104492
2710.110160	17392.412333	1132.623047	-85.186783
2710.110160	17392.412333	1131.488281	79.542671
2710.110160	17392.412333	1130.353516	-12.359734
2710.110160	17392.412333	1129.217773	59.083138
2710.110160	17392.412333	1128.083008	-120.348373
2710.110160	17392.412333	1126.947266	-114.275070
2710.110160	17392.412333	1125.811523	-65.020172
2710.110160	17392.412333	1124.674805	-20.518051
2710.110160	17392.412333	1123.539063	-80.662323
2710.110160	17392.412333	1122.402344	-127.373344
2710.110160	17392.412333	1121.265625	-24.668257
2710.110160	17392.412333	1120.127930	-41.301094
2710.110160	17392.412333	1118.990234	146.772751
2710.110160	17392.412333	1117.853516	85.671562
2710.110160	17392.412333	1116.714844	0.127034
2710.110160	17392.412333	1115.577148	156.574295
2710.110160	17392.412333	1114.439453	160.266953
2710.110160	17392.412333	1113.300781	82.525658
2710.110160	17392.412333	1112.162109	3.456231
2710.110160	17392.412333	1111.022461	25.451385
2710.110160	17392.412333	1109.883789	97.498947
2710.110160	17392.412333	1108.744141	-86.051247
2710.110160	17392.412333	1107.604492	-39.143707
2710.110160	17392.412333	1106.463867	45.960609
2710.110160	17392.412333	1105.324219	46.960335
2710.110160	17392.412333	1104.183594	-18.113819
2710.110160	17392.412333	1103.042969	60.818508
2710.110160	17392.412333	1101.902344	151.694870
2710.110160	17392.412333	1100.760742	5.648395
2710.110160	17392.412333	1099.619141	399.429688
2710.110160	17392.412333	1098.477539	140.009537
2710.110160	17392.412333	1097.335938	282.070679
2710.110160	17392.412333	1096.193359	63.405991
2710.110160	17392.412333	1095.051758	158.856674
2710.110160	17392.412333	1093.909180	258.567932
2710.110160	17392.412333	1092.765625	318.198761
2710.110160	17392.412333	1091.623047	29.009930
2710.110160	17392.412333	1090.479492	462.212494
2710.110160	17392.412333	1089.335938	295.063873
2710.110160	17392.412333	1088.192383	410.493011
2710.110160	17392.412333	1087.047852	309.669037
2710.110160	17392.412333	1085.903320	285.501129
2710.110160	17392.412333	1084.758789	422.876190
2710.110160	17392.412333	1083.614258	510.663605
2710.110160	17392.412333	1082.469727	483.141907
2710.110160	17392.412333	1081.324219	435.106750
2710.110160	17392.412333	1080.178711	633.976624
2710.110160	17392.412333	1079.033203	409.585815
2710.110160	17392.412333	1077.886719	550.768738
2710.110160	17392.412333	1076.740234	681.096558
2710.110160	17392.412333	1075.593750	748.219910
2710.110160	17392.412333	1074.447266	917.759277
2710.110160	17392.412333	1073.300781	752.871155
2710.110160	17392.412333	1072.153320	636.529236
2710.110160	17392.412333	1071.005859	536.423401
2710.110160	17392.412333	1069.858398	483.078278
2710.110160	17392.412333	1068.709961	671.979065
2710.110160	17392.412333	1067.561523	509.631378
2710.110160	17392.412333	1066.413086	340.500397
2710.110160	17392.412333	1065.264648	235.093262
2710.110160	17392.412333	1064.116211	419.173096
2710.110160	17392.412333	1062.966797	380.836853
2710.110160	17392.412333	1061.817383	386.508606
2710.110160	17392.412333	1060.667969	264.146790
2710.110160	17392.412333	1059.517578	336.631317
2710.110160	17392.412333	1058.368164	438.941681
2710.110160	17392.412333	1057.217773	140.100006
2710.110160	17392.412333	1056.067383	-16.890053
2710.110160	17392.412333	1054.916016	-59.127407
2710.110160	17392.412333	1053.764648	52.246326
2710.110160	17392.412333	1052.613281	-75.525253
2710.110160	17392.412333	1051.461914	-11.544230
2710.110160	17392.412333	1050.310547	-117.976181
2710.110160	17392.412333	1049.158203	7.845155
2710.110160	17392.412333	1048.005859	144.849960
2710.110160	17392.412333	1046.853516	30.310184
2710.110160	17392.412333	1045.700195	-93.146248
2710.110160	17392.412333	1044.547852	127.716385
2710.110160	17392.412333	1043.394531	210.120178
2710.110160	17392.412333	1042.240234	152.391541
2710.110160	17392.412333	1041.086914	186.864380
2710.110160	17392.412333	1039.932617	294.375519
2710.110160	17392.412333	1038.778320	115.055138
2710.110160	17392.412333	1037.624023	229.098053
2710.110160	17392.412333	1036.469727	402.405182
2710.110160	17392.412333	1035.314453	447.786346
2710.110160	17392.412333	1034.159180	442.536102
2710.110160	17392.412333	1033.003906	658.403076
2710.110160	17392.412333	1031.847656	547.676270
2710.110160	17392.412333	1030.692383	684.555481
2710.110160	17392.412333	1029.536133	550.546936
2710.110160	17392.412333	1028.378906	630.756470
2710.110160	17392.412333	1027.222656	525.357849
2710.110160	17392.412333	1026.065430	379.375488
2710.110160	17392.412333	1024.908203	546.160339
2710.110160	17392.412333	1023.750977	247.950180
2710.110160	17392.412333	1022.593750	147.744705
2710.110160	17392.412333	1021.435547	224.416199
2710.110160	17392.412333	1020.277344	168.335526
2710.110160	17392.412333	1019.119141	299.070618
2710.110160	17392.412333	1017.959961	207.079559
2710.110160	17392.412333	1016.800781	191.950195
2710.110160	17392.412333	1015.641602	297.215363
2710.110160	17392.412333	1014.482422	-20.265965
2710.110160	17392.412333	1013.323242	26.268541
2710.110160	17392.412333	1012.163086	127.346863
2710.110160	17392.412333	1011.002930	65.615875
2710.110160	17392.412333	1009.842773	-30.881826
2710.110160	17392.412333	1008.681641	-99.364563
2710.110160	17392.412333	1007.520508	118.120445
2710.110160	17392.412333	1006.359375	391.529846
2710.110160	17392.412333	1005.198242	442.899445
2710.110160	17392.412333	1004.037109	431.392883
2710.110160	17392.412333	1002.875000	363.231934
2710.110160	17392.412333	1001.712891	498.980133
2710.110160	17392.412333	1000.550781	369.385132
2710.110160	17392.412333	999.387695	506.983887
2710.110160	17392.412333	998.224609	332.926117
2710.110160	17392.412333	997.061523	65.998520
2710.110160	17392.412333	995.898438	139.256439
2710.110160	17392.412333	994.734375	34.868389
2710.110160	17392.412333	993.571289	197.205170
2710.110160	17392.412333	992.407227	36.797466
2710.110160	17392.412333	991.242188	-84.980263
2710.110160	17392.412333	990.078125	129.268570
2710.110160	17392.412333	988.913086	-256.353485
2710.110160	17392.412333	987.748047	-65.876762
2710.110160	17392.412333	986.583008	25.552849
2710.110160	17392.412333	985.416992	24.368984
2710.110160	17392.412333	984.250977	83.368622
2710.110160	17392.412333	983.084961	96.993797
2710.110160	17392.412333	981.918945	-65.430656
2710.110160	17392.412333	980.751953	-279.709656
2710.110160	17392.412333	979.584961	153.095657
2710.110160	17392.412333	978.417969	-20.184050
2710.110160	17392.412333	977.250977	-58.714149
2710.110160	17392.412333	976.083008	-206.471695
2710.110160	17392.412333	974.915039	-127.540047
2710.110160	17392.412333	973.747070	-132.906876
2710.110160	17392.412333	972.579102	57.448936
2710.110160	17392.412333	971.410156	-102.715523
2710.110160	17392.412333	970.242188	137.244583
2710.110160	17392.412333	969.072266	196.539536
2710.110160	17392.412333	967.903320	41.873337
2710.110160	17392.412333	966.733398	153.391113
2710.110160	17392.412333	965.563477	497.913269
2710.110160	17392.412333	964.393555	307.910126
2710.110160	17392.412333	963.223633	552.512207
2710.110160	17392.412333	962.052734	603.727051
2710.110160	17392.412333	960.881836	416.422180
2710.110160	17392.412333	959.710938	577.273987
2710.110160	17392.412333	958.540039	476.983276
2710.110160	17392.412333	957.368164	401.490967
2710.110160	17392.412333	956.196289	409.174561
2710.110160	17392.412333	955.024414	452.920410
2710.110160	17392.412333	953.851563	316.917328
2710.110160	17392.412333	952.679688	181.640854
2710.110160	17392.412333	951.506836	106.255203
2710.110160	17392.412333	950.333984	93.333389
2710.110160	17392.412333	949.160156	75.047455
2710.110160	17392.412333	947.986328	16.073082
2710.110160	17392.412333	946.812500	-24.217110
2710.110160	17392.412333	945.638672	-45.108688
2710.110160	17392.412333	944.464844	58.708469
2710.110160	17392.412333	943.290039	142.563370
2710.110160	17392.412333	942.115234	311.498108
2710.110160	17392.412333	940.940430	528.040588
2710.110160	17392.412333	939.764648	369.848816
2710.110160	17392.412333	938.588867	655.736389
2710.110160	17392.412333	937.413086	279.628784
2710.110160	17392.412333	936.237305	653.062622
2710.110160	17392.412333	935.060547	206.984650
2710.110160	17392.412333	933.883789	70.770370
2710.110160	17392.412333	932.707031	206.578476
2710.110160	17392.412333	931.530273	225.099899
2710.110160	17392.412333	930.352539	71.213898
2710.110160	17392.412333	929.175781	-0.216440
2710.110160	17392.412333	927.998047	-14.386295
2710.110160	17392.412333	926.819336	118.692001
2710.110160	17392.412333	925.641602	7.140567
2710.110160	17392.412333	924.462891	-86.933311
2710.110160	17392.412333	923.284180	98.358833
2710.110160	17392.412333	922.104492	-152.913651
2710.110160	17392.412333	920.924805	-0.193260
2710.110160	17392.412333	919.746094	2.723132
2710.110160	17392.412333	919.551758	48.190632
2710.110160	17392.412333	918.386719	58.605156
2710.110160	17392.412333	917.220703	-95.500122
2710.110160	17392.412333	916.054688	29.458780
2710.110160	17392.412333	914.887695	141.870270
2710.110160	17392.412333	913.721680	97.288849
2710.110160	17392.412333	912.554688	50.194958
2710.110160	17392.412333	911.387695	30.460800
2710.110160	17392.412333	910.220703	35.580925
2710.110160	17392.412333	909.052734	137.707199
2710.110160	17392.412333	907.885742	23.297800
2710.110160	17392.412333	906.717773	172.561295
2710.110160	17392.412333	905.548828	120.285057
2710.110160	17392.412333	904.380859	199.766342
2710.110160	17392.412333	903.211914	149.908783
2710.110160	17392.412333	902.042969	129.856339
2710.110160	17392.412333	900.874023	84.921844
2710.110160	17392.412333	899.704102	166.671921
2710.110160	17392.412333	898.535156	188.734177
2710.110160	17392.412333	897.365234	54.297073
2710.110160	17392.412333	896.194336	19.192879
2710.110160	17392.412333	895.024414	257.121674
2710.110160	17392.412333	893.853516	254.176941
2710.110160	17392.412333	892.682617	92.389587
2710.110160	17392.412333	891.511719	57.152504
2710.110160	17392.412333	890.340820	116.145699
2710.110160	17392.412333	889.168945	219.716675
2710.110160	17392.412333	887.997070	25.688419
2710.110160	17392.412333	886.825195	141.555359
2710.110160	17392.412333	885.653320	-30.145086
2710.110160	17392.412333	884.480469	58.359249
2710.110160	17392.412333	883.307617	-95.984535
2710.110160	17392.412333	882.134766	-22.434950
2710.110160	17392.412333	880.961914	60.954571
2710.110160	17392.412333	879.788086	144.275406
2710.110160	17392.412333	878.614258	158.219849
2710.110160	17392.412333	877.440430	142.426834
2710.110160	17392.412333	876.266602	37.532375
2710.110160	17392.412333	875.091797	187.445084
2710.110160	17392.412333	873.916992	67.677658
2710.110160	17392.412333	872.742188	133.381714
2710.110160	17392.412333	871.567383	16.078985
2710.110160	17392.412333	870.391602	-61.659950
2710.110160	17392.412333	869.215820	21.230453
2710.110160	17392.412333	868.040039	47.225998
2710.110160	17392.412333	866.864258	-225.717056
2710.110160	17392.412333	865.687500	-54.033104
2710.110160	17392.412333	864.510742	-129.371384
2710.110160	17392.412333	863.333984	-83.745361
2710.110160	17392.412333	862.157227	-302.266174
2710.110160	17392.412333	860.979492	-355.393738
2710.110160	17392.412333	859.802734	-243.231155
2710.110160	17392.412333	858.625000	-153.345917
2710.110160	17392.412333	857.446289	-194.234024
2710.110160	17392.412333	856.268555	-343.627319
2710.110160	17392.412333	855.089844	-204.566177
2710.110160	17392.412333	853.911133	-186.361710
2710.110160	17392.412333	852.731445	-59.771927
2710.110160	17392.412333	851.552734	-169.775528
2710.110160	17392.412333	850.373047	-144.291031
2710.110160	17392.412333	849.193359	-20.343351
2710.110160	17392.412333	848.013672	-73.748779
2710.110160	17392.412333	846.833008	-53.314274
2710.110160	17392.412333	845.652344	38.453854
2710.110160	17392.412333	844.471680	58.795956
2710.110160	17392.412333	843.291016	20.057846
2710.110160	17392.412333	842.110352	47.715225
2710.110160	17392.412333	840.928711	134.348663
2710.110160	17392.412333	839.747070	107.823067
2710.110160	17392.412333	838.564453	-110.451958
2710.110160	17392.412333	837.382813	-26.386217
2710.110160	17392.412333	836.200195	-107.007263
2710.110160	17392.412333	835.017578	-273.603455
2710.110160	17392.412333	833.834961	-155.259674
2710.110160	17392.412333	832.651367	-248.170929
2710.110160	17392.412333	831.467773	-152.034683
2710.110160	17392.412333	830.284180	-141.876266
2710.110160	17392.412333	829.100586	-171.015930
2710.110160	17392.412333	827.916992	-266.418457
2710.110160	17392.412333	826.732422	-224.441086
2710.110160	17392.412333	825.547852	-231.561493
2710.110160	17392.412333	824.363281	28.561224
2710.110160	17392.412333	823.177734	70.363655
2710.110160	17392.412333	821.992188	50.844788
2710.110160	17392.412333	820.806641	-22.605698
2710.110160	17392.412333	819.621094	244.492706
2710.110160	17392.412333	818.434570	95.040375
2710.110160	17392.412333	817.249023	-61.727238
2710.110160	17392.412333	816.062500	-44.616863
2710.110160	17392.412333	814.875000	129.125366
2710.110160	17392.412333	813.688477	-113.299164
2710.110160	17392.412333	812.500977	-98.723679
2710.110160	17392.412333	811.313477	-45.040634
2710.110160	17392.412333	810.125977	-72.125015
2710.110160	17392.412333	808.937500	113.524910
2710.110160	17392.412333	807.749023	61.911297
2710.110160	17392.412333	806.560547	-77.709015
2710.110160	17392.412333	805.372070	-109.768646
2710.110160	17392.412333	804.182617	36.524086
2710.110160	17392.412333	802.994141	-20.033319
2710.110160	17392.412333	801.803711	47.964340
2710.110160	17392.412333	800.614258	23.112835
2710.110160	17392.412333	799.424805	25.098339
2710.110160	17392.412333	798.234375	100.279778
2710.110160	17392.412333	797.043945	97.307930
2710.110160	17392.412333	795.852539	21.111013
2710.110160	17392.412333	794.662109	257.155792
2710.110160	17392.412333	793.470703	5.300630
2710.110160	17392.412333	792.279297	-9.958878
2710.110160	17392.412333	791.087891	191.726868
2710.110160	17392.412333	789.895508	61.820137
2710.110160	17392.412333	788.703125	80.584175
2710.110160	17392.412333	787.510742	272.290436
2710.110160	17392.412333	786.318359	-79.302269
2710.110160	17392.412333	785.125000	131.780899
2710.110160	17392.412333	783.931641	221.005432
2710.110160	17392.412333	782.738281	69.165268
2710.110160	17392.412333	781.544922	-65.604851
2710.110160	17392.412333	780.350586	52.713806
2710.110160	17392.412333	779.156250	-45.565536
2710.110160	17392.412333	777.961914	347.489746
2710.110160	17392.412333	776.767578	319.652069
2710.110160	17392.412333	775.572266	235.875610
2710.110160	17392.412333	774.376953	127.795021
2710.110160	17392.412333	773.181641	-126.086792
2710.110160	17392.412333	771.986328	132.788742
2710.110160	17392.412333	770.790039	-33.596931
2710.110160	17392.412333	769.593750	280.952423
2710.110160	17392.412333	768.397461	129.114517
2710.110160	17392.412333	767.201172	326.904999
2710.110160	17392.412333	766.003906	354.676300
2710.110160	17392.412333	764.806641	93.621811
2710.110160	17392.412333	763.609375	271.795258
2710.110160	17392.412333	762.412109	100.557961
2710.110160	17392.412333	761.213867	535.668518
2710.110160	17392.412333	760.015625	364.385925
2710.110160	17392.412333	758.817383	171.326324
2710.110160	17392.412333	757.618164	404.888916
2710.110160	17392.412333	756.419922	371.771484
2710.110160	17392.412333	755.220703	474.308441
2710.110160	17392.412333	754.021484	390.261780
2710.110160	17392.412333	752.821289	475.737640
2710.110160	17392.412333	751.621094	367.452179
2710.110160	17392.412333	750.420898	203.505005
2710.110160	17392.412333	749.220703	199.328781
2710.110160	17392.412333	748.020508	531.457703
2710.110160	17392.412333	746.819336	430.384552
2710.110160	17392.412333	745.618164	293.043335
2710.110160	17392.412333	744.416992	310.491760
2710.110160	17392.412333	743.214844	158.663864
2710.110160	17392.412333	742.012695	234.082672
2710.110160	17392.412333	740.810547	355.354675
2710.110160	17392.412333	739.608398	471.714355
2710.110160	17392.412333	738.406250	638.723267
2710.110160	17392.412333	737.203125	689.704041
2710.110160	17392.412333	736.000000	1035.218872
2710.110160	17392.412333	734.795898	1370.901001
2710.110160	17392.412333	733.592773	1754.686523
2710.110160	17392.412333	732.388672	2032.102173
2710.110160	17392.412333	731.184570	1906.465454
2710.110160	17392.412333	729.979492	1968.994141
2710.110160	17392.412333	728.775391	2021.822998
2710.110160	17392.412333	727.570313	1510.399414
2710.110160	17392.412333	726.365234	1281.200195
2710.110160	17392.412333	725.160156	1172.572021
2710.110160	17392.412333	723.954102	784.445679
2710.110160	17392.412333	722.748047	890.314392
2710.110160	17392.412333	721.541992	870.863892
2710.110160	17392.412333	720.334961	755.066956
2710.110160	17392.412333	719.128906	810.229370
2710.110160	17392.412333	717.921875	862.930359
2710.110160	17392.412333	716.714844	484.805817
2710.110160	17392.412333	715.506836	304.106842
2710.110160	17392.412333	714.298828	198.026016
2710.110160	17392.412333	713.090820	164.114288
2710.110160	17392.412333	711.882813	91.715591
2710.110160	17392.412333	710.674805	283.763733
2710.110160	17392.412333	709.465820	134.399323
2710.110160	17392.412333	708.256836	110.027031
2710.110160	17392.412333	707.047852	446.018158
2710.110160	17392.412333	705.837891	363.886353
2710.110160	17392.412333	704.627930	469.080292
2710.110160	17392.412333	703.417969	281.279877
2710.110160	17392.412333	702.208008	588.037109
2710.110160	17392.412333	700.998047	654.639404
2710.110160	17392.412333	699.787109	685.191101
2710.110160	17392.412333	698.576172	550.174194
2710.110160	17392.412333	697.364258	669.426514
2710.110160	17392.412333	696.153320	332.986206
2710.110160	17392.412333	694.941406	339.502136
2710.110160	17392.412333	693.729492	362.768921
2710.110160	17392.412333	692.516602	266.175110
2710.110160	17392.412333	691.304688	378.050049
2710.110160	17392.412333	690.091797	343.728027
2710.110160	17392.412333	688.878906	450.700073
2710.110160	17392.412333	687.665039	452.244324
2710.110160	17392.412333	686.451172	235.914337
2710.110160	17392.412333	685.237305	409.787628
2710.110160	17392.412333	684.023438	528.526611
2710.110160	17392.412333	682.809570	436.658051
2710.110160	17392.412333	681.594727	521.808655
2710.110160	17392.412333	680.379883	621.249878
2710.110160	17392.412333	679.165039	603.473328
2710.110160	17392.412333	677.949219	707.592957
2710.110160	17392.412333	676.733398	725.610840
2710.110160	17392.412333	675.517578	757.938477
2710.110160	17392.412333	674.301758	871.456116
2710.110160	17392.412333	673.084961	865.482910
2710.110160	17392.412333	671.869141	811.738403
2710.110160	17392.412333	670.651367	531.187622
2710.110160	17392.412333	669.434570	742.445618
2710.110160	17392.412333	668.216797	454.833466
2710.110160	17392.412333	667.000000	711.317139
2710.110160	17392.412333	665.781250	674.264771
2710.110160	17392.412333	664.563477	720.687134
2710.110160	17392.412333	663.344727	716.999023
2710.110160	17392.412333	662.125977	563.112854
2710.110160	17392.412333	660.907227	640.465698
2710.110160	17392.412333	659.688477	813.087341
2710.110160	17392.412333	658.468750	816.470642
2710.110160	17392.412333	657.249023	829.367859
2710.110160	17392.412333	656.029297	711.269836
2710.110160	17392.412333	654.808594	871.770874
2710.110160	17392.412333	653.587891	841.763062
2710.110160	17392.412333	652.367188	785.577026
2710.110160	17392.412333	651.146484	865.029663
2710.110160	17392.412333	649.924805	825.492798
2710.110160	17392.412333	648.704102	612.344666
2710.110160	17392.412333	647.482422	772.600708
2710.110160	17392.412333	646.259766	830.551514
2710.110160	17392.412333	645.037109	596.116577
2710.110160	17392.412333	643.815430	741.994629
2710.110160	17392.412333	642.591797	887.797852
2710.110160	17392.412333	641.369141	895.766785
2710.110160	17392.412333	640.145508	879.976440
2710.110160	17392.412333	638.921875	778.711548
2710.110160	17392.412333	637.698242	741.579224
2710.110160	17392.412333	636.474609	804.139526
2710.110160	17392.412333	635.250000	745.654053
2710.110160	17392.412333	634.025391	739.382080
2710.110160	17392.412333	632.800781	578.942444
2710.110160	17392.412333	631.575195	608.274292
2710.110160	17392.412333	630.349609	455.039398
2710.110160	17392.412333	629.124023	372.980560
2710.110160	17392.412333	627.898438	708.046692
2710.110160	17392.412333	626.671875	701.787415
2710.110160	17392.412333	625.445313	667.107544
2710.110160	17392.412333	624.218750	592.185486
2710.110160	17392.412333	622.992188	673.573730
2710.110160	17392.412333	621.764648	530.035706
2710.110160	17392.412333	620.537109	452.833771
2710.110160	17392.412333	619.309570	489.253693
2710.110160	17392.412333	618.081055	487.809967
2710.110160	17392.412333	616.852539	623.561768
2710.110160	17392.412333	615.624023	414.002960
2710.110160	17392.412333	614.395508	526.086365
2710.110160	17392.412333	613.166992	321.382965
2710.110160	17392.412333	611.937500	357.830170
2710.110160	17392.412333	610.708008	257.231232
2710.110160	17392.412333	609.477539	192.118286
2710.110160	17392.412333	608.248047	426.995544
2710.110160	17392.412333	607.017578	286.338715
2710.110160	17392.412333	605.787109	287.402191
2710.110160	17392.412333	604.555664	194.065796
2710.110160	17392.412333	603.325195	107.865883
2710.110160	17392.412333	602.093750	123.165932
2710.110160	17392.412333	600.861328	150.266449
2710.110160	17392.412333	599.629883	12.295511
2710.110160	17392.412333	598.397461	105.461388
2710.110160	17392.412333	597.165039	146.746887
2710.110160	17392.412333	595.932617	-85.353195
2710.110160	17392.412333	594.699219	255.238358
2710.110160	17392.412333	593.465820	58.589222
2710.110160	17392.412333	592.232422	-119.112434
2710.110160	17392.412333	590.999023	54.143776
2710.110160	17392.412333	589.764648	36.650944
2710.110160	17392.412333	588.530273	-44.362209
2710.110160	17392.412333	587.295898	-125.317902
2710.110160	17392.412333	586.061523	214.929962
2710.110160	17392.412333	584.826172	296.307343
2710.110160	17392.412333	583.590820	36.670807
2710.110160	17392.412333	582.355469	-27.674406
2710.110160	17392.412333	581.119141	42.025822
2710.110160	17392.412333	579.882813	-5.789045
2710.110160	17392.412333	578.646484	21.637405
2710.110160	17392.412333	577.410156	121.907280
2710.110160	17392.412333	576.172852	85.932938
2710.110160	17392.412333	574.935547	31.219131
2710.110160	17392.412333	573.698242	173.769287
2710.110160	17392.412333	572.460938	32.273365
2710.110160	17392.412333	571.222656	153.702362
2710.110160	17392.412333	569.984375	265.725891
2710.110160	17392.412333	568.746094	279.212585
2710.110160	17392.412333	567.506836	302.106140
2710.110160	17392.412333	566.267578	221.853378
2710.110160	17392.412333	565.028320	61.965462
2710.110160	17392.412333	563.789063	136.554077
2710.110160	17392.412333	562.548828	250.978012
2710.110160	17392.412333	561.309570	196.712189
2710.110160	17392.412333	560.068359	442.307861
2710.110160	17392.412333	558.828125	193.729019
2710.110160	17392.412333	557.586914	294.135345
2710.110160	17392.412333	556.345703	165.142181
2710.110160	17392.412333	555.104492	136.870911
2710.110160	17392.412333	553.863281	61.852951
2710.110160	17392.412333	552.621094	-10.757931
2710.110160	17392.412333	551.378906	-190.882690
2710.110160	17392.412333	550.136719	-146.422562
2710.110160	17392.412333	548.893555	-155.714005
2710.110160	17392.412333	547.650391	-34.078545
2710.110160	17392.412333	546.407227	5.756325
2710.110160	17392.412333	545.164063	-96.898842
2710.110160	17392.412333	543.919922	-49.986938
2710.110160	17392.412333	542.675781	-70.778954
2710.110160	17392.412333	541.431641	-131.215393
2710.110160	17392.412333	540.186523	165.547943
2710.110160	17392.412333	538.941406	-41.865589
2710.110160	17392.412333	537.696289	-64.827263
2710.110160	17392.412333	536.451172	201.517181
2710.110160	17392.412333	535.205078	-10.324985
2710.110160	17392.412333	533.959961	146.374084
2710.110160	17392.412333	532.712891	293.715820
2710.110160	17392.412333	531.466797	336.147858
2710.110160	17392.412333	530.219727	-8.223198
2710.110160	17392.412333	528.972656	162.459839
2710.110160	17392.412333	527.725586	25.645660
2710.110160	17392.412333	526.478516	124.125732
2710.110160	17392.412333	525.230469	273.817383
2710.110160	17392.412333	523.982422	-67.675468
2710.110160	17392.412333	522.734375	-73.867134
2710.110160	17392.412333	521.485352	-377.848175
2710.110160	17392.412333	520.236328	-60.561760
2710.110160	17392.412333	518.987305	-24.796780
2710.110160	17392.412333	517.737305	-72.726883
2710.110160	17392.412333	516.488281	-69.464508
2710.110160	17392.412333	515.238281	-249.790695
2710.110160	17392.412333	513.988281	-348.684143
2710.110160	17392.412333	512.737305	-252.356705
2710.110160	17392.412333	511.486328	-77.074326
2710.110160	17392.412333	510.235352	86.543610
2710.110160	17392.412333	508.984375	66.696014
2710.110160	17392.412333	507.732422	-257.208038
2710.110160	17392.412333	506.480469	231.308350
2710.110160	17392.412333	505.228516	134.928284
2710.110160	17392.412333	503.976563	-0.829274
2710.110160	17392.412333	502.723633	-138.834732
2710.110160	17392.412333	501.470703	22.350374
2710.110160	17392.412333	500.217773	246.071014
2710.110160	17392.412333	498.963867	284.282745
2710.110160	17392.412333	497.709961	60.634720
2710.110160	17392.412333	496.456055	64.130882
2710.110160	17392.412333	495.202148	169.543625
2710.110160	17392.412333	493.947266	29.441500
2710.110160	17392.412333	492.692383	-66.611588
2710.110160	17392.412333	491.437500	29.499296
2710.110160	17392.412333	490.181641	-15.608698
2710.110160	17392.412333	488.926758	-141.685715
2710.110160	17392.412333	487.670898	-295.478729
2710.110160	17392.412333	486.414063	122.034134
2710.110160	17392.412333	485.158203	-249.131912
2710.110160	17392.412333	483.901367	-51.461407
2710.110160	17392.412333	482.644531	-168.230927
2710.110160	17392.412333	481.386719	75.506050
2710.110160	17392.412333	480.128906	90.392731
2710.110160	17392.412333	478.871094	12.851776
2710.110160	17392.412333	477.613281	108.506943
2710.110160	17392.412333	476.355469	30.924274
2710.110160	17392.412333	475.096680	283.419830
2710.110160	17392.412333	473.837891	201.132523
2710.110160	17392.412333	472.578125	-93.439247
2710.110160	17392.412333	471.319336	-161.867645
2710.110160	17392.412333	470.059570	-29.675974
2710.110160	17392.412333	468.799805	70.119141
2710.110160	17392.412333	467.539063	-81.470810
2710.110160	17392.412333	466.278320	-69.421608
2710.110160	17392.412333	465.017578	-55.145672
2710.110160	17392.412333	463.756836	41.985470
2710.110160	17392.412333	462.495117	-125.887489
2710.110160	17392.412333	461.233398	72.373703
2710.110160	17392.412333	459.971680	-5.818653
2710.110160	17392.412333	458.709961	106.978897
2710.110160	17392.412333	457.447266	-31.217745
2710.110160	17392.412333	456.184570	166.460907
2710.110160	17392.412333	454.921875	-261.745209
2710.110160	17392.412333	453.658203	-34.432098
2710.110160	17392.412333	452.394531	52.402340
2710.110160	17392.412333	451.130859	-44.834335
2710.110160	17392.412333	449.867188	0.334616
2710.110160	17392.412333	448.602539	148.746796
2710.110160	17392.412333	447.337891	-155.626068
2710.110160	17392.412333	446.073242	162.426727
2710.110160	17392.412333	444.807617	-151.313629
2710.110160	17392.412333	443.542969	177.760071
2710.110160	17392.412333	442.276367	29.081238
2710.110160	17392.412333	441.010742	75.354683
2710.110160	17392.412333	439.744141	199.429977
2710.110160	17392.412333	438.478516	357.672607
2710.110160	17392.412333	437.210938	91.367271
2710.110160	17392.412333	435.944336	269.793091
2710.110160	17392.412333	434.676758	161.376923
2710.110160	17392.412333	433.409180	144.461426
2710.110160	17392.412333	432.141602	312.927551
2710.110160	17392.412333	430.873047	432.970154
2710.110160	17392.412333	429.604492	307.643738
2710.110160	17392.412333	428.335938	440.876709
2710.110160	17392.412333	427.067383	429.557159
2710.110160	17392.412333	425.797852	477.478088
2710.110160	17392.412333	424.528320	451.869934
2710.110160	17392.412333	423.258789	698.245300
2710.110160	17392.412333	421.988281	651.420471
2710.110160	17392.412333	420.717773	528.839844
2710.110160	17392.412333	419.447266	655.215576
2710.110160	17392.412333	418.175781	479.459503
2710.110160	17392.412333	416.905273	420.007233
2710.110160	17392.412333	415.633789	488.182190
2710.110160	17392.412333	414.362305	460.024811
2710.110160	17392.412333	413.089844	408.662659
2710.110160	17392.412333	411.817383	208.520050
2710.110160	17392.412333	410.544922	382.478912
2710.110160	17392.412333	409.272461	409.883850
2710.110160	17392.412333	407.999023	83.150551
2710.110160	17392.412333	406.725586	385.820862
2710.110160	17392.412333	405.452148	224.885315
2710.110160	17392.412333	404.177734	248.281387
2710.110160	17392.412333	402.903320	88.807175
2710.110160	17392.412333	401.628906	202.468185
2710.110160	17392.412333	400.354492	256.341034
2710.110160	17392.412333	399.079102	302.845337
2710.110160	17392.412333	397.803711	64.066795
2710.110160	17392.412333	396.528320	323.641968
2710.110160	17392.412333	395.251953	309.312775
2710.110160	17392.412333	393.976563	123.710663
2710.110160	17392.412333	392.700195	140.176498
2710.110160	17392.412333	391.422852	217.480408
2710.110160	17392.412333	390.145508	214.528503
2710.110160	17392.412333	388.869141	149.570313
2710.110160	17392.412333	387.590820	372.790375
2710.110160	17392.412333	386.313477	211.058060
2710.110160	17392.412333	385.035156	16.902739
2710.110160	17392.412333	383.756836	149.409424
2710.110160	17392.412333	382.478516	360.694580
2710.110160	17392.412333	381.199219	273.590088
2710.110160	17392.412333	379.919922	201.701263
2710.110160	17392.412333	378.640625	151.813751
2710.110160	17392.412333	377.360352	194.248245
2710.110160	17392.412333	376.080078	83.830643
2710.110160	17392.412333	374.799805	104.281418
2710.110160	17392.412333	373.519531	-62.109886
2710.110160	17392.412333	372.238281	-29.678349
2710.110160	17392.412333	370.957031	117.543884
2710.110160	17392.412333	369.675781	107.410065
2710.110160	17392.412333	368.394531	268.665741
2710.110160	17392.412333	367.112305	175.120621
2710.110160	17392.412333	365.830078	-154.929794
2710.110160	17392.412333	364.546875	109.935547
2710.110160	17392.412333	363.264648	15.937035
2710.110160	17392.412333	361.981445	-65.439674
2710.110160	17392.412333	360.698242	40.105556
2710.110160	17392.412333	359.414063	8.765080
2710.110160	17392.412333	358.129883	-143.525299
2710.110160	17392.412333	356.845703	13.109399
2710.110160	17392.412333	355.561523	39.674728
2710.110160	17392.412333	354.276367	114.838188
2710.110160	17392.412333	352.991211	5.722165
2710.110160	17392.412333	351.706055	78.581367
2710.110160	17392.412333	350.420898	-154.828781
2710.110160	17392.412333	349.134766	-120.519272
2710.110160	17392.412333	347.848633	-137.137924
2710.110160	17392.412333	346.561523	-8.244074
2710.110160	17392.412333	345.275391	-56.742805
2710.110160	17392.412333	343.988281	78.543869
2710.110160	17392.412333	342.700195	52.182106
2710.110160	17392.412333	341.413086	-255.249756
2710.110160	17392.412333	340.125000	22.548353
2710.110160	17392.412333	338.836914	136.449707
2710.110160	17392.412333	337.548828	160.943069
2710.110160	17392.412333	336.259766	118.559158
2710.110160	17392.412333	334.970703	241.503479
2710.110160	17392.412333	333.681641	-4.401154
2710.110160	17392.412333	332.391602	419.573822
2710.110160	17392.412333	331.101563	240.428177
2710.110160	17392.412333	329.811523	-93.349197
2710.110160	17392.412333	328.521484	23.931440
2710.110160	17392.412333	327.230469	62.937927
2710.110160	17392.412333	325.939453	-343.069733
2710.110160	17392.412333	324.648438	-350.118561
2710.110160	17392.412333	323.356445	-127.261360
2710.110160	17392.412333	322.064453	-216.613297
2710.110160	17392.412333	320.772461	-197.543213
2710.110160	17392.412333	319.480469	-162.317703
2710.110160	17392.412333	318.187500	-12.155404
2710.110160	17392.412333	316.894531	-48.192963
2710.110160	17392.412333	315.601563	-128.813202
2710.110160	17392.412333	314.307617	-60.931442
2710.110160	17392.412333	313.013672	-143.263214
2710.110160	17392.412333	311.719727	59.785206
2710.110160	17392.412333	310.425781	206.830658
2710.110160	17392.412333	309.130859	401.027618
2710.110160	17392.412333	307.835938	34.389671
2710.110160	17392.412333	306.541016	567.458496
2710.110160	17392.412333	305.245117	420.788910
2710.110160	17392.412333	303.949219	509.618958
2710.110160	17392.412333	302.653320	546.840698
2710.110160	17392.412333	301.356445	406.872253
2710.110160	17392.412333	300.060547	715.074463
2710.110160	17392.412333	298.763672	823.568787
