#X		#Y		#Wave		#Intensity
2710.592181	17389.474333	2000.043945	-92.359123
2710.592181	17389.474333	1999.080078	-136.076401
2710.592181	17389.474333	1998.116211	-150.650650
2710.592181	17389.474333	1997.151367	-71.351372
2710.592181	17389.474333	1996.186523	29.919714
2710.592181	17389.474333	1995.222656	-67.317200
2710.592181	17389.474333	1994.256836	159.671432
2710.592181	17389.474333	1993.291992	225.342514
2710.592181	17389.474333	1992.327148	181.793091
2710.592181	17389.474333	1991.361328	-35.264839
2710.592181	17389.474333	1990.395508	-128.736389
2710.592181	17389.474333	1989.429688	52.262344
2710.592181	17389.474333	1988.463867	-182.666229
2710.592181	17389.474333	1987.497070	-14.529573
2710.592181	17389.474333	1986.531250	-71.716415
2710.592181	17389.474333	1985.564453	-79.626717
2710.592181	17389.474333	1984.597656	144.658905
2710.592181	17389.474333	1983.630859	203.072998
2710.592181	17389.474333	1982.664063	43.816494
2710.592181	17389.474333	1981.696289	-76.015816
2710.592181	17389.474333	1980.728516	233.876389
2710.592181	17389.474333	1979.761719	165.602478
2710.592181	17389.474333	1978.792969	3.369149
2710.592181	17389.474333	1977.825195	68.199089
2710.592181	17389.474333	1976.857422	56.345119
2710.592181	17389.474333	1975.888672	204.791763
2710.592181	17389.474333	1974.919922	308.642975
2710.592181	17389.474333	1973.951172	-31.748514
2710.592181	17389.474333	1972.982422	217.414169
2710.592181	17389.474333	1972.013672	17.524473
2710.592181	17389.474333	1971.043945	429.120270
2710.592181	17389.474333	1970.075195	113.200813
2710.592181	17389.474333	1969.105469	83.231453
2710.592181	17389.474333	1968.135742	16.224052
2710.592181	17389.474333	1967.165039	262.080780
2710.592181	17389.474333	1966.195313	-19.413765
2710.592181	17389.474333	1965.224609	41.486683
2710.592181	17389.474333	1964.253906	178.637527
2710.592181	17389.474333	1963.283203	131.017807
2710.592181	17389.474333	1962.312500	-86.494194
2710.592181	17389.474333	1961.341797	-97.239052
2710.592181	17389.474333	1960.370117	-41.590370
2710.592181	17389.474333	1959.399414	55.818329
2710.592181	17389.474333	1958.427734	246.621277
2710.592181	17389.474333	1957.455078	102.841499
2710.592181	17389.474333	1956.483398	182.841461
2710.592181	17389.474333	1955.511719	125.107208
2710.592181	17389.474333	1954.539063	133.731918
2710.592181	17389.474333	1953.566406	93.177589
2710.592181	17389.474333	1952.593750	104.215782
2710.592181	17389.474333	1951.621094	-100.952339
2710.592181	17389.474333	1950.647461	96.750259
2710.592181	17389.474333	1949.674805	-142.749969
2710.592181	17389.474333	1948.701172	283.199982
2710.592181	17389.474333	1947.727539	149.291016
2710.592181	17389.474333	1946.753906	-190.739151
2710.592181	17389.474333	1945.780273	279.134216
2710.592181	17389.474333	1944.805664	25.069527
2710.592181	17389.474333	1943.831055	-52.285686
2710.592181	17389.474333	1942.856445	-75.655045
2710.592181	17389.474333	1941.881836	-243.683182
2710.592181	17389.474333	1940.907227	29.645338
2710.592181	17389.474333	1939.932617	82.276512
2710.592181	17389.474333	1938.957031	110.389687
2710.592181	17389.474333	1937.981445	-128.572266
2710.592181	17389.474333	1937.005859	83.325615
2710.592181	17389.474333	1936.030273	148.198914
2710.592181	17389.474333	1935.054688	198.369141
2710.592181	17389.474333	1934.078125	-197.073578
2710.592181	17389.474333	1933.101563	-217.815796
2710.592181	17389.474333	1932.125000	-91.684669
2710.592181	17389.474333	1931.148438	-48.779892
2710.592181	17389.474333	1930.171875	-76.822350
2710.592181	17389.474333	1929.194336	-51.020077
2710.592181	17389.474333	1928.217773	-74.119919
2710.592181	17389.474333	1927.240234	12.844989
2710.592181	17389.474333	1926.262695	-56.665115
2710.592181	17389.474333	1925.284180	40.083916
2710.592181	17389.474333	1924.306641	217.467804
2710.592181	17389.474333	1923.328125	177.346878
2710.592181	17389.474333	1922.350586	-87.485413
2710.592181	17389.474333	1921.372070	1.964043
2710.592181	17389.474333	1920.392578	186.640717
2710.592181	17389.474333	1919.414063	17.246908
2710.592181	17389.474333	1918.434570	65.197548
2710.592181	17389.474333	1917.456055	103.391983
2710.592181	17389.474333	1916.476563	100.111320
2710.592181	17389.474333	1915.497070	35.861702
2710.592181	17389.474333	1914.516602	25.323130
2710.592181	17389.474333	1913.537109	-85.179695
2710.592181	17389.474333	1912.556641	-71.263161
2710.592181	17389.474333	1911.576172	74.317818
2710.592181	17389.474333	1910.595703	-201.815170
2710.592181	17389.474333	1909.615234	16.888098
2710.592181	17389.474333	1908.633789	47.916050
2710.592181	17389.474333	1907.653320	127.673859
2710.592181	17389.474333	1906.671875	207.420105
2710.592181	17389.474333	1905.690430	109.386749
2710.592181	17389.474333	1904.708984	57.667732
2710.592181	17389.474333	1903.727539	144.738800
2710.592181	17389.474333	1902.745117	-11.589520
2710.592181	17389.474333	1901.762695	-136.211517
2710.592181	17389.474333	1900.780273	-51.541214
2710.592181	17389.474333	1899.797852	-124.999519
2710.592181	17389.474333	1898.815430	5.870557
2710.592181	17389.474333	1897.832031	-28.644039
2710.592181	17389.474333	1896.849609	-58.272736
2710.592181	17389.474333	1895.866211	74.971458
2710.592181	17389.474333	1894.882813	30.770081
2710.592181	17389.474333	1893.898438	-47.424007
2710.592181	17389.474333	1892.915039	117.343147
2710.592181	17389.474333	1891.930664	-138.133911
2710.592181	17389.474333	1890.947266	60.592834
2710.592181	17389.474333	1889.962891	278.670441
2710.592181	17389.474333	1888.977539	-66.505013
2710.592181	17389.474333	1887.993164	-11.095923
2710.592181	17389.474333	1887.007813	-266.309814
2710.592181	17389.474333	1886.023438	-87.160767
2710.592181	17389.474333	1885.038086	11.870235
2710.592181	17389.474333	1884.051758	-100.135300
2710.592181	17389.474333	1883.066406	-13.278377
2710.592181	17389.474333	1882.081055	90.505852
2710.592181	17389.474333	1881.094727	-181.454147
2710.592181	17389.474333	1880.108398	-84.972382
2710.592181	17389.474333	1879.122070	265.864624
2710.592181	17389.474333	1878.135742	-54.469131
2710.592181	17389.474333	1877.148438	177.517746
2710.592181	17389.474333	1876.162109	116.390327
2710.592181	17389.474333	1875.174805	-109.370926
2710.592181	17389.474333	1874.187500	-56.696232
2710.592181	17389.474333	1873.199219	179.868561
2710.592181	17389.474333	1872.211914	99.332954
2710.592181	17389.474333	1871.223633	-152.970276
2710.592181	17389.474333	1870.236328	-85.923164
2710.592181	17389.474333	1869.248047	58.456371
2710.592181	17389.474333	1868.258789	-97.075691
2710.592181	17389.474333	1867.270508	85.862450
2710.592181	17389.474333	1866.282227	-31.015469
2710.592181	17389.474333	1865.292969	-307.381622
2710.592181	17389.474333	1864.303711	-218.851578
2710.592181	17389.474333	1863.314453	70.103142
2710.592181	17389.474333	1862.324219	-220.745422
2710.592181	17389.474333	1861.334961	-180.708420
2710.592181	17389.474333	1860.344727	-104.519356
2710.592181	17389.474333	1859.354492	-9.098361
2710.592181	17389.474333	1858.364258	16.247122
2710.592181	17389.474333	1857.374023	65.658859
2710.592181	17389.474333	1856.383789	156.010056
2710.592181	17389.474333	1855.392578	-62.470589
2710.592181	17389.474333	1854.401367	3.638838
2710.592181	17389.474333	1853.410156	-347.463257
2710.592181	17389.474333	1852.418945	34.351204
2710.592181	17389.474333	1851.426758	30.320454
2710.592181	17389.474333	1850.435547	298.530975
2710.592181	17389.474333	1849.443359	-30.939419
2710.592181	17389.474333	1848.451172	27.471155
2710.592181	17389.474333	1847.458984	-15.364067
2710.592181	17389.474333	1846.466797	-82.336502
2710.592181	17389.474333	1845.473633	110.651039
2710.592181	17389.474333	1844.480469	60.375629
2710.592181	17389.474333	1843.487305	-189.706497
2710.592181	17389.474333	1842.494141	39.047462
2710.592181	17389.474333	1841.500977	-23.455074
2710.592181	17389.474333	1840.506836	281.981384
2710.592181	17389.474333	1839.513672	240.929337
2710.592181	17389.474333	1838.519531	72.373222
2710.592181	17389.474333	1837.525391	168.217621
2710.592181	17389.474333	1836.530273	177.409668
2710.592181	17389.474333	1835.536133	236.969864
2710.592181	17389.474333	1834.541016	195.504044
2710.592181	17389.474333	1833.545898	50.669121
2710.592181	17389.474333	1832.550781	-70.193779
2710.592181	17389.474333	1831.555664	-20.628284
2710.592181	17389.474333	1830.560547	-132.030563
2710.592181	17389.474333	1829.564453	30.131842
2710.592181	17389.474333	1828.568359	151.332809
2710.592181	17389.474333	1827.572266	37.243607
2710.592181	17389.474333	1826.576172	174.973969
2710.592181	17389.474333	1825.580078	139.853394
2710.592181	17389.474333	1824.583008	61.467587
2710.592181	17389.474333	1823.585938	-19.399408
2710.592181	17389.474333	1822.588867	101.004776
2710.592181	17389.474333	1821.591797	89.431580
2710.592181	17389.474333	1820.594727	197.555283
2710.592181	17389.474333	1819.596680	111.459167
2710.592181	17389.474333	1818.599609	233.668457
2710.592181	17389.474333	1817.601563	3.663581
2710.592181	17389.474333	1816.603516	106.441391
2710.592181	17389.474333	1815.604492	72.595497
2710.592181	17389.474333	1814.606445	29.066179
2710.592181	17389.474333	1813.607422	-81.584953
2710.592181	17389.474333	1812.608398	-77.480652
2710.592181	17389.474333	1811.609375	24.567213
2710.592181	17389.474333	1810.610352	-158.165329
2710.592181	17389.474333	1809.610352	139.667633
2710.592181	17389.474333	1808.611328	95.378105
2710.592181	17389.474333	1807.611328	96.377861
2710.592181	17389.474333	1806.611328	-89.170799
2710.592181	17389.474333	1805.610352	200.699661
2710.592181	17389.474333	1804.610352	-13.746443
2710.592181	17389.474333	1803.609375	110.908508
2710.592181	17389.474333	1802.608398	65.820602
2710.592181	17389.474333	1801.607422	-244.418518
2710.592181	17389.474333	1800.606445	23.004496
2710.592181	17389.474333	1799.605469	70.603210
2710.592181	17389.474333	1798.603516	287.451752
2710.592181	17389.474333	1797.601563	57.924770
2710.592181	17389.474333	1796.599609	-4.691628
2710.592181	17389.474333	1795.597656	61.347645
2710.592181	17389.474333	1794.595703	-132.694702
2710.592181	17389.474333	1793.592773	173.813416
2710.592181	17389.474333	1792.589844	51.013149
2710.592181	17389.474333	1791.587891	-21.843456
2710.592181	17389.474333	1790.583984	126.739655
2710.592181	17389.474333	1789.581055	-51.243114
2710.592181	17389.474333	1788.577148	-67.367363
2710.592181	17389.474333	1787.574219	87.815193
2710.592181	17389.474333	1786.570313	295.149292
2710.592181	17389.474333	1785.566406	128.522385
2710.592181	17389.474333	1784.561523	-21.553715
2710.592181	17389.474333	1783.557617	175.677231
2710.592181	17389.474333	1782.552734	139.515854
2710.592181	17389.474333	1781.547852	-49.026623
2710.592181	17389.474333	1780.542969	52.469059
2710.592181	17389.474333	1779.538086	149.004242
2710.592181	17389.474333	1778.532227	-96.994995
2710.592181	17389.474333	1777.527344	91.891724
2710.592181	17389.474333	1776.521484	126.067787
2710.592181	17389.474333	1775.515625	15.132405
2710.592181	17389.474333	1774.508789	18.079464
2710.592181	17389.474333	1773.502930	46.989887
2710.592181	17389.474333	1772.496094	-19.272177
2710.592181	17389.474333	1771.489258	52.015270
2710.592181	17389.474333	1770.482422	-109.511444
2710.592181	17389.474333	1769.475586	-67.055794
2710.592181	17389.474333	1768.467773	-240.718460
2710.592181	17389.474333	1767.460938	19.648014
2710.592181	17389.474333	1766.453125	4.599362
2710.592181	17389.474333	1765.445313	8.352841
2710.592181	17389.474333	1764.437500	4.818375
2710.592181	17389.474333	1763.428711	-10.753836
2710.592181	17389.474333	1762.420898	44.616489
2710.592181	17389.474333	1761.412109	135.322433
2710.592181	17389.474333	1760.403320	-58.476398
2710.592181	17389.474333	1759.393555	-302.131927
2710.592181	17389.474333	1758.384766	-88.793274
2710.592181	17389.474333	1757.375000	20.093487
2710.592181	17389.474333	1756.366211	-197.913040
2710.592181	17389.474333	1755.356445	-337.919647
2710.592181	17389.474333	1754.345703	4.682551
2710.592181	17389.474333	1753.335938	157.715927
2710.592181	17389.474333	1752.325195	123.624504
2710.592181	17389.474333	1751.315430	-239.359467
2710.592181	17389.474333	1750.304688	7.671331
2710.592181	17389.474333	1749.292969	6.181390
2710.592181	17389.474333	1748.282227	-125.474899
2710.592181	17389.474333	1747.270508	111.395004
2710.592181	17389.474333	1746.259766	45.574905
2710.592181	17389.474333	1745.248047	-22.774515
2710.592181	17389.474333	1744.235352	-62.947414
2710.592181	17389.474333	1743.223633	-48.951893
2710.592181	17389.474333	1742.211914	-35.137829
2710.592181	17389.474333	1741.199219	11.528056
2710.592181	17389.474333	1740.186523	-64.726364
2710.592181	17389.474333	1739.173828	16.971373
2710.592181	17389.474333	1738.160156	-66.699364
2710.592181	17389.474333	1737.147461	40.564011
2710.592181	17389.474333	1736.133789	67.412643
2710.592181	17389.474333	1735.120117	178.959122
2710.592181	17389.474333	1734.106445	106.412956
2710.592181	17389.474333	1733.091797	-119.498344
2710.592181	17389.474333	1732.078125	-55.628662
2710.592181	17389.474333	1731.063477	-24.958216
2710.592181	17389.474333	1730.048828	-79.272903
2710.592181	17389.474333	1729.034180	-173.775208
2710.592181	17389.474333	1728.019531	-98.873642
2710.592181	17389.474333	1727.003906	100.586258
2710.592181	17389.474333	1725.988281	-178.021530
2710.592181	17389.474333	1724.972656	-171.935486
2710.592181	17389.474333	1723.957031	76.327545
2710.592181	17389.474333	1722.941406	-73.235535
2710.592181	17389.474333	1721.924805	59.313244
2710.592181	17389.474333	1720.909180	-177.529648
2710.592181	17389.474333	1719.892578	43.997559
2710.592181	17389.474333	1718.875977	-37.957447
2710.592181	17389.474333	1717.858398	-348.034332
2710.592181	17389.474333	1716.841797	39.739246
2710.592181	17389.474333	1715.824219	274.478455
2710.592181	17389.474333	1714.806641	-5.432939
2710.592181	17389.474333	1713.789063	123.224770
2710.592181	17389.474333	1712.770508	82.600365
2710.592181	17389.474333	1711.752930	-19.180845
2710.592181	17389.474333	1710.734375	130.031067
2710.592181	17389.474333	1709.715820	185.165619
2710.592181	17389.474333	1708.697266	136.893829
2710.592181	17389.474333	1707.678711	177.621124
2710.592181	17389.474333	1706.659180	56.335369
2710.592181	17389.474333	1705.640625	61.585606
2710.592181	17389.474333	1704.621094	-132.610672
2710.592181	17389.474333	1703.600586	45.774696
2710.592181	17389.474333	1702.581055	-73.653717
2710.592181	17389.474333	1701.561523	97.347664
2710.592181	17389.474333	1700.541016	139.275818
2710.592181	17389.474333	1699.520508	63.934895
2710.592181	17389.474333	1698.500000	49.359390
2710.592181	17389.474333	1697.478516	294.499084
2710.592181	17389.474333	1696.458008	303.009064
2710.592181	17389.474333	1695.436523	252.842178
2710.592181	17389.474333	1694.415039	55.145100
2710.592181	17389.474333	1693.393555	-25.643282
2710.592181	17389.474333	1692.372070	96.949165
2710.592181	17389.474333	1691.349609	305.861816
2710.592181	17389.474333	1690.327148	131.116928
2710.592181	17389.474333	1689.304688	337.337097
2710.592181	17389.474333	1688.282227	244.189774
2710.592181	17389.474333	1687.259766	221.047592
2710.592181	17389.474333	1686.236328	391.671722
2710.592181	17389.474333	1685.213867	440.665405
2710.592181	17389.474333	1684.190430	445.117706
2710.592181	17389.474333	1683.166016	239.279892
2710.592181	17389.474333	1682.142578	406.933655
2710.592181	17389.474333	1681.119141	775.125183
2710.592181	17389.474333	1680.094727	440.630676
2710.592181	17389.474333	1679.070313	537.770752
2710.592181	17389.474333	1678.045898	469.138855
2710.592181	17389.474333	1677.020508	423.716034
2710.592181	17389.474333	1675.996094	536.779419
2710.592181	17389.474333	1674.970703	665.982849
2710.592181	17389.474333	1673.945313	664.497070
2710.592181	17389.474333	1672.919922	777.093323
2710.592181	17389.474333	1671.893555	845.244446
2710.592181	17389.474333	1670.868164	889.992310
2710.592181	17389.474333	1669.841797	685.386292
2710.592181	17389.474333	1668.815430	755.531372
2710.592181	17389.474333	1667.789063	650.938965
2710.592181	17389.474333	1666.761719	699.890320
2710.592181	17389.474333	1665.735352	1021.043335
2710.592181	17389.474333	1664.708008	904.507202
2710.592181	17389.474333	1663.680664	1192.713501
2710.592181	17389.474333	1662.653320	1134.152344
2710.592181	17389.474333	1661.625000	1173.169067
2710.592181	17389.474333	1660.597656	842.432129
2710.592181	17389.474333	1659.569336	1064.956299
2710.592181	17389.474333	1658.541016	959.609253
2710.592181	17389.474333	1657.512695	1209.744263
2710.592181	17389.474333	1656.483398	1378.360718
2710.592181	17389.474333	1655.455078	1472.532104
2710.592181	17389.474333	1654.425781	1499.216187
2710.592181	17389.474333	1653.396484	1460.802002
2710.592181	17389.474333	1652.366211	1563.911987
2710.592181	17389.474333	1651.336914	1516.071289
2710.592181	17389.474333	1650.306641	1876.569092
2710.592181	17389.474333	1649.276367	1663.798828
2710.592181	17389.474333	1648.246094	1826.827148
2710.592181	17389.474333	1647.215820	2059.302490
2710.592181	17389.474333	1646.185547	2215.109619
2710.592181	17389.474333	1645.154297	2414.817871
2710.592181	17389.474333	1644.123047	2473.004395
2710.592181	17389.474333	1643.091797	2563.554199
2710.592181	17389.474333	1642.060547	2338.912842
2710.592181	17389.474333	1641.028320	2276.436035
2710.592181	17389.474333	1639.997070	2577.578369
2710.592181	17389.474333	1638.964844	2721.069336
2710.592181	17389.474333	1637.931641	2646.809326
2710.592181	17389.474333	1636.899414	2651.262207
2710.592181	17389.474333	1635.867188	2958.837402
2710.592181	17389.474333	1634.833984	3078.810059
2710.592181	17389.474333	1633.800781	3087.660889
2710.592181	17389.474333	1632.767578	3434.153809
2710.592181	17389.474333	1631.734375	3202.368652
2710.592181	17389.474333	1630.700195	3102.399902
2710.592181	17389.474333	1629.666016	3411.585205
2710.592181	17389.474333	1628.631836	3360.091064
2710.592181	17389.474333	1627.597656	3345.565674
2710.592181	17389.474333	1626.563477	3356.435303
2710.592181	17389.474333	1625.528320	3473.500977
2710.592181	17389.474333	1624.493164	3585.885742
2710.592181	17389.474333	1623.458008	3513.502197
2710.592181	17389.474333	1622.422852	3655.816895
2710.592181	17389.474333	1621.387695	3839.605713
2710.592181	17389.474333	1620.351563	3861.763672
2710.592181	17389.474333	1619.315430	3978.493652
2710.592181	17389.474333	1618.279297	3869.124268
2710.592181	17389.474333	1617.243164	3637.569580
2710.592181	17389.474333	1616.207031	3825.743896
2710.592181	17389.474333	1615.169922	3665.726074
2710.592181	17389.474333	1614.132813	3796.179932
2710.592181	17389.474333	1613.095703	4023.371338
2710.592181	17389.474333	1612.058594	3798.915771
2710.592181	17389.474333	1611.020508	3440.929199
2710.592181	17389.474333	1609.983398	3958.270508
2710.592181	17389.474333	1608.945313	3655.682373
2710.592181	17389.474333	1607.907227	3765.308105
2710.592181	17389.474333	1606.868164	3900.202148
2710.592181	17389.474333	1605.830078	3929.235596
2710.592181	17389.474333	1604.791016	3514.204346
2710.592181	17389.474333	1603.751953	3872.272217
2710.592181	17389.474333	1602.712891	3685.154541
2710.592181	17389.474333	1601.673828	3925.837402
2710.592181	17389.474333	1600.633789	3649.157715
2710.592181	17389.474333	1599.594727	3696.741699
2710.592181	17389.474333	1598.554688	3684.567139
2710.592181	17389.474333	1597.513672	4074.498047
2710.592181	17389.474333	1596.473633	4069.226074
2710.592181	17389.474333	1595.433594	3850.402832
2710.592181	17389.474333	1594.392578	3861.312500
2710.592181	17389.474333	1593.351563	3911.296143
2710.592181	17389.474333	1592.310547	3915.403320
2710.592181	17389.474333	1591.268555	3800.195313
2710.592181	17389.474333	1590.227539	3600.217285
2710.592181	17389.474333	1589.185547	3980.743164
2710.592181	17389.474333	1588.143555	3822.182129
2710.592181	17389.474333	1587.100586	3606.389160
2710.592181	17389.474333	1586.058594	3654.430420
2710.592181	17389.474333	1585.015625	3732.293213
2710.592181	17389.474333	1583.972656	4080.624512
2710.592181	17389.474333	1582.929688	3636.078857
2710.592181	17389.474333	1581.886719	3707.234619
2710.592181	17389.474333	1580.843750	3604.361572
2710.592181	17389.474333	1579.799805	3755.770020
2710.592181	17389.474333	1578.755859	3925.513428
2710.592181	17389.474333	1577.711914	3658.050537
2710.592181	17389.474333	1576.666992	3466.276611
2710.592181	17389.474333	1575.623047	3576.730225
2710.592181	17389.474333	1574.578125	3714.658203
2710.592181	17389.474333	1573.533203	3383.718506
2710.592181	17389.474333	1572.488281	3412.038330
2710.592181	17389.474333	1571.443359	3058.607910
2710.592181	17389.474333	1570.397461	3258.592285
2710.592181	17389.474333	1569.351563	3214.045410
2710.592181	17389.474333	1568.305664	3158.190430
2710.592181	17389.474333	1567.259766	3086.464355
2710.592181	17389.474333	1566.213867	3053.703369
2710.592181	17389.474333	1565.166992	3007.332764
2710.592181	17389.474333	1564.120117	2853.775391
2710.592181	17389.474333	1563.073242	3006.286865
2710.592181	17389.474333	1562.026367	2900.941406
2710.592181	17389.474333	1560.978516	2845.930420
2710.592181	17389.474333	1559.930664	2770.521973
2710.592181	17389.474333	1558.883789	3005.508789
2710.592181	17389.474333	1557.834961	2743.304932
2710.592181	17389.474333	1556.787109	2634.121338
2710.592181	17389.474333	1555.739258	2536.500977
2710.592181	17389.474333	1554.690430	2573.499023
2710.592181	17389.474333	1553.641602	2678.976318
2710.592181	17389.474333	1552.592773	2914.407471
2710.592181	17389.474333	1551.542969	2430.035645
2710.592181	17389.474333	1550.494141	2501.710205
2710.592181	17389.474333	1549.444336	2313.892334
2710.592181	17389.474333	1548.394531	2454.112061
2710.592181	17389.474333	1547.344727	2296.244385
2710.592181	17389.474333	1546.293945	2047.531006
2710.592181	17389.474333	1545.244141	2085.759277
2710.592181	17389.474333	1544.193359	2281.056152
2710.592181	17389.474333	1543.142578	1926.036377
2710.592181	17389.474333	1542.090820	2055.620361
2710.592181	17389.474333	1541.040039	2260.348145
2710.592181	17389.474333	1539.988281	2076.448975
2710.592181	17389.474333	1538.936523	1956.406860
2710.592181	17389.474333	1537.884766	2372.781738
2710.592181	17389.474333	1536.833008	2400.700195
2710.592181	17389.474333	1535.780273	2142.577637
2710.592181	17389.474333	1534.727539	1971.006470
2710.592181	17389.474333	1533.674805	1942.695313
2710.592181	17389.474333	1532.622070	1948.610718
2710.592181	17389.474333	1531.569336	1900.222900
2710.592181	17389.474333	1530.515625	1722.674316
2710.592181	17389.474333	1529.461914	1726.847656
2710.592181	17389.474333	1528.408203	1724.386963
2710.592181	17389.474333	1527.354492	1769.721558
2710.592181	17389.474333	1526.299805	1298.283447
2710.592181	17389.474333	1525.246094	1321.369751
2710.592181	17389.474333	1524.191406	1387.667114
2710.592181	17389.474333	1523.136719	1540.219482
2710.592181	17389.474333	1522.081055	1516.178101
2710.592181	17389.474333	1521.026367	1526.320923
2710.592181	17389.474333	1519.970703	1423.404419
2710.592181	17389.474333	1518.915039	1243.741333
2710.592181	17389.474333	1517.859375	1308.801514
2710.592181	17389.474333	1516.802734	1018.700378
2710.592181	17389.474333	1515.747070	1020.807495
2710.592181	17389.474333	1514.690430	839.850037
2710.592181	17389.474333	1513.633789	704.393372
2710.592181	17389.474333	1512.577148	1046.329468
2710.592181	17389.474333	1511.519531	909.004761
2710.592181	17389.474333	1510.461914	672.474182
2710.592181	17389.474333	1509.405273	219.293945
2710.592181	17389.474333	1508.346680	469.183624
2710.592181	17389.474333	1507.289063	497.801086
2710.592181	17389.474333	1506.231445	504.026367
2710.592181	17389.474333	1505.172852	435.919922
2710.592181	17389.474333	1504.114258	268.707306
2710.592181	17389.474333	1503.055664	180.774506
2710.592181	17389.474333	1501.996094	287.164917
2710.592181	17389.474333	1500.937500	389.225037
2710.592181	17389.474333	1499.877930	360.597412
2710.592181	17389.474333	1498.818359	293.854126
2710.592181	17389.474333	1497.757813	461.863647
2710.592181	17389.474333	1496.698242	97.949211
2710.592181	17389.474333	1495.637695	117.592842
2710.592181	17389.474333	1494.577148	123.926315
2710.592181	17389.474333	1493.516602	472.974060
2710.592181	17389.474333	1492.456055	11.088701
2710.592181	17389.474333	1491.394531	250.087021
2710.592181	17389.474333	1490.333008	241.502243
2710.592181	17389.474333	1489.271484	-64.049446
2710.592181	17389.474333	1488.209961	-321.981201
2710.592181	17389.474333	1487.148438	-25.938541
2710.592181	17389.474333	1486.085938	-305.832214
2710.592181	17389.474333	1485.023438	-178.190704
2710.592181	17389.474333	1483.960938	-189.823700
2710.592181	17389.474333	1482.898438	-57.290928
2710.592181	17389.474333	1481.834961	-205.623352
2710.592181	17389.474333	1480.772461	-299.695801
2710.592181	17389.474333	1479.708984	-238.406845
2710.592181	17389.474333	1478.644531	-107.282372
2710.592181	17389.474333	1477.581055	-88.264999
2710.592181	17389.474333	1476.517578	-226.193954
2710.592181	17389.474333	1475.453125	-110.157623
2710.592181	17389.474333	1474.388672	-79.126335
2710.592181	17389.474333	1473.323242	-97.383354
2710.592181	17389.474333	1472.258789	185.292389
2710.592181	17389.474333	1471.193359	194.343658
2710.592181	17389.474333	1470.127930	62.572567
2710.592181	17389.474333	1469.062500	217.907440
2710.592181	17389.474333	1467.997070	178.440643
2710.592181	17389.474333	1466.930664	333.882355
2710.592181	17389.474333	1465.865234	516.739868
2710.592181	17389.474333	1464.798828	496.071808
2710.592181	17389.474333	1463.731445	647.687988
2710.592181	17389.474333	1462.665039	284.750519
2710.592181	17389.474333	1461.597656	112.629890
2710.592181	17389.474333	1460.530273	332.836945
2710.592181	17389.474333	1459.462891	324.624054
2710.592181	17389.474333	1458.395508	595.087280
2710.592181	17389.474333	1457.327148	671.458313
2710.592181	17389.474333	1456.259766	523.591553
2710.592181	17389.474333	1455.191406	-8.471733
2710.592181	17389.474333	1454.123047	325.734741
2710.592181	17389.474333	1453.053711	202.078217
2710.592181	17389.474333	1451.985352	461.540161
2710.592181	17389.474333	1450.916016	473.571777
2710.592181	17389.474333	1449.846680	629.026978
2710.592181	17389.474333	1448.776367	324.240753
2710.592181	17389.474333	1447.707031	441.880066
2710.592181	17389.474333	1446.636719	329.237732
2710.592181	17389.474333	1445.566406	222.914764
2710.592181	17389.474333	1444.496094	480.006989
2710.592181	17389.474333	1443.425781	418.577057
2710.592181	17389.474333	1442.354492	167.363495
2710.592181	17389.474333	1441.283203	205.815887
2710.592181	17389.474333	1440.211914	256.531952
2710.592181	17389.474333	1439.140625	-33.933559
2710.592181	17389.474333	1438.069336	297.040436
2710.592181	17389.474333	1436.997070	309.086121
2710.592181	17389.474333	1435.924805	142.657700
2710.592181	17389.474333	1434.852539	-95.717529
2710.592181	17389.474333	1433.780273	-86.070877
2710.592181	17389.474333	1432.707031	-5.495844
2710.592181	17389.474333	1431.633789	350.939240
2710.592181	17389.474333	1430.560547	156.546768
2710.592181	17389.474333	1429.487305	-24.851154
2710.592181	17389.474333	1428.413086	166.932144
2710.592181	17389.474333	1427.339844	106.118774
2710.592181	17389.474333	1426.265625	-18.407814
2710.592181	17389.474333	1425.191406	47.643848
2710.592181	17389.474333	1424.116211	-1.040658
2710.592181	17389.474333	1423.041992	170.891617
2710.592181	17389.474333	1421.966797	123.304443
2710.592181	17389.474333	1420.891602	293.152344
2710.592181	17389.474333	1419.816406	-64.654846
2710.592181	17389.474333	1418.740234	85.206253
2710.592181	17389.474333	1417.665039	92.945511
2710.592181	17389.474333	1416.588867	354.692657
2710.592181	17389.474333	1415.512695	249.406754
2710.592181	17389.474333	1414.435547	745.521423
2710.592181	17389.474333	1413.359375	413.350067
2710.592181	17389.474333	1412.282227	316.432434
2710.592181	17389.474333	1411.205078	238.511673
2710.592181	17389.474333	1410.127930	594.231934
2710.592181	17389.474333	1409.049805	463.705505
2710.592181	17389.474333	1407.972656	262.679016
2710.592181	17389.474333	1406.894531	404.036163
2710.592181	17389.474333	1405.816406	786.268921
2710.592181	17389.474333	1404.737305	578.640991
2710.592181	17389.474333	1403.659180	457.510193
2710.592181	17389.474333	1402.580078	654.203491
2710.592181	17389.474333	1401.500977	405.938354
2710.592181	17389.474333	1400.421875	894.636108
2710.592181	17389.474333	1399.341797	944.323120
2710.592181	17389.474333	1398.262695	605.852905
2710.592181	17389.474333	1397.182617	996.367126
2710.592181	17389.474333	1396.102539	717.187622
2710.592181	17389.474333	1395.021484	632.878601
2710.592181	17389.474333	1393.941406	583.000854
2710.592181	17389.474333	1392.860352	919.881226
2710.592181	17389.474333	1391.779297	979.637512
2710.592181	17389.474333	1390.698242	1030.124268
2710.592181	17389.474333	1389.616211	913.283875
2710.592181	17389.474333	1388.535156	1002.420715
2710.592181	17389.474333	1387.453125	1090.354126
2710.592181	17389.474333	1386.371094	1126.362793
2710.592181	17389.474333	1385.288086	877.335083
2710.592181	17389.474333	1384.206055	1332.745483
2710.592181	17389.474333	1383.123047	1341.276367
2710.592181	17389.474333	1382.040039	1327.304932
2710.592181	17389.474333	1380.957031	1033.242310
2710.592181	17389.474333	1379.873047	1031.728027
2710.592181	17389.474333	1378.789063	1278.246094
2710.592181	17389.474333	1377.705078	1218.350098
2710.592181	17389.474333	1376.621094	1417.750000
2710.592181	17389.474333	1375.537109	1118.272827
2710.592181	17389.474333	1374.452148	1021.857849
2710.592181	17389.474333	1373.367188	1371.122803
2710.592181	17389.474333	1372.282227	1282.916016
2710.592181	17389.474333	1371.197266	1069.222900
2710.592181	17389.474333	1370.112305	1357.171021
2710.592181	17389.474333	1369.026367	1113.687134
2710.592181	17389.474333	1367.940430	1222.504883
2710.592181	17389.474333	1366.854492	1327.187378
2710.592181	17389.474333	1365.767578	1103.402222
2710.592181	17389.474333	1364.681641	1236.303345
2710.592181	17389.474333	1363.594727	993.510010
2710.592181	17389.474333	1362.507813	1278.006836
2710.592181	17389.474333	1361.419922	1189.844727
2710.592181	17389.474333	1360.333008	1243.986694
2710.592181	17389.474333	1359.245117	1290.430420
2710.592181	17389.474333	1358.157227	1128.479980
2710.592181	17389.474333	1357.069336	1256.534302
2710.592181	17389.474333	1355.981445	1068.576660
2710.592181	17389.474333	1354.892578	1041.276001
2710.592181	17389.474333	1353.803711	1297.763916
2710.592181	17389.474333	1352.714844	1182.278931
2710.592181	17389.474333	1351.625000	1007.994873
2710.592181	17389.474333	1350.536133	1303.890625
2710.592181	17389.474333	1349.446289	1351.752441
2710.592181	17389.474333	1348.356445	1085.032837
2710.592181	17389.474333	1347.266602	1043.714722
2710.592181	17389.474333	1346.175781	889.097656
2710.592181	17389.474333	1345.085938	849.736694
2710.592181	17389.474333	1343.995117	1084.373047
2710.592181	17389.474333	1342.903320	1228.513550
2710.592181	17389.474333	1341.812500	1432.901733
2710.592181	17389.474333	1340.720703	1486.984741
2710.592181	17389.474333	1339.629883	1403.968384
2710.592181	17389.474333	1338.538086	1437.259521
2710.592181	17389.474333	1337.445313	1177.644043
2710.592181	17389.474333	1336.353516	1254.739014
2710.592181	17389.474333	1335.260742	1258.852417
2710.592181	17389.474333	1334.167969	1264.848511
2710.592181	17389.474333	1333.075195	1624.870239
2710.592181	17389.474333	1331.981445	1610.107788
2710.592181	17389.474333	1330.888672	1138.551270
2710.592181	17389.474333	1329.794922	1504.227051
2710.592181	17389.474333	1328.701172	1281.070923
2710.592181	17389.474333	1327.606445	1601.406372
2710.592181	17389.474333	1326.512695	1594.464355
2710.592181	17389.474333	1325.417969	1492.167236
2710.592181	17389.474333	1324.323242	1477.865723
2710.592181	17389.474333	1323.227539	1300.009277
2710.592181	17389.474333	1322.132813	1642.893677
2710.592181	17389.474333	1321.037109	1726.684814
2710.592181	17389.474333	1319.941406	1450.781738
2710.592181	17389.474333	1318.845703	1278.409180
2710.592181	17389.474333	1317.750000	1380.905396
2710.592181	17389.474333	1316.653320	1513.505615
2710.592181	17389.474333	1315.556641	1417.697876
2710.592181	17389.474333	1314.459961	1298.201294
2710.592181	17389.474333	1313.363281	1083.246460
2710.592181	17389.474333	1312.265625	998.500916
2710.592181	17389.474333	1311.167969	886.446167
2710.592181	17389.474333	1310.070313	884.227112
2710.592181	17389.474333	1308.972656	828.625061
2710.592181	17389.474333	1307.874023	892.651733
2710.592181	17389.474333	1306.776367	939.167297
2710.592181	17389.474333	1305.677734	750.403931
2710.592181	17389.474333	1304.579102	832.590515
2710.592181	17389.474333	1303.479492	775.006836
2710.592181	17389.474333	1302.380859	557.719055
2710.592181	17389.474333	1301.281250	483.032593
2710.592181	17389.474333	1300.181641	540.255920
2710.592181	17389.474333	1299.081055	540.206299
2710.592181	17389.474333	1297.981445	455.159821
2710.592181	17389.474333	1296.880859	449.504913
2710.592181	17389.474333	1295.780273	563.602295
2710.592181	17389.474333	1294.679688	314.944244
2710.592181	17389.474333	1293.578125	563.850464
2710.592181	17389.474333	1292.476563	579.927490
2710.592181	17389.474333	1291.375000	279.003479
2710.592181	17389.474333	1290.273438	626.644897
2710.592181	17389.474333	1289.171875	287.719025
2710.592181	17389.474333	1288.069336	192.573471
2710.592181	17389.474333	1286.966797	160.579727
2710.592181	17389.474333	1285.864258	-31.027761
2710.592181	17389.474333	1284.761719	174.018631
2710.592181	17389.474333	1283.658203	200.193848
2710.592181	17389.474333	1282.554688	53.306450
2710.592181	17389.474333	1281.451172	-9.264596
2710.592181	17389.474333	1280.347656	34.842087
2710.592181	17389.474333	1279.244141	98.804276
2710.592181	17389.474333	1278.139648	-86.896805
2710.592181	17389.474333	1277.035156	138.433655
2710.592181	17389.474333	1275.930664	123.203918
2710.592181	17389.474333	1274.825195	138.297760
2710.592181	17389.474333	1273.720703	216.182144
2710.592181	17389.474333	1272.615234	315.493866
2710.592181	17389.474333	1271.508789	257.653137
2710.592181	17389.474333	1270.403320	109.954491
2710.592181	17389.474333	1269.297852	122.945984
2710.592181	17389.474333	1268.191406	287.140778
2710.592181	17389.474333	1267.084961	363.879425
2710.592181	17389.474333	1265.977539	377.444733
2710.592181	17389.474333	1264.871094	234.030975
2710.592181	17389.474333	1263.763672	384.057343
2710.592181	17389.474333	1262.656250	327.452026
2710.592181	17389.474333	1261.548828	410.279449
2710.592181	17389.474333	1260.440430	341.385284
2710.592181	17389.474333	1259.333008	390.386963
2710.592181	17389.474333	1258.224609	313.833252
2710.592181	17389.474333	1257.115234	135.140320
2710.592181	17389.474333	1256.006836	-5.078627
2710.592181	17389.474333	1254.897461	87.311432
2710.592181	17389.474333	1253.788086	216.439331
2710.592181	17389.474333	1252.678711	20.121492
2710.592181	17389.474333	1251.569336	-214.878372
2710.592181	17389.474333	1250.458984	180.965561
2710.592181	17389.474333	1249.349609	19.226782
2710.592181	17389.474333	1248.239258	309.515533
2710.592181	17389.474333	1247.127930	246.712860
2710.592181	17389.474333	1246.017578	394.683014
2710.592181	17389.474333	1244.906250	387.800140
2710.592181	17389.474333	1243.794922	111.524734
2710.592181	17389.474333	1242.683594	141.942764
2710.592181	17389.474333	1241.571289	209.330353
2710.592181	17389.474333	1240.459961	145.254562
2710.592181	17389.474333	1239.347656	170.875092
2710.592181	17389.474333	1238.234375	42.061184
2710.592181	17389.474333	1237.122070	-44.223770
2710.592181	17389.474333	1236.008789	111.182037
2710.592181	17389.474333	1234.896484	139.878601
2710.592181	17389.474333	1233.782227	271.018921
2710.592181	17389.474333	1232.668945	95.510704
2710.592181	17389.474333	1231.555664	123.140022
2710.592181	17389.474333	1230.441406	94.700867
2710.592181	17389.474333	1229.327148	51.065468
2710.592181	17389.474333	1228.211914	-93.620590
2710.592181	17389.474333	1227.097656	113.902626
2710.592181	17389.474333	1225.982422	27.336342
2710.592181	17389.474333	1224.867188	111.275421
2710.592181	17389.474333	1223.751953	93.862564
2710.592181	17389.474333	1222.635742	129.835205
2710.592181	17389.474333	1221.520508	38.478596
2710.592181	17389.474333	1220.404297	-88.302795
2710.592181	17389.474333	1219.287109	5.838828
2710.592181	17389.474333	1218.170898	-70.438217
2710.592181	17389.474333	1217.053711	-38.778294
2710.592181	17389.474333	1215.936523	87.706444
2710.592181	17389.474333	1214.819336	-102.671349
2710.592181	17389.474333	1213.702148	-15.983758
2710.592181	17389.474333	1212.583984	50.237137
2710.592181	17389.474333	1211.465820	-9.355149
2710.592181	17389.474333	1210.347656	-76.367851
2710.592181	17389.474333	1209.229492	-69.632805
2710.592181	17389.474333	1208.110352	-2.365695
2710.592181	17389.474333	1206.992188	-39.021248
2710.592181	17389.474333	1205.873047	-41.861134
2710.592181	17389.474333	1204.752930	30.110912
2710.592181	17389.474333	1203.633789	-50.885868
2710.592181	17389.474333	1202.513672	-234.044891
2710.592181	17389.474333	1201.393555	-95.983925
2710.592181	17389.474333	1200.273438	-94.698807
2710.592181	17389.474333	1199.152344	-27.739326
2710.592181	17389.474333	1198.032227	63.149197
2710.592181	17389.474333	1196.911133	7.462588
2710.592181	17389.474333	1195.790039	76.915276
2710.592181	17389.474333	1194.667969	159.625336
2710.592181	17389.474333	1193.545898	276.506500
2710.592181	17389.474333	1192.424805	122.267570
2710.592181	17389.474333	1191.301758	46.138912
2710.592181	17389.474333	1190.179688	91.877151
2710.592181	17389.474333	1189.056641	224.934738
2710.592181	17389.474333	1187.933594	160.465836
2710.592181	17389.474333	1186.810547	249.531372
2710.592181	17389.474333	1185.687500	257.313354
2710.592181	17389.474333	1184.563477	324.458923
2710.592181	17389.474333	1183.440430	260.649597
2710.592181	17389.474333	1182.316406	271.686981
2710.592181	17389.474333	1181.191406	248.397522
2710.592181	17389.474333	1180.067383	140.332245
2710.592181	17389.474333	1178.942383	376.079590
2710.592181	17389.474333	1177.817383	0.489502
2710.592181	17389.474333	1176.692383	308.847656
2710.592181	17389.474333	1175.566406	129.123062
2710.592181	17389.474333	1174.440430	96.025276
2710.592181	17389.474333	1173.314453	-2.322143
2710.592181	17389.474333	1172.188477	219.598892
2710.592181	17389.474333	1171.062500	367.999847
2710.592181	17389.474333	1169.935547	265.939331
2710.592181	17389.474333	1168.808594	307.144836
2710.592181	17389.474333	1167.681641	296.605255
2710.592181	17389.474333	1166.553711	282.451233
2710.592181	17389.474333	1165.426758	180.930847
2710.592181	17389.474333	1164.298828	291.373260
2710.592181	17389.474333	1163.170898	274.359894
2710.592181	17389.474333	1162.041992	152.907944
2710.592181	17389.474333	1160.914063	139.527756
2710.592181	17389.474333	1159.785156	-88.035980
2710.592181	17389.474333	1158.656250	-204.224976
2710.592181	17389.474333	1157.526367	-117.991013
2710.592181	17389.474333	1156.397461	-278.447144
2710.592181	17389.474333	1155.267578	-249.806213
2710.592181	17389.474333	1154.137695	-48.746944
2710.592181	17389.474333	1153.006836	-72.309250
2710.592181	17389.474333	1151.876953	-281.343781
2710.592181	17389.474333	1150.746094	-109.532745
2710.592181	17389.474333	1149.615234	-144.378677
2710.592181	17389.474333	1148.484375	-94.706970
2710.592181	17389.474333	1147.352539	-59.021782
2710.592181	17389.474333	1146.220703	-517.384949
2710.592181	17389.474333	1145.088867	-266.642242
2710.592181	17389.474333	1143.957031	-340.738251
2710.592181	17389.474333	1142.825195	-120.724831
2710.592181	17389.474333	1141.692383	-86.580147
2710.592181	17389.474333	1140.559570	-447.996368
2710.592181	17389.474333	1139.426758	-292.288971
2710.592181	17389.474333	1138.292969	-464.953033
2710.592181	17389.474333	1137.159180	-486.512421
2710.592181	17389.474333	1136.025391	-278.109711
2710.592181	17389.474333	1134.891602	-429.030151
2710.592181	17389.474333	1133.757813	-291.002258
2710.592181	17389.474333	1132.623047	-318.745087
2710.592181	17389.474333	1131.488281	-166.156982
2710.592181	17389.474333	1130.353516	-191.112900
2710.592181	17389.474333	1129.217773	-54.421040
2710.592181	17389.474333	1128.083008	-169.944519
2710.592181	17389.474333	1126.947266	-97.342766
2710.592181	17389.474333	1125.811523	25.180794
2710.592181	17389.474333	1124.674805	95.866455
2710.592181	17389.474333	1123.539063	-129.197845
2710.592181	17389.474333	1122.402344	72.149010
2710.592181	17389.474333	1121.265625	117.432549
2710.592181	17389.474333	1120.127930	32.855618
2710.592181	17389.474333	1118.990234	17.396141
2710.592181	17389.474333	1117.853516	52.883087
2710.592181	17389.474333	1116.714844	170.262909
2710.592181	17389.474333	1115.577148	145.779984
2710.592181	17389.474333	1114.439453	-15.562214
2710.592181	17389.474333	1113.300781	224.673920
2710.592181	17389.474333	1112.162109	161.822540
2710.592181	17389.474333	1111.022461	10.108171
2710.592181	17389.474333	1109.883789	77.642998
2710.592181	17389.474333	1108.744141	7.701914
2710.592181	17389.474333	1107.604492	-7.527906
2710.592181	17389.474333	1106.463867	-44.434631
2710.592181	17389.474333	1105.324219	-82.123848
2710.592181	17389.474333	1104.183594	-218.258057
2710.592181	17389.474333	1103.042969	-94.262833
2710.592181	17389.474333	1101.902344	193.553604
2710.592181	17389.474333	1100.760742	79.285995
2710.592181	17389.474333	1099.619141	146.282578
2710.592181	17389.474333	1098.477539	35.294750
2710.592181	17389.474333	1097.335938	-163.009064
2710.592181	17389.474333	1096.193359	94.417603
2710.592181	17389.474333	1095.051758	176.981140
2710.592181	17389.474333	1093.909180	152.068863
2710.592181	17389.474333	1092.765625	124.594963
2710.592181	17389.474333	1091.623047	29.962711
2710.592181	17389.474333	1090.479492	110.012825
2710.592181	17389.474333	1089.335938	52.635761
2710.592181	17389.474333	1088.192383	54.123100
2710.592181	17389.474333	1087.047852	119.817337
2710.592181	17389.474333	1085.903320	217.634720
2710.592181	17389.474333	1084.758789	96.232124
2710.592181	17389.474333	1083.614258	172.935364
2710.592181	17389.474333	1082.469727	-42.204151
2710.592181	17389.474333	1081.324219	-110.030006
2710.592181	17389.474333	1080.178711	37.047592
2710.592181	17389.474333	1079.033203	-248.731415
2710.592181	17389.474333	1077.886719	12.662087
2710.592181	17389.474333	1076.740234	-42.846725
2710.592181	17389.474333	1075.593750	-5.890912
2710.592181	17389.474333	1074.447266	40.910152
2710.592181	17389.474333	1073.300781	142.279877
2710.592181	17389.474333	1072.153320	322.336670
2710.592181	17389.474333	1071.005859	472.413635
2710.592181	17389.474333	1069.858398	222.328003
2710.592181	17389.474333	1068.709961	199.933151
2710.592181	17389.474333	1067.561523	569.344849
2710.592181	17389.474333	1066.413086	388.466248
2710.592181	17389.474333	1065.264648	420.851990
2710.592181	17389.474333	1064.116211	599.890564
2710.592181	17389.474333	1062.966797	426.781586
2710.592181	17389.474333	1061.817383	305.593597
2710.592181	17389.474333	1060.667969	475.032623
2710.592181	17389.474333	1059.517578	154.002914
2710.592181	17389.474333	1058.368164	476.247437
2710.592181	17389.474333	1057.217773	330.070770
2710.592181	17389.474333	1056.067383	337.843018
2710.592181	17389.474333	1054.916016	80.104736
2710.592181	17389.474333	1053.764648	157.508484
2710.592181	17389.474333	1052.613281	82.281837
2710.592181	17389.474333	1051.461914	63.279354
2710.592181	17389.474333	1050.310547	159.288193
2710.592181	17389.474333	1049.158203	135.953812
2710.592181	17389.474333	1048.005859	133.200989
2710.592181	17389.474333	1046.853516	363.404816
2710.592181	17389.474333	1045.700195	268.090271
2710.592181	17389.474333	1044.547852	297.635376
2710.592181	17389.474333	1043.394531	322.566406
2710.592181	17389.474333	1042.240234	282.096100
2710.592181	17389.474333	1041.086914	302.402008
2710.592181	17389.474333	1039.932617	274.176727
2710.592181	17389.474333	1038.778320	400.571777
2710.592181	17389.474333	1037.624023	385.559998
2710.592181	17389.474333	1036.469727	281.732452
2710.592181	17389.474333	1035.314453	540.643311
2710.592181	17389.474333	1034.159180	578.307007
2710.592181	17389.474333	1033.003906	706.166138
2710.592181	17389.474333	1031.847656	646.850769
2710.592181	17389.474333	1030.692383	748.567200
2710.592181	17389.474333	1029.536133	827.659302
2710.592181	17389.474333	1028.378906	583.740295
2710.592181	17389.474333	1027.222656	453.315063
2710.592181	17389.474333	1026.065430	418.055817
2710.592181	17389.474333	1024.908203	560.671387
2710.592181	17389.474333	1023.750977	493.027283
2710.592181	17389.474333	1022.593750	361.237183
2710.592181	17389.474333	1021.435547	370.787598
2710.592181	17389.474333	1020.277344	225.910309
2710.592181	17389.474333	1019.119141	588.030518
2710.592181	17389.474333	1017.959961	528.559143
2710.592181	17389.474333	1016.800781	619.774292
2710.592181	17389.474333	1015.641602	251.590500
2710.592181	17389.474333	1014.482422	143.015976
2710.592181	17389.474333	1013.323242	218.076569
2710.592181	17389.474333	1012.163086	296.847717
2710.592181	17389.474333	1011.002930	235.980240
2710.592181	17389.474333	1009.842773	228.207047
2710.592181	17389.474333	1008.681641	293.576904
2710.592181	17389.474333	1007.520508	87.512459
2710.592181	17389.474333	1006.359375	260.199829
2710.592181	17389.474333	1005.198242	368.523254
2710.592181	17389.474333	1004.037109	224.235275
2710.592181	17389.474333	1002.875000	365.790314
2710.592181	17389.474333	1001.712891	338.590240
2710.592181	17389.474333	1000.550781	310.161987
2710.592181	17389.474333	999.387695	106.631516
2710.592181	17389.474333	998.224609	77.202858
2710.592181	17389.474333	997.061523	261.701782
2710.592181	17389.474333	995.898438	264.847626
2710.592181	17389.474333	994.734375	73.958366
2710.592181	17389.474333	993.571289	105.452469
2710.592181	17389.474333	992.407227	153.530609
2710.592181	17389.474333	991.242188	94.253624
2710.592181	17389.474333	990.078125	218.426437
2710.592181	17389.474333	988.913086	-54.866169
2710.592181	17389.474333	987.748047	-39.221832
2710.592181	17389.474333	986.583008	-5.074468
2710.592181	17389.474333	985.416992	-105.685066
2710.592181	17389.474333	984.250977	154.217255
2710.592181	17389.474333	983.084961	108.430038
2710.592181	17389.474333	981.918945	149.021362
2710.592181	17389.474333	980.751953	148.718094
2710.592181	17389.474333	979.584961	16.193930
2710.592181	17389.474333	978.417969	370.487671
2710.592181	17389.474333	977.250977	-58.092400
2710.592181	17389.474333	976.083008	192.005447
2710.592181	17389.474333	974.915039	411.807861
2710.592181	17389.474333	973.747070	315.313629
2710.592181	17389.474333	972.579102	201.942429
2710.592181	17389.474333	971.410156	307.546326
2710.592181	17389.474333	970.242188	132.367615
2710.592181	17389.474333	969.072266	399.640442
2710.592181	17389.474333	967.903320	89.797173
2710.592181	17389.474333	966.733398	454.342529
2710.592181	17389.474333	965.563477	465.349945
2710.592181	17389.474333	964.393555	257.879730
2710.592181	17389.474333	963.223633	314.726654
2710.592181	17389.474333	962.052734	345.624786
2710.592181	17389.474333	960.881836	299.669525
2710.592181	17389.474333	959.710938	402.745422
2710.592181	17389.474333	958.540039	318.798553
2710.592181	17389.474333	957.368164	572.528503
2710.592181	17389.474333	956.196289	647.541809
2710.592181	17389.474333	955.024414	140.165390
2710.592181	17389.474333	953.851563	262.517517
2710.592181	17389.474333	952.679688	157.683334
2710.592181	17389.474333	951.506836	255.445328
2710.592181	17389.474333	950.333984	424.000305
2710.592181	17389.474333	949.160156	359.801178
2710.592181	17389.474333	947.986328	357.052704
2710.592181	17389.474333	946.812500	133.094620
2710.592181	17389.474333	945.638672	80.307617
2710.592181	17389.474333	944.464844	91.388786
2710.592181	17389.474333	943.290039	258.543488
2710.592181	17389.474333	942.115234	18.311975
2710.592181	17389.474333	940.940430	75.985107
2710.592181	17389.474333	939.764648	276.222076
2710.592181	17389.474333	938.588867	323.987244
2710.592181	17389.474333	937.413086	242.546082
2710.592181	17389.474333	936.237305	-71.200188
2710.592181	17389.474333	935.060547	257.761780
2710.592181	17389.474333	933.883789	300.675964
2710.592181	17389.474333	932.707031	125.266861
2710.592181	17389.474333	931.530273	273.239380
2710.592181	17389.474333	930.352539	132.747177
2710.592181	17389.474333	929.175781	147.006821
2710.592181	17389.474333	927.998047	121.323753
2710.592181	17389.474333	926.819336	69.737625
2710.592181	17389.474333	925.641602	-17.033548
2710.592181	17389.474333	924.462891	130.496841
2710.592181	17389.474333	923.284180	200.560806
2710.592181	17389.474333	922.104492	268.205017
2710.592181	17389.474333	920.924805	317.001465
2710.592181	17389.474333	919.746094	321.508850
2710.592181	17389.474333	919.551758	69.037186
2710.592181	17389.474333	918.386719	215.953674
2710.592181	17389.474333	917.220703	56.093235
2710.592181	17389.474333	916.054688	99.815262
2710.592181	17389.474333	914.887695	269.787048
2710.592181	17389.474333	913.721680	233.744644
2710.592181	17389.474333	912.554688	256.107697
2710.592181	17389.474333	911.387695	374.252502
2710.592181	17389.474333	910.220703	373.035309
2710.592181	17389.474333	909.052734	460.563446
2710.592181	17389.474333	907.885742	405.420349
2710.592181	17389.474333	906.717773	499.757385
2710.592181	17389.474333	905.548828	393.085846
2710.592181	17389.474333	904.380859	295.718140
2710.592181	17389.474333	903.211914	53.545372
2710.592181	17389.474333	902.042969	563.120178
2710.592181	17389.474333	900.874023	199.467682
2710.592181	17389.474333	899.704102	395.954498
2710.592181	17389.474333	898.535156	445.297852
2710.592181	17389.474333	897.365234	454.895142
2710.592181	17389.474333	896.194336	459.752747
2710.592181	17389.474333	895.024414	114.779755
2710.592181	17389.474333	893.853516	324.709045
2710.592181	17389.474333	892.682617	352.684479
2710.592181	17389.474333	891.511719	231.439224
2710.592181	17389.474333	890.340820	142.792343
2710.592181	17389.474333	889.168945	331.303192
2710.592181	17389.474333	887.997070	223.905884
2710.592181	17389.474333	886.825195	312.066956
2710.592181	17389.474333	885.653320	241.829056
2710.592181	17389.474333	884.480469	85.440781
2710.592181	17389.474333	883.307617	3.512228
2710.592181	17389.474333	882.134766	100.690567
2710.592181	17389.474333	880.961914	-34.835068
2710.592181	17389.474333	879.788086	-68.044861
2710.592181	17389.474333	878.614258	89.350212
2710.592181	17389.474333	877.440430	37.406456
2710.592181	17389.474333	876.266602	24.931166
2710.592181	17389.474333	875.091797	-99.132256
2710.592181	17389.474333	873.916992	122.940941
2710.592181	17389.474333	872.742188	-212.575165
2710.592181	17389.474333	871.567383	-160.208298
2710.592181	17389.474333	870.391602	1.198607
2710.592181	17389.474333	869.215820	74.274773
2710.592181	17389.474333	868.040039	-91.776077
2710.592181	17389.474333	866.864258	55.422626
2710.592181	17389.474333	865.687500	130.590210
2710.592181	17389.474333	864.510742	98.981079
2710.592181	17389.474333	863.333984	-11.511630
2710.592181	17389.474333	862.157227	56.500343
2710.592181	17389.474333	860.979492	193.968536
2710.592181	17389.474333	859.802734	6.883097
2710.592181	17389.474333	858.625000	-147.740234
2710.592181	17389.474333	857.446289	56.701466
2710.592181	17389.474333	856.268555	101.201523
2710.592181	17389.474333	855.089844	-106.762695
2710.592181	17389.474333	853.911133	-41.515549
2710.592181	17389.474333	852.731445	-233.265045
2710.592181	17389.474333	851.552734	-1.506814
2710.592181	17389.474333	850.373047	-70.665222
2710.592181	17389.474333	849.193359	-169.917038
2710.592181	17389.474333	848.013672	56.911049
2710.592181	17389.474333	846.833008	-160.347198
2710.592181	17389.474333	845.652344	-97.845978
2710.592181	17389.474333	844.471680	-63.154205
2710.592181	17389.474333	843.291016	-104.780228
2710.592181	17389.474333	842.110352	-84.058571
2710.592181	17389.474333	840.928711	-155.785614
2710.592181	17389.474333	839.747070	-52.019691
2710.592181	17389.474333	838.564453	-112.274078
2710.592181	17389.474333	837.382813	-248.726181
2710.592181	17389.474333	836.200195	-352.858032
2710.592181	17389.474333	835.017578	-244.706390
2710.592181	17389.474333	833.834961	-99.732811
2710.592181	17389.474333	832.651367	-160.143143
2710.592181	17389.474333	831.467773	-227.491653
2710.592181	17389.474333	830.284180	18.699549
2710.592181	17389.474333	829.100586	84.948372
2710.592181	17389.474333	827.916992	-143.863998
2710.592181	17389.474333	826.732422	-169.861633
2710.592181	17389.474333	825.547852	27.562498
2710.592181	17389.474333	824.363281	24.485838
2710.592181	17389.474333	823.177734	150.319366
2710.592181	17389.474333	821.992188	121.807854
2710.592181	17389.474333	820.806641	134.697678
2710.592181	17389.474333	819.621094	-183.843903
2710.592181	17389.474333	818.434570	-81.248886
2710.592181	17389.474333	817.249023	2.859116
2710.592181	17389.474333	816.062500	31.694950
2710.592181	17389.474333	814.875000	-180.959030
2710.592181	17389.474333	813.688477	-76.315163
2710.592181	17389.474333	812.500977	-125.752556
2710.592181	17389.474333	811.313477	-9.755693
2710.592181	17389.474333	810.125977	-61.564621
2710.592181	17389.474333	808.937500	42.803391
2710.592181	17389.474333	807.749023	-213.468094
2710.592181	17389.474333	806.560547	49.236317
2710.592181	17389.474333	805.372070	-9.591040
2710.592181	17389.474333	804.182617	-34.007637
2710.592181	17389.474333	802.994141	-10.265340
2710.592181	17389.474333	801.803711	1.954261
2710.592181	17389.474333	800.614258	94.409164
2710.592181	17389.474333	799.424805	-51.708176
2710.592181	17389.474333	798.234375	47.518219
2710.592181	17389.474333	797.043945	-18.380239
2710.592181	17389.474333	795.852539	-33.871452
2710.592181	17389.474333	794.662109	-97.512573
2710.592181	17389.474333	793.470703	-152.005173
2710.592181	17389.474333	792.279297	70.620743
2710.592181	17389.474333	791.087891	20.617172
2710.592181	17389.474333	789.895508	185.799225
2710.592181	17389.474333	788.703125	-63.424587
2710.592181	17389.474333	787.510742	-129.508331
2710.592181	17389.474333	786.318359	-280.258636
2710.592181	17389.474333	785.125000	60.828907
2710.592181	17389.474333	783.931641	83.836731
2710.592181	17389.474333	782.738281	127.374214
2710.592181	17389.474333	781.544922	-60.042076
2710.592181	17389.474333	780.350586	-32.571953
2710.592181	17389.474333	779.156250	131.955032
2710.592181	17389.474333	777.961914	31.351311
2710.592181	17389.474333	776.767578	134.044586
2710.592181	17389.474333	775.572266	99.629768
2710.592181	17389.474333	774.376953	-74.089813
2710.592181	17389.474333	773.181641	110.619179
2710.592181	17389.474333	771.986328	213.047684
2710.592181	17389.474333	770.790039	285.728912
2710.592181	17389.474333	769.593750	289.897980
2710.592181	17389.474333	768.397461	227.878983
2710.592181	17389.474333	767.201172	227.415955
2710.592181	17389.474333	766.003906	197.272446
2710.592181	17389.474333	764.806641	294.749054
2710.592181	17389.474333	763.609375	387.585938
2710.592181	17389.474333	762.412109	523.633484
2710.592181	17389.474333	761.213867	495.564331
2710.592181	17389.474333	760.015625	708.885193
2710.592181	17389.474333	758.817383	614.669189
2710.592181	17389.474333	757.618164	597.852478
2710.592181	17389.474333	756.419922	467.196045
2710.592181	17389.474333	755.220703	580.044922
2710.592181	17389.474333	754.021484	333.324982
2710.592181	17389.474333	752.821289	461.990753
2710.592181	17389.474333	751.621094	390.426117
2710.592181	17389.474333	750.420898	227.896561
2710.592181	17389.474333	749.220703	379.105988
2710.592181	17389.474333	748.020508	237.016083
2710.592181	17389.474333	746.819336	538.045105
2710.592181	17389.474333	745.618164	593.541931
2710.592181	17389.474333	744.416992	658.058105
2710.592181	17389.474333	743.214844	461.342804
2710.592181	17389.474333	742.012695	421.326080
2710.592181	17389.474333	740.810547	562.877808
2710.592181	17389.474333	739.608398	652.127686
2710.592181	17389.474333	738.406250	950.044189
2710.592181	17389.474333	737.203125	1093.526733
2710.592181	17389.474333	736.000000	1538.556274
2710.592181	17389.474333	734.795898	1813.281128
2710.592181	17389.474333	733.592773	2554.875732
2710.592181	17389.474333	732.388672	2539.046875
2710.592181	17389.474333	731.184570	2591.162354
2710.592181	17389.474333	729.979492	2575.234863
2710.592181	17389.474333	728.775391	2627.224854
2710.592181	17389.474333	727.570313	2074.450684
2710.592181	17389.474333	726.365234	1775.459595
2710.592181	17389.474333	725.160156	1288.648071
2710.592181	17389.474333	723.954102	1073.589844
2710.592181	17389.474333	722.748047	1145.955811
2710.592181	17389.474333	721.541992	804.223022
2710.592181	17389.474333	720.334961	677.463379
2710.592181	17389.474333	719.128906	704.487793
2710.592181	17389.474333	717.921875	704.316772
2710.592181	17389.474333	716.714844	536.816589
2710.592181	17389.474333	715.506836	387.413361
2710.592181	17389.474333	714.298828	459.457794
2710.592181	17389.474333	713.090820	314.548309
2710.592181	17389.474333	711.882813	289.354645
2710.592181	17389.474333	710.674805	284.441925
2710.592181	17389.474333	709.465820	220.777069
2710.592181	17389.474333	708.256836	82.598717
2710.592181	17389.474333	707.047852	231.028748
2710.592181	17389.474333	705.837891	155.971375
2710.592181	17389.474333	704.627930	362.862671
2710.592181	17389.474333	703.417969	247.107742
2710.592181	17389.474333	702.208008	280.165344
2710.592181	17389.474333	700.998047	204.946411
2710.592181	17389.474333	699.787109	334.803223
2710.592181	17389.474333	698.576172	275.264893
2710.592181	17389.474333	697.364258	235.969727
2710.592181	17389.474333	696.153320	171.863113
2710.592181	17389.474333	694.941406	281.127197
2710.592181	17389.474333	693.729492	415.055847
2710.592181	17389.474333	692.516602	452.074402
2710.592181	17389.474333	691.304688	299.978180
2710.592181	17389.474333	690.091797	750.909973
2710.592181	17389.474333	688.878906	823.659912
2710.592181	17389.474333	687.665039	561.196228
2710.592181	17389.474333	686.451172	516.907776
2710.592181	17389.474333	685.237305	638.947815
2710.592181	17389.474333	684.023438	760.878662
2710.592181	17389.474333	682.809570	606.291077
2710.592181	17389.474333	681.594727	669.642273
2710.592181	17389.474333	680.379883	732.911255
2710.592181	17389.474333	679.165039	629.903625
2710.592181	17389.474333	677.949219	758.148804
2710.592181	17389.474333	676.733398	580.978455
2710.592181	17389.474333	675.517578	816.796875
2710.592181	17389.474333	674.301758	727.086426
2710.592181	17389.474333	673.084961	951.435913
2710.592181	17389.474333	671.869141	1128.535767
2710.592181	17389.474333	670.651367	1155.244019
2710.592181	17389.474333	669.434570	989.070923
2710.592181	17389.474333	668.216797	816.180054
2710.592181	17389.474333	667.000000	1033.261353
2710.592181	17389.474333	665.781250	1088.857056
2710.592181	17389.474333	664.563477	1312.387939
2710.592181	17389.474333	663.344727	1027.353271
2710.592181	17389.474333	662.125977	784.924438
2710.592181	17389.474333	660.907227	1202.968628
2710.592181	17389.474333	659.688477	1045.543701
2710.592181	17389.474333	658.468750	1062.669556
2710.592181	17389.474333	657.249023	1077.493286
2710.592181	17389.474333	656.029297	1007.252441
2710.592181	17389.474333	654.808594	1075.632935
2710.592181	17389.474333	653.587891	989.650146
2710.592181	17389.474333	652.367188	1069.067017
2710.592181	17389.474333	651.146484	880.199158
2710.592181	17389.474333	649.924805	1104.727539
2710.592181	17389.474333	648.704102	1007.411804
2710.592181	17389.474333	647.482422	1097.691895
2710.592181	17389.474333	646.259766	969.029907
2710.592181	17389.474333	645.037109	1074.789185
2710.592181	17389.474333	643.815430	856.795410
2710.592181	17389.474333	642.591797	873.149170
2710.592181	17389.474333	641.369141	809.124390
2710.592181	17389.474333	640.145508	727.219299
2710.592181	17389.474333	638.921875	774.647156
2710.592181	17389.474333	637.698242	993.692505
2710.592181	17389.474333	636.474609	835.840149
2710.592181	17389.474333	635.250000	1016.774658
2710.592181	17389.474333	634.025391	890.067017
2710.592181	17389.474333	632.800781	685.384705
2710.592181	17389.474333	631.575195	701.242310
2710.592181	17389.474333	630.349609	868.471741
2710.592181	17389.474333	629.124023	1053.390869
2710.592181	17389.474333	627.898438	882.020752
2710.592181	17389.474333	626.671875	1231.437378
2710.592181	17389.474333	625.445313	777.413330
2710.592181	17389.474333	624.218750	1182.216797
2710.592181	17389.474333	622.992188	1086.376587
2710.592181	17389.474333	621.764648	794.841858
2710.592181	17389.474333	620.537109	876.873535
2710.592181	17389.474333	619.309570	881.027039
2710.592181	17389.474333	618.081055	460.682953
2710.592181	17389.474333	616.852539	638.119080
2710.592181	17389.474333	615.624023	360.072540
2710.592181	17389.474333	614.395508	584.000977
2710.592181	17389.474333	613.166992	239.384628
2710.592181	17389.474333	611.937500	301.098175
2710.592181	17389.474333	610.708008	400.471497
2710.592181	17389.474333	609.477539	273.424194
2710.592181	17389.474333	608.248047	13.289268
2710.592181	17389.474333	607.017578	318.799713
2710.592181	17389.474333	605.787109	-41.109951
2710.592181	17389.474333	604.555664	250.893921
2710.592181	17389.474333	603.325195	44.016720
2710.592181	17389.474333	602.093750	58.791073
2710.592181	17389.474333	600.861328	120.042999
2710.592181	17389.474333	599.629883	-91.222084
2710.592181	17389.474333	598.397461	-43.323212
2710.592181	17389.474333	597.165039	11.164711
2710.592181	17389.474333	595.932617	-49.518085
2710.592181	17389.474333	594.699219	42.501038
2710.592181	17389.474333	593.465820	96.831863
2710.592181	17389.474333	592.232422	135.623871
2710.592181	17389.474333	590.999023	302.656403
2710.592181	17389.474333	589.764648	135.665405
2710.592181	17389.474333	588.530273	167.699249
2710.592181	17389.474333	587.295898	182.011017
2710.592181	17389.474333	586.061523	218.390869
2710.592181	17389.474333	584.826172	126.573746
2710.592181	17389.474333	583.590820	143.015427
2710.592181	17389.474333	582.355469	150.593994
2710.592181	17389.474333	581.119141	34.489750
2710.592181	17389.474333	579.882813	-72.754555
2710.592181	17389.474333	578.646484	34.122055
2710.592181	17389.474333	577.410156	-20.150690
2710.592181	17389.474333	576.172852	49.124088
2710.592181	17389.474333	574.935547	199.966812
2710.592181	17389.474333	573.698242	30.969549
2710.592181	17389.474333	572.460938	148.655060
2710.592181	17389.474333	571.222656	98.744652
2710.592181	17389.474333	569.984375	33.418991
2710.592181	17389.474333	568.746094	23.197927
2710.592181	17389.474333	567.506836	87.865311
2710.592181	17389.474333	566.267578	-19.288784
2710.592181	17389.474333	565.028320	36.542629
2710.592181	17389.474333	563.789063	336.714417
2710.592181	17389.474333	562.548828	372.625702
2710.592181	17389.474333	561.309570	210.480301
2710.592181	17389.474333	560.068359	149.593079
2710.592181	17389.474333	558.828125	335.100159
2710.592181	17389.474333	557.586914	291.813171
2710.592181	17389.474333	556.345703	312.311279
2710.592181	17389.474333	555.104492	414.141724
2710.592181	17389.474333	553.863281	557.693604
2710.592181	17389.474333	552.621094	534.194336
2710.592181	17389.474333	551.378906	541.471069
2710.592181	17389.474333	550.136719	425.764404
2710.592181	17389.474333	548.893555	646.077209
2710.592181	17389.474333	547.650391	537.005188
2710.592181	17389.474333	546.407227	410.437347
2710.592181	17389.474333	545.164063	595.551880
2710.592181	17389.474333	543.919922	523.904419
2710.592181	17389.474333	542.675781	415.019226
2710.592181	17389.474333	541.431641	455.329346
2710.592181	17389.474333	540.186523	673.236145
2710.592181	17389.474333	538.941406	577.605591
2710.592181	17389.474333	537.696289	501.766296
2710.592181	17389.474333	536.451172	706.455811
2710.592181	17389.474333	535.205078	908.888123
2710.592181	17389.474333	533.959961	572.478149
2710.592181	17389.474333	532.712891	746.441345
2710.592181	17389.474333	531.466797	880.962280
2710.592181	17389.474333	530.219727	608.335754
2710.592181	17389.474333	528.972656	694.747803
2710.592181	17389.474333	527.725586	437.665527
2710.592181	17389.474333	526.478516	357.910339
2710.592181	17389.474333	525.230469	241.043961
2710.592181	17389.474333	523.982422	237.964111
2710.592181	17389.474333	522.734375	210.881897
2710.592181	17389.474333	521.485352	37.416607
2710.592181	17389.474333	520.236328	27.949215
2710.592181	17389.474333	518.987305	-20.792692
2710.592181	17389.474333	517.737305	-159.021805
2710.592181	17389.474333	516.488281	-214.160339
2710.592181	17389.474333	515.238281	-219.020432
2710.592181	17389.474333	513.988281	-143.070145
2710.592181	17389.474333	512.737305	-204.589539
2710.592181	17389.474333	511.486328	-28.218681
2710.592181	17389.474333	510.235352	-172.524216
2710.592181	17389.474333	508.984375	-209.854050
2710.592181	17389.474333	507.732422	-255.842743
2710.592181	17389.474333	506.480469	1.246211
2710.592181	17389.474333	505.228516	35.977810
2710.592181	17389.474333	503.976563	101.254906
2710.592181	17389.474333	502.723633	164.374557
2710.592181	17389.474333	501.470703	268.904877
2710.592181	17389.474333	500.217773	238.438004
2710.592181	17389.474333	498.963867	181.909592
2710.592181	17389.474333	497.709961	275.648193
2710.592181	17389.474333	496.456055	125.675392
2710.592181	17389.474333	495.202148	34.566444
2710.592181	17389.474333	493.947266	-49.925682
2710.592181	17389.474333	492.692383	-138.675095
2710.592181	17389.474333	491.437500	-162.100937
2710.592181	17389.474333	490.181641	-159.380005
2710.592181	17389.474333	488.926758	-100.092155
2710.592181	17389.474333	487.670898	-201.572311
2710.592181	17389.474333	486.414063	-33.581642
2710.592181	17389.474333	485.158203	-152.297195
2710.592181	17389.474333	483.901367	-407.715057
2710.592181	17389.474333	482.644531	-50.750500
2710.592181	17389.474333	481.386719	-275.593384
2710.592181	17389.474333	480.128906	-96.656303
2710.592181	17389.474333	478.871094	-217.150421
2710.592181	17389.474333	477.613281	-146.660980
2710.592181	17389.474333	476.355469	-26.275324
2710.592181	17389.474333	475.096680	-122.718849
2710.592181	17389.474333	473.837891	242.646759
2710.592181	17389.474333	472.578125	-79.124771
2710.592181	17389.474333	471.319336	164.817566
2710.592181	17389.474333	470.059570	122.736069
2710.592181	17389.474333	468.799805	154.347443
2710.592181	17389.474333	467.539063	56.051678
2710.592181	17389.474333	466.278320	224.114929
2710.592181	17389.474333	465.017578	221.143936
2710.592181	17389.474333	463.756836	155.444504
2710.592181	17389.474333	462.495117	252.056671
2710.592181	17389.474333	461.233398	229.679474
2710.592181	17389.474333	459.971680	-138.682587
2710.592181	17389.474333	458.709961	165.544174
2710.592181	17389.474333	457.447266	121.620842
2710.592181	17389.474333	456.184570	-90.850052
2710.592181	17389.474333	454.921875	51.130394
2710.592181	17389.474333	453.658203	97.991653
2710.592181	17389.474333	452.394531	118.909866
2710.592181	17389.474333	451.130859	107.417503
2710.592181	17389.474333	449.867188	296.686493
2710.592181	17389.474333	448.602539	118.924728
2710.592181	17389.474333	447.337891	44.792870
2710.592181	17389.474333	446.073242	15.968022
2710.592181	17389.474333	444.807617	12.997190
2710.592181	17389.474333	443.542969	44.492550
2710.592181	17389.474333	442.276367	50.042496
2710.592181	17389.474333	441.010742	33.983463
2710.592181	17389.474333	439.744141	-12.308659
2710.592181	17389.474333	438.478516	249.468048
2710.592181	17389.474333	437.210938	215.922852
2710.592181	17389.474333	435.944336	294.303802
2710.592181	17389.474333	434.676758	333.795807
2710.592181	17389.474333	433.409180	291.363739
2710.592181	17389.474333	432.141602	207.946518
2710.592181	17389.474333	430.873047	328.866791
2710.592181	17389.474333	429.604492	301.162964
2710.592181	17389.474333	428.335938	204.505463
2710.592181	17389.474333	427.067383	232.468643
2710.592181	17389.474333	425.797852	238.758270
2710.592181	17389.474333	424.528320	317.961639
2710.592181	17389.474333	423.258789	293.798615
2710.592181	17389.474333	421.988281	114.753784
2710.592181	17389.474333	420.717773	292.173523
2710.592181	17389.474333	419.447266	422.055939
2710.592181	17389.474333	418.175781	525.885010
2710.592181	17389.474333	416.905273	195.801605
2710.592181	17389.474333	415.633789	457.970337
2710.592181	17389.474333	414.362305	337.812653
2710.592181	17389.474333	413.089844	440.535767
2710.592181	17389.474333	411.817383	234.062607
2710.592181	17389.474333	410.544922	325.444183
2710.592181	17389.474333	409.272461	264.246704
2710.592181	17389.474333	407.999023	14.105405
2710.592181	17389.474333	406.725586	140.887680
2710.592181	17389.474333	405.452148	213.682800
2710.592181	17389.474333	404.177734	326.749756
2710.592181	17389.474333	402.903320	105.273712
2710.592181	17389.474333	401.628906	172.525116
2710.592181	17389.474333	400.354492	213.620636
2710.592181	17389.474333	399.079102	175.039627
2710.592181	17389.474333	397.803711	334.993835
2710.592181	17389.474333	396.528320	60.106163
2710.592181	17389.474333	395.251953	-18.422112
2710.592181	17389.474333	393.976563	240.414825
2710.592181	17389.474333	392.700195	126.572281
2710.592181	17389.474333	391.422852	106.229301
2710.592181	17389.474333	390.145508	-36.519642
2710.592181	17389.474333	388.869141	8.187794
2710.592181	17389.474333	387.590820	99.185692
2710.592181	17389.474333	386.313477	148.902771
2710.592181	17389.474333	385.035156	-49.793915
2710.592181	17389.474333	383.756836	111.618156
2710.592181	17389.474333	382.478516	-126.887085
2710.592181	17389.474333	381.199219	126.795540
2710.592181	17389.474333	379.919922	-6.562779
2710.592181	17389.474333	378.640625	-12.739126
2710.592181	17389.474333	377.360352	44.167503
2710.592181	17389.474333	376.080078	-32.029003
2710.592181	17389.474333	374.799805	146.642166
2710.592181	17389.474333	373.519531	143.143295
2710.592181	17389.474333	372.238281	-46.723175
2710.592181	17389.474333	370.957031	109.652359
2710.592181	17389.474333	369.675781	43.424248
2710.592181	17389.474333	368.394531	-36.647472
2710.592181	17389.474333	367.112305	-60.371220
2710.592181	17389.474333	365.830078	31.791265
2710.592181	17389.474333	364.546875	-128.386948
2710.592181	17389.474333	363.264648	-136.555923
2710.592181	17389.474333	361.981445	-201.330170
2710.592181	17389.474333	360.698242	-161.088272
2710.592181	17389.474333	359.414063	11.665930
2710.592181	17389.474333	358.129883	-225.133530
2710.592181	17389.474333	356.845703	-150.921799
2710.592181	17389.474333	355.561523	-50.619305
2710.592181	17389.474333	354.276367	-219.555420
2710.592181	17389.474333	352.991211	-120.319038
2710.592181	17389.474333	351.706055	-71.587357
2710.592181	17389.474333	350.420898	-45.782700
2710.592181	17389.474333	349.134766	118.302513
2710.592181	17389.474333	347.848633	138.385834
2710.592181	17389.474333	346.561523	63.254955
2710.592181	17389.474333	345.275391	-102.751724
2710.592181	17389.474333	343.988281	-118.006172
2710.592181	17389.474333	342.700195	-46.259777
2710.592181	17389.474333	341.413086	-148.208771
2710.592181	17389.474333	340.125000	-10.711038
2710.592181	17389.474333	338.836914	-27.959993
2710.592181	17389.474333	337.548828	164.377808
2710.592181	17389.474333	336.259766	-3.560377
2710.592181	17389.474333	334.970703	-27.689402
2710.592181	17389.474333	333.681641	-30.929451
2710.592181	17389.474333	332.391602	128.361282
2710.592181	17389.474333	331.101563	77.714676
2710.592181	17389.474333	329.811523	39.296585
2710.592181	17389.474333	328.521484	63.785294
2710.592181	17389.474333	327.230469	19.914974
2710.592181	17389.474333	325.939453	210.001099
2710.592181	17389.474333	324.648438	249.192490
2710.592181	17389.474333	323.356445	340.269348
2710.592181	17389.474333	322.064453	208.586258
2710.592181	17389.474333	320.772461	382.197968
2710.592181	17389.474333	319.480469	651.792664
2710.592181	17389.474333	318.187500	417.605896
2710.592181	17389.474333	316.894531	579.071777
2710.592181	17389.474333	315.601563	616.764465
2710.592181	17389.474333	314.307617	536.913147
2710.592181	17389.474333	313.013672	466.151886
2710.592181	17389.474333	311.719727	275.753265
2710.592181	17389.474333	310.425781	246.107513
2710.592181	17389.474333	309.130859	330.541504
2710.592181	17389.474333	307.835938	107.517677
2710.592181	17389.474333	306.541016	304.020813
2710.592181	17389.474333	305.245117	211.806961
2710.592181	17389.474333	303.949219	155.392838
2710.592181	17389.474333	302.653320	50.437729
2710.592181	17389.474333	301.356445	23.049715
2710.592181	17389.474333	300.060547	102.782875
2710.592181	17389.474333	298.763672	-339.922638
