#X		#Y		#Wave		#Intensity
2839.421277	17349.051000	2000.043945	28.689041
2839.421277	17349.051000	1999.080078	14.434052
2839.421277	17349.051000	1998.116211	-67.389679
2839.421277	17349.051000	1997.151367	11.940499
2839.421277	17349.051000	1996.186523	-0.393208
2839.421277	17349.051000	1995.222656	74.021721
2839.421277	17349.051000	1994.256836	252.472168
2839.421277	17349.051000	1993.291992	292.222534
2839.421277	17349.051000	1992.327148	-103.756340
2839.421277	17349.051000	1991.361328	47.512356
2839.421277	17349.051000	1990.395508	508.130554
2839.421277	17349.051000	1989.429688	10.988182
2839.421277	17349.051000	1988.463867	303.279877
2839.421277	17349.051000	1987.497070	4.316599
2839.421277	17349.051000	1986.531250	-7.623253
2839.421277	17349.051000	1985.564453	-150.573257
2839.421277	17349.051000	1984.597656	198.525360
2839.421277	17349.051000	1983.630859	174.296936
2839.421277	17349.051000	1982.664063	1.832585
2839.421277	17349.051000	1981.696289	182.791183
2839.421277	17349.051000	1980.728516	183.375900
2839.421277	17349.051000	1979.761719	166.697983
2839.421277	17349.051000	1978.792969	36.465996
2839.421277	17349.051000	1977.825195	118.640007
2839.421277	17349.051000	1976.857422	-41.103477
2839.421277	17349.051000	1975.888672	41.109440
2839.421277	17349.051000	1974.919922	162.802078
2839.421277	17349.051000	1973.951172	272.137848
2839.421277	17349.051000	1972.982422	191.524338
2839.421277	17349.051000	1972.013672	22.179649
2839.421277	17349.051000	1971.043945	47.719990
2839.421277	17349.051000	1970.075195	184.211853
2839.421277	17349.051000	1969.105469	133.347290
2839.421277	17349.051000	1968.135742	-60.411095
2839.421277	17349.051000	1967.165039	-66.814178
2839.421277	17349.051000	1966.195313	264.300049
2839.421277	17349.051000	1965.224609	33.744896
2839.421277	17349.051000	1964.253906	91.414551
2839.421277	17349.051000	1963.283203	-6.031484
2839.421277	17349.051000	1962.312500	204.283127
2839.421277	17349.051000	1961.341797	13.363605
2839.421277	17349.051000	1960.370117	-147.937286
2839.421277	17349.051000	1959.399414	-186.151154
2839.421277	17349.051000	1958.427734	92.984795
2839.421277	17349.051000	1957.455078	-75.569077
2839.421277	17349.051000	1956.483398	245.272690
2839.421277	17349.051000	1955.511719	-21.558971
2839.421277	17349.051000	1954.539063	55.841511
2839.421277	17349.051000	1953.566406	25.096605
2839.421277	17349.051000	1952.593750	-123.565804
2839.421277	17349.051000	1951.621094	111.070442
2839.421277	17349.051000	1950.647461	-91.563652
2839.421277	17349.051000	1949.674805	111.076195
2839.421277	17349.051000	1948.701172	-47.268452
2839.421277	17349.051000	1947.727539	-1.797456
2839.421277	17349.051000	1946.753906	338.183838
2839.421277	17349.051000	1945.780273	74.393555
2839.421277	17349.051000	1944.805664	-113.235313
2839.421277	17349.051000	1943.831055	79.423492
2839.421277	17349.051000	1942.856445	-5.118967
2839.421277	17349.051000	1941.881836	-40.582088
2839.421277	17349.051000	1940.907227	-14.738008
2839.421277	17349.051000	1939.932617	-23.216295
2839.421277	17349.051000	1938.957031	51.636784
2839.421277	17349.051000	1937.981445	-125.909988
2839.421277	17349.051000	1937.005859	86.125160
2839.421277	17349.051000	1936.030273	160.921234
2839.421277	17349.051000	1935.054688	147.532272
2839.421277	17349.051000	1934.078125	38.660824
2839.421277	17349.051000	1933.101563	115.872520
2839.421277	17349.051000	1932.125000	207.740921
2839.421277	17349.051000	1931.148438	-118.871368
2839.421277	17349.051000	1930.171875	73.308411
2839.421277	17349.051000	1929.194336	-18.333611
2839.421277	17349.051000	1928.217773	-26.796331
2839.421277	17349.051000	1927.240234	8.755668
2839.421277	17349.051000	1926.262695	102.964203
2839.421277	17349.051000	1925.284180	-93.739723
2839.421277	17349.051000	1924.306641	37.094273
2839.421277	17349.051000	1923.328125	-78.905495
2839.421277	17349.051000	1922.350586	-126.472229
2839.421277	17349.051000	1921.372070	43.352436
2839.421277	17349.051000	1920.392578	47.048260
2839.421277	17349.051000	1919.414063	148.391846
2839.421277	17349.051000	1918.434570	5.577828
2839.421277	17349.051000	1917.456055	-215.296829
2839.421277	17349.051000	1916.476563	-72.510201
2839.421277	17349.051000	1915.497070	16.534681
2839.421277	17349.051000	1914.516602	-48.141464
2839.421277	17349.051000	1913.537109	-61.593918
2839.421277	17349.051000	1912.556641	307.770233
2839.421277	17349.051000	1911.576172	108.944458
2839.421277	17349.051000	1910.595703	-38.636379
2839.421277	17349.051000	1909.615234	91.636383
2839.421277	17349.051000	1908.633789	112.201317
2839.421277	17349.051000	1907.653320	437.249420
2839.421277	17349.051000	1906.671875	240.930069
2839.421277	17349.051000	1905.690430	-135.540558
2839.421277	17349.051000	1904.708984	101.663048
2839.421277	17349.051000	1903.727539	22.297956
2839.421277	17349.051000	1902.745117	91.404190
2839.421277	17349.051000	1901.762695	104.492996
2839.421277	17349.051000	1900.780273	244.065598
2839.421277	17349.051000	1899.797852	21.123240
2839.421277	17349.051000	1898.815430	340.577301
2839.421277	17349.051000	1897.832031	3.368077
2839.421277	17349.051000	1896.849609	-97.928200
2839.421277	17349.051000	1895.866211	0.099007
2839.421277	17349.051000	1894.882813	8.144711
2839.421277	17349.051000	1893.898438	-8.138042
2839.421277	17349.051000	1892.915039	-7.442313
2839.421277	17349.051000	1891.930664	240.964478
2839.421277	17349.051000	1890.947266	56.994846
2839.421277	17349.051000	1889.962891	-153.644135
2839.421277	17349.051000	1888.977539	12.021327
2839.421277	17349.051000	1887.993164	-145.203476
2839.421277	17349.051000	1887.007813	42.169571
2839.421277	17349.051000	1886.023438	292.512299
2839.421277	17349.051000	1885.038086	-29.724382
2839.421277	17349.051000	1884.051758	-56.004230
2839.421277	17349.051000	1883.066406	-133.232529
2839.421277	17349.051000	1882.081055	254.991547
2839.421277	17349.051000	1881.094727	-55.029022
2839.421277	17349.051000	1880.108398	-11.161233
2839.421277	17349.051000	1879.122070	78.684036
2839.421277	17349.051000	1878.135742	18.263891
2839.421277	17349.051000	1877.148438	57.125313
2839.421277	17349.051000	1876.162109	71.713173
2839.421277	17349.051000	1875.174805	-88.067337
2839.421277	17349.051000	1874.187500	214.512711
2839.421277	17349.051000	1873.199219	76.459137
2839.421277	17349.051000	1872.211914	25.521833
2839.421277	17349.051000	1871.223633	-64.152161
2839.421277	17349.051000	1870.236328	-37.734631
2839.421277	17349.051000	1869.248047	20.063856
2839.421277	17349.051000	1868.258789	193.851837
2839.421277	17349.051000	1867.270508	-79.708191
2839.421277	17349.051000	1866.282227	21.424547
2839.421277	17349.051000	1865.292969	136.966431
2839.421277	17349.051000	1864.303711	-148.661713
2839.421277	17349.051000	1863.314453	-352.103149
2839.421277	17349.051000	1862.324219	106.247017
2839.421277	17349.051000	1861.334961	122.469864
2839.421277	17349.051000	1860.344727	-30.368710
2839.421277	17349.051000	1859.354492	123.355515
2839.421277	17349.051000	1858.364258	216.628204
2839.421277	17349.051000	1857.374023	136.079529
2839.421277	17349.051000	1856.383789	246.087738
2839.421277	17349.051000	1855.392578	182.331604
2839.421277	17349.051000	1854.401367	219.826248
2839.421277	17349.051000	1853.410156	-121.300087
2839.421277	17349.051000	1852.418945	111.383598
2839.421277	17349.051000	1851.426758	-53.768372
2839.421277	17349.051000	1850.435547	147.363434
2839.421277	17349.051000	1849.443359	-152.779312
2839.421277	17349.051000	1848.451172	257.742706
2839.421277	17349.051000	1847.458984	15.366352
2839.421277	17349.051000	1846.466797	-3.041803
2839.421277	17349.051000	1845.473633	50.715969
2839.421277	17349.051000	1844.480469	70.688622
2839.421277	17349.051000	1843.487305	-126.007271
2839.421277	17349.051000	1842.494141	88.756599
2839.421277	17349.051000	1841.500977	252.850708
2839.421277	17349.051000	1840.506836	-247.031403
2839.421277	17349.051000	1839.513672	123.738945
2839.421277	17349.051000	1838.519531	-157.274887
2839.421277	17349.051000	1837.525391	-41.613312
2839.421277	17349.051000	1836.530273	-10.186556
2839.421277	17349.051000	1835.536133	-79.767731
2839.421277	17349.051000	1834.541016	321.498962
2839.421277	17349.051000	1833.545898	239.725800
2839.421277	17349.051000	1832.550781	189.130936
2839.421277	17349.051000	1831.555664	304.161102
2839.421277	17349.051000	1830.560547	217.413406
2839.421277	17349.051000	1829.564453	133.022095
2839.421277	17349.051000	1828.568359	382.160309
2839.421277	17349.051000	1827.572266	165.653671
2839.421277	17349.051000	1826.576172	11.521240
2839.421277	17349.051000	1825.580078	-29.901581
2839.421277	17349.051000	1824.583008	113.257385
2839.421277	17349.051000	1823.585938	11.732229
2839.421277	17349.051000	1822.588867	224.188477
2839.421277	17349.051000	1821.591797	366.981110
2839.421277	17349.051000	1820.594727	97.492493
2839.421277	17349.051000	1819.596680	144.262375
2839.421277	17349.051000	1818.599609	193.330795
2839.421277	17349.051000	1817.601563	-35.505447
2839.421277	17349.051000	1816.603516	-163.771454
2839.421277	17349.051000	1815.604492	47.861355
2839.421277	17349.051000	1814.606445	254.548889
2839.421277	17349.051000	1813.607422	-27.107975
2839.421277	17349.051000	1812.608398	145.846481
2839.421277	17349.051000	1811.609375	139.243881
2839.421277	17349.051000	1810.610352	84.722496
2839.421277	17349.051000	1809.610352	173.608490
2839.421277	17349.051000	1808.611328	279.111542
2839.421277	17349.051000	1807.611328	145.454620
2839.421277	17349.051000	1806.611328	107.353767
2839.421277	17349.051000	1805.610352	-102.861237
2839.421277	17349.051000	1804.610352	-71.794487
2839.421277	17349.051000	1803.609375	112.032234
2839.421277	17349.051000	1802.608398	-72.059219
2839.421277	17349.051000	1801.607422	-163.053558
2839.421277	17349.051000	1800.606445	-10.615163
2839.421277	17349.051000	1799.605469	-70.738495
2839.421277	17349.051000	1798.603516	26.558046
2839.421277	17349.051000	1797.601563	28.294035
2839.421277	17349.051000	1796.599609	34.711372
2839.421277	17349.051000	1795.597656	262.829315
2839.421277	17349.051000	1794.595703	-60.037979
2839.421277	17349.051000	1793.592773	70.079002
2839.421277	17349.051000	1792.589844	147.616318
2839.421277	17349.051000	1791.587891	189.291641
2839.421277	17349.051000	1790.583984	-33.625191
2839.421277	17349.051000	1789.581055	5.493965
2839.421277	17349.051000	1788.577148	6.392466
2839.421277	17349.051000	1787.574219	257.236847
2839.421277	17349.051000	1786.570313	357.895172
2839.421277	17349.051000	1785.566406	387.007294
2839.421277	17349.051000	1784.561523	59.020470
2839.421277	17349.051000	1783.557617	176.029770
2839.421277	17349.051000	1782.552734	264.347839
2839.421277	17349.051000	1781.547852	-144.588165
2839.421277	17349.051000	1780.542969	64.850517
2839.421277	17349.051000	1779.538086	19.702799
2839.421277	17349.051000	1778.532227	-291.779816
2839.421277	17349.051000	1777.527344	-118.372231
2839.421277	17349.051000	1776.521484	256.854370
2839.421277	17349.051000	1775.515625	68.761520
2839.421277	17349.051000	1774.508789	75.420753
2839.421277	17349.051000	1773.502930	93.862572
2839.421277	17349.051000	1772.496094	-49.273937
2839.421277	17349.051000	1771.489258	142.291168
2839.421277	17349.051000	1770.482422	15.620329
2839.421277	17349.051000	1769.475586	-51.768894
2839.421277	17349.051000	1768.467773	96.678879
2839.421277	17349.051000	1767.460938	116.878120
2839.421277	17349.051000	1766.453125	-2.970607
2839.421277	17349.051000	1765.445313	17.038242
2839.421277	17349.051000	1764.437500	-105.314072
2839.421277	17349.051000	1763.428711	68.584084
2839.421277	17349.051000	1762.420898	-20.744442
2839.421277	17349.051000	1761.412109	10.700840
2839.421277	17349.051000	1760.403320	89.421677
2839.421277	17349.051000	1759.393555	37.728600
2839.421277	17349.051000	1758.384766	85.430374
2839.421277	17349.051000	1757.375000	54.872513
2839.421277	17349.051000	1756.366211	-44.415115
2839.421277	17349.051000	1755.356445	-174.538513
2839.421277	17349.051000	1754.345703	95.203346
2839.421277	17349.051000	1753.335938	-61.120045
2839.421277	17349.051000	1752.325195	139.703171
2839.421277	17349.051000	1751.315430	92.029976
2839.421277	17349.051000	1750.304688	77.374626
2839.421277	17349.051000	1749.292969	-1.214155
2839.421277	17349.051000	1748.282227	-6.587784
2839.421277	17349.051000	1747.270508	-359.461029
2839.421277	17349.051000	1746.259766	-109.774803
2839.421277	17349.051000	1745.248047	-77.625053
2839.421277	17349.051000	1744.235352	228.388565
2839.421277	17349.051000	1743.223633	371.257385
2839.421277	17349.051000	1742.211914	-227.379105
2839.421277	17349.051000	1741.199219	-56.354343
2839.421277	17349.051000	1740.186523	24.827595
2839.421277	17349.051000	1739.173828	-2.661128
2839.421277	17349.051000	1738.160156	139.617264
2839.421277	17349.051000	1737.147461	-8.368217
2839.421277	17349.051000	1736.133789	388.363068
2839.421277	17349.051000	1735.120117	-85.196304
2839.421277	17349.051000	1734.106445	-75.403458
2839.421277	17349.051000	1733.091797	68.626289
2839.421277	17349.051000	1732.078125	-183.371521
2839.421277	17349.051000	1731.063477	-34.850636
2839.421277	17349.051000	1730.048828	203.033539
2839.421277	17349.051000	1729.034180	-46.781109
2839.421277	17349.051000	1728.019531	-56.413326
2839.421277	17349.051000	1727.003906	258.741821
2839.421277	17349.051000	1725.988281	60.556648
2839.421277	17349.051000	1724.972656	38.855785
2839.421277	17349.051000	1723.957031	38.249065
2839.421277	17349.051000	1722.941406	256.328735
2839.421277	17349.051000	1721.924805	302.529449
2839.421277	17349.051000	1720.909180	14.713682
2839.421277	17349.051000	1719.892578	248.849838
2839.421277	17349.051000	1718.875977	-156.568024
2839.421277	17349.051000	1717.858398	133.728424
2839.421277	17349.051000	1716.841797	-121.305840
2839.421277	17349.051000	1715.824219	145.203247
2839.421277	17349.051000	1714.806641	162.544983
2839.421277	17349.051000	1713.789063	-48.000755
2839.421277	17349.051000	1712.770508	107.716843
2839.421277	17349.051000	1711.752930	188.178986
2839.421277	17349.051000	1710.734375	-1.395324
2839.421277	17349.051000	1709.715820	252.523941
2839.421277	17349.051000	1708.697266	-49.773582
2839.421277	17349.051000	1707.678711	-54.136871
2839.421277	17349.051000	1706.659180	372.932159
2839.421277	17349.051000	1705.640625	363.636383
2839.421277	17349.051000	1704.621094	159.666641
2839.421277	17349.051000	1703.600586	241.638596
2839.421277	17349.051000	1702.581055	440.683319
2839.421277	17349.051000	1701.561523	379.498016
2839.421277	17349.051000	1700.541016	219.857758
2839.421277	17349.051000	1699.520508	434.935974
2839.421277	17349.051000	1698.500000	382.905273
2839.421277	17349.051000	1697.478516	515.757324
2839.421277	17349.051000	1696.458008	271.635742
2839.421277	17349.051000	1695.436523	380.902191
2839.421277	17349.051000	1694.415039	265.427643
2839.421277	17349.051000	1693.393555	496.152374
2839.421277	17349.051000	1692.372070	495.159119
2839.421277	17349.051000	1691.349609	484.724457
2839.421277	17349.051000	1690.327148	511.629852
2839.421277	17349.051000	1689.304688	688.059692
2839.421277	17349.051000	1688.282227	544.161316
2839.421277	17349.051000	1687.259766	346.503876
2839.421277	17349.051000	1686.236328	282.004211
2839.421277	17349.051000	1685.213867	233.825089
2839.421277	17349.051000	1684.190430	309.358032
2839.421277	17349.051000	1683.166016	289.047058
2839.421277	17349.051000	1682.142578	294.371704
2839.421277	17349.051000	1681.119141	561.037842
2839.421277	17349.051000	1680.094727	311.805878
2839.421277	17349.051000	1679.070313	99.934578
2839.421277	17349.051000	1678.045898	482.909241
2839.421277	17349.051000	1677.020508	562.474487
2839.421277	17349.051000	1675.996094	385.465973
2839.421277	17349.051000	1674.970703	376.305603
2839.421277	17349.051000	1673.945313	147.988815
2839.421277	17349.051000	1672.919922	259.940399
2839.421277	17349.051000	1671.893555	649.043457
2839.421277	17349.051000	1670.868164	881.874329
2839.421277	17349.051000	1669.841797	713.946411
2839.421277	17349.051000	1668.815430	674.102966
2839.421277	17349.051000	1667.789063	487.544281
2839.421277	17349.051000	1666.761719	850.330933
2839.421277	17349.051000	1665.735352	775.412903
2839.421277	17349.051000	1664.708008	672.535522
2839.421277	17349.051000	1663.680664	578.952515
2839.421277	17349.051000	1662.653320	722.600525
2839.421277	17349.051000	1661.625000	947.520386
2839.421277	17349.051000	1660.597656	777.066956
2839.421277	17349.051000	1659.569336	697.276062
2839.421277	17349.051000	1658.541016	940.524780
2839.421277	17349.051000	1657.512695	967.531006
2839.421277	17349.051000	1656.483398	1421.941040
2839.421277	17349.051000	1655.455078	1072.469238
2839.421277	17349.051000	1654.425781	1168.961914
2839.421277	17349.051000	1653.396484	1088.911499
2839.421277	17349.051000	1652.366211	1345.446655
2839.421277	17349.051000	1651.336914	1295.489136
2839.421277	17349.051000	1650.306641	1052.894653
2839.421277	17349.051000	1649.276367	1221.011353
2839.421277	17349.051000	1648.246094	1465.574829
2839.421277	17349.051000	1647.215820	1396.920044
2839.421277	17349.051000	1646.185547	1638.968018
2839.421277	17349.051000	1645.154297	1769.599243
2839.421277	17349.051000	1644.123047	1594.193237
2839.421277	17349.051000	1643.091797	1826.684814
2839.421277	17349.051000	1642.060547	1660.543701
2839.421277	17349.051000	1641.028320	1797.882813
2839.421277	17349.051000	1639.997070	1823.989624
2839.421277	17349.051000	1638.964844	1657.850464
2839.421277	17349.051000	1637.931641	1996.436890
2839.421277	17349.051000	1636.899414	1652.048584
2839.421277	17349.051000	1635.867188	1916.419189
2839.421277	17349.051000	1634.833984	2108.923340
2839.421277	17349.051000	1633.800781	2032.983643
2839.421277	17349.051000	1632.767578	1950.117065
2839.421277	17349.051000	1631.734375	2181.756348
2839.421277	17349.051000	1630.700195	2200.570801
2839.421277	17349.051000	1629.666016	2015.946045
2839.421277	17349.051000	1628.631836	2252.000732
2839.421277	17349.051000	1627.597656	2402.454834
2839.421277	17349.051000	1626.563477	2331.059326
2839.421277	17349.051000	1625.528320	2656.944580
2839.421277	17349.051000	1624.493164	2195.220947
2839.421277	17349.051000	1623.458008	2278.557617
2839.421277	17349.051000	1622.422852	2881.246826
2839.421277	17349.051000	1621.387695	2770.536133
2839.421277	17349.051000	1620.351563	2939.059326
2839.421277	17349.051000	1619.315430	2696.854980
2839.421277	17349.051000	1618.279297	2722.310791
2839.421277	17349.051000	1617.243164	2837.695557
2839.421277	17349.051000	1616.207031	2934.590576
2839.421277	17349.051000	1615.169922	3038.351074
2839.421277	17349.051000	1614.132813	2870.102783
2839.421277	17349.051000	1613.095703	3066.016846
2839.421277	17349.051000	1612.058594	3526.809570
2839.421277	17349.051000	1611.020508	3139.736328
2839.421277	17349.051000	1609.983398	3017.686523
2839.421277	17349.051000	1608.945313	3273.298584
2839.421277	17349.051000	1607.907227	3512.706543
2839.421277	17349.051000	1606.868164	2789.917480
2839.421277	17349.051000	1605.830078	3082.279785
2839.421277	17349.051000	1604.791016	3218.072754
2839.421277	17349.051000	1603.751953	3342.326904
2839.421277	17349.051000	1602.712891	2880.080078
2839.421277	17349.051000	1601.673828	2990.591797
2839.421277	17349.051000	1600.633789	3101.062744
2839.421277	17349.051000	1599.594727	3078.212158
2839.421277	17349.051000	1598.554688	3172.577393
2839.421277	17349.051000	1597.513672	3000.390137
2839.421277	17349.051000	1596.473633	2977.627441
2839.421277	17349.051000	1595.433594	2973.271240
2839.421277	17349.051000	1594.392578	2714.040283
2839.421277	17349.051000	1593.351563	2842.937500
2839.421277	17349.051000	1592.310547	2960.336914
2839.421277	17349.051000	1591.268555	2866.570557
2839.421277	17349.051000	1590.227539	2827.956787
2839.421277	17349.051000	1589.185547	2571.441895
2839.421277	17349.051000	1588.143555	2801.305420
2839.421277	17349.051000	1587.100586	2554.123779
2839.421277	17349.051000	1586.058594	2685.388672
2839.421277	17349.051000	1585.015625	2644.705078
2839.421277	17349.051000	1583.972656	2322.186035
2839.421277	17349.051000	1582.929688	2371.034668
2839.421277	17349.051000	1581.886719	2502.380615
2839.421277	17349.051000	1580.843750	2356.571045
2839.421277	17349.051000	1579.799805	2467.331055
2839.421277	17349.051000	1578.755859	2720.047607
2839.421277	17349.051000	1577.711914	2409.590820
2839.421277	17349.051000	1576.666992	2415.125732
2839.421277	17349.051000	1575.623047	2450.471191
2839.421277	17349.051000	1574.578125	2261.636719
2839.421277	17349.051000	1573.533203	2425.177490
2839.421277	17349.051000	1572.488281	2332.578613
2839.421277	17349.051000	1571.443359	2374.970459
2839.421277	17349.051000	1570.397461	2399.102051
2839.421277	17349.051000	1569.351563	2482.703369
2839.421277	17349.051000	1568.305664	2495.494629
2839.421277	17349.051000	1567.259766	2608.865723
2839.421277	17349.051000	1566.213867	2299.680908
2839.421277	17349.051000	1565.166992	2447.412354
2839.421277	17349.051000	1564.120117	2227.541748
2839.421277	17349.051000	1563.073242	2331.986572
2839.421277	17349.051000	1562.026367	2381.679199
2839.421277	17349.051000	1560.978516	2059.451904
2839.421277	17349.051000	1559.930664	2097.896973
2839.421277	17349.051000	1558.883789	2223.089355
2839.421277	17349.051000	1557.834961	2275.299561
2839.421277	17349.051000	1556.787109	2072.199219
2839.421277	17349.051000	1555.739258	2035.670654
2839.421277	17349.051000	1554.690430	2300.081055
2839.421277	17349.051000	1553.641602	2047.175293
2839.421277	17349.051000	1552.592773	2076.964355
2839.421277	17349.051000	1551.542969	2145.532227
2839.421277	17349.051000	1550.494141	2214.167236
2839.421277	17349.051000	1549.444336	2087.021240
2839.421277	17349.051000	1548.394531	2046.518188
2839.421277	17349.051000	1547.344727	1785.331055
2839.421277	17349.051000	1546.293945	1751.888306
2839.421277	17349.051000	1545.244141	1855.070923
2839.421277	17349.051000	1544.193359	1826.352051
2839.421277	17349.051000	1543.142578	1877.334595
2839.421277	17349.051000	1542.090820	1600.937622
2839.421277	17349.051000	1541.040039	1699.869751
2839.421277	17349.051000	1539.988281	1489.717651
2839.421277	17349.051000	1538.936523	1416.094116
2839.421277	17349.051000	1537.884766	1215.359619
2839.421277	17349.051000	1536.833008	1500.931152
2839.421277	17349.051000	1535.780273	1320.880493
2839.421277	17349.051000	1534.727539	1443.009521
2839.421277	17349.051000	1533.674805	1304.108154
2839.421277	17349.051000	1532.622070	1344.677612
2839.421277	17349.051000	1531.569336	1358.101685
2839.421277	17349.051000	1530.515625	1285.394165
2839.421277	17349.051000	1529.461914	1124.348145
2839.421277	17349.051000	1528.408203	1233.369263
2839.421277	17349.051000	1527.354492	1458.101074
2839.421277	17349.051000	1526.299805	1349.571167
2839.421277	17349.051000	1525.246094	1429.338623
2839.421277	17349.051000	1524.191406	1087.651367
2839.421277	17349.051000	1523.136719	1203.903809
2839.421277	17349.051000	1522.081055	1338.336670
2839.421277	17349.051000	1521.026367	1407.156860
2839.421277	17349.051000	1519.970703	1496.433105
2839.421277	17349.051000	1518.915039	1241.661011
2839.421277	17349.051000	1517.859375	1240.624512
2839.421277	17349.051000	1516.802734	1244.223633
2839.421277	17349.051000	1515.747070	1272.839355
2839.421277	17349.051000	1514.690430	1134.149414
2839.421277	17349.051000	1513.633789	1235.384766
2839.421277	17349.051000	1512.577148	1054.034546
2839.421277	17349.051000	1511.519531	958.782410
2839.421277	17349.051000	1510.461914	1017.403931
2839.421277	17349.051000	1509.405273	1033.195557
2839.421277	17349.051000	1508.346680	680.783081
2839.421277	17349.051000	1507.289063	660.734009
2839.421277	17349.051000	1506.231445	835.064026
2839.421277	17349.051000	1505.172852	740.721069
2839.421277	17349.051000	1504.114258	289.819763
2839.421277	17349.051000	1503.055664	306.489899
2839.421277	17349.051000	1501.996094	223.974625
2839.421277	17349.051000	1500.937500	313.120331
2839.421277	17349.051000	1499.877930	488.084473
2839.421277	17349.051000	1498.818359	455.606018
2839.421277	17349.051000	1497.757813	326.299713
2839.421277	17349.051000	1496.698242	86.713989
2839.421277	17349.051000	1495.637695	149.411621
2839.421277	17349.051000	1494.577148	-55.970539
2839.421277	17349.051000	1493.516602	85.872948
2839.421277	17349.051000	1492.456055	-15.506377
2839.421277	17349.051000	1491.394531	-15.352431
2839.421277	17349.051000	1490.333008	-240.251587
2839.421277	17349.051000	1489.271484	-217.253906
2839.421277	17349.051000	1488.209961	-5.036399
2839.421277	17349.051000	1487.148438	-105.590561
2839.421277	17349.051000	1486.085938	-82.208504
2839.421277	17349.051000	1485.023438	51.546112
2839.421277	17349.051000	1483.960938	133.660278
2839.421277	17349.051000	1482.898438	175.412018
2839.421277	17349.051000	1481.834961	-12.039124
2839.421277	17349.051000	1480.772461	72.737846
2839.421277	17349.051000	1479.708984	-107.557602
2839.421277	17349.051000	1478.644531	17.944710
2839.421277	17349.051000	1477.581055	-188.883713
2839.421277	17349.051000	1476.517578	361.372803
2839.421277	17349.051000	1475.453125	33.579659
2839.421277	17349.051000	1474.388672	92.197105
2839.421277	17349.051000	1473.323242	258.772461
2839.421277	17349.051000	1472.258789	-83.935547
2839.421277	17349.051000	1471.193359	152.321594
2839.421277	17349.051000	1470.127930	233.956619
2839.421277	17349.051000	1469.062500	147.483704
2839.421277	17349.051000	1467.997070	-36.983353
2839.421277	17349.051000	1466.930664	-172.363205
2839.421277	17349.051000	1465.865234	205.536560
2839.421277	17349.051000	1464.798828	-144.205688
2839.421277	17349.051000	1463.731445	67.983200
2839.421277	17349.051000	1462.665039	48.140415
2839.421277	17349.051000	1461.597656	-206.789581
2839.421277	17349.051000	1460.530273	-94.874016
2839.421277	17349.051000	1459.462891	15.162908
2839.421277	17349.051000	1458.395508	-98.354195
2839.421277	17349.051000	1457.327148	252.842819
2839.421277	17349.051000	1456.259766	-16.970507
2839.421277	17349.051000	1455.191406	-57.652672
2839.421277	17349.051000	1454.123047	153.241806
2839.421277	17349.051000	1453.053711	222.987473
2839.421277	17349.051000	1451.985352	157.743393
2839.421277	17349.051000	1450.916016	68.786980
2839.421277	17349.051000	1449.846680	239.258377
2839.421277	17349.051000	1448.776367	57.546001
2839.421277	17349.051000	1447.707031	192.278305
2839.421277	17349.051000	1446.636719	406.563995
2839.421277	17349.051000	1445.566406	516.075745
2839.421277	17349.051000	1444.496094	261.530548
2839.421277	17349.051000	1443.425781	-31.543983
2839.421277	17349.051000	1442.354492	205.108566
2839.421277	17349.051000	1441.283203	310.127014
2839.421277	17349.051000	1440.211914	367.177521
2839.421277	17349.051000	1439.140625	92.531799
2839.421277	17349.051000	1438.069336	87.111832
2839.421277	17349.051000	1436.997070	482.829102
2839.421277	17349.051000	1435.924805	131.774673
2839.421277	17349.051000	1434.852539	117.020950
2839.421277	17349.051000	1433.780273	198.802399
2839.421277	17349.051000	1432.707031	116.218552
2839.421277	17349.051000	1431.633789	-172.278854
2839.421277	17349.051000	1430.560547	311.937195
2839.421277	17349.051000	1429.487305	33.202705
2839.421277	17349.051000	1428.413086	202.822861
2839.421277	17349.051000	1427.339844	89.169952
2839.421277	17349.051000	1426.265625	150.329071
2839.421277	17349.051000	1425.191406	-116.698273
2839.421277	17349.051000	1424.116211	29.247175
2839.421277	17349.051000	1423.041992	84.948540
2839.421277	17349.051000	1421.966797	-2.324306
2839.421277	17349.051000	1420.891602	322.989990
2839.421277	17349.051000	1419.816406	435.590607
2839.421277	17349.051000	1418.740234	266.658997
2839.421277	17349.051000	1417.665039	215.355576
2839.421277	17349.051000	1416.588867	384.945862
2839.421277	17349.051000	1415.512695	389.339935
2839.421277	17349.051000	1414.435547	333.448395
2839.421277	17349.051000	1413.359375	240.977219
2839.421277	17349.051000	1412.282227	232.077866
2839.421277	17349.051000	1411.205078	152.376572
2839.421277	17349.051000	1410.127930	737.535278
2839.421277	17349.051000	1409.049805	471.752380
2839.421277	17349.051000	1407.972656	648.066162
2839.421277	17349.051000	1406.894531	451.459747
2839.421277	17349.051000	1405.816406	523.046753
2839.421277	17349.051000	1404.737305	1052.930542
2839.421277	17349.051000	1403.659180	895.063965
2839.421277	17349.051000	1402.580078	971.433350
2839.421277	17349.051000	1401.500977	994.005188
2839.421277	17349.051000	1400.421875	1087.314331
2839.421277	17349.051000	1399.341797	921.386719
2839.421277	17349.051000	1398.262695	967.921692
2839.421277	17349.051000	1397.182617	1127.676514
2839.421277	17349.051000	1396.102539	1307.382568
2839.421277	17349.051000	1395.021484	1318.263306
2839.421277	17349.051000	1393.941406	1320.941040
2839.421277	17349.051000	1392.860352	1846.058716
2839.421277	17349.051000	1391.779297	1565.958374
2839.421277	17349.051000	1390.698242	1549.821167
2839.421277	17349.051000	1389.616211	1962.320801
2839.421277	17349.051000	1388.535156	1781.431152
2839.421277	17349.051000	1387.453125	1981.935547
2839.421277	17349.051000	1386.371094	1921.458374
2839.421277	17349.051000	1385.288086	1621.935303
2839.421277	17349.051000	1384.206055	1434.936890
2839.421277	17349.051000	1383.123047	1399.556152
2839.421277	17349.051000	1382.040039	1426.248657
2839.421277	17349.051000	1380.957031	1087.090088
2839.421277	17349.051000	1379.873047	1173.093384
2839.421277	17349.051000	1378.789063	1249.498657
2839.421277	17349.051000	1377.705078	1284.082886
2839.421277	17349.051000	1376.621094	1009.792725
2839.421277	17349.051000	1375.537109	1185.639282
2839.421277	17349.051000	1374.452148	1148.633911
2839.421277	17349.051000	1373.367188	1012.930359
2839.421277	17349.051000	1372.282227	1095.598389
2839.421277	17349.051000	1371.197266	904.115723
2839.421277	17349.051000	1370.112305	1225.290405
2839.421277	17349.051000	1369.026367	810.773254
2839.421277	17349.051000	1367.940430	895.551025
2839.421277	17349.051000	1366.854492	876.238342
2839.421277	17349.051000	1365.767578	892.687500
2839.421277	17349.051000	1364.681641	710.633362
2839.421277	17349.051000	1363.594727	845.918030
2839.421277	17349.051000	1362.507813	844.715149
2839.421277	17349.051000	1361.419922	788.688049
2839.421277	17349.051000	1360.333008	924.718933
2839.421277	17349.051000	1359.245117	884.762268
2839.421277	17349.051000	1358.157227	768.815308
2839.421277	17349.051000	1357.069336	653.429993
2839.421277	17349.051000	1355.981445	836.511780
2839.421277	17349.051000	1354.892578	553.113525
2839.421277	17349.051000	1353.803711	875.026672
2839.421277	17349.051000	1352.714844	1088.713379
2839.421277	17349.051000	1351.625000	947.019775
2839.421277	17349.051000	1350.536133	999.325378
2839.421277	17349.051000	1349.446289	1094.552002
2839.421277	17349.051000	1348.356445	1086.328247
2839.421277	17349.051000	1347.266602	752.567322
2839.421277	17349.051000	1346.175781	818.465637
2839.421277	17349.051000	1345.085938	798.534180
2839.421277	17349.051000	1343.995117	941.129517
2839.421277	17349.051000	1342.903320	726.436646
2839.421277	17349.051000	1341.812500	653.860352
2839.421277	17349.051000	1340.720703	722.007874
2839.421277	17349.051000	1339.629883	941.008118
2839.421277	17349.051000	1338.538086	964.064514
2839.421277	17349.051000	1337.445313	960.703857
2839.421277	17349.051000	1336.353516	1096.812012
2839.421277	17349.051000	1335.260742	1013.470093
2839.421277	17349.051000	1334.167969	1244.994507
2839.421277	17349.051000	1333.075195	966.794434
2839.421277	17349.051000	1331.981445	1111.094971
2839.421277	17349.051000	1330.888672	994.728088
2839.421277	17349.051000	1329.794922	1305.549561
2839.421277	17349.051000	1328.701172	1310.224487
2839.421277	17349.051000	1327.606445	1109.093994
2839.421277	17349.051000	1326.512695	1567.873657
2839.421277	17349.051000	1325.417969	1516.361450
2839.421277	17349.051000	1324.323242	1503.597290
2839.421277	17349.051000	1323.227539	1464.236816
2839.421277	17349.051000	1322.132813	1499.981201
2839.421277	17349.051000	1321.037109	1374.631226
2839.421277	17349.051000	1319.941406	1236.011353
2839.421277	17349.051000	1318.845703	1305.122559
2839.421277	17349.051000	1317.750000	1297.133667
2839.421277	17349.051000	1316.653320	1546.376465
2839.421277	17349.051000	1315.556641	1417.688965
2839.421277	17349.051000	1314.459961	1456.343384
2839.421277	17349.051000	1313.363281	1145.586548
2839.421277	17349.051000	1312.265625	1268.434570
2839.421277	17349.051000	1311.167969	1271.548828
2839.421277	17349.051000	1310.070313	1303.215454
2839.421277	17349.051000	1308.972656	1103.663574
2839.421277	17349.051000	1307.874023	1428.229858
2839.421277	17349.051000	1306.776367	1565.817627
2839.421277	17349.051000	1305.677734	1596.615234
2839.421277	17349.051000	1304.579102	1420.875244
2839.421277	17349.051000	1303.479492	1579.602661
2839.421277	17349.051000	1302.380859	1286.086792
2839.421277	17349.051000	1301.281250	1372.786011
2839.421277	17349.051000	1300.181641	1287.870728
2839.421277	17349.051000	1299.081055	1329.957520
2839.421277	17349.051000	1297.981445	958.405151
2839.421277	17349.051000	1296.880859	819.393555
2839.421277	17349.051000	1295.780273	838.914917
2839.421277	17349.051000	1294.679688	764.831177
2839.421277	17349.051000	1293.578125	744.066162
2839.421277	17349.051000	1292.476563	516.562805
2839.421277	17349.051000	1291.375000	716.315918
2839.421277	17349.051000	1290.273438	429.042999
2839.421277	17349.051000	1289.171875	480.141144
2839.421277	17349.051000	1288.069336	279.052063
2839.421277	17349.051000	1286.966797	232.558182
2839.421277	17349.051000	1285.864258	3.654276
2839.421277	17349.051000	1284.761719	189.723785
2839.421277	17349.051000	1283.658203	264.609070
2839.421277	17349.051000	1282.554688	521.560974
2839.421277	17349.051000	1281.451172	466.273468
2839.421277	17349.051000	1280.347656	545.253052
2839.421277	17349.051000	1279.244141	381.945648
2839.421277	17349.051000	1278.139648	125.205650
2839.421277	17349.051000	1277.035156	277.363617
2839.421277	17349.051000	1275.930664	247.008026
2839.421277	17349.051000	1274.825195	348.800079
2839.421277	17349.051000	1273.720703	61.327480
2839.421277	17349.051000	1272.615234	81.677666
2839.421277	17349.051000	1271.508789	113.794769
2839.421277	17349.051000	1270.403320	223.008301
2839.421277	17349.051000	1269.297852	54.083076
2839.421277	17349.051000	1268.191406	242.018494
2839.421277	17349.051000	1267.084961	42.589855
2839.421277	17349.051000	1265.977539	47.519333
2839.421277	17349.051000	1264.871094	-56.211784
2839.421277	17349.051000	1263.763672	-45.216351
2839.421277	17349.051000	1262.656250	-202.967331
2839.421277	17349.051000	1261.548828	-175.313751
2839.421277	17349.051000	1260.440430	-228.468781
2839.421277	17349.051000	1259.333008	-47.541466
2839.421277	17349.051000	1258.224609	91.330421
2839.421277	17349.051000	1257.115234	63.001102
2839.421277	17349.051000	1256.006836	-14.875085
2839.421277	17349.051000	1254.897461	-97.240341
2839.421277	17349.051000	1253.788086	53.613625
2839.421277	17349.051000	1252.678711	222.376816
2839.421277	17349.051000	1251.569336	157.760757
2839.421277	17349.051000	1250.458984	7.679572
2839.421277	17349.051000	1249.349609	0.642617
2839.421277	17349.051000	1248.239258	175.671036
2839.421277	17349.051000	1247.127930	-100.502090
2839.421277	17349.051000	1246.017578	-51.471149
2839.421277	17349.051000	1244.906250	-62.162060
2839.421277	17349.051000	1243.794922	131.195633
2839.421277	17349.051000	1242.683594	122.661079
2839.421277	17349.051000	1241.571289	34.013908
2839.421277	17349.051000	1240.459961	76.305946
2839.421277	17349.051000	1239.347656	83.078339
2839.421277	17349.051000	1238.234375	52.355156
2839.421277	17349.051000	1237.122070	136.211502
2839.421277	17349.051000	1236.008789	296.485565
2839.421277	17349.051000	1234.896484	143.236740
2839.421277	17349.051000	1233.782227	-27.698761
2839.421277	17349.051000	1232.668945	17.543203
2839.421277	17349.051000	1231.555664	62.388889
2839.421277	17349.051000	1230.441406	28.975565
2839.421277	17349.051000	1229.327148	-86.471535
2839.421277	17349.051000	1228.211914	-40.485039
2839.421277	17349.051000	1227.097656	-22.722546
2839.421277	17349.051000	1225.982422	84.920036
2839.421277	17349.051000	1224.867188	-104.681709
2839.421277	17349.051000	1223.751953	-150.945145
2839.421277	17349.051000	1222.635742	37.522900
2839.421277	17349.051000	1221.520508	-104.802406
2839.421277	17349.051000	1220.404297	133.243652
2839.421277	17349.051000	1219.287109	-182.937927
2839.421277	17349.051000	1218.170898	-162.955994
2839.421277	17349.051000	1217.053711	-131.563766
2839.421277	17349.051000	1215.936523	-131.071228
2839.421277	17349.051000	1214.819336	-133.479721
2839.421277	17349.051000	1213.702148	-203.515198
2839.421277	17349.051000	1212.583984	-220.581284
2839.421277	17349.051000	1211.465820	-164.821930
2839.421277	17349.051000	1210.347656	-67.445511
2839.421277	17349.051000	1209.229492	-58.365440
2839.421277	17349.051000	1208.110352	-110.973663
2839.421277	17349.051000	1206.992188	-9.447268
2839.421277	17349.051000	1205.873047	74.956558
2839.421277	17349.051000	1204.752930	-59.751812
2839.421277	17349.051000	1203.633789	-9.690781
2839.421277	17349.051000	1202.513672	-9.363694
2839.421277	17349.051000	1201.393555	101.874687
2839.421277	17349.051000	1200.273438	22.370743
2839.421277	17349.051000	1199.152344	126.966820
2839.421277	17349.051000	1198.032227	13.195086
2839.421277	17349.051000	1196.911133	-59.129585
2839.421277	17349.051000	1195.790039	74.280739
2839.421277	17349.051000	1194.667969	-134.091034
2839.421277	17349.051000	1193.545898	-9.814336
2839.421277	17349.051000	1192.424805	117.844223
2839.421277	17349.051000	1191.301758	10.130673
2839.421277	17349.051000	1190.179688	-17.166363
2839.421277	17349.051000	1189.056641	-40.212769
2839.421277	17349.051000	1187.933594	37.295219
2839.421277	17349.051000	1186.810547	-57.077206
2839.421277	17349.051000	1185.687500	-80.307800
2839.421277	17349.051000	1184.563477	-157.376740
2839.421277	17349.051000	1183.440430	98.707886
2839.421277	17349.051000	1182.316406	-50.177170
2839.421277	17349.051000	1181.191406	69.796906
2839.421277	17349.051000	1180.067383	131.344894
2839.421277	17349.051000	1178.942383	-110.484756
2839.421277	17349.051000	1177.817383	6.770277
2839.421277	17349.051000	1176.692383	-4.596231
2839.421277	17349.051000	1175.566406	-54.599846
2839.421277	17349.051000	1174.440430	-83.479286
2839.421277	17349.051000	1173.314453	-35.995438
2839.421277	17349.051000	1172.188477	56.206066
2839.421277	17349.051000	1171.062500	82.655380
2839.421277	17349.051000	1169.935547	268.459808
2839.421277	17349.051000	1168.808594	447.621094
2839.421277	17349.051000	1167.681641	401.452667
2839.421277	17349.051000	1166.553711	361.751099
2839.421277	17349.051000	1165.426758	581.654297
2839.421277	17349.051000	1164.298828	279.610107
2839.421277	17349.051000	1163.170898	454.944763
2839.421277	17349.051000	1162.041992	409.573883
2839.421277	17349.051000	1160.914063	438.485382
2839.421277	17349.051000	1159.785156	439.864990
2839.421277	17349.051000	1158.656250	269.691559
2839.421277	17349.051000	1157.526367	386.962555
2839.421277	17349.051000	1156.397461	284.605804
2839.421277	17349.051000	1155.267578	118.433624
2839.421277	17349.051000	1154.137695	324.657501
2839.421277	17349.051000	1153.006836	80.695633
2839.421277	17349.051000	1151.876953	363.774200
2839.421277	17349.051000	1150.746094	214.510727
2839.421277	17349.051000	1149.615234	230.864075
2839.421277	17349.051000	1148.484375	395.130219
2839.421277	17349.051000	1147.352539	303.253418
2839.421277	17349.051000	1146.220703	87.937912
2839.421277	17349.051000	1145.088867	311.540192
2839.421277	17349.051000	1143.957031	282.363159
2839.421277	17349.051000	1142.825195	269.366852
2839.421277	17349.051000	1141.692383	145.639816
2839.421277	17349.051000	1140.559570	137.866135
2839.421277	17349.051000	1139.426758	59.747101
2839.421277	17349.051000	1138.292969	270.907227
2839.421277	17349.051000	1137.159180	19.881416
2839.421277	17349.051000	1136.025391	179.908112
2839.421277	17349.051000	1134.891602	223.518753
2839.421277	17349.051000	1133.757813	204.182312
2839.421277	17349.051000	1132.623047	210.675339
2839.421277	17349.051000	1131.488281	336.291901
2839.421277	17349.051000	1130.353516	231.621094
2839.421277	17349.051000	1129.217773	256.249847
2839.421277	17349.051000	1128.083008	309.791168
2839.421277	17349.051000	1126.947266	182.625595
2839.421277	17349.051000	1125.811523	206.121857
2839.421277	17349.051000	1124.674805	326.638062
2839.421277	17349.051000	1123.539063	323.837708
2839.421277	17349.051000	1122.402344	115.193527
2839.421277	17349.051000	1121.265625	102.654671
2839.421277	17349.051000	1120.127930	-54.131924
2839.421277	17349.051000	1118.990234	-33.014797
2839.421277	17349.051000	1117.853516	105.461571
2839.421277	17349.051000	1116.714844	9.044445
2839.421277	17349.051000	1115.577148	84.595734
2839.421277	17349.051000	1114.439453	123.336494
2839.421277	17349.051000	1113.300781	-28.575041
2839.421277	17349.051000	1112.162109	185.733856
2839.421277	17349.051000	1111.022461	96.695694
2839.421277	17349.051000	1109.883789	-14.911679
2839.421277	17349.051000	1108.744141	-225.226685
2839.421277	17349.051000	1107.604492	-35.780491
2839.421277	17349.051000	1106.463867	182.120819
2839.421277	17349.051000	1105.324219	174.285126
2839.421277	17349.051000	1104.183594	86.165176
2839.421277	17349.051000	1103.042969	313.566101
2839.421277	17349.051000	1101.902344	-6.144351
2839.421277	17349.051000	1100.760742	83.582848
2839.421277	17349.051000	1099.619141	249.900787
2839.421277	17349.051000	1098.477539	252.513184
2839.421277	17349.051000	1097.335938	352.056366
2839.421277	17349.051000	1096.193359	143.192337
2839.421277	17349.051000	1095.051758	379.719910
2839.421277	17349.051000	1093.909180	491.385345
2839.421277	17349.051000	1092.765625	738.520020
2839.421277	17349.051000	1091.623047	661.528809
2839.421277	17349.051000	1090.479492	464.095917
2839.421277	17349.051000	1089.335938	399.872375
2839.421277	17349.051000	1088.192383	562.944885
2839.421277	17349.051000	1087.047852	598.918091
2839.421277	17349.051000	1085.903320	389.994263
2839.421277	17349.051000	1084.758789	571.114502
2839.421277	17349.051000	1083.614258	426.550079
2839.421277	17349.051000	1082.469727	294.589844
2839.421277	17349.051000	1081.324219	641.249329
2839.421277	17349.051000	1080.178711	551.161804
2839.421277	17349.051000	1079.033203	767.099609
2839.421277	17349.051000	1077.886719	694.525208
2839.421277	17349.051000	1076.740234	702.363342
2839.421277	17349.051000	1075.593750	816.811157
2839.421277	17349.051000	1074.447266	645.634033
2839.421277	17349.051000	1073.300781	810.338745
2839.421277	17349.051000	1072.153320	555.791809
2839.421277	17349.051000	1071.005859	590.914368
2839.421277	17349.051000	1069.858398	660.088257
2839.421277	17349.051000	1068.709961	441.242157
2839.421277	17349.051000	1067.561523	305.563293
2839.421277	17349.051000	1066.413086	276.332886
2839.421277	17349.051000	1065.264648	466.687561
2839.421277	17349.051000	1064.116211	490.193787
2839.421277	17349.051000	1062.966797	545.418518
2839.421277	17349.051000	1061.817383	440.572876
2839.421277	17349.051000	1060.667969	538.042664
2839.421277	17349.051000	1059.517578	388.150482
2839.421277	17349.051000	1058.368164	364.742371
2839.421277	17349.051000	1057.217773	501.909698
2839.421277	17349.051000	1056.067383	598.609314
2839.421277	17349.051000	1054.916016	168.892899
2839.421277	17349.051000	1053.764648	356.664795
2839.421277	17349.051000	1052.613281	460.910461
2839.421277	17349.051000	1051.461914	738.863403
2839.421277	17349.051000	1050.310547	268.547211
2839.421277	17349.051000	1049.158203	526.045410
2839.421277	17349.051000	1048.005859	564.936707
2839.421277	17349.051000	1046.853516	421.533783
2839.421277	17349.051000	1045.700195	337.920868
2839.421277	17349.051000	1044.547852	491.330261
2839.421277	17349.051000	1043.394531	435.912720
2839.421277	17349.051000	1042.240234	544.963135
2839.421277	17349.051000	1041.086914	706.606812
2839.421277	17349.051000	1039.932617	644.715881
2839.421277	17349.051000	1038.778320	511.118652
2839.421277	17349.051000	1037.624023	725.592834
2839.421277	17349.051000	1036.469727	1138.197266
2839.421277	17349.051000	1035.314453	1051.181641
2839.421277	17349.051000	1034.159180	1282.365845
2839.421277	17349.051000	1033.003906	1198.974121
2839.421277	17349.051000	1031.847656	1161.774170
2839.421277	17349.051000	1030.692383	1126.457642
2839.421277	17349.051000	1029.536133	874.815857
2839.421277	17349.051000	1028.378906	963.389954
2839.421277	17349.051000	1027.222656	660.292908
2839.421277	17349.051000	1026.065430	805.604614
2839.421277	17349.051000	1024.908203	527.703674
2839.421277	17349.051000	1023.750977	703.863892
2839.421277	17349.051000	1022.593750	651.970337
2839.421277	17349.051000	1021.435547	502.750336
2839.421277	17349.051000	1020.277344	599.910889
2839.421277	17349.051000	1019.119141	538.000244
2839.421277	17349.051000	1017.959961	431.797150
2839.421277	17349.051000	1016.800781	283.834137
2839.421277	17349.051000	1015.641602	234.844086
2839.421277	17349.051000	1014.482422	253.829437
2839.421277	17349.051000	1013.323242	354.969360
2839.421277	17349.051000	1012.163086	378.566620
2839.421277	17349.051000	1011.002930	532.794800
2839.421277	17349.051000	1009.842773	3.881070
2839.421277	17349.051000	1008.681641	327.215790
2839.421277	17349.051000	1007.520508	367.512909
2839.421277	17349.051000	1006.359375	276.951691
2839.421277	17349.051000	1005.198242	346.016052
2839.421277	17349.051000	1004.037109	346.332550
2839.421277	17349.051000	1002.875000	709.921082
2839.421277	17349.051000	1001.712891	660.341797
2839.421277	17349.051000	1000.550781	441.771057
2839.421277	17349.051000	999.387695	406.650421
2839.421277	17349.051000	998.224609	471.294220
2839.421277	17349.051000	997.061523	493.710846
2839.421277	17349.051000	995.898438	454.258301
2839.421277	17349.051000	994.734375	312.543915
2839.421277	17349.051000	993.571289	441.121429
2839.421277	17349.051000	992.407227	476.827850
2839.421277	17349.051000	991.242188	400.224152
2839.421277	17349.051000	990.078125	446.888885
2839.421277	17349.051000	988.913086	492.568817
2839.421277	17349.051000	987.748047	385.926697
2839.421277	17349.051000	986.583008	511.782501
2839.421277	17349.051000	985.416992	353.843567
2839.421277	17349.051000	984.250977	314.227997
2839.421277	17349.051000	983.084961	308.240112
2839.421277	17349.051000	981.918945	360.264435
2839.421277	17349.051000	980.751953	113.360573
2839.421277	17349.051000	979.584961	171.477951
2839.421277	17349.051000	978.417969	394.734467
2839.421277	17349.051000	977.250977	147.883713
2839.421277	17349.051000	976.083008	106.400177
2839.421277	17349.051000	974.915039	585.952271
2839.421277	17349.051000	973.747070	477.321991
2839.421277	17349.051000	972.579102	321.959259
2839.421277	17349.051000	971.410156	238.504318
2839.421277	17349.051000	970.242188	342.800903
2839.421277	17349.051000	969.072266	545.893982
2839.421277	17349.051000	967.903320	546.787964
2839.421277	17349.051000	966.733398	753.883240
2839.421277	17349.051000	965.563477	565.983704
2839.421277	17349.051000	964.393555	512.706238
2839.421277	17349.051000	963.223633	652.882690
2839.421277	17349.051000	962.052734	862.478027
2839.421277	17349.051000	960.881836	883.174133
2839.421277	17349.051000	959.710938	578.612427
2839.421277	17349.051000	958.540039	541.988098
2839.421277	17349.051000	957.368164	658.630005
2839.421277	17349.051000	956.196289	662.389343
2839.421277	17349.051000	955.024414	705.911499
2839.421277	17349.051000	953.851563	554.041748
2839.421277	17349.051000	952.679688	481.519440
2839.421277	17349.051000	951.506836	226.334259
2839.421277	17349.051000	950.333984	252.771301
2839.421277	17349.051000	949.160156	120.999962
2839.421277	17349.051000	947.986328	35.315208
2839.421277	17349.051000	946.812500	329.427765
2839.421277	17349.051000	945.638672	503.638275
2839.421277	17349.051000	944.464844	373.265839
2839.421277	17349.051000	943.290039	256.206177
2839.421277	17349.051000	942.115234	-107.038429
2839.421277	17349.051000	940.940430	292.198792
2839.421277	17349.051000	939.764648	242.791962
2839.421277	17349.051000	938.588867	44.308868
2839.421277	17349.051000	937.413086	45.086273
2839.421277	17349.051000	936.237305	48.219692
2839.421277	17349.051000	935.060547	-79.628914
2839.421277	17349.051000	933.883789	-84.324120
2839.421277	17349.051000	932.707031	41.830181
2839.421277	17349.051000	931.530273	-83.578323
2839.421277	17349.051000	930.352539	-295.471802
2839.421277	17349.051000	929.175781	82.134109
2839.421277	17349.051000	927.998047	-11.925125
2839.421277	17349.051000	926.819336	305.162659
2839.421277	17349.051000	925.641602	302.660492
2839.421277	17349.051000	924.462891	-48.131691
2839.421277	17349.051000	923.284180	119.492287
2839.421277	17349.051000	922.104492	27.897997
2839.421277	17349.051000	920.924805	4.337531
2839.421277	17349.051000	919.746094	9.651024
2839.421277	17349.051000	919.551758	190.911667
2839.421277	17349.051000	918.386719	46.848610
2839.421277	17349.051000	917.220703	-50.121033
2839.421277	17349.051000	916.054688	-32.048767
2839.421277	17349.051000	914.887695	142.826233
2839.421277	17349.051000	913.721680	90.203217
2839.421277	17349.051000	912.554688	-202.834442
2839.421277	17349.051000	911.387695	16.260534
2839.421277	17349.051000	910.220703	81.121658
2839.421277	17349.051000	909.052734	-183.121292
2839.421277	17349.051000	907.885742	93.162910
2839.421277	17349.051000	906.717773	-19.644880
2839.421277	17349.051000	905.548828	-119.390732
2839.421277	17349.051000	904.380859	-23.434467
2839.421277	17349.051000	903.211914	22.883883
2839.421277	17349.051000	902.042969	-123.861824
2839.421277	17349.051000	900.874023	-61.961922
2839.421277	17349.051000	899.704102	-91.367966
2839.421277	17349.051000	898.535156	147.689377
2839.421277	17349.051000	897.365234	71.277992
2839.421277	17349.051000	896.194336	125.152351
2839.421277	17349.051000	895.024414	137.288971
2839.421277	17349.051000	893.853516	-1.668278
2839.421277	17349.051000	892.682617	67.722794
2839.421277	17349.051000	891.511719	233.386642
2839.421277	17349.051000	890.340820	310.454773
2839.421277	17349.051000	889.168945	343.226288
2839.421277	17349.051000	887.997070	303.105438
2839.421277	17349.051000	886.825195	5.441382
2839.421277	17349.051000	885.653320	-60.652927
2839.421277	17349.051000	884.480469	122.886177
2839.421277	17349.051000	883.307617	87.946327
2839.421277	17349.051000	882.134766	91.986130
2839.421277	17349.051000	880.961914	90.803001
2839.421277	17349.051000	879.788086	-193.599045
2839.421277	17349.051000	878.614258	309.177460
2839.421277	17349.051000	877.440430	9.221899
2839.421277	17349.051000	876.266602	-43.958332
2839.421277	17349.051000	875.091797	-232.127899
2839.421277	17349.051000	873.916992	-160.689102
2839.421277	17349.051000	872.742188	113.109543
2839.421277	17349.051000	871.567383	-142.490250
2839.421277	17349.051000	870.391602	-203.456375
2839.421277	17349.051000	869.215820	-189.208664
2839.421277	17349.051000	868.040039	-19.411676
2839.421277	17349.051000	866.864258	-199.665543
2839.421277	17349.051000	865.687500	-35.150169
2839.421277	17349.051000	864.510742	-70.246292
2839.421277	17349.051000	863.333984	-32.803089
2839.421277	17349.051000	862.157227	-47.194160
2839.421277	17349.051000	860.979492	39.405396
2839.421277	17349.051000	859.802734	17.208340
2839.421277	17349.051000	858.625000	-204.313721
2839.421277	17349.051000	857.446289	-198.004181
2839.421277	17349.051000	856.268555	108.440590
2839.421277	17349.051000	855.089844	256.942291
2839.421277	17349.051000	853.911133	-0.707924
2839.421277	17349.051000	852.731445	147.732651
2839.421277	17349.051000	851.552734	68.580391
2839.421277	17349.051000	850.373047	284.129913
2839.421277	17349.051000	849.193359	62.821800
2839.421277	17349.051000	848.013672	164.572357
2839.421277	17349.051000	846.833008	13.110513
2839.421277	17349.051000	845.652344	114.811417
2839.421277	17349.051000	844.471680	-31.435011
2839.421277	17349.051000	843.291016	96.029686
2839.421277	17349.051000	842.110352	158.902054
2839.421277	17349.051000	840.928711	54.000759
2839.421277	17349.051000	839.747070	-133.430893
2839.421277	17349.051000	838.564453	-111.844765
2839.421277	17349.051000	837.382813	-85.121666
2839.421277	17349.051000	836.200195	-17.158735
2839.421277	17349.051000	835.017578	-199.298630
2839.421277	17349.051000	833.834961	-218.990402
2839.421277	17349.051000	832.651367	-225.796356
2839.421277	17349.051000	831.467773	-98.633400
2839.421277	17349.051000	830.284180	195.899994
2839.421277	17349.051000	829.100586	114.303917
2839.421277	17349.051000	827.916992	-96.005486
2839.421277	17349.051000	826.732422	67.036339
2839.421277	17349.051000	825.547852	291.773224
2839.421277	17349.051000	824.363281	336.285278
2839.421277	17349.051000	823.177734	535.135071
2839.421277	17349.051000	821.992188	245.186005
2839.421277	17349.051000	820.806641	145.648956
2839.421277	17349.051000	819.621094	205.554276
2839.421277	17349.051000	818.434570	142.042557
2839.421277	17349.051000	817.249023	114.526955
2839.421277	17349.051000	816.062500	-216.183044
2839.421277	17349.051000	814.875000	44.102936
2839.421277	17349.051000	813.688477	-24.490009
2839.421277	17349.051000	812.500977	-16.021629
2839.421277	17349.051000	811.313477	97.698509
2839.421277	17349.051000	810.125977	314.037537
2839.421277	17349.051000	808.937500	165.865356
2839.421277	17349.051000	807.749023	379.521851
2839.421277	17349.051000	806.560547	244.208054
2839.421277	17349.051000	805.372070	-127.013634
2839.421277	17349.051000	804.182617	278.864349
2839.421277	17349.051000	802.994141	264.122345
2839.421277	17349.051000	801.803711	216.062576
2839.421277	17349.051000	800.614258	137.259476
2839.421277	17349.051000	799.424805	-90.120270
2839.421277	17349.051000	798.234375	141.104630
2839.421277	17349.051000	797.043945	80.269096
2839.421277	17349.051000	795.852539	-13.834308
2839.421277	17349.051000	794.662109	25.205677
2839.421277	17349.051000	793.470703	41.188263
2839.421277	17349.051000	792.279297	149.273529
2839.421277	17349.051000	791.087891	65.426071
2839.421277	17349.051000	789.895508	-100.244255
2839.421277	17349.051000	788.703125	186.784943
2839.421277	17349.051000	787.510742	0.680347
2839.421277	17349.051000	786.318359	-3.864971
2839.421277	17349.051000	785.125000	165.370087
2839.421277	17349.051000	783.931641	4.904005
2839.421277	17349.051000	782.738281	161.269638
2839.421277	17349.051000	781.544922	21.278160
2839.421277	17349.051000	780.350586	-179.951935
2839.421277	17349.051000	779.156250	-0.704931
2839.421277	17349.051000	777.961914	-28.303457
2839.421277	17349.051000	776.767578	-83.975449
2839.421277	17349.051000	775.572266	143.576202
2839.421277	17349.051000	774.376953	-88.152496
2839.421277	17349.051000	773.181641	62.761864
2839.421277	17349.051000	771.986328	22.354988
2839.421277	17349.051000	770.790039	94.123100
2839.421277	17349.051000	769.593750	68.988983
2839.421277	17349.051000	768.397461	61.685585
2839.421277	17349.051000	767.201172	120.608910
2839.421277	17349.051000	766.003906	171.849823
2839.421277	17349.051000	764.806641	121.181709
2839.421277	17349.051000	763.609375	340.409729
2839.421277	17349.051000	762.412109	220.956253
2839.421277	17349.051000	761.213867	139.709869
2839.421277	17349.051000	760.015625	353.648102
2839.421277	17349.051000	758.817383	409.745026
2839.421277	17349.051000	757.618164	81.725098
2839.421277	17349.051000	756.419922	409.910248
2839.421277	17349.051000	755.220703	188.764511
2839.421277	17349.051000	754.021484	430.319214
2839.421277	17349.051000	752.821289	425.234192
2839.421277	17349.051000	751.621094	460.780060
2839.421277	17349.051000	750.420898	277.815613
2839.421277	17349.051000	749.220703	122.838280
2839.421277	17349.051000	748.020508	132.952942
2839.421277	17349.051000	746.819336	272.514679
2839.421277	17349.051000	745.618164	241.928879
2839.421277	17349.051000	744.416992	457.483032
2839.421277	17349.051000	743.214844	284.733276
2839.421277	17349.051000	742.012695	629.499146
2839.421277	17349.051000	740.810547	487.157867
2839.421277	17349.051000	739.608398	674.469666
2839.421277	17349.051000	738.406250	722.242371
2839.421277	17349.051000	737.203125	878.950073
2839.421277	17349.051000	736.000000	794.828308
2839.421277	17349.051000	734.795898	1116.063965
2839.421277	17349.051000	733.592773	1191.433716
2839.421277	17349.051000	732.388672	1747.895752
2839.421277	17349.051000	731.184570	1417.930908
2839.421277	17349.051000	729.979492	1541.181030
2839.421277	17349.051000	728.775391	1330.270752
2839.421277	17349.051000	727.570313	1276.290649
2839.421277	17349.051000	726.365234	1199.526489
2839.421277	17349.051000	725.160156	887.535339
2839.421277	17349.051000	723.954102	987.813965
2839.421277	17349.051000	722.748047	759.347534
2839.421277	17349.051000	721.541992	632.040527
2839.421277	17349.051000	720.334961	565.395752
2839.421277	17349.051000	719.128906	549.265869
2839.421277	17349.051000	717.921875	434.584961
2839.421277	17349.051000	716.714844	264.344879
2839.421277	17349.051000	715.506836	255.731873
2839.421277	17349.051000	714.298828	171.341492
2839.421277	17349.051000	713.090820	86.940628
2839.421277	17349.051000	711.882813	191.782516
2839.421277	17349.051000	710.674805	167.865494
2839.421277	17349.051000	709.465820	504.607086
2839.421277	17349.051000	708.256836	334.270966
2839.421277	17349.051000	707.047852	292.542023
2839.421277	17349.051000	705.837891	-165.145752
2839.421277	17349.051000	704.627930	246.787857
2839.421277	17349.051000	703.417969	-9.226145
2839.421277	17349.051000	702.208008	14.442429
2839.421277	17349.051000	700.998047	-40.030304
2839.421277	17349.051000	699.787109	114.469131
2839.421277	17349.051000	698.576172	-23.191685
2839.421277	17349.051000	697.364258	-17.377872
2839.421277	17349.051000	696.153320	111.686707
2839.421277	17349.051000	694.941406	150.064407
2839.421277	17349.051000	693.729492	301.564423
2839.421277	17349.051000	692.516602	309.590027
2839.421277	17349.051000	691.304688	161.658951
2839.421277	17349.051000	690.091797	179.646698
2839.421277	17349.051000	688.878906	303.128296
2839.421277	17349.051000	687.665039	426.496094
2839.421277	17349.051000	686.451172	326.155304
2839.421277	17349.051000	685.237305	127.834869
2839.421277	17349.051000	684.023438	303.710968
2839.421277	17349.051000	682.809570	298.676666
2839.421277	17349.051000	681.594727	351.315460
2839.421277	17349.051000	680.379883	283.403992
2839.421277	17349.051000	679.165039	230.509140
2839.421277	17349.051000	677.949219	478.604950
2839.421277	17349.051000	676.733398	443.115692
2839.421277	17349.051000	675.517578	520.413879
2839.421277	17349.051000	674.301758	361.952209
2839.421277	17349.051000	673.084961	642.125488
2839.421277	17349.051000	671.869141	578.795044
2839.421277	17349.051000	670.651367	801.041565
2839.421277	17349.051000	669.434570	381.867493
2839.421277	17349.051000	668.216797	418.597809
2839.421277	17349.051000	667.000000	625.504517
2839.421277	17349.051000	665.781250	441.733124
2839.421277	17349.051000	664.563477	751.019226
2839.421277	17349.051000	663.344727	689.767456
2839.421277	17349.051000	662.125977	503.380524
2839.421277	17349.051000	660.907227	567.122620
2839.421277	17349.051000	659.688477	643.268005
2839.421277	17349.051000	658.468750	799.312439
2839.421277	17349.051000	657.249023	682.757507
2839.421277	17349.051000	656.029297	703.628296
2839.421277	17349.051000	654.808594	512.035828
2839.421277	17349.051000	653.587891	640.200562
2839.421277	17349.051000	652.367188	593.410461
2839.421277	17349.051000	651.146484	638.953369
2839.421277	17349.051000	649.924805	599.521179
2839.421277	17349.051000	648.704102	674.843872
2839.421277	17349.051000	647.482422	600.333740
2839.421277	17349.051000	646.259766	670.481628
2839.421277	17349.051000	645.037109	628.277161
2839.421277	17349.051000	643.815430	660.832214
2839.421277	17349.051000	642.591797	546.188843
2839.421277	17349.051000	641.369141	446.475861
2839.421277	17349.051000	640.145508	526.169373
2839.421277	17349.051000	638.921875	299.271088
2839.421277	17349.051000	637.698242	660.314209
2839.421277	17349.051000	636.474609	508.050812
2839.421277	17349.051000	635.250000	310.951599
2839.421277	17349.051000	634.025391	275.684631
2839.421277	17349.051000	632.800781	733.195313
2839.421277	17349.051000	631.575195	274.644745
2839.421277	17349.051000	630.349609	699.462891
2839.421277	17349.051000	629.124023	517.075745
2839.421277	17349.051000	627.898438	558.517761
2839.421277	17349.051000	626.671875	440.731079
2839.421277	17349.051000	625.445313	439.758301
2839.421277	17349.051000	624.218750	560.495300
2839.421277	17349.051000	622.992188	499.710876
2839.421277	17349.051000	621.764648	493.531708
2839.421277	17349.051000	620.537109	377.992920
2839.421277	17349.051000	619.309570	448.675964
2839.421277	17349.051000	618.081055	194.011032
2839.421277	17349.051000	616.852539	423.417358
2839.421277	17349.051000	615.624023	332.512604
2839.421277	17349.051000	614.395508	561.647888
2839.421277	17349.051000	613.166992	202.699631
2839.421277	17349.051000	611.937500	258.010071
2839.421277	17349.051000	610.708008	293.390411
2839.421277	17349.051000	609.477539	167.542114
2839.421277	17349.051000	608.248047	103.646049
2839.421277	17349.051000	607.017578	69.440514
2839.421277	17349.051000	605.787109	79.776100
2839.421277	17349.051000	604.555664	-58.581356
2839.421277	17349.051000	603.325195	53.177452
2839.421277	17349.051000	602.093750	-97.627457
2839.421277	17349.051000	600.861328	-82.587227
2839.421277	17349.051000	599.629883	-8.217380
2839.421277	17349.051000	598.397461	-255.609238
2839.421277	17349.051000	597.165039	-154.151917
2839.421277	17349.051000	595.932617	58.496311
2839.421277	17349.051000	594.699219	-80.141098
2839.421277	17349.051000	593.465820	-176.751846
2839.421277	17349.051000	592.232422	-246.191422
2839.421277	17349.051000	590.999023	77.255035
2839.421277	17349.051000	589.764648	64.494713
2839.421277	17349.051000	588.530273	98.616547
2839.421277	17349.051000	587.295898	51.170429
2839.421277	17349.051000	586.061523	11.098858
2839.421277	17349.051000	584.826172	-98.133438
2839.421277	17349.051000	583.590820	-39.546627
2839.421277	17349.051000	582.355469	-134.019440
2839.421277	17349.051000	581.119141	-139.695572
2839.421277	17349.051000	579.882813	-49.227848
2839.421277	17349.051000	578.646484	-62.414822
2839.421277	17349.051000	577.410156	96.935181
2839.421277	17349.051000	576.172852	-29.756176
2839.421277	17349.051000	574.935547	139.282379
2839.421277	17349.051000	573.698242	-98.321884
2839.421277	17349.051000	572.460938	-128.951416
2839.421277	17349.051000	571.222656	-112.819336
2839.421277	17349.051000	569.984375	95.321381
2839.421277	17349.051000	568.746094	10.393037
2839.421277	17349.051000	567.506836	124.815277
2839.421277	17349.051000	566.267578	32.459316
2839.421277	17349.051000	565.028320	336.189880
2839.421277	17349.051000	563.789063	103.566002
2839.421277	17349.051000	562.548828	134.127472
2839.421277	17349.051000	561.309570	319.540375
2839.421277	17349.051000	560.068359	239.371201
2839.421277	17349.051000	558.828125	169.044739
2839.421277	17349.051000	557.586914	64.320633
2839.421277	17349.051000	556.345703	89.811577
2839.421277	17349.051000	555.104492	-61.557064
2839.421277	17349.051000	553.863281	106.320747
2839.421277	17349.051000	552.621094	180.818695
2839.421277	17349.051000	551.378906	76.100372
2839.421277	17349.051000	550.136719	-75.210609
2839.421277	17349.051000	548.893555	-81.730782
2839.421277	17349.051000	547.650391	-345.801422
2839.421277	17349.051000	546.407227	-192.887741
2839.421277	17349.051000	545.164063	18.793060
2839.421277	17349.051000	543.919922	-220.649979
2839.421277	17349.051000	542.675781	-36.028797
2839.421277	17349.051000	541.431641	70.103470
2839.421277	17349.051000	540.186523	-93.275017
2839.421277	17349.051000	538.941406	49.552113
2839.421277	17349.051000	537.696289	18.469215
2839.421277	17349.051000	536.451172	11.882121
2839.421277	17349.051000	535.205078	137.463303
2839.421277	17349.051000	533.959961	-35.533871
2839.421277	17349.051000	532.712891	92.456726
2839.421277	17349.051000	531.466797	88.324089
2839.421277	17349.051000	530.219727	106.205574
2839.421277	17349.051000	528.972656	99.642593
2839.421277	17349.051000	527.725586	300.866058
2839.421277	17349.051000	526.478516	123.219154
2839.421277	17349.051000	525.230469	-61.670628
2839.421277	17349.051000	523.982422	222.554398
2839.421277	17349.051000	522.734375	120.793961
2839.421277	17349.051000	521.485352	-105.437759
2839.421277	17349.051000	520.236328	0.456018
2839.421277	17349.051000	518.987305	286.938416
2839.421277	17349.051000	517.737305	224.369278
2839.421277	17349.051000	516.488281	178.932800
2839.421277	17349.051000	515.238281	-7.933830
2839.421277	17349.051000	513.988281	-209.325546
2839.421277	17349.051000	512.737305	3.867364
2839.421277	17349.051000	511.486328	48.804741
2839.421277	17349.051000	510.235352	-37.849461
2839.421277	17349.051000	508.984375	85.104805
2839.421277	17349.051000	507.732422	-137.879120
2839.421277	17349.051000	506.480469	-7.592911
2839.421277	17349.051000	505.228516	171.368347
2839.421277	17349.051000	503.976563	111.712265
2839.421277	17349.051000	502.723633	39.940842
2839.421277	17349.051000	501.470703	97.202438
2839.421277	17349.051000	500.217773	431.817688
2839.421277	17349.051000	498.963867	520.654724
2839.421277	17349.051000	497.709961	298.216919
2839.421277	17349.051000	496.456055	80.771049
2839.421277	17349.051000	495.202148	228.067062
2839.421277	17349.051000	493.947266	234.377075
2839.421277	17349.051000	492.692383	418.086914
2839.421277	17349.051000	491.437500	737.786072
2839.421277	17349.051000	490.181641	270.489594
2839.421277	17349.051000	488.926758	563.439453
2839.421277	17349.051000	487.670898	628.095703
2839.421277	17349.051000	486.414063	746.148071
2839.421277	17349.051000	485.158203	403.134796
2839.421277	17349.051000	483.901367	171.892670
2839.421277	17349.051000	482.644531	542.311218
2839.421277	17349.051000	481.386719	430.016113
2839.421277	17349.051000	480.128906	150.506866
2839.421277	17349.051000	478.871094	435.925476
2839.421277	17349.051000	477.613281	214.743759
2839.421277	17349.051000	476.355469	395.882690
2839.421277	17349.051000	475.096680	448.571777
2839.421277	17349.051000	473.837891	515.785217
2839.421277	17349.051000	472.578125	229.463196
2839.421277	17349.051000	471.319336	492.807800
2839.421277	17349.051000	470.059570	581.780457
2839.421277	17349.051000	468.799805	658.622253
2839.421277	17349.051000	467.539063	527.374084
2839.421277	17349.051000	466.278320	669.498169
2839.421277	17349.051000	465.017578	729.336792
2839.421277	17349.051000	463.756836	740.788330
2839.421277	17349.051000	462.495117	822.315857
2839.421277	17349.051000	461.233398	652.460815
2839.421277	17349.051000	459.971680	579.302673
2839.421277	17349.051000	458.709961	614.853394
2839.421277	17349.051000	457.447266	669.674500
2839.421277	17349.051000	456.184570	591.634705
2839.421277	17349.051000	454.921875	791.202087
2839.421277	17349.051000	453.658203	510.341705
2839.421277	17349.051000	452.394531	605.977112
2839.421277	17349.051000	451.130859	925.871582
2839.421277	17349.051000	449.867188	736.639587
2839.421277	17349.051000	448.602539	759.618835
2839.421277	17349.051000	447.337891	927.161621
2839.421277	17349.051000	446.073242	860.736084
2839.421277	17349.051000	444.807617	842.437439
2839.421277	17349.051000	443.542969	893.917480
2839.421277	17349.051000	442.276367	1048.832397
2839.421277	17349.051000	441.010742	784.519409
2839.421277	17349.051000	439.744141	813.934998
2839.421277	17349.051000	438.478516	807.092529
2839.421277	17349.051000	437.210938	703.824280
2839.421277	17349.051000	435.944336	831.440918
2839.421277	17349.051000	434.676758	867.410095
2839.421277	17349.051000	433.409180	636.205139
2839.421277	17349.051000	432.141602	986.833191
2839.421277	17349.051000	430.873047	928.394958
2839.421277	17349.051000	429.604492	1023.593262
2839.421277	17349.051000	428.335938	919.061890
2839.421277	17349.051000	427.067383	879.199829
2839.421277	17349.051000	425.797852	1064.883423
2839.421277	17349.051000	424.528320	1221.393799
2839.421277	17349.051000	423.258789	1233.487549
2839.421277	17349.051000	421.988281	1257.267822
2839.421277	17349.051000	420.717773	1352.717651
2839.421277	17349.051000	419.447266	1284.626709
2839.421277	17349.051000	418.175781	1122.647095
2839.421277	17349.051000	416.905273	1032.327026
2839.421277	17349.051000	415.633789	1157.460083
2839.421277	17349.051000	414.362305	1078.355835
2839.421277	17349.051000	413.089844	938.929138
2839.421277	17349.051000	411.817383	1204.097534
2839.421277	17349.051000	410.544922	1260.248169
2839.421277	17349.051000	409.272461	1251.215088
2839.421277	17349.051000	407.999023	1124.322876
2839.421277	17349.051000	406.725586	1159.763428
2839.421277	17349.051000	405.452148	1005.529114
2839.421277	17349.051000	404.177734	1054.196167
2839.421277	17349.051000	402.903320	1001.745728
2839.421277	17349.051000	401.628906	1130.496094
2839.421277	17349.051000	400.354492	993.063660
2839.421277	17349.051000	399.079102	1046.289551
2839.421277	17349.051000	397.803711	1029.456665
2839.421277	17349.051000	396.528320	1205.494507
2839.421277	17349.051000	395.251953	1034.187744
2839.421277	17349.051000	393.976563	1024.634277
2839.421277	17349.051000	392.700195	873.321655
2839.421277	17349.051000	391.422852	1084.181274
2839.421277	17349.051000	390.145508	778.361023
2839.421277	17349.051000	388.869141	772.531738
2839.421277	17349.051000	387.590820	1078.339478
2839.421277	17349.051000	386.313477	893.926636
2839.421277	17349.051000	385.035156	706.163025
2839.421277	17349.051000	383.756836	770.219788
2839.421277	17349.051000	382.478516	895.144165
2839.421277	17349.051000	381.199219	725.637756
2839.421277	17349.051000	379.919922	557.411255
2839.421277	17349.051000	378.640625	516.713196
2839.421277	17349.051000	377.360352	646.273438
2839.421277	17349.051000	376.080078	803.056335
2839.421277	17349.051000	374.799805	903.654907
2839.421277	17349.051000	373.519531	933.777466
2839.421277	17349.051000	372.238281	717.256897
2839.421277	17349.051000	370.957031	941.973083
2839.421277	17349.051000	369.675781	843.867371
2839.421277	17349.051000	368.394531	836.991211
2839.421277	17349.051000	367.112305	804.671204
2839.421277	17349.051000	365.830078	806.344849
2839.421277	17349.051000	364.546875	742.061157
2839.421277	17349.051000	363.264648	659.414063
2839.421277	17349.051000	361.981445	603.431335
2839.421277	17349.051000	360.698242	704.731323
2839.421277	17349.051000	359.414063	583.101257
2839.421277	17349.051000	358.129883	685.082458
2839.421277	17349.051000	356.845703	557.027649
2839.421277	17349.051000	355.561523	388.908356
2839.421277	17349.051000	354.276367	610.145569
2839.421277	17349.051000	352.991211	655.820190
2839.421277	17349.051000	351.706055	580.534302
2839.421277	17349.051000	350.420898	673.616028
2839.421277	17349.051000	349.134766	481.980286
2839.421277	17349.051000	347.848633	584.175659
2839.421277	17349.051000	346.561523	560.406860
2839.421277	17349.051000	345.275391	375.261108
2839.421277	17349.051000	343.988281	426.609924
2839.421277	17349.051000	342.700195	292.653503
2839.421277	17349.051000	341.413086	61.174068
2839.421277	17349.051000	340.125000	515.596741
2839.421277	17349.051000	338.836914	294.551880
2839.421277	17349.051000	337.548828	285.749084
2839.421277	17349.051000	336.259766	323.282562
2839.421277	17349.051000	334.970703	317.230621
2839.421277	17349.051000	333.681641	340.833466
2839.421277	17349.051000	332.391602	131.469009
2839.421277	17349.051000	331.101563	251.836411
2839.421277	17349.051000	329.811523	-134.942963
2839.421277	17349.051000	328.521484	25.113581
2839.421277	17349.051000	327.230469	86.585457
2839.421277	17349.051000	325.939453	-106.342621
2839.421277	17349.051000	324.648438	1.253261
2839.421277	17349.051000	323.356445	-82.039581
2839.421277	17349.051000	322.064453	330.681061
2839.421277	17349.051000	320.772461	-80.020775
2839.421277	17349.051000	319.480469	226.743027
2839.421277	17349.051000	318.187500	87.508232
2839.421277	17349.051000	316.894531	-51.771858
2839.421277	17349.051000	315.601563	46.891529
2839.421277	17349.051000	314.307617	302.953583
2839.421277	17349.051000	313.013672	263.863464
2839.421277	17349.051000	311.719727	73.401596
2839.421277	17349.051000	310.425781	-108.290588
2839.421277	17349.051000	309.130859	250.714340
2839.421277	17349.051000	307.835938	-29.496016
2839.421277	17349.051000	306.541016	-176.559296
2839.421277	17349.051000	305.245117	-68.488907
2839.421277	17349.051000	303.949219	-178.370163
2839.421277	17349.051000	302.653320	72.475533
2839.421277	17349.051000	301.356445	326.004791
2839.421277	17349.051000	300.060547	304.957611
2839.421277	17349.051000	298.763672	385.131012
