#X		#Y		#Wave		#Intensity
2816.766277	17348.806167	2000.043945	15.486953
2816.766277	17348.806167	1999.080078	-141.160202
2816.766277	17348.806167	1998.116211	-157.958069
2816.766277	17348.806167	1997.151367	-58.592426
2816.766277	17348.806167	1996.186523	45.377831
2816.766277	17348.806167	1995.222656	40.001305
2816.766277	17348.806167	1994.256836	-35.006603
2816.766277	17348.806167	1993.291992	-73.132347
2816.766277	17348.806167	1992.327148	-131.327423
2816.766277	17348.806167	1991.361328	13.219527
2816.766277	17348.806167	1990.395508	31.231552
2816.766277	17348.806167	1989.429688	81.154816
2816.766277	17348.806167	1988.463867	-74.527100
2816.766277	17348.806167	1987.497070	-0.339507
2816.766277	17348.806167	1986.531250	-0.602805
2816.766277	17348.806167	1985.564453	142.332993
2816.766277	17348.806167	1984.597656	-1.769014
2816.766277	17348.806167	1983.630859	-19.962748
2816.766277	17348.806167	1982.664063	75.332985
2816.766277	17348.806167	1981.696289	-59.378132
2816.766277	17348.806167	1980.728516	87.398636
2816.766277	17348.806167	1979.761719	85.750381
2816.766277	17348.806167	1978.792969	78.999237
2816.766277	17348.806167	1977.825195	84.432251
2816.766277	17348.806167	1976.857422	27.994364
2816.766277	17348.806167	1975.888672	80.025246
2816.766277	17348.806167	1974.919922	-26.033468
2816.766277	17348.806167	1973.951172	40.510822
2816.766277	17348.806167	1972.982422	77.298309
2816.766277	17348.806167	1972.013672	133.677048
2816.766277	17348.806167	1971.043945	138.133789
2816.766277	17348.806167	1970.075195	36.466080
2816.766277	17348.806167	1969.105469	70.293732
2816.766277	17348.806167	1968.135742	54.717030
2816.766277	17348.806167	1967.165039	-42.263103
2816.766277	17348.806167	1966.195313	50.386581
2816.766277	17348.806167	1965.224609	4.983267
2816.766277	17348.806167	1964.253906	75.252159
2816.766277	17348.806167	1963.283203	138.028412
2816.766277	17348.806167	1962.312500	109.624596
2816.766277	17348.806167	1961.341797	41.780388
2816.766277	17348.806167	1960.370117	-13.802567
2816.766277	17348.806167	1959.399414	144.616272
2816.766277	17348.806167	1958.427734	-48.837769
2816.766277	17348.806167	1957.455078	77.440575
2816.766277	17348.806167	1956.483398	73.298790
2816.766277	17348.806167	1955.511719	29.775244
2816.766277	17348.806167	1954.539063	42.756111
2816.766277	17348.806167	1953.566406	-8.204801
2816.766277	17348.806167	1952.593750	-10.043621
2816.766277	17348.806167	1951.621094	189.525589
2816.766277	17348.806167	1950.647461	111.442177
2816.766277	17348.806167	1949.674805	62.828381
2816.766277	17348.806167	1948.701172	75.586891
2816.766277	17348.806167	1947.727539	186.509399
2816.766277	17348.806167	1946.753906	-80.597641
2816.766277	17348.806167	1945.780273	-48.249683
2816.766277	17348.806167	1944.805664	-40.464607
2816.766277	17348.806167	1943.831055	80.141762
2816.766277	17348.806167	1942.856445	48.636742
2816.766277	17348.806167	1941.881836	205.943497
2816.766277	17348.806167	1940.907227	44.478264
2816.766277	17348.806167	1939.932617	-131.637711
2816.766277	17348.806167	1938.957031	-30.763687
2816.766277	17348.806167	1937.981445	-152.898285
2816.766277	17348.806167	1937.005859	-27.558178
2816.766277	17348.806167	1936.030273	-14.930090
2816.766277	17348.806167	1935.054688	-88.010857
2816.766277	17348.806167	1934.078125	118.059120
2816.766277	17348.806167	1933.101563	118.433189
2816.766277	17348.806167	1932.125000	84.552757
2816.766277	17348.806167	1931.148438	-17.820517
2816.766277	17348.806167	1930.171875	24.204826
2816.766277	17348.806167	1929.194336	36.873825
2816.766277	17348.806167	1928.217773	-40.934650
2816.766277	17348.806167	1927.240234	37.793983
2816.766277	17348.806167	1926.262695	-13.060934
2816.766277	17348.806167	1925.284180	53.447102
2816.766277	17348.806167	1924.306641	41.747349
2816.766277	17348.806167	1923.328125	-4.135962
2816.766277	17348.806167	1922.350586	201.641266
2816.766277	17348.806167	1921.372070	121.593452
2816.766277	17348.806167	1920.392578	-29.221018
2816.766277	17348.806167	1919.414063	39.784794
2816.766277	17348.806167	1918.434570	50.201946
2816.766277	17348.806167	1917.456055	104.571281
2816.766277	17348.806167	1916.476563	112.581009
2816.766277	17348.806167	1915.497070	135.251205
2816.766277	17348.806167	1914.516602	-88.430000
2816.766277	17348.806167	1913.537109	-121.772293
2816.766277	17348.806167	1912.556641	-72.171913
2816.766277	17348.806167	1911.576172	-39.629120
2816.766277	17348.806167	1910.595703	12.428030
2816.766277	17348.806167	1909.615234	-67.106300
2816.766277	17348.806167	1908.633789	-122.219223
2816.766277	17348.806167	1907.653320	-199.208786
2816.766277	17348.806167	1906.671875	-32.579109
2816.766277	17348.806167	1905.690430	75.570976
2816.766277	17348.806167	1904.708984	18.145185
2816.766277	17348.806167	1903.727539	-48.969414
2816.766277	17348.806167	1902.745117	29.996828
2816.766277	17348.806167	1901.762695	96.792480
2816.766277	17348.806167	1900.780273	-9.147658
2816.766277	17348.806167	1899.797852	84.439804
2816.766277	17348.806167	1898.815430	-77.343414
2816.766277	17348.806167	1897.832031	-27.495775
2816.766277	17348.806167	1896.849609	-43.282169
2816.766277	17348.806167	1895.866211	86.800789
2816.766277	17348.806167	1894.882813	46.745377
2816.766277	17348.806167	1893.898438	103.917839
2816.766277	17348.806167	1892.915039	-86.694580
2816.766277	17348.806167	1891.930664	-75.620667
2816.766277	17348.806167	1890.947266	-62.101349
2816.766277	17348.806167	1889.962891	92.254051
2816.766277	17348.806167	1888.977539	125.198883
2816.766277	17348.806167	1887.993164	-60.278996
2816.766277	17348.806167	1887.007813	-24.851839
2816.766277	17348.806167	1886.023438	-57.350273
2816.766277	17348.806167	1885.038086	140.617935
2816.766277	17348.806167	1884.051758	171.191238
2816.766277	17348.806167	1883.066406	0.515896
2816.766277	17348.806167	1882.081055	164.471710
2816.766277	17348.806167	1881.094727	98.117218
2816.766277	17348.806167	1880.108398	24.531435
2816.766277	17348.806167	1879.122070	-90.202995
2816.766277	17348.806167	1878.135742	88.236305
2816.766277	17348.806167	1877.148438	-53.085293
2816.766277	17348.806167	1876.162109	21.175385
2816.766277	17348.806167	1875.174805	-134.586884
2816.766277	17348.806167	1874.187500	-57.899239
2816.766277	17348.806167	1873.199219	-80.460503
2816.766277	17348.806167	1872.211914	-110.265999
2816.766277	17348.806167	1871.223633	0.265083
2816.766277	17348.806167	1870.236328	93.827309
2816.766277	17348.806167	1869.248047	18.071802
2816.766277	17348.806167	1868.258789	147.872086
2816.766277	17348.806167	1867.270508	-0.383992
2816.766277	17348.806167	1866.282227	-10.813760
2816.766277	17348.806167	1865.292969	-74.403709
2816.766277	17348.806167	1864.303711	110.888672
2816.766277	17348.806167	1863.314453	27.971024
2816.766277	17348.806167	1862.324219	7.876841
2816.766277	17348.806167	1861.334961	-164.343948
2816.766277	17348.806167	1860.344727	-56.446060
2816.766277	17348.806167	1859.354492	-35.493942
2816.766277	17348.806167	1858.364258	132.659760
2816.766277	17348.806167	1857.374023	28.079367
2816.766277	17348.806167	1856.383789	-117.484245
2816.766277	17348.806167	1855.392578	55.385139
2816.766277	17348.806167	1854.401367	52.132359
2816.766277	17348.806167	1853.410156	70.567337
2816.766277	17348.806167	1852.418945	115.499031
2816.766277	17348.806167	1851.426758	51.938313
2816.766277	17348.806167	1850.435547	-136.923126
2816.766277	17348.806167	1849.443359	-34.204025
2816.766277	17348.806167	1848.451172	-114.615746
2816.766277	17348.806167	1847.458984	67.499786
2816.766277	17348.806167	1846.466797	76.153168
2816.766277	17348.806167	1845.473633	19.778027
2816.766277	17348.806167	1844.480469	78.939445
2816.766277	17348.806167	1843.487305	104.361916
2816.766277	17348.806167	1842.494141	141.780151
2816.766277	17348.806167	1841.500977	73.306824
2816.766277	17348.806167	1840.506836	0.021426
2816.766277	17348.806167	1839.513672	114.308029
2816.766277	17348.806167	1838.519531	-2.294876
2816.766277	17348.806167	1837.525391	-44.364590
2816.766277	17348.806167	1836.530273	48.141651
2816.766277	17348.806167	1835.536133	138.176544
2816.766277	17348.806167	1834.541016	189.702637
2816.766277	17348.806167	1833.545898	111.461639
2816.766277	17348.806167	1832.550781	66.836281
2816.766277	17348.806167	1831.555664	99.027634
2816.766277	17348.806167	1830.560547	3.929678
2816.766277	17348.806167	1829.564453	134.452148
2816.766277	17348.806167	1828.568359	29.703154
2816.766277	17348.806167	1827.572266	6.529814
2816.766277	17348.806167	1826.576172	16.906685
2816.766277	17348.806167	1825.580078	15.242908
2816.766277	17348.806167	1824.583008	-24.833689
2816.766277	17348.806167	1823.585938	122.067963
2816.766277	17348.806167	1822.588867	86.687111
2816.766277	17348.806167	1821.591797	159.120422
2816.766277	17348.806167	1820.594727	23.008045
2816.766277	17348.806167	1819.596680	95.325752
2816.766277	17348.806167	1818.599609	136.426682
2816.766277	17348.806167	1817.601563	191.828247
2816.766277	17348.806167	1816.603516	110.675842
2816.766277	17348.806167	1815.604492	189.892334
2816.766277	17348.806167	1814.606445	166.105240
2816.766277	17348.806167	1813.607422	111.160210
2816.766277	17348.806167	1812.608398	63.357178
2816.766277	17348.806167	1811.609375	113.590767
2816.766277	17348.806167	1810.610352	187.663818
2816.766277	17348.806167	1809.610352	58.393494
2816.766277	17348.806167	1808.611328	204.051559
2816.766277	17348.806167	1807.611328	96.217964
2816.766277	17348.806167	1806.611328	122.194984
2816.766277	17348.806167	1805.610352	45.352795
2816.766277	17348.806167	1804.610352	-31.522623
2816.766277	17348.806167	1803.609375	49.205860
2816.766277	17348.806167	1802.608398	261.181610
2816.766277	17348.806167	1801.607422	52.791119
2816.766277	17348.806167	1800.606445	1.964762
2816.766277	17348.806167	1799.605469	177.826828
2816.766277	17348.806167	1798.603516	148.333557
2816.766277	17348.806167	1797.601563	114.010071
2816.766277	17348.806167	1796.599609	151.189667
2816.766277	17348.806167	1795.597656	-107.443260
2816.766277	17348.806167	1794.595703	108.455345
2816.766277	17348.806167	1793.592773	64.341469
2816.766277	17348.806167	1792.589844	86.910561
2816.766277	17348.806167	1791.587891	35.523872
2816.766277	17348.806167	1790.583984	-46.897503
2816.766277	17348.806167	1789.581055	70.743698
2816.766277	17348.806167	1788.577148	31.067652
2816.766277	17348.806167	1787.574219	186.598221
2816.766277	17348.806167	1786.570313	51.528076
2816.766277	17348.806167	1785.566406	106.862839
2816.766277	17348.806167	1784.561523	64.517921
2816.766277	17348.806167	1783.557617	81.600349
2816.766277	17348.806167	1782.552734	70.045433
2816.766277	17348.806167	1781.547852	172.587173
2816.766277	17348.806167	1780.542969	56.222191
2816.766277	17348.806167	1779.538086	84.858742
2816.766277	17348.806167	1778.532227	37.328384
2816.766277	17348.806167	1777.527344	8.752337
2816.766277	17348.806167	1776.521484	63.273087
2816.766277	17348.806167	1775.515625	-17.734680
2816.766277	17348.806167	1774.508789	162.498337
2816.766277	17348.806167	1773.502930	-37.412315
2816.766277	17348.806167	1772.496094	2.491704
2816.766277	17348.806167	1771.489258	-43.169918
2816.766277	17348.806167	1770.482422	110.485825
2816.766277	17348.806167	1769.475586	-8.916823
2816.766277	17348.806167	1768.467773	87.554619
2816.766277	17348.806167	1767.460938	1.243318
2816.766277	17348.806167	1766.453125	114.107231
2816.766277	17348.806167	1765.445313	-52.978973
2816.766277	17348.806167	1764.437500	97.614868
2816.766277	17348.806167	1763.428711	41.829708
2816.766277	17348.806167	1762.420898	54.714207
2816.766277	17348.806167	1761.412109	-105.476089
2816.766277	17348.806167	1760.403320	56.507015
2816.766277	17348.806167	1759.393555	142.538284
2816.766277	17348.806167	1758.384766	112.412231
2816.766277	17348.806167	1757.375000	-142.731934
2816.766277	17348.806167	1756.366211	-38.030983
2816.766277	17348.806167	1755.356445	38.134979
2816.766277	17348.806167	1754.345703	36.086956
2816.766277	17348.806167	1753.335938	166.450424
2816.766277	17348.806167	1752.325195	88.505966
2816.766277	17348.806167	1751.315430	-93.553680
2816.766277	17348.806167	1750.304688	48.312984
2816.766277	17348.806167	1749.292969	-112.580765
2816.766277	17348.806167	1748.282227	-22.942522
2816.766277	17348.806167	1747.270508	-82.317665
2816.766277	17348.806167	1746.259766	-108.673668
2816.766277	17348.806167	1745.248047	86.947685
2816.766277	17348.806167	1744.235352	-5.752051
2816.766277	17348.806167	1743.223633	-79.607025
2816.766277	17348.806167	1742.211914	-66.164764
2816.766277	17348.806167	1741.199219	62.845276
2816.766277	17348.806167	1740.186523	71.352936
2816.766277	17348.806167	1739.173828	-75.967278
2816.766277	17348.806167	1738.160156	-46.385559
2816.766277	17348.806167	1737.147461	-52.276966
2816.766277	17348.806167	1736.133789	-34.677277
2816.766277	17348.806167	1735.120117	-50.181057
2816.766277	17348.806167	1734.106445	-84.624962
2816.766277	17348.806167	1733.091797	128.329865
2816.766277	17348.806167	1732.078125	-42.985199
2816.766277	17348.806167	1731.063477	89.602333
2816.766277	17348.806167	1730.048828	-1.728686
2816.766277	17348.806167	1729.034180	-74.269424
2816.766277	17348.806167	1728.019531	-59.743649
2816.766277	17348.806167	1727.003906	-21.773350
2816.766277	17348.806167	1725.988281	23.158590
2816.766277	17348.806167	1724.972656	20.922197
2816.766277	17348.806167	1723.957031	-47.278507
2816.766277	17348.806167	1722.941406	13.847916
2816.766277	17348.806167	1721.924805	-5.107952
2816.766277	17348.806167	1720.909180	-68.811378
2816.766277	17348.806167	1719.892578	-43.238907
2816.766277	17348.806167	1718.875977	-53.018295
2816.766277	17348.806167	1717.858398	28.774282
2816.766277	17348.806167	1716.841797	98.713478
2816.766277	17348.806167	1715.824219	170.886169
2816.766277	17348.806167	1714.806641	-78.841415
2816.766277	17348.806167	1713.789063	-91.364716
2816.766277	17348.806167	1712.770508	27.513727
2816.766277	17348.806167	1711.752930	-114.295685
2816.766277	17348.806167	1710.734375	126.430939
2816.766277	17348.806167	1709.715820	-13.161398
2816.766277	17348.806167	1708.697266	81.837090
2816.766277	17348.806167	1707.678711	-43.772686
2816.766277	17348.806167	1706.659180	-21.669117
2816.766277	17348.806167	1705.640625	-11.364213
2816.766277	17348.806167	1704.621094	-50.378502
2816.766277	17348.806167	1703.600586	-28.520115
2816.766277	17348.806167	1702.581055	-55.947113
2816.766277	17348.806167	1701.561523	-57.663635
2816.766277	17348.806167	1700.541016	-17.295183
2816.766277	17348.806167	1699.520508	-37.908836
2816.766277	17348.806167	1698.500000	32.738800
2816.766277	17348.806167	1697.478516	-2.075098
2816.766277	17348.806167	1696.458008	112.872635
2816.766277	17348.806167	1695.436523	89.619476
2816.766277	17348.806167	1694.415039	24.189531
2816.766277	17348.806167	1693.393555	155.227127
2816.766277	17348.806167	1692.372070	94.353172
2816.766277	17348.806167	1691.349609	94.227341
2816.766277	17348.806167	1690.327148	23.894548
2816.766277	17348.806167	1689.304688	187.284790
2816.766277	17348.806167	1688.282227	-16.385277
2816.766277	17348.806167	1687.259766	195.893463
2816.766277	17348.806167	1686.236328	223.453796
2816.766277	17348.806167	1685.213867	190.221481
2816.766277	17348.806167	1684.190430	61.181530
2816.766277	17348.806167	1683.166016	287.026062
2816.766277	17348.806167	1682.142578	220.928238
2816.766277	17348.806167	1681.119141	262.161682
2816.766277	17348.806167	1680.094727	207.635635
2816.766277	17348.806167	1679.070313	402.716949
2816.766277	17348.806167	1678.045898	182.453445
2816.766277	17348.806167	1677.020508	291.051056
2816.766277	17348.806167	1675.996094	185.041962
2816.766277	17348.806167	1674.970703	228.213135
2816.766277	17348.806167	1673.945313	210.713470
2816.766277	17348.806167	1672.919922	228.125458
2816.766277	17348.806167	1671.893555	240.809662
2816.766277	17348.806167	1670.868164	367.596619
2816.766277	17348.806167	1669.841797	263.697632
2816.766277	17348.806167	1668.815430	180.748734
2816.766277	17348.806167	1667.789063	158.317291
2816.766277	17348.806167	1666.761719	296.450226
2816.766277	17348.806167	1665.735352	171.515091
2816.766277	17348.806167	1664.708008	316.484131
2816.766277	17348.806167	1663.680664	335.730377
2816.766277	17348.806167	1662.653320	271.194275
2816.766277	17348.806167	1661.625000	374.064697
2816.766277	17348.806167	1660.597656	386.191071
2816.766277	17348.806167	1659.569336	393.613586
2816.766277	17348.806167	1658.541016	229.009766
2816.766277	17348.806167	1657.512695	526.843994
2816.766277	17348.806167	1656.483398	325.022705
2816.766277	17348.806167	1655.455078	374.115448
2816.766277	17348.806167	1654.425781	381.341858
2816.766277	17348.806167	1653.396484	546.420593
2816.766277	17348.806167	1652.366211	407.284912
2816.766277	17348.806167	1651.336914	356.381470
2816.766277	17348.806167	1650.306641	430.764191
2816.766277	17348.806167	1649.276367	298.603058
2816.766277	17348.806167	1648.246094	403.067047
2816.766277	17348.806167	1647.215820	440.208527
2816.766277	17348.806167	1646.185547	444.847443
2816.766277	17348.806167	1645.154297	518.997009
2816.766277	17348.806167	1644.123047	505.016693
2816.766277	17348.806167	1643.091797	683.362183
2816.766277	17348.806167	1642.060547	602.120544
2816.766277	17348.806167	1641.028320	493.080811
2816.766277	17348.806167	1639.997070	587.887390
2816.766277	17348.806167	1638.964844	467.277374
2816.766277	17348.806167	1637.931641	594.405212
2816.766277	17348.806167	1636.899414	610.374878
2816.766277	17348.806167	1635.867188	811.463074
2816.766277	17348.806167	1634.833984	868.992126
2816.766277	17348.806167	1633.800781	595.678162
2816.766277	17348.806167	1632.767578	805.854187
2816.766277	17348.806167	1631.734375	1027.500000
2816.766277	17348.806167	1630.700195	860.623169
2816.766277	17348.806167	1629.666016	1102.946777
2816.766277	17348.806167	1628.631836	1116.370361
2816.766277	17348.806167	1627.597656	1106.676270
2816.766277	17348.806167	1626.563477	1101.601929
2816.766277	17348.806167	1625.528320	1228.169678
2816.766277	17348.806167	1624.493164	1262.312622
2816.766277	17348.806167	1623.458008	1333.383423
2816.766277	17348.806167	1622.422852	1328.248169
2816.766277	17348.806167	1621.387695	1447.745239
2816.766277	17348.806167	1620.351563	1227.981689
2816.766277	17348.806167	1619.315430	1209.020630
2816.766277	17348.806167	1618.279297	1208.524048
2816.766277	17348.806167	1617.243164	1323.340942
2816.766277	17348.806167	1616.207031	1382.781860
2816.766277	17348.806167	1615.169922	1345.375122
2816.766277	17348.806167	1614.132813	1268.808472
2816.766277	17348.806167	1613.095703	1289.064575
2816.766277	17348.806167	1612.058594	1387.657104
2816.766277	17348.806167	1611.020508	1306.540283
2816.766277	17348.806167	1609.983398	1407.417480
2816.766277	17348.806167	1608.945313	1581.941162
2816.766277	17348.806167	1607.907227	1470.948242
2816.766277	17348.806167	1606.868164	1806.527832
2816.766277	17348.806167	1605.830078	1384.902710
2816.766277	17348.806167	1604.791016	1402.896118
2816.766277	17348.806167	1603.751953	1480.711548
2816.766277	17348.806167	1602.712891	1510.218994
2816.766277	17348.806167	1601.673828	1470.753540
2816.766277	17348.806167	1600.633789	1592.244263
2816.766277	17348.806167	1599.594727	1460.883301
2816.766277	17348.806167	1598.554688	1511.135864
2816.766277	17348.806167	1597.513672	1623.420288
2816.766277	17348.806167	1596.473633	1517.466431
2816.766277	17348.806167	1595.433594	1347.272827
2816.766277	17348.806167	1594.392578	1342.497070
2816.766277	17348.806167	1593.351563	1303.315674
2816.766277	17348.806167	1592.310547	1358.292114
2816.766277	17348.806167	1591.268555	1463.757202
2816.766277	17348.806167	1590.227539	1417.789063
2816.766277	17348.806167	1589.185547	1293.864380
2816.766277	17348.806167	1588.143555	1348.925049
2816.766277	17348.806167	1587.100586	1273.280396
2816.766277	17348.806167	1586.058594	1495.765137
2816.766277	17348.806167	1585.015625	1443.119873
2816.766277	17348.806167	1583.972656	1273.653687
2816.766277	17348.806167	1582.929688	1182.200562
2816.766277	17348.806167	1581.886719	1345.115845
2816.766277	17348.806167	1580.843750	1098.018921
2816.766277	17348.806167	1579.799805	1276.993530
2816.766277	17348.806167	1578.755859	1192.642578
2816.766277	17348.806167	1577.711914	1229.694336
2816.766277	17348.806167	1576.666992	1264.480103
2816.766277	17348.806167	1575.623047	1342.786865
2816.766277	17348.806167	1574.578125	1405.086548
2816.766277	17348.806167	1573.533203	1202.083008
2816.766277	17348.806167	1572.488281	1323.945190
2816.766277	17348.806167	1571.443359	1141.718018
2816.766277	17348.806167	1570.397461	1142.483032
2816.766277	17348.806167	1569.351563	1090.734863
2816.766277	17348.806167	1568.305664	1123.609253
2816.766277	17348.806167	1567.259766	1092.558228
2816.766277	17348.806167	1566.213867	1104.974487
2816.766277	17348.806167	1565.166992	1090.029297
2816.766277	17348.806167	1564.120117	1093.415527
2816.766277	17348.806167	1563.073242	873.141907
2816.766277	17348.806167	1562.026367	924.619385
2816.766277	17348.806167	1560.978516	836.930908
2816.766277	17348.806167	1559.930664	728.804932
2816.766277	17348.806167	1558.883789	981.201416
2816.766277	17348.806167	1557.834961	631.464050
2816.766277	17348.806167	1556.787109	767.612061
2816.766277	17348.806167	1555.739258	906.052673
2816.766277	17348.806167	1554.690430	695.770447
2816.766277	17348.806167	1553.641602	663.386047
2816.766277	17348.806167	1552.592773	628.804688
2816.766277	17348.806167	1551.542969	833.477844
2816.766277	17348.806167	1550.494141	810.403381
2816.766277	17348.806167	1549.444336	625.733643
2816.766277	17348.806167	1548.394531	687.077271
2816.766277	17348.806167	1547.344727	677.909607
2816.766277	17348.806167	1546.293945	468.552734
2816.766277	17348.806167	1545.244141	700.754639
2816.766277	17348.806167	1544.193359	739.575562
2816.766277	17348.806167	1543.142578	678.387512
2816.766277	17348.806167	1542.090820	887.883728
2816.766277	17348.806167	1541.040039	576.769653
2816.766277	17348.806167	1539.988281	640.889343
2816.766277	17348.806167	1538.936523	657.340027
2816.766277	17348.806167	1537.884766	676.136902
2816.766277	17348.806167	1536.833008	420.139221
2816.766277	17348.806167	1535.780273	654.893188
2816.766277	17348.806167	1534.727539	528.589417
2816.766277	17348.806167	1533.674805	352.472687
2816.766277	17348.806167	1532.622070	632.747742
2816.766277	17348.806167	1531.569336	381.958282
2816.766277	17348.806167	1530.515625	340.089386
2816.766277	17348.806167	1529.461914	411.747223
2816.766277	17348.806167	1528.408203	676.248779
2816.766277	17348.806167	1527.354492	360.226532
2816.766277	17348.806167	1526.299805	232.583923
2816.766277	17348.806167	1525.246094	358.959320
2816.766277	17348.806167	1524.191406	476.301605
2816.766277	17348.806167	1523.136719	416.954651
2816.766277	17348.806167	1522.081055	491.371002
2816.766277	17348.806167	1521.026367	439.022339
2816.766277	17348.806167	1519.970703	527.175598
2816.766277	17348.806167	1518.915039	388.984711
2816.766277	17348.806167	1517.859375	583.687561
2816.766277	17348.806167	1516.802734	626.770386
2816.766277	17348.806167	1515.747070	384.840485
2816.766277	17348.806167	1514.690430	403.251648
2816.766277	17348.806167	1513.633789	274.734528
2816.766277	17348.806167	1512.577148	277.522034
2816.766277	17348.806167	1511.519531	239.703247
2816.766277	17348.806167	1510.461914	229.121826
2816.766277	17348.806167	1509.405273	263.848572
2816.766277	17348.806167	1508.346680	224.083038
2816.766277	17348.806167	1507.289063	227.359924
2816.766277	17348.806167	1506.231445	242.029221
2816.766277	17348.806167	1505.172852	37.741108
2816.766277	17348.806167	1504.114258	27.800512
2816.766277	17348.806167	1503.055664	139.859192
2816.766277	17348.806167	1501.996094	118.814621
2816.766277	17348.806167	1500.937500	147.526382
2816.766277	17348.806167	1499.877930	158.276443
2816.766277	17348.806167	1498.818359	31.538151
2816.766277	17348.806167	1497.757813	155.261124
2816.766277	17348.806167	1496.698242	98.673218
2816.766277	17348.806167	1495.637695	272.131378
2816.766277	17348.806167	1494.577148	136.866379
2816.766277	17348.806167	1493.516602	91.889206
2816.766277	17348.806167	1492.456055	-7.032257
2816.766277	17348.806167	1491.394531	166.723999
2816.766277	17348.806167	1490.333008	-53.570724
2816.766277	17348.806167	1489.271484	7.763523
2816.766277	17348.806167	1488.209961	-115.404854
2816.766277	17348.806167	1487.148438	-206.909607
2816.766277	17348.806167	1486.085938	-21.509132
2816.766277	17348.806167	1485.023438	-74.541077
2816.766277	17348.806167	1483.960938	41.248669
2816.766277	17348.806167	1482.898438	-25.052786
2816.766277	17348.806167	1481.834961	-30.515009
2816.766277	17348.806167	1480.772461	-119.029480
2816.766277	17348.806167	1479.708984	-52.335037
2816.766277	17348.806167	1478.644531	-142.851151
2816.766277	17348.806167	1477.581055	-24.298077
2816.766277	17348.806167	1476.517578	152.731354
2816.766277	17348.806167	1475.453125	93.980606
2816.766277	17348.806167	1474.388672	122.943939
2816.766277	17348.806167	1473.323242	125.034950
2816.766277	17348.806167	1472.258789	71.261803
2816.766277	17348.806167	1471.193359	201.500504
2816.766277	17348.806167	1470.127930	259.889374
2816.766277	17348.806167	1469.062500	29.291735
2816.766277	17348.806167	1467.997070	294.163727
2816.766277	17348.806167	1466.930664	200.542511
2816.766277	17348.806167	1465.865234	136.425232
2816.766277	17348.806167	1464.798828	309.651917
2816.766277	17348.806167	1463.731445	115.710190
2816.766277	17348.806167	1462.665039	246.555496
2816.766277	17348.806167	1461.597656	267.653503
2816.766277	17348.806167	1460.530273	244.310440
2816.766277	17348.806167	1459.462891	332.691315
2816.766277	17348.806167	1458.395508	79.367416
2816.766277	17348.806167	1457.327148	199.614029
2816.766277	17348.806167	1456.259766	283.973206
2816.766277	17348.806167	1455.191406	439.526031
2816.766277	17348.806167	1454.123047	334.697235
2816.766277	17348.806167	1453.053711	327.372864
2816.766277	17348.806167	1451.985352	335.754272
2816.766277	17348.806167	1450.916016	321.635193
2816.766277	17348.806167	1449.846680	349.632324
2816.766277	17348.806167	1448.776367	294.618378
2816.766277	17348.806167	1447.707031	246.282135
2816.766277	17348.806167	1446.636719	141.745316
2816.766277	17348.806167	1445.566406	65.494209
2816.766277	17348.806167	1444.496094	182.431015
2816.766277	17348.806167	1443.425781	109.763550
2816.766277	17348.806167	1442.354492	174.890518
2816.766277	17348.806167	1441.283203	99.162041
2816.766277	17348.806167	1440.211914	150.573044
2816.766277	17348.806167	1439.140625	-41.289787
2816.766277	17348.806167	1438.069336	40.607502
2816.766277	17348.806167	1436.997070	215.523438
2816.766277	17348.806167	1435.924805	88.750984
2816.766277	17348.806167	1434.852539	97.088684
2816.766277	17348.806167	1433.780273	131.865387
2816.766277	17348.806167	1432.707031	84.656403
2816.766277	17348.806167	1431.633789	7.772776
2816.766277	17348.806167	1430.560547	254.325546
2816.766277	17348.806167	1429.487305	27.797813
2816.766277	17348.806167	1428.413086	120.582619
2816.766277	17348.806167	1427.339844	-16.856970
2816.766277	17348.806167	1426.265625	-157.244232
2816.766277	17348.806167	1425.191406	-66.785370
2816.766277	17348.806167	1424.116211	134.401306
2816.766277	17348.806167	1423.041992	70.708702
2816.766277	17348.806167	1421.966797	-89.862083
2816.766277	17348.806167	1420.891602	52.249916
2816.766277	17348.806167	1419.816406	-29.526005
2816.766277	17348.806167	1418.740234	76.103416
2816.766277	17348.806167	1417.665039	-14.533401
2816.766277	17348.806167	1416.588867	185.444473
2816.766277	17348.806167	1415.512695	69.702934
2816.766277	17348.806167	1414.435547	52.064884
2816.766277	17348.806167	1413.359375	246.397018
2816.766277	17348.806167	1412.282227	168.015564
2816.766277	17348.806167	1411.205078	207.136765
2816.766277	17348.806167	1410.127930	245.263123
2816.766277	17348.806167	1409.049805	304.803894
2816.766277	17348.806167	1407.972656	388.508575
2816.766277	17348.806167	1406.894531	220.554642
2816.766277	17348.806167	1405.816406	207.015274
2816.766277	17348.806167	1404.737305	319.447510
2816.766277	17348.806167	1403.659180	293.735901
2816.766277	17348.806167	1402.580078	280.600525
2816.766277	17348.806167	1401.500977	500.665955
2816.766277	17348.806167	1400.421875	337.105530
2816.766277	17348.806167	1399.341797	306.898529
2816.766277	17348.806167	1398.262695	387.429535
2816.766277	17348.806167	1397.182617	370.572876
2816.766277	17348.806167	1396.102539	351.982849
2816.766277	17348.806167	1395.021484	509.589355
2816.766277	17348.806167	1393.941406	610.658997
2816.766277	17348.806167	1392.860352	532.971069
2816.766277	17348.806167	1391.779297	426.123810
2816.766277	17348.806167	1390.698242	687.840332
2816.766277	17348.806167	1389.616211	690.318481
2816.766277	17348.806167	1388.535156	612.351318
2816.766277	17348.806167	1387.453125	541.161255
2816.766277	17348.806167	1386.371094	538.620605
2816.766277	17348.806167	1385.288086	465.277161
2816.766277	17348.806167	1384.206055	596.189819
2816.766277	17348.806167	1383.123047	474.252625
2816.766277	17348.806167	1382.040039	561.184204
2816.766277	17348.806167	1380.957031	534.030701
2816.766277	17348.806167	1379.873047	549.111816
2816.766277	17348.806167	1378.789063	541.520813
2816.766277	17348.806167	1377.705078	449.047028
2816.766277	17348.806167	1376.621094	467.990631
2816.766277	17348.806167	1375.537109	409.062866
2816.766277	17348.806167	1374.452148	474.286804
2816.766277	17348.806167	1373.367188	434.538513
2816.766277	17348.806167	1372.282227	357.603455
2816.766277	17348.806167	1371.197266	314.117676
2816.766277	17348.806167	1370.112305	531.039429
2816.766277	17348.806167	1369.026367	421.726166
2816.766277	17348.806167	1367.940430	468.357239
2816.766277	17348.806167	1366.854492	612.444641
2816.766277	17348.806167	1365.767578	489.138062
2816.766277	17348.806167	1364.681641	424.923187
2816.766277	17348.806167	1363.594727	491.361786
2816.766277	17348.806167	1362.507813	468.746124
2816.766277	17348.806167	1361.419922	482.573761
2816.766277	17348.806167	1360.333008	388.137543
2816.766277	17348.806167	1359.245117	363.474304
2816.766277	17348.806167	1358.157227	457.274475
2816.766277	17348.806167	1357.069336	445.399628
2816.766277	17348.806167	1355.981445	433.461304
2816.766277	17348.806167	1354.892578	509.909546
2816.766277	17348.806167	1353.803711	558.955017
2816.766277	17348.806167	1352.714844	481.618408
2816.766277	17348.806167	1351.625000	587.377319
2816.766277	17348.806167	1350.536133	468.871979
2816.766277	17348.806167	1349.446289	612.832764
2816.766277	17348.806167	1348.356445	408.136047
2816.766277	17348.806167	1347.266602	621.406982
2816.766277	17348.806167	1346.175781	692.832458
2816.766277	17348.806167	1345.085938	759.593018
2816.766277	17348.806167	1343.995117	700.467590
2816.766277	17348.806167	1342.903320	644.041382
2816.766277	17348.806167	1341.812500	765.279907
2816.766277	17348.806167	1340.720703	650.826538
2816.766277	17348.806167	1339.629883	881.490234
2816.766277	17348.806167	1338.538086	903.410767
2816.766277	17348.806167	1337.445313	1028.945801
2816.766277	17348.806167	1336.353516	785.256592
2816.766277	17348.806167	1335.260742	991.757507
2816.766277	17348.806167	1334.167969	956.714722
2816.766277	17348.806167	1333.075195	1051.532837
2816.766277	17348.806167	1331.981445	933.983093
2816.766277	17348.806167	1330.888672	1012.405029
2816.766277	17348.806167	1329.794922	1182.524048
2816.766277	17348.806167	1328.701172	1129.234131
2816.766277	17348.806167	1327.606445	919.146545
2816.766277	17348.806167	1326.512695	1216.117065
2816.766277	17348.806167	1325.417969	1116.867554
2816.766277	17348.806167	1324.323242	1273.038696
2816.766277	17348.806167	1323.227539	1309.142700
2816.766277	17348.806167	1322.132813	1379.996582
2816.766277	17348.806167	1321.037109	1393.424194
2816.766277	17348.806167	1319.941406	1250.524170
2816.766277	17348.806167	1318.845703	1236.794556
2816.766277	17348.806167	1317.750000	1352.726807
2816.766277	17348.806167	1316.653320	1098.575317
2816.766277	17348.806167	1315.556641	1114.787231
2816.766277	17348.806167	1314.459961	1105.755127
2816.766277	17348.806167	1313.363281	964.211548
2816.766277	17348.806167	1312.265625	892.226685
2816.766277	17348.806167	1311.167969	846.215088
2816.766277	17348.806167	1310.070313	792.017700
2816.766277	17348.806167	1308.972656	726.457886
2816.766277	17348.806167	1307.874023	736.484802
2816.766277	17348.806167	1306.776367	511.215240
2816.766277	17348.806167	1305.677734	524.471191
2816.766277	17348.806167	1304.579102	348.708038
2816.766277	17348.806167	1303.479492	501.186584
2816.766277	17348.806167	1302.380859	392.147400
2816.766277	17348.806167	1301.281250	316.073853
2816.766277	17348.806167	1300.181641	396.587250
2816.766277	17348.806167	1299.081055	452.239532
2816.766277	17348.806167	1297.981445	250.466309
2816.766277	17348.806167	1296.880859	304.193604
2816.766277	17348.806167	1295.780273	469.932220
2816.766277	17348.806167	1294.679688	313.908875
2816.766277	17348.806167	1293.578125	562.948059
2816.766277	17348.806167	1292.476563	410.969727
2816.766277	17348.806167	1291.375000	389.897827
2816.766277	17348.806167	1290.273438	376.305756
2816.766277	17348.806167	1289.171875	324.824463
2816.766277	17348.806167	1288.069336	369.631195
2816.766277	17348.806167	1286.966797	264.285339
2816.766277	17348.806167	1285.864258	304.765594
2816.766277	17348.806167	1284.761719	285.090668
2816.766277	17348.806167	1283.658203	340.319611
2816.766277	17348.806167	1282.554688	276.256958
2816.766277	17348.806167	1281.451172	198.133820
2816.766277	17348.806167	1280.347656	390.827759
2816.766277	17348.806167	1279.244141	296.186646
2816.766277	17348.806167	1278.139648	305.943878
2816.766277	17348.806167	1277.035156	324.473785
2816.766277	17348.806167	1275.930664	131.210587
2816.766277	17348.806167	1274.825195	259.146606
2816.766277	17348.806167	1273.720703	221.679535
2816.766277	17348.806167	1272.615234	305.815338
2816.766277	17348.806167	1271.508789	242.755402
2816.766277	17348.806167	1270.403320	226.399796
2816.766277	17348.806167	1269.297852	266.331207
2816.766277	17348.806167	1268.191406	220.143585
2816.766277	17348.806167	1267.084961	290.831238
2816.766277	17348.806167	1265.977539	198.057938
2816.766277	17348.806167	1264.871094	152.374146
2816.766277	17348.806167	1263.763672	165.948044
2816.766277	17348.806167	1262.656250	183.345230
2816.766277	17348.806167	1261.548828	220.483383
2816.766277	17348.806167	1260.440430	246.771454
2816.766277	17348.806167	1259.333008	214.464890
2816.766277	17348.806167	1258.224609	177.437057
2816.766277	17348.806167	1257.115234	193.996765
2816.766277	17348.806167	1256.006836	285.242737
2816.766277	17348.806167	1254.897461	245.586456
2816.766277	17348.806167	1253.788086	253.804413
2816.766277	17348.806167	1252.678711	185.309937
2816.766277	17348.806167	1251.569336	162.467026
2816.766277	17348.806167	1250.458984	82.257874
2816.766277	17348.806167	1249.349609	313.177765
2816.766277	17348.806167	1248.239258	186.407166
2816.766277	17348.806167	1247.127930	249.909210
2816.766277	17348.806167	1246.017578	286.205078
2816.766277	17348.806167	1244.906250	222.236969
2816.766277	17348.806167	1243.794922	225.269745
2816.766277	17348.806167	1242.683594	179.201630
2816.766277	17348.806167	1241.571289	220.607574
2816.766277	17348.806167	1240.459961	191.102615
2816.766277	17348.806167	1239.347656	219.354965
2816.766277	17348.806167	1238.234375	257.645111
2816.766277	17348.806167	1237.122070	141.525711
2816.766277	17348.806167	1236.008789	295.314301
2816.766277	17348.806167	1234.896484	207.165588
2816.766277	17348.806167	1233.782227	162.137741
2816.766277	17348.806167	1232.668945	265.818726
2816.766277	17348.806167	1231.555664	289.084259
2816.766277	17348.806167	1230.441406	185.072662
2816.766277	17348.806167	1229.327148	175.614944
2816.766277	17348.806167	1228.211914	52.475441
2816.766277	17348.806167	1227.097656	156.321777
2816.766277	17348.806167	1225.982422	238.196899
2816.766277	17348.806167	1224.867188	134.687744
2816.766277	17348.806167	1223.751953	50.421108
2816.766277	17348.806167	1222.635742	22.247196
2816.766277	17348.806167	1221.520508	82.111679
2816.766277	17348.806167	1220.404297	1.884504
2816.766277	17348.806167	1219.287109	-54.157665
2816.766277	17348.806167	1218.170898	-39.238441
2816.766277	17348.806167	1217.053711	9.379679
2816.766277	17348.806167	1215.936523	63.333145
2816.766277	17348.806167	1214.819336	70.032501
2816.766277	17348.806167	1213.702148	62.739368
2816.766277	17348.806167	1212.583984	39.440029
2816.766277	17348.806167	1211.465820	156.146515
2816.766277	17348.806167	1210.347656	194.484268
2816.766277	17348.806167	1209.229492	96.162651
2816.766277	17348.806167	1208.110352	69.424721
2816.766277	17348.806167	1206.992188	173.431656
2816.766277	17348.806167	1205.873047	72.048485
2816.766277	17348.806167	1204.752930	51.721367
2816.766277	17348.806167	1203.633789	20.180506
2816.766277	17348.806167	1202.513672	-30.601789
2816.766277	17348.806167	1201.393555	-66.576088
2816.766277	17348.806167	1200.273438	-76.562721
2816.766277	17348.806167	1199.152344	-60.520485
2816.766277	17348.806167	1198.032227	-99.019157
2816.766277	17348.806167	1196.911133	25.771717
2816.766277	17348.806167	1195.790039	-65.081169
2816.766277	17348.806167	1194.667969	40.287510
2816.766277	17348.806167	1193.545898	56.574894
2816.766277	17348.806167	1192.424805	52.038319
2816.766277	17348.806167	1191.301758	46.043587
2816.766277	17348.806167	1190.179688	48.327015
2816.766277	17348.806167	1189.056641	-18.186127
2816.766277	17348.806167	1187.933594	122.291336
2816.766277	17348.806167	1186.810547	114.328316
2816.766277	17348.806167	1185.687500	115.317932
2816.766277	17348.806167	1184.563477	126.848427
2816.766277	17348.806167	1183.440430	273.972046
2816.766277	17348.806167	1182.316406	-7.848256
2816.766277	17348.806167	1181.191406	-40.214020
2816.766277	17348.806167	1180.067383	17.833948
2816.766277	17348.806167	1178.942383	-58.786472
2816.766277	17348.806167	1177.817383	-3.431784
2816.766277	17348.806167	1176.692383	-48.452938
2816.766277	17348.806167	1175.566406	-36.487530
2816.766277	17348.806167	1174.440430	-114.433426
2816.766277	17348.806167	1173.314453	95.336952
2816.766277	17348.806167	1172.188477	-50.862286
2816.766277	17348.806167	1171.062500	-45.193588
2816.766277	17348.806167	1169.935547	-14.817157
2816.766277	17348.806167	1168.808594	-31.482695
2816.766277	17348.806167	1167.681641	-94.867767
2816.766277	17348.806167	1166.553711	-37.042336
2816.766277	17348.806167	1165.426758	8.504159
2816.766277	17348.806167	1164.298828	11.691140
2816.766277	17348.806167	1163.170898	7.815036
2816.766277	17348.806167	1162.041992	23.990311
2816.766277	17348.806167	1160.914063	-13.817529
2816.766277	17348.806167	1159.785156	18.833593
2816.766277	17348.806167	1158.656250	-47.252872
2816.766277	17348.806167	1157.526367	-68.335640
2816.766277	17348.806167	1156.397461	-36.936161
2816.766277	17348.806167	1155.267578	6.538715
2816.766277	17348.806167	1154.137695	-78.197708
2816.766277	17348.806167	1153.006836	-34.132793
2816.766277	17348.806167	1151.876953	-89.965363
2816.766277	17348.806167	1150.746094	-19.346727
2816.766277	17348.806167	1149.615234	-64.480370
2816.766277	17348.806167	1148.484375	-72.877708
2816.766277	17348.806167	1147.352539	-63.639103
2816.766277	17348.806167	1146.220703	-89.067978
2816.766277	17348.806167	1145.088867	-139.919891
2816.766277	17348.806167	1143.957031	-21.009443
2816.766277	17348.806167	1142.825195	-163.095612
2816.766277	17348.806167	1141.692383	-205.547943
2816.766277	17348.806167	1140.559570	13.949985
2816.766277	17348.806167	1139.426758	-71.430084
2816.766277	17348.806167	1138.292969	-105.975311
2816.766277	17348.806167	1137.159180	-139.223587
2816.766277	17348.806167	1136.025391	-108.431885
2816.766277	17348.806167	1134.891602	-41.268764
2816.766277	17348.806167	1133.757813	-63.739216
2816.766277	17348.806167	1132.623047	-81.557350
2816.766277	17348.806167	1131.488281	53.061455
2816.766277	17348.806167	1130.353516	67.239189
2816.766277	17348.806167	1129.217773	148.465225
2816.766277	17348.806167	1128.083008	160.557404
2816.766277	17348.806167	1126.947266	196.109299
2816.766277	17348.806167	1125.811523	194.344238
2816.766277	17348.806167	1124.674805	103.744644
2816.766277	17348.806167	1123.539063	89.328438
2816.766277	17348.806167	1122.402344	107.715202
2816.766277	17348.806167	1121.265625	-33.252827
2816.766277	17348.806167	1120.127930	-14.642735
2816.766277	17348.806167	1118.990234	24.157341
2816.766277	17348.806167	1117.853516	62.033867
2816.766277	17348.806167	1116.714844	94.006592
2816.766277	17348.806167	1115.577148	69.551369
2816.766277	17348.806167	1114.439453	108.289520
2816.766277	17348.806167	1113.300781	123.566345
2816.766277	17348.806167	1112.162109	167.226425
2816.766277	17348.806167	1111.022461	81.309799
2816.766277	17348.806167	1109.883789	115.252548
2816.766277	17348.806167	1108.744141	-19.735935
2816.766277	17348.806167	1107.604492	66.800980
2816.766277	17348.806167	1106.463867	217.386551
2816.766277	17348.806167	1105.324219	55.151104
2816.766277	17348.806167	1104.183594	237.735336
2816.766277	17348.806167	1103.042969	83.384659
2816.766277	17348.806167	1101.902344	21.774916
2816.766277	17348.806167	1100.760742	93.443336
2816.766277	17348.806167	1099.619141	149.940170
2816.766277	17348.806167	1098.477539	25.267935
2816.766277	17348.806167	1097.335938	88.544907
2816.766277	17348.806167	1096.193359	228.468796
2816.766277	17348.806167	1095.051758	318.902252
2816.766277	17348.806167	1093.909180	189.447098
2816.766277	17348.806167	1092.765625	183.872391
2816.766277	17348.806167	1091.623047	218.141632
2816.766277	17348.806167	1090.479492	272.277802
2816.766277	17348.806167	1089.335938	223.125031
2816.766277	17348.806167	1088.192383	91.895905
2816.766277	17348.806167	1087.047852	63.640835
2816.766277	17348.806167	1085.903320	202.606476
2816.766277	17348.806167	1084.758789	120.774429
2816.766277	17348.806167	1083.614258	184.624344
2816.766277	17348.806167	1082.469727	80.096825
2816.766277	17348.806167	1081.324219	229.850998
2816.766277	17348.806167	1080.178711	111.148407
2816.766277	17348.806167	1079.033203	197.547836
2816.766277	17348.806167	1077.886719	159.053009
2816.766277	17348.806167	1076.740234	127.313805
2816.766277	17348.806167	1075.593750	125.725937
2816.766277	17348.806167	1074.447266	199.827194
2816.766277	17348.806167	1073.300781	24.425417
2816.766277	17348.806167	1072.153320	99.695526
2816.766277	17348.806167	1071.005859	192.162643
2816.766277	17348.806167	1069.858398	224.636063
2816.766277	17348.806167	1068.709961	247.164154
2816.766277	17348.806167	1067.561523	247.328796
2816.766277	17348.806167	1066.413086	244.318237
2816.766277	17348.806167	1065.264648	225.440796
2816.766277	17348.806167	1064.116211	225.463806
2816.766277	17348.806167	1062.966797	180.402267
2816.766277	17348.806167	1061.817383	194.847549
2816.766277	17348.806167	1060.667969	251.744247
2816.766277	17348.806167	1059.517578	275.959778
2816.766277	17348.806167	1058.368164	158.436844
2816.766277	17348.806167	1057.217773	206.854752
2816.766277	17348.806167	1056.067383	165.940887
2816.766277	17348.806167	1054.916016	221.217285
2816.766277	17348.806167	1053.764648	162.120880
2816.766277	17348.806167	1052.613281	223.931244
2816.766277	17348.806167	1051.461914	212.478256
2816.766277	17348.806167	1050.310547	172.123520
2816.766277	17348.806167	1049.158203	144.588150
2816.766277	17348.806167	1048.005859	225.082199
2816.766277	17348.806167	1046.853516	440.327209
2816.766277	17348.806167	1045.700195	312.810211
2816.766277	17348.806167	1044.547852	327.278137
2816.766277	17348.806167	1043.394531	252.063248
2816.766277	17348.806167	1042.240234	271.417694
2816.766277	17348.806167	1041.086914	361.522675
2816.766277	17348.806167	1039.932617	233.403091
2816.766277	17348.806167	1038.778320	169.710800
2816.766277	17348.806167	1037.624023	321.836731
2816.766277	17348.806167	1036.469727	352.476501
2816.766277	17348.806167	1035.314453	295.081787
2816.766277	17348.806167	1034.159180	400.320648
2816.766277	17348.806167	1033.003906	400.563568
2816.766277	17348.806167	1031.847656	274.505219
2816.766277	17348.806167	1030.692383	352.804016
2816.766277	17348.806167	1029.536133	399.085388
2816.766277	17348.806167	1028.378906	373.308075
2816.766277	17348.806167	1027.222656	259.237122
2816.766277	17348.806167	1026.065430	415.540680
2816.766277	17348.806167	1024.908203	332.146942
2816.766277	17348.806167	1023.750977	363.290100
2816.766277	17348.806167	1022.593750	162.106750
2816.766277	17348.806167	1021.435547	141.261536
2816.766277	17348.806167	1020.277344	69.974258
2816.766277	17348.806167	1019.119141	251.411758
2816.766277	17348.806167	1017.959961	162.315247
2816.766277	17348.806167	1016.800781	170.828461
2816.766277	17348.806167	1015.641602	184.258392
2816.766277	17348.806167	1014.482422	-0.006917
2816.766277	17348.806167	1013.323242	-5.041312
2816.766277	17348.806167	1012.163086	110.931442
2816.766277	17348.806167	1011.002930	161.865265
2816.766277	17348.806167	1009.842773	69.822533
2816.766277	17348.806167	1008.681641	37.989559
2816.766277	17348.806167	1007.520508	81.137253
2816.766277	17348.806167	1006.359375	54.916363
2816.766277	17348.806167	1005.198242	160.215454
2816.766277	17348.806167	1004.037109	234.993866
2816.766277	17348.806167	1002.875000	183.141876
2816.766277	17348.806167	1001.712891	203.048721
2816.766277	17348.806167	1000.550781	93.410042
2816.766277	17348.806167	999.387695	246.504257
2816.766277	17348.806167	998.224609	124.702087
2816.766277	17348.806167	997.061523	148.705093
2816.766277	17348.806167	995.898438	-44.378475
2816.766277	17348.806167	994.734375	64.902542
2816.766277	17348.806167	993.571289	115.114235
2816.766277	17348.806167	992.407227	102.674591
2816.766277	17348.806167	991.242188	-37.140705
2816.766277	17348.806167	990.078125	33.296604
2816.766277	17348.806167	988.913086	47.872135
2816.766277	17348.806167	987.748047	36.259583
2816.766277	17348.806167	986.583008	-84.933258
2816.766277	17348.806167	985.416992	-83.670982
2816.766277	17348.806167	984.250977	120.575165
2816.766277	17348.806167	983.084961	-0.942018
2816.766277	17348.806167	981.918945	44.340824
2816.766277	17348.806167	980.751953	-106.664032
2816.766277	17348.806167	979.584961	-16.521500
2816.766277	17348.806167	978.417969	85.594948
2816.766277	17348.806167	977.250977	-5.959359
2816.766277	17348.806167	976.083008	-67.328369
2816.766277	17348.806167	974.915039	-25.955833
2816.766277	17348.806167	973.747070	-14.802823
2816.766277	17348.806167	972.579102	-41.636078
2816.766277	17348.806167	971.410156	118.341278
2816.766277	17348.806167	970.242188	-19.901951
2816.766277	17348.806167	969.072266	10.278496
2816.766277	17348.806167	967.903320	109.555458
2816.766277	17348.806167	966.733398	63.265881
2816.766277	17348.806167	965.563477	82.629738
2816.766277	17348.806167	964.393555	63.277744
2816.766277	17348.806167	963.223633	138.428497
2816.766277	17348.806167	962.052734	187.678986
2816.766277	17348.806167	960.881836	199.891357
2816.766277	17348.806167	959.710938	123.707054
2816.766277	17348.806167	958.540039	-7.247152
2816.766277	17348.806167	957.368164	-42.026161
2816.766277	17348.806167	956.196289	234.844498
2816.766277	17348.806167	955.024414	85.419342
2816.766277	17348.806167	953.851563	186.681503
2816.766277	17348.806167	952.679688	-15.296749
2816.766277	17348.806167	951.506836	127.264961
2816.766277	17348.806167	950.333984	123.919289
2816.766277	17348.806167	949.160156	137.764038
2816.766277	17348.806167	947.986328	226.509598
2816.766277	17348.806167	946.812500	32.713398
2816.766277	17348.806167	945.638672	221.643326
2816.766277	17348.806167	944.464844	124.276222
2816.766277	17348.806167	943.290039	93.836769
2816.766277	17348.806167	942.115234	57.128674
2816.766277	17348.806167	940.940430	156.279663
2816.766277	17348.806167	939.764648	146.679398
2816.766277	17348.806167	938.588867	90.967056
2816.766277	17348.806167	937.413086	139.786484
2816.766277	17348.806167	936.237305	77.941666
2816.766277	17348.806167	935.060547	235.647873
2816.766277	17348.806167	933.883789	156.956924
2816.766277	17348.806167	932.707031	258.191833
2816.766277	17348.806167	931.530273	7.878744
2816.766277	17348.806167	930.352539	42.146938
2816.766277	17348.806167	929.175781	74.226357
2816.766277	17348.806167	927.998047	177.433914
2816.766277	17348.806167	926.819336	169.793274
2816.766277	17348.806167	925.641602	153.746796
2816.766277	17348.806167	924.462891	179.524429
2816.766277	17348.806167	923.284180	180.200500
2816.766277	17348.806167	922.104492	143.262131
2816.766277	17348.806167	920.924805	137.663544
2816.766277	17348.806167	919.746094	139.506439
2816.766277	17348.806167	919.551758	195.017822
2816.766277	17348.806167	918.386719	166.398849
2816.766277	17348.806167	917.220703	175.362778
2816.766277	17348.806167	916.054688	196.838440
2816.766277	17348.806167	914.887695	-78.042587
2816.766277	17348.806167	913.721680	3.966395
2816.766277	17348.806167	912.554688	73.418831
2816.766277	17348.806167	911.387695	-30.273022
2816.766277	17348.806167	910.220703	-12.988390
2816.766277	17348.806167	909.052734	12.621513
2816.766277	17348.806167	907.885742	-38.909447
2816.766277	17348.806167	906.717773	-42.495205
2816.766277	17348.806167	905.548828	-156.511124
2816.766277	17348.806167	904.380859	6.560583
2816.766277	17348.806167	903.211914	-92.855209
2816.766277	17348.806167	902.042969	28.479452
2816.766277	17348.806167	900.874023	-33.441643
2816.766277	17348.806167	899.704102	73.249252
2816.766277	17348.806167	898.535156	-34.450569
2816.766277	17348.806167	897.365234	-0.634856
2816.766277	17348.806167	896.194336	60.203320
2816.766277	17348.806167	895.024414	48.219486
2816.766277	17348.806167	893.853516	11.284193
2816.766277	17348.806167	892.682617	34.644684
2816.766277	17348.806167	891.511719	-31.383034
2816.766277	17348.806167	890.340820	79.240189
2816.766277	17348.806167	889.168945	-7.555977
2816.766277	17348.806167	887.997070	84.312614
2816.766277	17348.806167	886.825195	26.613134
2816.766277	17348.806167	885.653320	89.357368
2816.766277	17348.806167	884.480469	66.960281
2816.766277	17348.806167	883.307617	-106.941231
2816.766277	17348.806167	882.134766	55.377007
2816.766277	17348.806167	880.961914	-8.508296
2816.766277	17348.806167	879.788086	-53.704185
2816.766277	17348.806167	878.614258	0.653288
2816.766277	17348.806167	877.440430	-34.170223
2816.766277	17348.806167	876.266602	-56.547741
2816.766277	17348.806167	875.091797	97.241295
2816.766277	17348.806167	873.916992	49.971954
2816.766277	17348.806167	872.742188	4.787805
2816.766277	17348.806167	871.567383	-102.519157
2816.766277	17348.806167	870.391602	44.920521
2816.766277	17348.806167	869.215820	82.565002
2816.766277	17348.806167	868.040039	74.649635
2816.766277	17348.806167	866.864258	66.732513
2816.766277	17348.806167	865.687500	-100.505928
2816.766277	17348.806167	864.510742	119.159576
2816.766277	17348.806167	863.333984	30.561026
2816.766277	17348.806167	862.157227	-89.024269
2816.766277	17348.806167	860.979492	-8.027241
2816.766277	17348.806167	859.802734	-24.218487
2816.766277	17348.806167	858.625000	56.720821
2816.766277	17348.806167	857.446289	-25.601961
2816.766277	17348.806167	856.268555	26.372652
2816.766277	17348.806167	855.089844	10.166575
2816.766277	17348.806167	853.911133	-74.178520
2816.766277	17348.806167	852.731445	70.657341
2816.766277	17348.806167	851.552734	58.562279
2816.766277	17348.806167	850.373047	29.958544
2816.766277	17348.806167	849.193359	-176.071671
2816.766277	17348.806167	848.013672	-25.171043
2816.766277	17348.806167	846.833008	30.796270
2816.766277	17348.806167	845.652344	-34.917606
2816.766277	17348.806167	844.471680	25.137896
2816.766277	17348.806167	843.291016	41.879650
2816.766277	17348.806167	842.110352	-73.271561
2816.766277	17348.806167	840.928711	-13.265409
2816.766277	17348.806167	839.747070	-4.785307
2816.766277	17348.806167	838.564453	-4.552425
2816.766277	17348.806167	837.382813	-101.097504
2816.766277	17348.806167	836.200195	-100.860809
2816.766277	17348.806167	835.017578	90.769173
2816.766277	17348.806167	833.834961	-22.220413
2816.766277	17348.806167	832.651367	54.094715
2816.766277	17348.806167	831.467773	-122.617287
2816.766277	17348.806167	830.284180	-99.796043
2816.766277	17348.806167	829.100586	-159.231277
2816.766277	17348.806167	827.916992	67.067558
2816.766277	17348.806167	826.732422	-130.087128
2816.766277	17348.806167	825.547852	-27.185873
2816.766277	17348.806167	824.363281	-78.406097
2816.766277	17348.806167	823.177734	1.831651
2816.766277	17348.806167	821.992188	-51.446053
2816.766277	17348.806167	820.806641	-24.644678
2816.766277	17348.806167	819.621094	37.028530
2816.766277	17348.806167	818.434570	-65.504738
2816.766277	17348.806167	817.249023	-94.145630
2816.766277	17348.806167	816.062500	-106.374794
2816.766277	17348.806167	814.875000	88.529198
2816.766277	17348.806167	813.688477	-48.832329
2816.766277	17348.806167	812.500977	98.805046
2816.766277	17348.806167	811.313477	39.360016
2816.766277	17348.806167	810.125977	-54.908852
2816.766277	17348.806167	808.937500	-67.200096
2816.766277	17348.806167	807.749023	-5.759047
2816.766277	17348.806167	806.560547	69.978500
2816.766277	17348.806167	805.372070	45.344807
2816.766277	17348.806167	804.182617	-34.561832
2816.766277	17348.806167	802.994141	-181.989059
2816.766277	17348.806167	801.803711	10.303760
2816.766277	17348.806167	800.614258	14.288844
2816.766277	17348.806167	799.424805	-118.781738
2816.766277	17348.806167	798.234375	-61.632034
2816.766277	17348.806167	797.043945	-47.455551
2816.766277	17348.806167	795.852539	23.934757
2816.766277	17348.806167	794.662109	-33.472763
2816.766277	17348.806167	793.470703	-31.617233
2816.766277	17348.806167	792.279297	80.533951
2816.766277	17348.806167	791.087891	25.144577
2816.766277	17348.806167	789.895508	-71.077888
2816.766277	17348.806167	788.703125	67.501740
2816.766277	17348.806167	787.510742	63.126339
2816.766277	17348.806167	786.318359	-137.172653
2816.766277	17348.806167	785.125000	21.683756
2816.766277	17348.806167	783.931641	37.665760
2816.766277	17348.806167	782.738281	-32.034554
2816.766277	17348.806167	781.544922	0.226062
2816.766277	17348.806167	780.350586	-32.780594
2816.766277	17348.806167	779.156250	34.076855
2816.766277	17348.806167	777.961914	-23.416254
2816.766277	17348.806167	776.767578	-68.681610
2816.766277	17348.806167	775.572266	-83.395248
2816.766277	17348.806167	774.376953	-75.722603
2816.766277	17348.806167	773.181641	-15.136640
2816.766277	17348.806167	771.986328	-76.736305
2816.766277	17348.806167	770.790039	105.894096
2816.766277	17348.806167	769.593750	25.938313
2816.766277	17348.806167	768.397461	-184.206512
2816.766277	17348.806167	767.201172	40.976406
2816.766277	17348.806167	766.003906	3.719086
2816.766277	17348.806167	764.806641	45.743919
2816.766277	17348.806167	763.609375	12.518857
2816.766277	17348.806167	762.412109	-57.297722
2816.766277	17348.806167	761.213867	-127.109619
2816.766277	17348.806167	760.015625	77.322235
2816.766277	17348.806167	758.817383	60.266575
2816.766277	17348.806167	757.618164	104.109093
2816.766277	17348.806167	756.419922	-32.774605
2816.766277	17348.806167	755.220703	51.610794
2816.766277	17348.806167	754.021484	85.202705
2816.766277	17348.806167	752.821289	179.619156
2816.766277	17348.806167	751.621094	196.888428
2816.766277	17348.806167	750.420898	68.104958
2816.766277	17348.806167	749.220703	46.809429
2816.766277	17348.806167	748.020508	128.880951
2816.766277	17348.806167	746.819336	-32.320858
2816.766277	17348.806167	745.618164	73.991188
2816.766277	17348.806167	744.416992	30.312401
2816.766277	17348.806167	743.214844	162.839249
2816.766277	17348.806167	742.012695	177.827255
2816.766277	17348.806167	740.810547	249.468506
2816.766277	17348.806167	739.608398	223.886749
2816.766277	17348.806167	738.406250	449.235504
2816.766277	17348.806167	737.203125	459.981140
2816.766277	17348.806167	736.000000	436.300690
2816.766277	17348.806167	734.795898	618.895874
2816.766277	17348.806167	733.592773	655.791138
2816.766277	17348.806167	732.388672	698.703613
2816.766277	17348.806167	731.184570	790.075073
2816.766277	17348.806167	729.979492	752.041687
2816.766277	17348.806167	728.775391	794.807434
2816.766277	17348.806167	727.570313	679.962158
2816.766277	17348.806167	726.365234	575.228577
2816.766277	17348.806167	725.160156	422.045441
2816.766277	17348.806167	723.954102	262.834930
2816.766277	17348.806167	722.748047	357.962341
2816.766277	17348.806167	721.541992	392.478760
2816.766277	17348.806167	720.334961	243.356064
2816.766277	17348.806167	719.128906	205.198059
2816.766277	17348.806167	717.921875	27.873095
2816.766277	17348.806167	716.714844	17.929792
2816.766277	17348.806167	715.506836	90.600716
2816.766277	17348.806167	714.298828	42.283669
2816.766277	17348.806167	713.090820	122.905205
2816.766277	17348.806167	711.882813	104.745895
2816.766277	17348.806167	710.674805	-48.386860
2816.766277	17348.806167	709.465820	-24.291861
2816.766277	17348.806167	708.256836	40.020184
2816.766277	17348.806167	707.047852	72.062271
2816.766277	17348.806167	705.837891	17.519415
2816.766277	17348.806167	704.627930	67.583153
2816.766277	17348.806167	703.417969	-69.486420
2816.766277	17348.806167	702.208008	-53.691406
2816.766277	17348.806167	700.998047	-1.749253
2816.766277	17348.806167	699.787109	112.449242
2816.766277	17348.806167	698.576172	79.841423
2816.766277	17348.806167	697.364258	-7.047555
2816.766277	17348.806167	696.153320	-15.587765
2816.766277	17348.806167	694.941406	94.342522
2816.766277	17348.806167	693.729492	153.982071
2816.766277	17348.806167	692.516602	68.997528
2816.766277	17348.806167	691.304688	44.230061
2816.766277	17348.806167	690.091797	-4.651472
2816.766277	17348.806167	688.878906	82.887741
2816.766277	17348.806167	687.665039	88.100212
2816.766277	17348.806167	686.451172	3.015952
2816.766277	17348.806167	685.237305	18.188124
2816.766277	17348.806167	684.023438	55.365704
2816.766277	17348.806167	682.809570	210.744949
2816.766277	17348.806167	681.594727	61.416134
2816.766277	17348.806167	680.379883	-29.788280
2816.766277	17348.806167	679.165039	85.324562
2816.766277	17348.806167	677.949219	14.096823
2816.766277	17348.806167	676.733398	145.086670
2816.766277	17348.806167	675.517578	97.816086
2816.766277	17348.806167	674.301758	206.635681
2816.766277	17348.806167	673.084961	241.329422
2816.766277	17348.806167	671.869141	213.951508
2816.766277	17348.806167	670.651367	282.548065
2816.766277	17348.806167	669.434570	267.087708
2816.766277	17348.806167	668.216797	369.550385
2816.766277	17348.806167	667.000000	399.971008
2816.766277	17348.806167	665.781250	264.461304
2816.766277	17348.806167	664.563477	352.751068
2816.766277	17348.806167	663.344727	432.970337
2816.766277	17348.806167	662.125977	255.476166
2816.766277	17348.806167	660.907227	277.693939
2816.766277	17348.806167	659.688477	243.964645
2816.766277	17348.806167	658.468750	260.105164
2816.766277	17348.806167	657.249023	421.871613
2816.766277	17348.806167	656.029297	276.284637
2816.766277	17348.806167	654.808594	443.881317
2816.766277	17348.806167	653.587891	344.137604
2816.766277	17348.806167	652.367188	262.340820
2816.766277	17348.806167	651.146484	340.011627
2816.766277	17348.806167	649.924805	405.650940
2816.766277	17348.806167	648.704102	269.975952
2816.766277	17348.806167	647.482422	168.183914
2816.766277	17348.806167	646.259766	353.202271
2816.766277	17348.806167	645.037109	293.173706
2816.766277	17348.806167	643.815430	382.451569
2816.766277	17348.806167	642.591797	368.144562
2816.766277	17348.806167	641.369141	413.509277
2816.766277	17348.806167	640.145508	373.261780
2816.766277	17348.806167	638.921875	319.069916
2816.766277	17348.806167	637.698242	308.617615
2816.766277	17348.806167	636.474609	290.179626
2816.766277	17348.806167	635.250000	313.457764
2816.766277	17348.806167	634.025391	273.089783
2816.766277	17348.806167	632.800781	431.412903
2816.766277	17348.806167	631.575195	172.429749
2816.766277	17348.806167	630.349609	169.748337
2816.766277	17348.806167	629.124023	266.325623
2816.766277	17348.806167	627.898438	192.082932
2816.766277	17348.806167	626.671875	294.499329
2816.766277	17348.806167	625.445313	289.672272
2816.766277	17348.806167	624.218750	106.241867
2816.766277	17348.806167	622.992188	224.383392
2816.766277	17348.806167	621.764648	245.258469
2816.766277	17348.806167	620.537109	262.127289
2816.766277	17348.806167	619.309570	233.361954
2816.766277	17348.806167	618.081055	145.114273
2816.766277	17348.806167	616.852539	356.099152
2816.766277	17348.806167	615.624023	226.198502
2816.766277	17348.806167	614.395508	114.151588
2816.766277	17348.806167	613.166992	178.376007
2816.766277	17348.806167	611.937500	131.666092
2816.766277	17348.806167	610.708008	-61.535557
2816.766277	17348.806167	609.477539	2.598118
2816.766277	17348.806167	608.248047	-97.548599
2816.766277	17348.806167	607.017578	21.905354
2816.766277	17348.806167	605.787109	131.395370
2816.766277	17348.806167	604.555664	137.985275
2816.766277	17348.806167	603.325195	55.587402
2816.766277	17348.806167	602.093750	8.777027
2816.766277	17348.806167	600.861328	15.317468
2816.766277	17348.806167	599.629883	-80.901787
2816.766277	17348.806167	598.397461	30.304350
2816.766277	17348.806167	597.165039	20.974501
2816.766277	17348.806167	595.932617	-35.758797
2816.766277	17348.806167	594.699219	-51.034367
2816.766277	17348.806167	593.465820	-54.479546
2816.766277	17348.806167	592.232422	48.612957
2816.766277	17348.806167	590.999023	-51.552998
2816.766277	17348.806167	589.764648	47.514618
2816.766277	17348.806167	588.530273	28.207600
2816.766277	17348.806167	587.295898	20.723503
2816.766277	17348.806167	586.061523	-32.106327
2816.766277	17348.806167	584.826172	1.780930
2816.766277	17348.806167	583.590820	35.641407
2816.766277	17348.806167	582.355469	-84.172523
2816.766277	17348.806167	581.119141	73.741798
2816.766277	17348.806167	579.882813	52.398376
2816.766277	17348.806167	578.646484	27.118349
2816.766277	17348.806167	577.410156	-47.363564
2816.766277	17348.806167	576.172852	13.951509
2816.766277	17348.806167	574.935547	81.135719
2816.766277	17348.806167	573.698242	-42.504414
2816.766277	17348.806167	572.460938	24.653553
2816.766277	17348.806167	571.222656	93.741806
2816.766277	17348.806167	569.984375	60.583515
2816.766277	17348.806167	568.746094	74.603378
2816.766277	17348.806167	567.506836	25.738783
2816.766277	17348.806167	566.267578	-21.141193
2816.766277	17348.806167	565.028320	106.793930
2816.766277	17348.806167	563.789063	97.227180
2816.766277	17348.806167	562.548828	32.695580
2816.766277	17348.806167	561.309570	68.297218
2816.766277	17348.806167	560.068359	7.728788
2816.766277	17348.806167	558.828125	-9.644038
2816.766277	17348.806167	557.586914	-46.621128
2816.766277	17348.806167	556.345703	65.463470
2816.766277	17348.806167	555.104492	99.083824
2816.766277	17348.806167	553.863281	34.688587
2816.766277	17348.806167	552.621094	44.799240
2816.766277	17348.806167	551.378906	-62.645840
2816.766277	17348.806167	550.136719	63.081318
2816.766277	17348.806167	548.893555	202.474380
2816.766277	17348.806167	547.650391	-24.345184
2816.766277	17348.806167	546.407227	34.769032
2816.766277	17348.806167	545.164063	-56.835865
2816.766277	17348.806167	543.919922	-74.028465
2816.766277	17348.806167	542.675781	-38.372421
2816.766277	17348.806167	541.431641	67.702492
2816.766277	17348.806167	540.186523	91.613380
2816.766277	17348.806167	538.941406	-68.252312
2816.766277	17348.806167	537.696289	6.541854
2816.766277	17348.806167	536.451172	-49.614571
2816.766277	17348.806167	535.205078	83.802490
2816.766277	17348.806167	533.959961	-3.556700
2816.766277	17348.806167	532.712891	-38.126472
2816.766277	17348.806167	531.466797	-31.647057
2816.766277	17348.806167	530.219727	-107.141891
2816.766277	17348.806167	528.972656	18.460836
2816.766277	17348.806167	527.725586	-218.923981
2816.766277	17348.806167	526.478516	19.862644
2816.766277	17348.806167	525.230469	-88.627731
2816.766277	17348.806167	523.982422	-50.779984
2816.766277	17348.806167	522.734375	-63.609943
2816.766277	17348.806167	521.485352	-23.774530
2816.766277	17348.806167	520.236328	-5.360878
2816.766277	17348.806167	518.987305	-10.303806
2816.766277	17348.806167	517.737305	76.345757
2816.766277	17348.806167	516.488281	-0.606036
2816.766277	17348.806167	515.238281	64.655716
2816.766277	17348.806167	513.988281	-37.499790
2816.766277	17348.806167	512.737305	88.149994
2816.766277	17348.806167	511.486328	-0.272898
2816.766277	17348.806167	510.235352	-65.272758
2816.766277	17348.806167	508.984375	40.965927
2816.766277	17348.806167	507.732422	-82.280525
2816.766277	17348.806167	506.480469	-88.776550
2816.766277	17348.806167	505.228516	-5.810692
2816.766277	17348.806167	503.976563	59.669765
2816.766277	17348.806167	502.723633	107.673592
2816.766277	17348.806167	501.470703	-157.063385
2816.766277	17348.806167	500.217773	126.057854
2816.766277	17348.806167	498.963867	-33.629673
2816.766277	17348.806167	497.709961	-57.309769
2816.766277	17348.806167	496.456055	-84.817574
2816.766277	17348.806167	495.202148	17.746101
2816.766277	17348.806167	493.947266	-83.404373
2816.766277	17348.806167	492.692383	-71.964790
2816.766277	17348.806167	491.437500	-50.788979
2816.766277	17348.806167	490.181641	-16.007305
2816.766277	17348.806167	488.926758	-8.331802
2816.766277	17348.806167	487.670898	-25.811455
2816.766277	17348.806167	486.414063	71.078758
2816.766277	17348.806167	485.158203	-45.116692
2816.766277	17348.806167	483.901367	-62.443771
2816.766277	17348.806167	482.644531	-39.054440
2816.766277	17348.806167	481.386719	-44.671879
2816.766277	17348.806167	480.128906	50.405312
2816.766277	17348.806167	478.871094	91.303329
2816.766277	17348.806167	477.613281	-12.874132
2816.766277	17348.806167	476.355469	60.990250
2816.766277	17348.806167	475.096680	-15.976186
2816.766277	17348.806167	473.837891	-21.328833
2816.766277	17348.806167	472.578125	108.672890
2816.766277	17348.806167	471.319336	-58.958645
2816.766277	17348.806167	470.059570	59.485703
2816.766277	17348.806167	468.799805	48.491188
2816.766277	17348.806167	467.539063	-70.615768
2816.766277	17348.806167	466.278320	34.356430
2816.766277	17348.806167	465.017578	-63.382149
2816.766277	17348.806167	463.756836	-238.245544
2816.766277	17348.806167	462.495117	-56.006592
2816.766277	17348.806167	461.233398	-93.747032
2816.766277	17348.806167	459.971680	-92.860107
2816.766277	17348.806167	458.709961	-55.300163
2816.766277	17348.806167	457.447266	36.259384
2816.766277	17348.806167	456.184570	-47.602467
2816.766277	17348.806167	454.921875	-8.058554
2816.766277	17348.806167	453.658203	37.274673
2816.766277	17348.806167	452.394531	-79.198898
2816.766277	17348.806167	451.130859	75.958969
2816.766277	17348.806167	449.867188	34.669361
2816.766277	17348.806167	448.602539	29.994274
2816.766277	17348.806167	447.337891	-63.195061
2816.766277	17348.806167	446.073242	41.872265
2816.766277	17348.806167	444.807617	-32.010532
2816.766277	17348.806167	443.542969	-13.522784
2816.766277	17348.806167	442.276367	79.962906
2816.766277	17348.806167	441.010742	65.750916
2816.766277	17348.806167	439.744141	164.958771
2816.766277	17348.806167	438.478516	98.854424
2816.766277	17348.806167	437.210938	76.968246
2816.766277	17348.806167	435.944336	126.164215
2816.766277	17348.806167	434.676758	175.332397
2816.766277	17348.806167	433.409180	172.627472
2816.766277	17348.806167	432.141602	135.356827
2816.766277	17348.806167	430.873047	138.390671
2816.766277	17348.806167	429.604492	108.784225
2816.766277	17348.806167	428.335938	-39.775578
2816.766277	17348.806167	427.067383	118.587997
2816.766277	17348.806167	425.797852	203.982864
2816.766277	17348.806167	424.528320	172.357864
2816.766277	17348.806167	423.258789	29.535185
2816.766277	17348.806167	421.988281	-36.613598
2816.766277	17348.806167	420.717773	113.722839
2816.766277	17348.806167	419.447266	240.957077
2816.766277	17348.806167	418.175781	0.375725
2816.766277	17348.806167	416.905273	171.502579
2816.766277	17348.806167	415.633789	147.231445
2816.766277	17348.806167	414.362305	178.402939
2816.766277	17348.806167	413.089844	71.714958
2816.766277	17348.806167	411.817383	79.775963
2816.766277	17348.806167	410.544922	127.913017
2816.766277	17348.806167	409.272461	65.028740
2816.766277	17348.806167	407.999023	88.103844
2816.766277	17348.806167	406.725586	124.445107
2816.766277	17348.806167	405.452148	55.557201
2816.766277	17348.806167	404.177734	53.451324
2816.766277	17348.806167	402.903320	183.023346
2816.766277	17348.806167	401.628906	56.506409
2816.766277	17348.806167	400.354492	109.383980
2816.766277	17348.806167	399.079102	83.828262
2816.766277	17348.806167	397.803711	16.146391
2816.766277	17348.806167	396.528320	49.463863
2816.766277	17348.806167	395.251953	149.366501
2816.766277	17348.806167	393.976563	100.290680
2816.766277	17348.806167	392.700195	165.461411
2816.766277	17348.806167	391.422852	41.675835
2816.766277	17348.806167	390.145508	89.286064
2816.766277	17348.806167	388.869141	69.976624
2816.766277	17348.806167	387.590820	23.780762
2816.766277	17348.806167	386.313477	-32.140491
2816.766277	17348.806167	385.035156	153.576401
2816.766277	17348.806167	383.756836	83.842331
2816.766277	17348.806167	382.478516	53.859150
2816.766277	17348.806167	381.199219	-48.697216
2816.766277	17348.806167	379.919922	116.796394
2816.766277	17348.806167	378.640625	-20.527718
2816.766277	17348.806167	377.360352	83.443504
2816.766277	17348.806167	376.080078	2.623145
2816.766277	17348.806167	374.799805	52.691620
2816.766277	17348.806167	373.519531	127.117668
2816.766277	17348.806167	372.238281	92.853188
2816.766277	17348.806167	370.957031	120.944016
2816.766277	17348.806167	369.675781	78.380577
2816.766277	17348.806167	368.394531	-78.479752
2816.766277	17348.806167	367.112305	100.374268
2816.766277	17348.806167	365.830078	-112.269341
2816.766277	17348.806167	364.546875	46.708378
2816.766277	17348.806167	363.264648	23.052639
2816.766277	17348.806167	361.981445	80.520355
2816.766277	17348.806167	360.698242	-105.245377
2816.766277	17348.806167	359.414063	-27.859568
2816.766277	17348.806167	358.129883	-41.988132
2816.766277	17348.806167	356.845703	-13.023821
2816.766277	17348.806167	355.561523	138.572922
2816.766277	17348.806167	354.276367	16.760992
2816.766277	17348.806167	352.991211	108.473343
2816.766277	17348.806167	351.706055	23.473700
2816.766277	17348.806167	350.420898	-185.130295
2816.766277	17348.806167	349.134766	-4.347625
2816.766277	17348.806167	347.848633	83.010406
2816.766277	17348.806167	346.561523	-34.649849
2816.766277	17348.806167	345.275391	115.695595
2816.766277	17348.806167	343.988281	-18.379725
2816.766277	17348.806167	342.700195	-7.521747
2816.766277	17348.806167	341.413086	-57.855881
2816.766277	17348.806167	340.125000	-76.787872
2816.766277	17348.806167	338.836914	-11.438632
2816.766277	17348.806167	337.548828	-39.454964
2816.766277	17348.806167	336.259766	-109.821045
2816.766277	17348.806167	334.970703	-105.442406
2816.766277	17348.806167	333.681641	143.513000
2816.766277	17348.806167	332.391602	70.621376
2816.766277	17348.806167	331.101563	-99.356613
2816.766277	17348.806167	329.811523	-126.785461
2816.766277	17348.806167	328.521484	16.510981
2816.766277	17348.806167	327.230469	36.196362
2816.766277	17348.806167	325.939453	-101.587296
2816.766277	17348.806167	324.648438	87.667412
2816.766277	17348.806167	323.356445	-57.771976
2816.766277	17348.806167	322.064453	1.168092
2816.766277	17348.806167	320.772461	-12.576108
2816.766277	17348.806167	319.480469	61.096310
2816.766277	17348.806167	318.187500	-156.385666
2816.766277	17348.806167	316.894531	-177.272308
2816.766277	17348.806167	315.601563	-107.115967
2816.766277	17348.806167	314.307617	69.017555
2816.766277	17348.806167	313.013672	146.005585
2816.766277	17348.806167	311.719727	48.650787
2816.766277	17348.806167	310.425781	38.414562
2816.766277	17348.806167	309.130859	58.775116
2816.766277	17348.806167	307.835938	147.305862
2816.766277	17348.806167	306.541016	191.180573
2816.766277	17348.806167	305.245117	173.449905
2816.766277	17348.806167	303.949219	225.642395
2816.766277	17348.806167	302.653320	298.852600
2816.766277	17348.806167	301.356445	289.728302
2816.766277	17348.806167	300.060547	192.739243
2816.766277	17348.806167	298.763672	302.468506
