#X		#Y		#Wave		#Intensity
2840.626330	17353.947667	2000.043945	-143.651276
2840.626330	17353.947667	1999.080078	140.930435
2840.626330	17353.947667	1998.116211	5.225149
2840.626330	17353.947667	1997.151367	-113.452980
2840.626330	17353.947667	1996.186523	255.647171
2840.626330	17353.947667	1995.222656	-24.790367
2840.626330	17353.947667	1994.256836	-109.788849
2840.626330	17353.947667	1993.291992	17.864536
2840.626330	17353.947667	1992.327148	80.776878
2840.626330	17353.947667	1991.361328	296.833038
2840.626330	17353.947667	1990.395508	44.745754
2840.626330	17353.947667	1989.429688	-96.189079
2840.626330	17353.947667	1988.463867	-46.853580
2840.626330	17353.947667	1987.497070	-101.691162
2840.626330	17353.947667	1986.531250	263.652679
2840.626330	17353.947667	1985.564453	-95.870178
2840.626330	17353.947667	1984.597656	-15.452778
2840.626330	17353.947667	1983.630859	138.851730
2840.626330	17353.947667	1982.664063	147.072006
2840.626330	17353.947667	1981.696289	-153.773224
2840.626330	17353.947667	1980.728516	427.201263
2840.626330	17353.947667	1979.761719	111.185982
2840.626330	17353.947667	1978.792969	-34.503269
2840.626330	17353.947667	1977.825195	306.064606
2840.626330	17353.947667	1976.857422	409.352234
2840.626330	17353.947667	1975.888672	-18.194307
2840.626330	17353.947667	1974.919922	213.107086
2840.626330	17353.947667	1973.951172	170.318420
2840.626330	17353.947667	1972.982422	68.198830
2840.626330	17353.947667	1972.013672	-11.824818
2840.626330	17353.947667	1971.043945	201.479019
2840.626330	17353.947667	1970.075195	126.134087
2840.626330	17353.947667	1969.105469	58.094250
2840.626330	17353.947667	1968.135742	-24.817978
2840.626330	17353.947667	1967.165039	367.735229
2840.626330	17353.947667	1966.195313	346.174286
2840.626330	17353.947667	1965.224609	253.100021
2840.626330	17353.947667	1964.253906	105.795609
2840.626330	17353.947667	1963.283203	74.178604
2840.626330	17353.947667	1962.312500	251.734711
2840.626330	17353.947667	1961.341797	45.205372
2840.626330	17353.947667	1960.370117	121.668869
2840.626330	17353.947667	1959.399414	38.119946
2840.626330	17353.947667	1958.427734	-15.938564
2840.626330	17353.947667	1957.455078	-8.547257
2840.626330	17353.947667	1956.483398	-99.566940
2840.626330	17353.947667	1955.511719	283.880585
2840.626330	17353.947667	1954.539063	-89.918571
2840.626330	17353.947667	1953.566406	258.898010
2840.626330	17353.947667	1952.593750	-73.062386
2840.626330	17353.947667	1951.621094	182.201965
2840.626330	17353.947667	1950.647461	154.884674
2840.626330	17353.947667	1949.674805	66.159660
2840.626330	17353.947667	1948.701172	63.381084
2840.626330	17353.947667	1947.727539	72.858063
2840.626330	17353.947667	1946.753906	239.394379
2840.626330	17353.947667	1945.780273	-224.792236
2840.626330	17353.947667	1944.805664	199.324982
2840.626330	17353.947667	1943.831055	252.876999
2840.626330	17353.947667	1942.856445	122.467903
2840.626330	17353.947667	1941.881836	-10.347152
2840.626330	17353.947667	1940.907227	-3.372506
2840.626330	17353.947667	1939.932617	35.468246
2840.626330	17353.947667	1938.957031	-28.630844
2840.626330	17353.947667	1937.981445	193.976181
2840.626330	17353.947667	1937.005859	53.941563
2840.626330	17353.947667	1936.030273	31.538574
2840.626330	17353.947667	1935.054688	-47.170582
2840.626330	17353.947667	1934.078125	-15.658330
2840.626330	17353.947667	1933.101563	206.796906
2840.626330	17353.947667	1932.125000	-52.969501
2840.626330	17353.947667	1931.148438	17.727308
2840.626330	17353.947667	1930.171875	17.464697
2840.626330	17353.947667	1929.194336	90.607750
2840.626330	17353.947667	1928.217773	-44.140797
2840.626330	17353.947667	1927.240234	82.822983
2840.626330	17353.947667	1926.262695	234.208191
2840.626330	17353.947667	1925.284180	-98.411339
2840.626330	17353.947667	1924.306641	-78.968170
2840.626330	17353.947667	1923.328125	204.377808
2840.626330	17353.947667	1922.350586	60.127392
2840.626330	17353.947667	1921.372070	-66.943825
2840.626330	17353.947667	1920.392578	-52.304157
2840.626330	17353.947667	1919.414063	-47.410229
2840.626330	17353.947667	1918.434570	140.591629
2840.626330	17353.947667	1917.456055	-164.462509
2840.626330	17353.947667	1916.476563	60.146240
2840.626330	17353.947667	1915.497070	60.241112
2840.626330	17353.947667	1914.516602	4.262589
2840.626330	17353.947667	1913.537109	406.827515
2840.626330	17353.947667	1912.556641	214.307098
2840.626330	17353.947667	1911.576172	175.473389
2840.626330	17353.947667	1910.595703	212.242111
2840.626330	17353.947667	1909.615234	-214.010147
2840.626330	17353.947667	1908.633789	-359.872406
2840.626330	17353.947667	1907.653320	15.667975
2840.626330	17353.947667	1906.671875	45.232162
2840.626330	17353.947667	1905.690430	291.539001
2840.626330	17353.947667	1904.708984	-22.210970
2840.626330	17353.947667	1903.727539	39.057720
2840.626330	17353.947667	1902.745117	-79.777313
2840.626330	17353.947667	1901.762695	-179.079544
2840.626330	17353.947667	1900.780273	-144.515823
2840.626330	17353.947667	1899.797852	206.274292
2840.626330	17353.947667	1898.815430	51.094578
2840.626330	17353.947667	1897.832031	-23.769297
2840.626330	17353.947667	1896.849609	-135.055664
2840.626330	17353.947667	1895.866211	28.379980
2840.626330	17353.947667	1894.882813	16.792885
2840.626330	17353.947667	1893.898438	-38.509895
2840.626330	17353.947667	1892.915039	137.000610
2840.626330	17353.947667	1891.930664	-112.587761
2840.626330	17353.947667	1890.947266	-109.525459
2840.626330	17353.947667	1889.962891	204.318298
2840.626330	17353.947667	1888.977539	134.516464
2840.626330	17353.947667	1887.993164	33.191486
2840.626330	17353.947667	1887.007813	-63.236843
2840.626330	17353.947667	1886.023438	2.922215
2840.626330	17353.947667	1885.038086	-10.987763
2840.626330	17353.947667	1884.051758	149.721237
2840.626330	17353.947667	1883.066406	242.476196
2840.626330	17353.947667	1882.081055	121.855347
2840.626330	17353.947667	1881.094727	280.016968
2840.626330	17353.947667	1880.108398	186.082932
2840.626330	17353.947667	1879.122070	319.928619
2840.626330	17353.947667	1878.135742	41.898178
2840.626330	17353.947667	1877.148438	-141.580719
2840.626330	17353.947667	1876.162109	-182.131943
2840.626330	17353.947667	1875.174805	-106.468864
2840.626330	17353.947667	1874.187500	145.858429
2840.626330	17353.947667	1873.199219	202.039215
2840.626330	17353.947667	1872.211914	-7.995641
2840.626330	17353.947667	1871.223633	23.960211
2840.626330	17353.947667	1870.236328	-52.968948
2840.626330	17353.947667	1869.248047	36.975845
2840.626330	17353.947667	1868.258789	-172.959152
2840.626330	17353.947667	1867.270508	-58.905434
2840.626330	17353.947667	1866.282227	-169.705124
2840.626330	17353.947667	1865.292969	-121.001274
2840.626330	17353.947667	1864.303711	24.294792
2840.626330	17353.947667	1863.314453	138.099274
2840.626330	17353.947667	1862.324219	201.104935
2840.626330	17353.947667	1861.334961	326.831024
2840.626330	17353.947667	1860.344727	73.426514
2840.626330	17353.947667	1859.354492	-27.853764
2840.626330	17353.947667	1858.364258	30.142698
2840.626330	17353.947667	1857.374023	256.978546
2840.626330	17353.947667	1856.383789	360.644196
2840.626330	17353.947667	1855.392578	249.550781
2840.626330	17353.947667	1854.401367	-18.306393
2840.626330	17353.947667	1853.410156	-42.591236
2840.626330	17353.947667	1852.418945	-9.065327
2840.626330	17353.947667	1851.426758	36.442078
2840.626330	17353.947667	1850.435547	284.293030
2840.626330	17353.947667	1849.443359	240.465546
2840.626330	17353.947667	1848.451172	-85.247932
2840.626330	17353.947667	1847.458984	217.693787
2840.626330	17353.947667	1846.466797	335.040863
2840.626330	17353.947667	1845.473633	197.082855
2840.626330	17353.947667	1844.480469	47.069496
2840.626330	17353.947667	1843.487305	41.436546
2840.626330	17353.947667	1842.494141	57.389275
2840.626330	17353.947667	1841.500977	-27.779140
2840.626330	17353.947667	1840.506836	0.052534
2840.626330	17353.947667	1839.513672	3.749838
2840.626330	17353.947667	1838.519531	55.449493
2840.626330	17353.947667	1837.525391	13.296350
2840.626330	17353.947667	1836.530273	216.223862
2840.626330	17353.947667	1835.536133	354.109955
2840.626330	17353.947667	1834.541016	359.715759
2840.626330	17353.947667	1833.545898	67.373993
2840.626330	17353.947667	1832.550781	128.088852
2840.626330	17353.947667	1831.555664	-41.822937
2840.626330	17353.947667	1830.560547	-0.503622
2840.626330	17353.947667	1829.564453	283.130096
2840.626330	17353.947667	1828.568359	309.778656
2840.626330	17353.947667	1827.572266	374.708038
2840.626330	17353.947667	1826.576172	350.750671
2840.626330	17353.947667	1825.580078	144.418671
2840.626330	17353.947667	1824.583008	2.804687
2840.626330	17353.947667	1823.585938	187.205399
2840.626330	17353.947667	1822.588867	38.230644
2840.626330	17353.947667	1821.591797	409.275421
2840.626330	17353.947667	1820.594727	-53.806286
2840.626330	17353.947667	1819.596680	132.419556
2840.626330	17353.947667	1818.599609	457.391052
2840.626330	17353.947667	1817.601563	87.618210
2840.626330	17353.947667	1816.603516	141.673950
2840.626330	17353.947667	1815.604492	267.407928
2840.626330	17353.947667	1814.606445	163.202591
2840.626330	17353.947667	1813.607422	159.420624
2840.626330	17353.947667	1812.608398	-2.393825
2840.626330	17353.947667	1811.609375	106.041176
2840.626330	17353.947667	1810.610352	82.767319
2840.626330	17353.947667	1809.610352	140.672745
2840.626330	17353.947667	1808.611328	162.571091
2840.626330	17353.947667	1807.611328	213.013229
2840.626330	17353.947667	1806.611328	146.202362
2840.626330	17353.947667	1805.610352	105.563309
2840.626330	17353.947667	1804.610352	38.533848
2840.626330	17353.947667	1803.609375	312.947144
2840.626330	17353.947667	1802.608398	264.735474
2840.626330	17353.947667	1801.607422	139.999374
2840.626330	17353.947667	1800.606445	251.503403
2840.626330	17353.947667	1799.605469	214.850052
2840.626330	17353.947667	1798.603516	459.643097
2840.626330	17353.947667	1797.601563	-9.151186
2840.626330	17353.947667	1796.599609	211.456482
2840.626330	17353.947667	1795.597656	0.170255
2840.626330	17353.947667	1794.595703	136.950180
2840.626330	17353.947667	1793.592773	-79.303650
2840.626330	17353.947667	1792.589844	102.430496
2840.626330	17353.947667	1791.587891	338.764832
2840.626330	17353.947667	1790.583984	191.246231
2840.626330	17353.947667	1789.581055	-94.527275
2840.626330	17353.947667	1788.577148	169.834320
2840.626330	17353.947667	1787.574219	191.060928
2840.626330	17353.947667	1786.570313	-187.858353
2840.626330	17353.947667	1785.566406	6.884562
2840.626330	17353.947667	1784.561523	49.081261
2840.626330	17353.947667	1783.557617	283.851593
2840.626330	17353.947667	1782.552734	83.009750
2840.626330	17353.947667	1781.547852	117.569603
2840.626330	17353.947667	1780.542969	206.657562
2840.626330	17353.947667	1779.538086	-103.894867
2840.626330	17353.947667	1778.532227	3.898528
2840.626330	17353.947667	1777.527344	14.054029
2840.626330	17353.947667	1776.521484	344.843231
2840.626330	17353.947667	1775.515625	-108.689690
2840.626330	17353.947667	1774.508789	-15.869580
2840.626330	17353.947667	1773.502930	-227.231583
2840.626330	17353.947667	1772.496094	21.975283
2840.626330	17353.947667	1771.489258	38.266594
2840.626330	17353.947667	1770.482422	263.272949
2840.626330	17353.947667	1769.475586	22.888645
2840.626330	17353.947667	1768.467773	-125.036133
2840.626330	17353.947667	1767.460938	78.037712
2840.626330	17353.947667	1766.453125	-86.767456
2840.626330	17353.947667	1765.445313	68.461517
2840.626330	17353.947667	1764.437500	109.665924
2840.626330	17353.947667	1763.428711	-22.361305
2840.626330	17353.947667	1762.420898	46.959648
2840.626330	17353.947667	1761.412109	66.320068
2840.626330	17353.947667	1760.403320	-165.614044
2840.626330	17353.947667	1759.393555	-28.124496
2840.626330	17353.947667	1758.384766	194.418701
2840.626330	17353.947667	1757.375000	158.615875
2840.626330	17353.947667	1756.366211	-315.277344
2840.626330	17353.947667	1755.356445	32.135723
2840.626330	17353.947667	1754.345703	-321.215546
2840.626330	17353.947667	1753.335938	-130.412399
2840.626330	17353.947667	1752.325195	19.931211
2840.626330	17353.947667	1751.315430	144.049164
2840.626330	17353.947667	1750.304688	-65.464081
2840.626330	17353.947667	1749.292969	25.176498
2840.626330	17353.947667	1748.282227	4.539730
2840.626330	17353.947667	1747.270508	52.270046
2840.626330	17353.947667	1746.259766	47.851013
2840.626330	17353.947667	1745.248047	210.985092
2840.626330	17353.947667	1744.235352	-124.476158
2840.626330	17353.947667	1743.223633	-4.196640
2840.626330	17353.947667	1742.211914	-120.225456
2840.626330	17353.947667	1741.199219	-19.209925
2840.626330	17353.947667	1740.186523	46.203102
2840.626330	17353.947667	1739.173828	-23.065887
2840.626330	17353.947667	1738.160156	-111.354042
2840.626330	17353.947667	1737.147461	-145.503006
2840.626330	17353.947667	1736.133789	-101.986580
2840.626330	17353.947667	1735.120117	85.185974
2840.626330	17353.947667	1734.106445	-8.400668
2840.626330	17353.947667	1733.091797	-47.912373
2840.626330	17353.947667	1732.078125	-66.339615
2840.626330	17353.947667	1731.063477	21.090544
2840.626330	17353.947667	1730.048828	-58.911564
2840.626330	17353.947667	1729.034180	87.055267
2840.626330	17353.947667	1728.019531	-70.941727
2840.626330	17353.947667	1727.003906	-76.018333
2840.626330	17353.947667	1725.988281	-323.684235
2840.626330	17353.947667	1724.972656	-154.864349
2840.626330	17353.947667	1723.957031	-0.376064
2840.626330	17353.947667	1722.941406	-253.070007
2840.626330	17353.947667	1721.924805	108.042946
2840.626330	17353.947667	1720.909180	109.098686
2840.626330	17353.947667	1719.892578	-256.779114
2840.626330	17353.947667	1718.875977	44.922462
2840.626330	17353.947667	1717.858398	-177.747375
2840.626330	17353.947667	1716.841797	-118.487518
2840.626330	17353.947667	1715.824219	140.281784
2840.626330	17353.947667	1714.806641	67.622871
2840.626330	17353.947667	1713.789063	-139.008026
2840.626330	17353.947667	1712.770508	34.652634
2840.626330	17353.947667	1711.752930	203.430801
2840.626330	17353.947667	1710.734375	146.674576
2840.626330	17353.947667	1709.715820	106.230247
2840.626330	17353.947667	1708.697266	-136.102081
2840.626330	17353.947667	1707.678711	301.776489
2840.626330	17353.947667	1706.659180	115.503952
2840.626330	17353.947667	1705.640625	-40.330486
2840.626330	17353.947667	1704.621094	138.991058
2840.626330	17353.947667	1703.600586	114.178596
2840.626330	17353.947667	1702.581055	424.378754
2840.626330	17353.947667	1701.561523	104.067230
2840.626330	17353.947667	1700.541016	233.506409
2840.626330	17353.947667	1699.520508	170.719757
2840.626330	17353.947667	1698.500000	285.800507
2840.626330	17353.947667	1697.478516	288.321320
2840.626330	17353.947667	1696.458008	375.006470
2840.626330	17353.947667	1695.436523	447.482147
2840.626330	17353.947667	1694.415039	341.983368
2840.626330	17353.947667	1693.393555	278.521454
2840.626330	17353.947667	1692.372070	458.221008
2840.626330	17353.947667	1691.349609	523.134644
2840.626330	17353.947667	1690.327148	522.447144
2840.626330	17353.947667	1689.304688	596.453064
2840.626330	17353.947667	1688.282227	195.882492
2840.626330	17353.947667	1687.259766	85.112137
2840.626330	17353.947667	1686.236328	448.520386
2840.626330	17353.947667	1685.213867	501.042847
2840.626330	17353.947667	1684.190430	401.627960
2840.626330	17353.947667	1683.166016	479.583801
2840.626330	17353.947667	1682.142578	471.057495
2840.626330	17353.947667	1681.119141	560.468323
2840.626330	17353.947667	1680.094727	458.377960
2840.626330	17353.947667	1679.070313	734.198792
2840.626330	17353.947667	1678.045898	352.010712
2840.626330	17353.947667	1677.020508	578.568542
2840.626330	17353.947667	1675.996094	760.668823
2840.626330	17353.947667	1674.970703	480.993042
2840.626330	17353.947667	1673.945313	604.581116
2840.626330	17353.947667	1672.919922	313.225861
2840.626330	17353.947667	1671.893555	567.091980
2840.626330	17353.947667	1670.868164	401.490417
2840.626330	17353.947667	1669.841797	727.289612
2840.626330	17353.947667	1668.815430	894.541504
2840.626330	17353.947667	1667.789063	814.871094
2840.626330	17353.947667	1666.761719	565.214233
2840.626330	17353.947667	1665.735352	774.079834
2840.626330	17353.947667	1664.708008	726.824097
2840.626330	17353.947667	1663.680664	712.091125
2840.626330	17353.947667	1662.653320	806.619202
2840.626330	17353.947667	1661.625000	1005.674072
2840.626330	17353.947667	1660.597656	823.310181
2840.626330	17353.947667	1659.569336	1001.244568
2840.626330	17353.947667	1658.541016	635.211487
2840.626330	17353.947667	1657.512695	822.300842
2840.626330	17353.947667	1656.483398	1132.373901
2840.626330	17353.947667	1655.455078	1077.624268
2840.626330	17353.947667	1654.425781	1011.213806
2840.626330	17353.947667	1653.396484	865.840088
2840.626330	17353.947667	1652.366211	1017.598633
2840.626330	17353.947667	1651.336914	1166.958618
2840.626330	17353.947667	1650.306641	1241.941284
2840.626330	17353.947667	1649.276367	1555.826050
2840.626330	17353.947667	1648.246094	1387.070313
2840.626330	17353.947667	1647.215820	1350.539307
2840.626330	17353.947667	1646.185547	1659.481201
2840.626330	17353.947667	1645.154297	1381.727661
2840.626330	17353.947667	1644.123047	1671.921997
2840.626330	17353.947667	1643.091797	1783.540649
2840.626330	17353.947667	1642.060547	1605.474487
2840.626330	17353.947667	1641.028320	1476.080688
2840.626330	17353.947667	1639.997070	1400.008667
2840.626330	17353.947667	1638.964844	1597.167847
2840.626330	17353.947667	1637.931641	1766.431519
2840.626330	17353.947667	1636.899414	1921.749756
2840.626330	17353.947667	1635.867188	1859.456421
2840.626330	17353.947667	1634.833984	1970.693726
2840.626330	17353.947667	1633.800781	2306.274902
2840.626330	17353.947667	1632.767578	2167.576904
2840.626330	17353.947667	1631.734375	2163.052979
2840.626330	17353.947667	1630.700195	2230.179932
2840.626330	17353.947667	1629.666016	2417.483154
2840.626330	17353.947667	1628.631836	2050.054932
2840.626330	17353.947667	1627.597656	2172.631836
2840.626330	17353.947667	1626.563477	2701.766602
2840.626330	17353.947667	1625.528320	2505.419922
2840.626330	17353.947667	1624.493164	2357.659180
2840.626330	17353.947667	1623.458008	2540.134521
2840.626330	17353.947667	1622.422852	2715.633545
2840.626330	17353.947667	1621.387695	2969.552734
2840.626330	17353.947667	1620.351563	2932.624268
2840.626330	17353.947667	1619.315430	2556.597168
2840.626330	17353.947667	1618.279297	2785.074707
2840.626330	17353.947667	1617.243164	2858.977295
2840.626330	17353.947667	1616.207031	2697.697266
2840.626330	17353.947667	1615.169922	2939.912842
2840.626330	17353.947667	1614.132813	2594.338867
2840.626330	17353.947667	1613.095703	2972.507080
2840.626330	17353.947667	1612.058594	3055.665527
2840.626330	17353.947667	1611.020508	2779.468750
2840.626330	17353.947667	1609.983398	2825.865967
2840.626330	17353.947667	1608.945313	2876.875000
2840.626330	17353.947667	1607.907227	2953.232666
2840.626330	17353.947667	1606.868164	2976.651855
2840.626330	17353.947667	1605.830078	3036.952881
2840.626330	17353.947667	1604.791016	3400.964355
2840.626330	17353.947667	1603.751953	3026.482910
2840.626330	17353.947667	1602.712891	3125.981445
2840.626330	17353.947667	1601.673828	3211.704346
2840.626330	17353.947667	1600.633789	3460.662354
2840.626330	17353.947667	1599.594727	3231.511719
2840.626330	17353.947667	1598.554688	3298.950195
2840.626330	17353.947667	1597.513672	3111.372070
2840.626330	17353.947667	1596.473633	3360.422119
2840.626330	17353.947667	1595.433594	3336.134766
2840.626330	17353.947667	1594.392578	3442.800293
2840.626330	17353.947667	1593.351563	3287.774902
2840.626330	17353.947667	1592.310547	3417.516113
2840.626330	17353.947667	1591.268555	3315.478027
2840.626330	17353.947667	1590.227539	3670.187744
2840.626330	17353.947667	1589.185547	3215.024658
2840.626330	17353.947667	1588.143555	3175.267090
2840.626330	17353.947667	1587.100586	2979.658691
2840.626330	17353.947667	1586.058594	3389.512695
2840.626330	17353.947667	1585.015625	3164.322998
2840.626330	17353.947667	1583.972656	3097.452637
2840.626330	17353.947667	1582.929688	2961.964600
2840.626330	17353.947667	1581.886719	2970.954346
2840.626330	17353.947667	1580.843750	2874.679688
2840.626330	17353.947667	1579.799805	2906.767822
2840.626330	17353.947667	1578.755859	2851.945313
2840.626330	17353.947667	1577.711914	3046.764648
2840.626330	17353.947667	1576.666992	2868.544922
2840.626330	17353.947667	1575.623047	2882.733643
2840.626330	17353.947667	1574.578125	2897.012451
2840.626330	17353.947667	1573.533203	2833.630127
2840.626330	17353.947667	1572.488281	2820.699951
2840.626330	17353.947667	1571.443359	2999.954102
2840.626330	17353.947667	1570.397461	3042.079590
2840.626330	17353.947667	1569.351563	2462.649414
2840.626330	17353.947667	1568.305664	2635.360107
2840.626330	17353.947667	1567.259766	2360.343018
2840.626330	17353.947667	1566.213867	2540.113037
2840.626330	17353.947667	1565.166992	2455.010254
2840.626330	17353.947667	1564.120117	2306.141846
2840.626330	17353.947667	1563.073242	2246.493896
2840.626330	17353.947667	1562.026367	2139.076172
2840.626330	17353.947667	1560.978516	2173.300781
2840.626330	17353.947667	1559.930664	1901.931152
2840.626330	17353.947667	1558.883789	2052.817139
2840.626330	17353.947667	1557.834961	1895.873901
2840.626330	17353.947667	1556.787109	1857.720947
2840.626330	17353.947667	1555.739258	2211.835449
2840.626330	17353.947667	1554.690430	1832.023682
2840.626330	17353.947667	1553.641602	1691.785645
2840.626330	17353.947667	1552.592773	1927.681519
2840.626330	17353.947667	1551.542969	2077.060791
2840.626330	17353.947667	1550.494141	2094.457764
2840.626330	17353.947667	1549.444336	1681.634644
2840.626330	17353.947667	1548.394531	1863.315063
2840.626330	17353.947667	1547.344727	2008.664795
2840.626330	17353.947667	1546.293945	1997.080811
2840.626330	17353.947667	1545.244141	1947.000122
2840.626330	17353.947667	1544.193359	1867.518311
2840.626330	17353.947667	1543.142578	1538.055664
2840.626330	17353.947667	1542.090820	2057.033203
2840.626330	17353.947667	1541.040039	1405.171753
2840.626330	17353.947667	1539.988281	1651.552490
2840.626330	17353.947667	1538.936523	1543.491455
2840.626330	17353.947667	1537.884766	1315.226440
2840.626330	17353.947667	1536.833008	1357.549805
2840.626330	17353.947667	1535.780273	1397.750366
2840.626330	17353.947667	1534.727539	1115.665405
2840.626330	17353.947667	1533.674805	947.385864
2840.626330	17353.947667	1532.622070	1262.830933
2840.626330	17353.947667	1531.569336	784.043030
2840.626330	17353.947667	1530.515625	802.515076
2840.626330	17353.947667	1529.461914	526.260742
2840.626330	17353.947667	1528.408203	946.591797
2840.626330	17353.947667	1527.354492	736.550476
2840.626330	17353.947667	1526.299805	744.417480
2840.626330	17353.947667	1525.246094	614.213074
2840.626330	17353.947667	1524.191406	481.972382
2840.626330	17353.947667	1523.136719	345.446228
2840.626330	17353.947667	1522.081055	292.974579
2840.626330	17353.947667	1521.026367	222.609375
2840.626330	17353.947667	1519.970703	220.391037
2840.626330	17353.947667	1518.915039	134.604706
2840.626330	17353.947667	1517.859375	157.700623
2840.626330	17353.947667	1516.802734	357.500092
2840.626330	17353.947667	1515.747070	593.635132
2840.626330	17353.947667	1514.690430	284.671356
2840.626330	17353.947667	1513.633789	116.262001
2840.626330	17353.947667	1512.577148	144.861145
2840.626330	17353.947667	1511.519531	126.165962
2840.626330	17353.947667	1510.461914	250.090805
2840.626330	17353.947667	1509.405273	98.465210
2840.626330	17353.947667	1508.346680	143.671127
2840.626330	17353.947667	1507.289063	252.330231
2840.626330	17353.947667	1506.231445	78.825531
2840.626330	17353.947667	1505.172852	122.380714
2840.626330	17353.947667	1504.114258	272.242798
2840.626330	17353.947667	1503.055664	429.031647
2840.626330	17353.947667	1501.996094	224.869919
2840.626330	17353.947667	1500.937500	316.596680
2840.626330	17353.947667	1499.877930	200.950806
2840.626330	17353.947667	1498.818359	333.670410
2840.626330	17353.947667	1497.757813	232.023376
2840.626330	17353.947667	1496.698242	78.784599
2840.626330	17353.947667	1495.637695	88.118317
2840.626330	17353.947667	1494.577148	-159.255829
2840.626330	17353.947667	1493.516602	-21.001350
2840.626330	17353.947667	1492.456055	239.071732
2840.626330	17353.947667	1491.394531	-3.023403
2840.626330	17353.947667	1490.333008	-147.966476
2840.626330	17353.947667	1489.271484	-324.149597
2840.626330	17353.947667	1488.209961	-90.351608
2840.626330	17353.947667	1487.148438	1.791206
2840.626330	17353.947667	1486.085938	58.117168
2840.626330	17353.947667	1485.023438	-105.826057
2840.626330	17353.947667	1483.960938	-76.042015
2840.626330	17353.947667	1482.898438	-257.428802
2840.626330	17353.947667	1481.834961	-215.934402
2840.626330	17353.947667	1480.772461	39.328590
2840.626330	17353.947667	1479.708984	-177.244980
2840.626330	17353.947667	1478.644531	-211.523376
2840.626330	17353.947667	1477.581055	138.619766
2840.626330	17353.947667	1476.517578	3.738700
2840.626330	17353.947667	1475.453125	143.074051
2840.626330	17353.947667	1474.388672	163.548111
2840.626330	17353.947667	1473.323242	101.284706
2840.626330	17353.947667	1472.258789	315.355225
2840.626330	17353.947667	1471.193359	89.722160
2840.626330	17353.947667	1470.127930	470.119385
2840.626330	17353.947667	1469.062500	426.599701
2840.626330	17353.947667	1467.997070	602.778381
2840.626330	17353.947667	1466.930664	497.477722
2840.626330	17353.947667	1465.865234	418.686310
2840.626330	17353.947667	1464.798828	989.849609
2840.626330	17353.947667	1463.731445	981.559937
2840.626330	17353.947667	1462.665039	1364.076050
2840.626330	17353.947667	1461.597656	1066.706055
2840.626330	17353.947667	1460.530273	924.521484
2840.626330	17353.947667	1459.462891	1263.295532
2840.626330	17353.947667	1458.395508	916.264648
2840.626330	17353.947667	1457.327148	785.777954
2840.626330	17353.947667	1456.259766	1042.829956
2840.626330	17353.947667	1455.191406	852.566956
2840.626330	17353.947667	1454.123047	898.990784
2840.626330	17353.947667	1453.053711	934.824646
2840.626330	17353.947667	1451.985352	727.371582
2840.626330	17353.947667	1450.916016	854.098022
2840.626330	17353.947667	1449.846680	879.747009
2840.626330	17353.947667	1448.776367	701.810059
2840.626330	17353.947667	1447.707031	660.652954
2840.626330	17353.947667	1446.636719	323.788605
2840.626330	17353.947667	1445.566406	739.738464
2840.626330	17353.947667	1444.496094	865.027466
2840.626330	17353.947667	1443.425781	525.512634
2840.626330	17353.947667	1442.354492	515.133972
2840.626330	17353.947667	1441.283203	757.443237
2840.626330	17353.947667	1440.211914	339.301300
2840.626330	17353.947667	1439.140625	412.518158
2840.626330	17353.947667	1438.069336	317.857025
2840.626330	17353.947667	1436.997070	436.467804
2840.626330	17353.947667	1435.924805	260.297546
2840.626330	17353.947667	1434.852539	454.769592
2840.626330	17353.947667	1433.780273	120.141083
2840.626330	17353.947667	1432.707031	237.982651
2840.626330	17353.947667	1431.633789	304.347870
2840.626330	17353.947667	1430.560547	73.816216
2840.626330	17353.947667	1429.487305	-95.177452
2840.626330	17353.947667	1428.413086	-31.454395
2840.626330	17353.947667	1427.339844	6.307699
2840.626330	17353.947667	1426.265625	-160.429321
2840.626330	17353.947667	1425.191406	-195.886642
2840.626330	17353.947667	1424.116211	-380.660156
2840.626330	17353.947667	1423.041992	66.894920
2840.626330	17353.947667	1421.966797	-45.646645
2840.626330	17353.947667	1420.891602	144.043854
2840.626330	17353.947667	1419.816406	-1.206296
2840.626330	17353.947667	1418.740234	-229.357315
2840.626330	17353.947667	1417.665039	95.008904
2840.626330	17353.947667	1416.588867	-102.044678
2840.626330	17353.947667	1415.512695	2.321296
2840.626330	17353.947667	1414.435547	73.549644
2840.626330	17353.947667	1413.359375	-98.577919
2840.626330	17353.947667	1412.282227	51.366341
2840.626330	17353.947667	1411.205078	242.648651
2840.626330	17353.947667	1410.127930	68.670387
2840.626330	17353.947667	1409.049805	52.324448
2840.626330	17353.947667	1407.972656	85.621010
2840.626330	17353.947667	1406.894531	237.786530
2840.626330	17353.947667	1405.816406	65.885002
2840.626330	17353.947667	1404.737305	-71.717293
2840.626330	17353.947667	1403.659180	63.093689
2840.626330	17353.947667	1402.580078	12.399362
2840.626330	17353.947667	1401.500977	468.837128
2840.626330	17353.947667	1400.421875	70.755486
2840.626330	17353.947667	1399.341797	107.400429
2840.626330	17353.947667	1398.262695	206.606750
2840.626330	17353.947667	1397.182617	332.680267
2840.626330	17353.947667	1396.102539	216.690994
2840.626330	17353.947667	1395.021484	462.412964
2840.626330	17353.947667	1393.941406	165.003616
2840.626330	17353.947667	1392.860352	344.174500
2840.626330	17353.947667	1391.779297	93.377632
2840.626330	17353.947667	1390.698242	-3.138241
2840.626330	17353.947667	1389.616211	157.800125
2840.626330	17353.947667	1388.535156	319.211700
2840.626330	17353.947667	1387.453125	342.678741
2840.626330	17353.947667	1386.371094	334.316467
2840.626330	17353.947667	1385.288086	528.347595
2840.626330	17353.947667	1384.206055	193.359863
2840.626330	17353.947667	1383.123047	657.520996
2840.626330	17353.947667	1382.040039	595.949219
2840.626330	17353.947667	1380.957031	1039.080688
2840.626330	17353.947667	1379.873047	1123.226807
2840.626330	17353.947667	1378.789063	829.425110
2840.626330	17353.947667	1377.705078	899.434143
2840.626330	17353.947667	1376.621094	1164.977051
2840.626330	17353.947667	1375.537109	1134.321777
2840.626330	17353.947667	1374.452148	912.424988
2840.626330	17353.947667	1373.367188	981.052124
2840.626330	17353.947667	1372.282227	1060.344238
2840.626330	17353.947667	1371.197266	996.006775
2840.626330	17353.947667	1370.112305	985.585205
2840.626330	17353.947667	1369.026367	1000.880554
2840.626330	17353.947667	1367.940430	990.987488
2840.626330	17353.947667	1366.854492	872.279358
2840.626330	17353.947667	1365.767578	740.227661
2840.626330	17353.947667	1364.681641	712.814697
2840.626330	17353.947667	1363.594727	476.758362
2840.626330	17353.947667	1362.507813	767.531433
2840.626330	17353.947667	1361.419922	635.084351
2840.626330	17353.947667	1360.333008	630.195129
2840.626330	17353.947667	1359.245117	771.412842
2840.626330	17353.947667	1358.157227	1041.399048
2840.626330	17353.947667	1357.069336	824.376831
2840.626330	17353.947667	1355.981445	643.662781
2840.626330	17353.947667	1354.892578	765.553833
2840.626330	17353.947667	1353.803711	973.923889
2840.626330	17353.947667	1352.714844	909.079834
2840.626330	17353.947667	1351.625000	815.738831
2840.626330	17353.947667	1350.536133	835.076904
2840.626330	17353.947667	1349.446289	1041.858276
2840.626330	17353.947667	1348.356445	1137.206177
2840.626330	17353.947667	1347.266602	972.710632
2840.626330	17353.947667	1346.175781	1087.401855
2840.626330	17353.947667	1345.085938	933.026978
2840.626330	17353.947667	1343.995117	1199.646240
2840.626330	17353.947667	1342.903320	1382.676147
2840.626330	17353.947667	1341.812500	1408.626709
2840.626330	17353.947667	1340.720703	1218.373413
2840.626330	17353.947667	1339.629883	1104.622925
2840.626330	17353.947667	1338.538086	1070.585205
2840.626330	17353.947667	1337.445313	1092.600586
2840.626330	17353.947667	1336.353516	1316.527344
2840.626330	17353.947667	1335.260742	1376.318359
2840.626330	17353.947667	1334.167969	1352.614746
2840.626330	17353.947667	1333.075195	1289.578613
2840.626330	17353.947667	1331.981445	828.817871
2840.626330	17353.947667	1330.888672	993.117493
2840.626330	17353.947667	1329.794922	1236.116821
2840.626330	17353.947667	1328.701172	1154.417236
2840.626330	17353.947667	1327.606445	1203.486328
2840.626330	17353.947667	1326.512695	1264.604492
2840.626330	17353.947667	1325.417969	1163.329590
2840.626330	17353.947667	1324.323242	1200.571411
2840.626330	17353.947667	1323.227539	1218.334961
2840.626330	17353.947667	1322.132813	1043.034424
2840.626330	17353.947667	1321.037109	1218.445557
2840.626330	17353.947667	1319.941406	1235.491089
2840.626330	17353.947667	1318.845703	1242.308105
2840.626330	17353.947667	1317.750000	1090.984375
2840.626330	17353.947667	1316.653320	1015.585999
2840.626330	17353.947667	1315.556641	1005.141113
2840.626330	17353.947667	1314.459961	1038.538452
2840.626330	17353.947667	1313.363281	888.389465
2840.626330	17353.947667	1312.265625	977.471313
2840.626330	17353.947667	1311.167969	901.639954
2840.626330	17353.947667	1310.070313	653.612305
2840.626330	17353.947667	1308.972656	805.839661
2840.626330	17353.947667	1307.874023	530.216553
2840.626330	17353.947667	1306.776367	540.905334
2840.626330	17353.947667	1305.677734	515.316284
2840.626330	17353.947667	1304.579102	616.654541
2840.626330	17353.947667	1303.479492	437.627502
2840.626330	17353.947667	1302.380859	328.047363
2840.626330	17353.947667	1301.281250	629.315125
2840.626330	17353.947667	1300.181641	480.278229
2840.626330	17353.947667	1299.081055	550.986145
2840.626330	17353.947667	1297.981445	342.285736
2840.626330	17353.947667	1296.880859	513.244446
2840.626330	17353.947667	1295.780273	416.506439
2840.626330	17353.947667	1294.679688	348.966400
2840.626330	17353.947667	1293.578125	416.625061
2840.626330	17353.947667	1292.476563	499.413574
2840.626330	17353.947667	1291.375000	414.195374
2840.626330	17353.947667	1290.273438	612.667786
2840.626330	17353.947667	1289.171875	491.164978
2840.626330	17353.947667	1288.069336	251.082367
2840.626330	17353.947667	1286.966797	499.888062
2840.626330	17353.947667	1285.864258	117.562675
2840.626330	17353.947667	1284.761719	114.121956
2840.626330	17353.947667	1283.658203	135.307190
2840.626330	17353.947667	1282.554688	322.793427
2840.626330	17353.947667	1281.451172	209.418686
2840.626330	17353.947667	1280.347656	270.454590
2840.626330	17353.947667	1279.244141	341.334900
2840.626330	17353.947667	1278.139648	221.320526
2840.626330	17353.947667	1277.035156	358.178253
2840.626330	17353.947667	1275.930664	444.099609
2840.626330	17353.947667	1274.825195	105.093689
2840.626330	17353.947667	1273.720703	298.523712
2840.626330	17353.947667	1272.615234	339.194794
2840.626330	17353.947667	1271.508789	412.757538
2840.626330	17353.947667	1270.403320	360.061462
2840.626330	17353.947667	1269.297852	462.283630
2840.626330	17353.947667	1268.191406	257.175415
2840.626330	17353.947667	1267.084961	275.651917
2840.626330	17353.947667	1265.977539	491.857025
2840.626330	17353.947667	1264.871094	448.556305
2840.626330	17353.947667	1263.763672	268.349884
2840.626330	17353.947667	1262.656250	287.551331
2840.626330	17353.947667	1261.548828	345.424530
2840.626330	17353.947667	1260.440430	336.621277
2840.626330	17353.947667	1259.333008	378.280212
2840.626330	17353.947667	1258.224609	220.284668
2840.626330	17353.947667	1257.115234	355.974731
2840.626330	17353.947667	1256.006836	280.756714
2840.626330	17353.947667	1254.897461	461.084259
2840.626330	17353.947667	1253.788086	516.054199
2840.626330	17353.947667	1252.678711	478.487122
2840.626330	17353.947667	1251.569336	250.535736
2840.626330	17353.947667	1250.458984	570.597839
2840.626330	17353.947667	1249.349609	570.294800
2840.626330	17353.947667	1248.239258	582.437561
2840.626330	17353.947667	1247.127930	479.852509
2840.626330	17353.947667	1246.017578	615.903442
2840.626330	17353.947667	1244.906250	633.930359
2840.626330	17353.947667	1243.794922	428.579285
2840.626330	17353.947667	1242.683594	551.403320
2840.626330	17353.947667	1241.571289	675.491516
2840.626330	17353.947667	1240.459961	650.957947
2840.626330	17353.947667	1239.347656	706.626831
2840.626330	17353.947667	1238.234375	649.652832
2840.626330	17353.947667	1237.122070	804.177551
2840.626330	17353.947667	1236.008789	710.497681
2840.626330	17353.947667	1234.896484	529.372253
2840.626330	17353.947667	1233.782227	668.533875
2840.626330	17353.947667	1232.668945	604.205933
2840.626330	17353.947667	1231.555664	324.823090
2840.626330	17353.947667	1230.441406	574.931274
2840.626330	17353.947667	1229.327148	463.471832
2840.626330	17353.947667	1228.211914	468.490601
2840.626330	17353.947667	1227.097656	497.528442
2840.626330	17353.947667	1225.982422	397.416595
2840.626330	17353.947667	1224.867188	527.684631
2840.626330	17353.947667	1223.751953	319.245178
2840.626330	17353.947667	1222.635742	246.593140
2840.626330	17353.947667	1221.520508	303.637085
2840.626330	17353.947667	1220.404297	241.289886
2840.626330	17353.947667	1219.287109	256.813721
2840.626330	17353.947667	1218.170898	216.592163
2840.626330	17353.947667	1217.053711	322.678406
2840.626330	17353.947667	1215.936523	-67.208054
2840.626330	17353.947667	1214.819336	234.462784
2840.626330	17353.947667	1213.702148	61.476791
2840.626330	17353.947667	1212.583984	-10.804408
2840.626330	17353.947667	1211.465820	-42.227432
2840.626330	17353.947667	1210.347656	205.686981
2840.626330	17353.947667	1209.229492	53.470856
2840.626330	17353.947667	1208.110352	143.864532
2840.626330	17353.947667	1206.992188	-51.243202
2840.626330	17353.947667	1205.873047	80.832603
2840.626330	17353.947667	1204.752930	-48.157433
2840.626330	17353.947667	1203.633789	-157.574066
2840.626330	17353.947667	1202.513672	-54.668259
2840.626330	17353.947667	1201.393555	13.503131
2840.626330	17353.947667	1200.273438	-25.435963
2840.626330	17353.947667	1199.152344	-75.491737
2840.626330	17353.947667	1198.032227	35.098896
2840.626330	17353.947667	1196.911133	-205.903961
2840.626330	17353.947667	1195.790039	-260.685638
2840.626330	17353.947667	1194.667969	-225.776016
2840.626330	17353.947667	1193.545898	-218.914902
2840.626330	17353.947667	1192.424805	-197.937485
2840.626330	17353.947667	1191.301758	-171.549057
2840.626330	17353.947667	1190.179688	-221.819641
2840.626330	17353.947667	1189.056641	-115.900276
2840.626330	17353.947667	1187.933594	-90.002983
2840.626330	17353.947667	1186.810547	-199.103241
2840.626330	17353.947667	1185.687500	-193.498795
2840.626330	17353.947667	1184.563477	-179.610718
2840.626330	17353.947667	1183.440430	-65.064301
2840.626330	17353.947667	1182.316406	-86.638428
2840.626330	17353.947667	1181.191406	-95.857590
2840.626330	17353.947667	1180.067383	-15.119925
2840.626330	17353.947667	1178.942383	-240.329803
2840.626330	17353.947667	1177.817383	46.920830
2840.626330	17353.947667	1176.692383	87.508186
2840.626330	17353.947667	1175.566406	15.608250
2840.626330	17353.947667	1174.440430	149.279770
2840.626330	17353.947667	1173.314453	87.725212
2840.626330	17353.947667	1172.188477	195.492706
2840.626330	17353.947667	1171.062500	136.253510
2840.626330	17353.947667	1169.935547	100.337524
2840.626330	17353.947667	1168.808594	154.903641
2840.626330	17353.947667	1167.681641	19.150490
2840.626330	17353.947667	1166.553711	116.882355
2840.626330	17353.947667	1165.426758	78.865807
2840.626330	17353.947667	1164.298828	169.049774
2840.626330	17353.947667	1163.170898	14.494108
2840.626330	17353.947667	1162.041992	-153.585114
2840.626330	17353.947667	1160.914063	16.460371
2840.626330	17353.947667	1159.785156	-25.813782
2840.626330	17353.947667	1158.656250	-161.132431
2840.626330	17353.947667	1157.526367	-148.410675
2840.626330	17353.947667	1156.397461	5.842388
2840.626330	17353.947667	1155.267578	-171.222595
2840.626330	17353.947667	1154.137695	-100.152275
2840.626330	17353.947667	1153.006836	59.579315
2840.626330	17353.947667	1151.876953	190.065506
2840.626330	17353.947667	1150.746094	65.258957
2840.626330	17353.947667	1149.615234	-138.751770
2840.626330	17353.947667	1148.484375	-94.468918
2840.626330	17353.947667	1147.352539	-157.605209
2840.626330	17353.947667	1146.220703	-76.222115
2840.626330	17353.947667	1145.088867	-143.370667
2840.626330	17353.947667	1143.957031	-85.002274
2840.626330	17353.947667	1142.825195	12.822312
2840.626330	17353.947667	1141.692383	-159.783875
2840.626330	17353.947667	1140.559570	28.971807
2840.626330	17353.947667	1139.426758	79.573563
2840.626330	17353.947667	1138.292969	13.725974
2840.626330	17353.947667	1137.159180	88.048203
2840.626330	17353.947667	1136.025391	109.073349
2840.626330	17353.947667	1134.891602	96.729050
2840.626330	17353.947667	1133.757813	83.896095
2840.626330	17353.947667	1132.623047	98.042297
2840.626330	17353.947667	1131.488281	210.297195
2840.626330	17353.947667	1130.353516	170.649048
2840.626330	17353.947667	1129.217773	244.696259
2840.626330	17353.947667	1128.083008	330.521210
2840.626330	17353.947667	1126.947266	212.732758
2840.626330	17353.947667	1125.811523	377.275513
2840.626330	17353.947667	1124.674805	273.663544
2840.626330	17353.947667	1123.539063	33.122684
2840.626330	17353.947667	1122.402344	154.680984
2840.626330	17353.947667	1121.265625	91.402664
2840.626330	17353.947667	1120.127930	307.744812
2840.626330	17353.947667	1118.990234	118.801186
2840.626330	17353.947667	1117.853516	292.677673
2840.626330	17353.947667	1116.714844	248.684189
2840.626330	17353.947667	1115.577148	150.116669
2840.626330	17353.947667	1114.439453	53.371540
2840.626330	17353.947667	1113.300781	497.669037
2840.626330	17353.947667	1112.162109	218.084137
2840.626330	17353.947667	1111.022461	157.297821
2840.626330	17353.947667	1109.883789	52.175312
2840.626330	17353.947667	1108.744141	53.888878
2840.626330	17353.947667	1107.604492	-9.857180
2840.626330	17353.947667	1106.463867	227.703766
2840.626330	17353.947667	1105.324219	256.633118
2840.626330	17353.947667	1104.183594	131.494934
2840.626330	17353.947667	1103.042969	213.101456
2840.626330	17353.947667	1101.902344	58.210873
2840.626330	17353.947667	1100.760742	341.997589
2840.626330	17353.947667	1099.619141	315.395203
2840.626330	17353.947667	1098.477539	247.933502
2840.626330	17353.947667	1097.335938	341.569916
2840.626330	17353.947667	1096.193359	236.150436
2840.626330	17353.947667	1095.051758	470.574249
2840.626330	17353.947667	1093.909180	383.423431
2840.626330	17353.947667	1092.765625	279.686401
2840.626330	17353.947667	1091.623047	348.878265
2840.626330	17353.947667	1090.479492	230.779770
2840.626330	17353.947667	1089.335938	257.938782
2840.626330	17353.947667	1088.192383	366.562927
2840.626330	17353.947667	1087.047852	152.950607
2840.626330	17353.947667	1085.903320	199.646194
2840.626330	17353.947667	1084.758789	192.694214
2840.626330	17353.947667	1083.614258	198.060135
2840.626330	17353.947667	1082.469727	92.309044
2840.626330	17353.947667	1081.324219	121.901077
2840.626330	17353.947667	1080.178711	202.133072
2840.626330	17353.947667	1079.033203	170.970551
2840.626330	17353.947667	1077.886719	292.723022
2840.626330	17353.947667	1076.740234	143.777466
2840.626330	17353.947667	1075.593750	-25.028479
2840.626330	17353.947667	1074.447266	219.578369
2840.626330	17353.947667	1073.300781	95.276474
2840.626330	17353.947667	1072.153320	104.564423
2840.626330	17353.947667	1071.005859	373.110962
2840.626330	17353.947667	1069.858398	136.150284
2840.626330	17353.947667	1068.709961	155.196365
2840.626330	17353.947667	1067.561523	179.778595
2840.626330	17353.947667	1066.413086	394.946625
2840.626330	17353.947667	1065.264648	367.090881
2840.626330	17353.947667	1064.116211	112.807945
2840.626330	17353.947667	1062.966797	237.071381
2840.626330	17353.947667	1061.817383	224.775314
2840.626330	17353.947667	1060.667969	155.685272
2840.626330	17353.947667	1059.517578	250.102753
2840.626330	17353.947667	1058.368164	222.715363
2840.626330	17353.947667	1057.217773	174.428894
2840.626330	17353.947667	1056.067383	178.130142
2840.626330	17353.947667	1054.916016	311.729706
2840.626330	17353.947667	1053.764648	49.284466
2840.626330	17353.947667	1052.613281	319.859802
2840.626330	17353.947667	1051.461914	-9.410539
2840.626330	17353.947667	1050.310547	200.257584
2840.626330	17353.947667	1049.158203	252.296936
2840.626330	17353.947667	1048.005859	121.456200
2840.626330	17353.947667	1046.853516	86.097687
2840.626330	17353.947667	1045.700195	100.560211
2840.626330	17353.947667	1044.547852	29.382866
2840.626330	17353.947667	1043.394531	62.879955
2840.626330	17353.947667	1042.240234	291.017120
2840.626330	17353.947667	1041.086914	95.267479
2840.626330	17353.947667	1039.932617	311.286743
2840.626330	17353.947667	1038.778320	276.907288
2840.626330	17353.947667	1037.624023	304.487488
2840.626330	17353.947667	1036.469727	254.786240
2840.626330	17353.947667	1035.314453	254.415268
2840.626330	17353.947667	1034.159180	313.917114
2840.626330	17353.947667	1033.003906	327.188385
2840.626330	17353.947667	1031.847656	222.036911
2840.626330	17353.947667	1030.692383	425.660645
2840.626330	17353.947667	1029.536133	533.737671
2840.626330	17353.947667	1028.378906	305.151672
2840.626330	17353.947667	1027.222656	347.843231
2840.626330	17353.947667	1026.065430	424.717560
2840.626330	17353.947667	1024.908203	420.523865
2840.626330	17353.947667	1023.750977	237.785660
2840.626330	17353.947667	1022.593750	261.037262
2840.626330	17353.947667	1021.435547	52.556767
2840.626330	17353.947667	1020.277344	139.653122
2840.626330	17353.947667	1019.119141	275.026672
2840.626330	17353.947667	1017.959961	127.334244
2840.626330	17353.947667	1016.800781	120.954338
2840.626330	17353.947667	1015.641602	239.718124
2840.626330	17353.947667	1014.482422	6.866953
2840.626330	17353.947667	1013.323242	30.201756
2840.626330	17353.947667	1012.163086	125.131119
2840.626330	17353.947667	1011.002930	80.479065
2840.626330	17353.947667	1009.842773	-4.779650
2840.626330	17353.947667	1008.681641	13.693133
2840.626330	17353.947667	1007.520508	17.582905
2840.626330	17353.947667	1006.359375	7.641767
2840.626330	17353.947667	1005.198242	211.566162
2840.626330	17353.947667	1004.037109	84.263443
2840.626330	17353.947667	1002.875000	300.971008
2840.626330	17353.947667	1001.712891	321.765167
2840.626330	17353.947667	1000.550781	180.825775
2840.626330	17353.947667	999.387695	447.324646
2840.626330	17353.947667	998.224609	213.635101
2840.626330	17353.947667	997.061523	102.415474
2840.626330	17353.947667	995.898438	-21.602642
2840.626330	17353.947667	994.734375	33.017113
2840.626330	17353.947667	993.571289	34.154366
2840.626330	17353.947667	992.407227	-94.903305
2840.626330	17353.947667	991.242188	242.100983
2840.626330	17353.947667	990.078125	68.594872
2840.626330	17353.947667	988.913086	52.086472
2840.626330	17353.947667	987.748047	-77.140495
2840.626330	17353.947667	986.583008	-63.665993
2840.626330	17353.947667	985.416992	13.995917
2840.626330	17353.947667	984.250977	-112.446182
2840.626330	17353.947667	983.084961	169.180679
2840.626330	17353.947667	981.918945	170.835571
2840.626330	17353.947667	980.751953	-185.668503
2840.626330	17353.947667	979.584961	-263.997894
2840.626330	17353.947667	978.417969	-108.499207
2840.626330	17353.947667	977.250977	-61.399868
2840.626330	17353.947667	976.083008	-189.240524
2840.626330	17353.947667	974.915039	-73.435509
2840.626330	17353.947667	973.747070	-100.123413
2840.626330	17353.947667	972.579102	-57.576653
2840.626330	17353.947667	971.410156	0.573251
2840.626330	17353.947667	970.242188	-31.423204
2840.626330	17353.947667	969.072266	-161.575012
2840.626330	17353.947667	967.903320	-9.624091
2840.626330	17353.947667	966.733398	366.233765
2840.626330	17353.947667	965.563477	56.196556
2840.626330	17353.947667	964.393555	-3.941737
2840.626330	17353.947667	963.223633	-90.637184
2840.626330	17353.947667	962.052734	279.154327
2840.626330	17353.947667	960.881836	253.222656
2840.626330	17353.947667	959.710938	136.181015
2840.626330	17353.947667	958.540039	290.721771
2840.626330	17353.947667	957.368164	325.020813
2840.626330	17353.947667	956.196289	356.015442
2840.626330	17353.947667	955.024414	242.487762
2840.626330	17353.947667	953.851563	-18.397041
2840.626330	17353.947667	952.679688	-68.318130
2840.626330	17353.947667	951.506836	-33.353386
2840.626330	17353.947667	950.333984	-61.590000
2840.626330	17353.947667	949.160156	-112.107025
2840.626330	17353.947667	947.986328	-48.601040
2840.626330	17353.947667	946.812500	-72.095634
2840.626330	17353.947667	945.638672	-13.333150
2840.626330	17353.947667	944.464844	-90.821564
2840.626330	17353.947667	943.290039	-45.441723
2840.626330	17353.947667	942.115234	192.614594
2840.626330	17353.947667	940.940430	-83.859856
2840.626330	17353.947667	939.764648	252.568527
2840.626330	17353.947667	938.588867	-7.802845
2840.626330	17353.947667	937.413086	-27.093355
2840.626330	17353.947667	936.237305	-19.348183
2840.626330	17353.947667	935.060547	326.055695
2840.626330	17353.947667	933.883789	-120.138092
2840.626330	17353.947667	932.707031	48.669762
2840.626330	17353.947667	931.530273	-202.843338
2840.626330	17353.947667	930.352539	-67.636383
2840.626330	17353.947667	929.175781	183.771118
2840.626330	17353.947667	927.998047	-13.996549
2840.626330	17353.947667	926.819336	94.371803
2840.626330	17353.947667	925.641602	117.839958
2840.626330	17353.947667	924.462891	31.943357
2840.626330	17353.947667	923.284180	77.832611
2840.626330	17353.947667	922.104492	34.417835
2840.626330	17353.947667	920.924805	183.031204
2840.626330	17353.947667	919.746094	191.795853
2840.626330	17353.947667	919.551758	-108.866219
2840.626330	17353.947667	918.386719	-54.060791
2840.626330	17353.947667	917.220703	-55.022598
2840.626330	17353.947667	916.054688	-6.889336
2840.626330	17353.947667	914.887695	-226.354416
2840.626330	17353.947667	913.721680	-164.779755
2840.626330	17353.947667	912.554688	-150.010620
2840.626330	17353.947667	911.387695	-211.000275
2840.626330	17353.947667	910.220703	-176.123352
2840.626330	17353.947667	909.052734	-490.995148
2840.626330	17353.947667	907.885742	-124.146812
2840.626330	17353.947667	906.717773	-100.359024
2840.626330	17353.947667	905.548828	63.720108
2840.626330	17353.947667	904.380859	-135.086227
2840.626330	17353.947667	903.211914	253.768463
2840.626330	17353.947667	902.042969	190.796463
2840.626330	17353.947667	900.874023	110.081947
2840.626330	17353.947667	899.704102	-23.945408
2840.626330	17353.947667	898.535156	-93.409988
2840.626330	17353.947667	897.365234	32.839321
2840.626330	17353.947667	896.194336	107.947258
2840.626330	17353.947667	895.024414	36.369324
2840.626330	17353.947667	893.853516	149.276245
2840.626330	17353.947667	892.682617	191.078400
2840.626330	17353.947667	891.511719	-113.585464
2840.626330	17353.947667	890.340820	-144.967285
2840.626330	17353.947667	889.168945	10.188806
2840.626330	17353.947667	887.997070	109.819397
2840.626330	17353.947667	886.825195	-232.181976
2840.626330	17353.947667	885.653320	-116.954033
2840.626330	17353.947667	884.480469	29.320627
2840.626330	17353.947667	883.307617	215.485641
2840.626330	17353.947667	882.134766	-192.657318
2840.626330	17353.947667	880.961914	-37.502914
2840.626330	17353.947667	879.788086	57.778950
2840.626330	17353.947667	878.614258	17.873545
2840.626330	17353.947667	877.440430	-137.198792
2840.626330	17353.947667	876.266602	9.078319
2840.626330	17353.947667	875.091797	9.162926
2840.626330	17353.947667	873.916992	-209.932724
2840.626330	17353.947667	872.742188	16.055750
2840.626330	17353.947667	871.567383	124.672989
2840.626330	17353.947667	870.391602	27.485426
2840.626330	17353.947667	869.215820	-27.600332
2840.626330	17353.947667	868.040039	52.291351
2840.626330	17353.947667	866.864258	10.543896
2840.626330	17353.947667	865.687500	223.118256
2840.626330	17353.947667	864.510742	-24.173849
2840.626330	17353.947667	863.333984	108.804855
2840.626330	17353.947667	862.157227	-122.845497
2840.626330	17353.947667	860.979492	89.687599
2840.626330	17353.947667	859.802734	61.391972
2840.626330	17353.947667	858.625000	-4.402824
2840.626330	17353.947667	857.446289	150.647446
2840.626330	17353.947667	856.268555	140.090057
2840.626330	17353.947667	855.089844	83.221344
2840.626330	17353.947667	853.911133	200.711121
2840.626330	17353.947667	852.731445	113.017334
2840.626330	17353.947667	851.552734	168.734894
2840.626330	17353.947667	850.373047	175.943420
2840.626330	17353.947667	849.193359	88.365265
2840.626330	17353.947667	848.013672	108.848366
2840.626330	17353.947667	846.833008	-53.567318
2840.626330	17353.947667	845.652344	-134.376312
2840.626330	17353.947667	844.471680	-3.658485
2840.626330	17353.947667	843.291016	67.553154
2840.626330	17353.947667	842.110352	90.306618
2840.626330	17353.947667	840.928711	143.892792
2840.626330	17353.947667	839.747070	276.708588
2840.626330	17353.947667	838.564453	242.241165
2840.626330	17353.947667	837.382813	216.589783
2840.626330	17353.947667	836.200195	80.981506
2840.626330	17353.947667	835.017578	308.317047
2840.626330	17353.947667	833.834961	137.579819
2840.626330	17353.947667	832.651367	265.906311
2840.626330	17353.947667	831.467773	123.842674
2840.626330	17353.947667	830.284180	140.057816
2840.626330	17353.947667	829.100586	-34.868256
2840.626330	17353.947667	827.916992	315.255798
2840.626330	17353.947667	826.732422	228.221664
2840.626330	17353.947667	825.547852	189.527481
2840.626330	17353.947667	824.363281	205.728806
2840.626330	17353.947667	823.177734	156.087906
2840.626330	17353.947667	821.992188	150.349991
2840.626330	17353.947667	820.806641	6.398679
2840.626330	17353.947667	819.621094	316.531586
2840.626330	17353.947667	818.434570	62.955265
2840.626330	17353.947667	817.249023	120.798927
2840.626330	17353.947667	816.062500	187.386917
2840.626330	17353.947667	814.875000	523.508972
2840.626330	17353.947667	813.688477	460.687866
2840.626330	17353.947667	812.500977	303.689270
2840.626330	17353.947667	811.313477	416.138123
2840.626330	17353.947667	810.125977	272.322205
2840.626330	17353.947667	808.937500	500.740692
2840.626330	17353.947667	807.749023	437.927826
2840.626330	17353.947667	806.560547	355.425140
2840.626330	17353.947667	805.372070	524.550598
2840.626330	17353.947667	804.182617	732.967346
2840.626330	17353.947667	802.994141	438.243225
2840.626330	17353.947667	801.803711	493.488586
2840.626330	17353.947667	800.614258	395.644928
2840.626330	17353.947667	799.424805	477.040314
2840.626330	17353.947667	798.234375	355.153107
2840.626330	17353.947667	797.043945	654.949158
2840.626330	17353.947667	795.852539	535.203674
2840.626330	17353.947667	794.662109	511.554993
2840.626330	17353.947667	793.470703	734.616516
2840.626330	17353.947667	792.279297	595.173462
2840.626330	17353.947667	791.087891	700.191040
2840.626330	17353.947667	789.895508	418.906036
2840.626330	17353.947667	788.703125	726.731750
2840.626330	17353.947667	787.510742	739.928223
2840.626330	17353.947667	786.318359	772.699951
2840.626330	17353.947667	785.125000	654.979797
2840.626330	17353.947667	783.931641	539.438904
2840.626330	17353.947667	782.738281	426.073669
2840.626330	17353.947667	781.544922	382.428314
2840.626330	17353.947667	780.350586	484.710938
2840.626330	17353.947667	779.156250	693.617188
2840.626330	17353.947667	777.961914	455.980316
2840.626330	17353.947667	776.767578	621.146301
2840.626330	17353.947667	775.572266	527.168640
2840.626330	17353.947667	774.376953	524.566406
2840.626330	17353.947667	773.181641	639.390625
2840.626330	17353.947667	771.986328	588.777222
2840.626330	17353.947667	770.790039	738.210144
2840.626330	17353.947667	769.593750	785.313171
2840.626330	17353.947667	768.397461	591.017029
2840.626330	17353.947667	767.201172	701.016418
2840.626330	17353.947667	766.003906	763.093628
2840.626330	17353.947667	764.806641	512.215515
2840.626330	17353.947667	763.609375	726.197632
2840.626330	17353.947667	762.412109	518.704224
2840.626330	17353.947667	761.213867	639.075012
2840.626330	17353.947667	760.015625	746.284851
2840.626330	17353.947667	758.817383	725.314331
2840.626330	17353.947667	757.618164	602.286255
2840.626330	17353.947667	756.419922	869.707336
2840.626330	17353.947667	755.220703	863.640259
2840.626330	17353.947667	754.021484	981.086487
2840.626330	17353.947667	752.821289	788.359985
2840.626330	17353.947667	751.621094	866.566895
2840.626330	17353.947667	750.420898	1118.011963
2840.626330	17353.947667	749.220703	1091.911987
2840.626330	17353.947667	748.020508	1065.718506
2840.626330	17353.947667	746.819336	1132.564209
2840.626330	17353.947667	745.618164	1199.274292
2840.626330	17353.947667	744.416992	1127.293213
2840.626330	17353.947667	743.214844	1230.554443
2840.626330	17353.947667	742.012695	937.648010
2840.626330	17353.947667	740.810547	1016.876892
2840.626330	17353.947667	739.608398	1232.230347
2840.626330	17353.947667	738.406250	1170.555420
2840.626330	17353.947667	737.203125	1186.628418
2840.626330	17353.947667	736.000000	1628.433716
2840.626330	17353.947667	734.795898	1955.384399
2840.626330	17353.947667	733.592773	2115.683105
2840.626330	17353.947667	732.388672	2178.572510
2840.626330	17353.947667	731.184570	2381.699463
2840.626330	17353.947667	729.979492	2288.763916
2840.626330	17353.947667	728.775391	1975.507202
2840.626330	17353.947667	727.570313	1804.714355
2840.626330	17353.947667	726.365234	1944.623535
2840.626330	17353.947667	725.160156	1788.733154
2840.626330	17353.947667	723.954102	1591.782227
2840.626330	17353.947667	722.748047	1334.379395
2840.626330	17353.947667	721.541992	1322.758423
2840.626330	17353.947667	720.334961	1395.076172
2840.626330	17353.947667	719.128906	1368.061523
2840.626330	17353.947667	717.921875	1265.486694
2840.626330	17353.947667	716.714844	1188.655640
2840.626330	17353.947667	715.506836	1225.869141
2840.626330	17353.947667	714.298828	1103.543335
2840.626330	17353.947667	713.090820	1136.136719
2840.626330	17353.947667	711.882813	985.576355
2840.626330	17353.947667	710.674805	1041.534424
2840.626330	17353.947667	709.465820	989.716675
2840.626330	17353.947667	708.256836	1006.598572
2840.626330	17353.947667	707.047852	978.137634
2840.626330	17353.947667	705.837891	1295.744263
2840.626330	17353.947667	704.627930	1213.147217
2840.626330	17353.947667	703.417969	1050.878418
2840.626330	17353.947667	702.208008	1045.389404
2840.626330	17353.947667	700.998047	1125.672974
2840.626330	17353.947667	699.787109	1033.891724
2840.626330	17353.947667	698.576172	995.664246
2840.626330	17353.947667	697.364258	1071.080688
2840.626330	17353.947667	696.153320	1253.625122
2840.626330	17353.947667	694.941406	1053.853516
2840.626330	17353.947667	693.729492	1079.304688
2840.626330	17353.947667	692.516602	986.558838
2840.626330	17353.947667	691.304688	1106.023071
2840.626330	17353.947667	690.091797	1113.729858
2840.626330	17353.947667	688.878906	1170.559448
2840.626330	17353.947667	687.665039	1203.592529
2840.626330	17353.947667	686.451172	1223.560303
2840.626330	17353.947667	685.237305	1286.181519
2840.626330	17353.947667	684.023438	1275.742065
2840.626330	17353.947667	682.809570	1374.347534
2840.626330	17353.947667	681.594727	1155.780762
2840.626330	17353.947667	680.379883	1211.152954
2840.626330	17353.947667	679.165039	1165.698486
2840.626330	17353.947667	677.949219	1269.865234
2840.626330	17353.947667	676.733398	1258.247070
2840.626330	17353.947667	675.517578	1438.957520
2840.626330	17353.947667	674.301758	1580.891357
2840.626330	17353.947667	673.084961	1542.942017
2840.626330	17353.947667	671.869141	1372.261353
2840.626330	17353.947667	670.651367	1481.437256
2840.626330	17353.947667	669.434570	1554.033936
2840.626330	17353.947667	668.216797	1464.018066
2840.626330	17353.947667	667.000000	1343.928833
2840.626330	17353.947667	665.781250	1405.198853
2840.626330	17353.947667	664.563477	1485.452026
2840.626330	17353.947667	663.344727	1287.948975
2840.626330	17353.947667	662.125977	1455.270386
2840.626330	17353.947667	660.907227	1270.236328
2840.626330	17353.947667	659.688477	1402.933350
2840.626330	17353.947667	658.468750	1398.852905
2840.626330	17353.947667	657.249023	1748.542480
2840.626330	17353.947667	656.029297	1571.273560
2840.626330	17353.947667	654.808594	1489.778442
2840.626330	17353.947667	653.587891	1687.274048
2840.626330	17353.947667	652.367188	1584.052612
2840.626330	17353.947667	651.146484	1527.523071
2840.626330	17353.947667	649.924805	1440.981689
2840.626330	17353.947667	648.704102	1533.124878
2840.626330	17353.947667	647.482422	1735.706177
2840.626330	17353.947667	646.259766	1691.089600
2840.626330	17353.947667	645.037109	1478.170532
2840.626330	17353.947667	643.815430	1590.635132
2840.626330	17353.947667	642.591797	1541.169800
2840.626330	17353.947667	641.369141	1400.073120
2840.626330	17353.947667	640.145508	1394.886108
2840.626330	17353.947667	638.921875	1527.655640
2840.626330	17353.947667	637.698242	1362.622437
2840.626330	17353.947667	636.474609	1647.896362
2840.626330	17353.947667	635.250000	1478.223267
2840.626330	17353.947667	634.025391	1508.052612
2840.626330	17353.947667	632.800781	1306.203247
2840.626330	17353.947667	631.575195	1550.042969
2840.626330	17353.947667	630.349609	1460.330078
2840.626330	17353.947667	629.124023	1359.834106
2840.626330	17353.947667	627.898438	1386.467896
2840.626330	17353.947667	626.671875	1533.778564
2840.626330	17353.947667	625.445313	1205.775269
2840.626330	17353.947667	624.218750	1070.647583
2840.626330	17353.947667	622.992188	1259.703247
2840.626330	17353.947667	621.764648	1304.345215
2840.626330	17353.947667	620.537109	1047.875610
2840.626330	17353.947667	619.309570	1331.522339
2840.626330	17353.947667	618.081055	1284.423340
2840.626330	17353.947667	616.852539	843.273010
2840.626330	17353.947667	615.624023	884.813965
2840.626330	17353.947667	614.395508	1218.239136
2840.626330	17353.947667	613.166992	1024.384033
2840.626330	17353.947667	611.937500	972.161499
2840.626330	17353.947667	610.708008	792.846130
2840.626330	17353.947667	609.477539	936.978577
2840.626330	17353.947667	608.248047	761.590942
2840.626330	17353.947667	607.017578	808.043030
2840.626330	17353.947667	605.787109	911.352417
2840.626330	17353.947667	604.555664	631.951965
2840.626330	17353.947667	603.325195	760.234558
2840.626330	17353.947667	602.093750	693.945801
2840.626330	17353.947667	600.861328	690.845154
2840.626330	17353.947667	599.629883	470.115540
2840.626330	17353.947667	598.397461	720.006775
2840.626330	17353.947667	597.165039	655.169739
2840.626330	17353.947667	595.932617	615.505066
2840.626330	17353.947667	594.699219	497.623779
2840.626330	17353.947667	593.465820	463.984833
2840.626330	17353.947667	592.232422	622.075989
2840.626330	17353.947667	590.999023	632.365662
2840.626330	17353.947667	589.764648	680.414734
2840.626330	17353.947667	588.530273	448.021667
2840.626330	17353.947667	587.295898	516.842529
2840.626330	17353.947667	586.061523	515.969849
2840.626330	17353.947667	584.826172	708.676270
2840.626330	17353.947667	583.590820	492.695496
2840.626330	17353.947667	582.355469	468.215027
2840.626330	17353.947667	581.119141	439.380310
2840.626330	17353.947667	579.882813	366.230316
2840.626330	17353.947667	578.646484	608.522949
2840.626330	17353.947667	577.410156	625.534729
2840.626330	17353.947667	576.172852	846.362122
2840.626330	17353.947667	574.935547	678.039795
2840.626330	17353.947667	573.698242	602.146179
2840.626330	17353.947667	572.460938	526.163025
2840.626330	17353.947667	571.222656	651.771606
2840.626330	17353.947667	569.984375	697.391968
2840.626330	17353.947667	568.746094	852.084106
2840.626330	17353.947667	567.506836	815.521362
2840.626330	17353.947667	566.267578	854.439575
2840.626330	17353.947667	565.028320	966.693848
2840.626330	17353.947667	563.789063	785.044617
2840.626330	17353.947667	562.548828	785.872986
2840.626330	17353.947667	561.309570	606.251770
2840.626330	17353.947667	560.068359	730.643188
2840.626330	17353.947667	558.828125	555.115906
2840.626330	17353.947667	557.586914	704.453796
2840.626330	17353.947667	556.345703	545.600708
2840.626330	17353.947667	555.104492	548.068176
2840.626330	17353.947667	553.863281	506.477325
2840.626330	17353.947667	552.621094	605.137939
2840.626330	17353.947667	551.378906	224.217651
2840.626330	17353.947667	550.136719	437.911896
2840.626330	17353.947667	548.893555	527.965881
2840.626330	17353.947667	547.650391	429.611115
2840.626330	17353.947667	546.407227	324.977509
2840.626330	17353.947667	545.164063	209.889465
2840.626330	17353.947667	543.919922	433.557098
2840.626330	17353.947667	542.675781	460.573303
2840.626330	17353.947667	541.431641	332.874878
2840.626330	17353.947667	540.186523	234.446274
2840.626330	17353.947667	538.941406	127.681374
2840.626330	17353.947667	537.696289	261.166321
2840.626330	17353.947667	536.451172	162.765640
2840.626330	17353.947667	535.205078	156.254898
2840.626330	17353.947667	533.959961	97.570023
2840.626330	17353.947667	532.712891	82.707191
2840.626330	17353.947667	531.466797	105.430527
2840.626330	17353.947667	530.219727	146.912048
2840.626330	17353.947667	528.972656	98.701897
2840.626330	17353.947667	527.725586	200.669449
2840.626330	17353.947667	526.478516	110.808083
2840.626330	17353.947667	525.230469	58.514591
2840.626330	17353.947667	523.982422	-287.563385
2840.626330	17353.947667	522.734375	-114.668808
2840.626330	17353.947667	521.485352	-54.312092
2840.626330	17353.947667	520.236328	-160.546890
2840.626330	17353.947667	518.987305	-229.212936
2840.626330	17353.947667	517.737305	-229.118423
2840.626330	17353.947667	516.488281	-147.785324
2840.626330	17353.947667	515.238281	-199.618256
2840.626330	17353.947667	513.988281	-82.856789
2840.626330	17353.947667	512.737305	-130.408661
2840.626330	17353.947667	511.486328	-17.751904
2840.626330	17353.947667	510.235352	-69.313438
2840.626330	17353.947667	508.984375	-87.519249
2840.626330	17353.947667	507.732422	64.756203
2840.626330	17353.947667	506.480469	57.067608
2840.626330	17353.947667	505.228516	-41.927212
2840.626330	17353.947667	503.976563	-70.177925
2840.626330	17353.947667	502.723633	-4.900738
2840.626330	17353.947667	501.470703	83.281715
2840.626330	17353.947667	500.217773	86.434196
2840.626330	17353.947667	498.963867	147.775085
2840.626330	17353.947667	497.709961	-276.248413
2840.626330	17353.947667	496.456055	-164.856995
2840.626330	17353.947667	495.202148	112.493263
2840.626330	17353.947667	493.947266	134.821533
2840.626330	17353.947667	492.692383	-45.873035
2840.626330	17353.947667	491.437500	-197.354462
2840.626330	17353.947667	490.181641	-44.091896
2840.626330	17353.947667	488.926758	-21.255960
2840.626330	17353.947667	487.670898	107.307236
2840.626330	17353.947667	486.414063	-0.108886
2840.626330	17353.947667	485.158203	122.449966
2840.626330	17353.947667	483.901367	-9.489007
2840.626330	17353.947667	482.644531	-27.427519
2840.626330	17353.947667	481.386719	165.782333
2840.626330	17353.947667	480.128906	30.187126
2840.626330	17353.947667	478.871094	140.869110
2840.626330	17353.947667	477.613281	96.589050
2840.626330	17353.947667	476.355469	87.611473
2840.626330	17353.947667	475.096680	-43.155247
2840.626330	17353.947667	473.837891	132.060593
2840.626330	17353.947667	472.578125	-97.530022
2840.626330	17353.947667	471.319336	146.064789
2840.626330	17353.947667	470.059570	86.170723
2840.626330	17353.947667	468.799805	100.764236
2840.626330	17353.947667	467.539063	-84.709671
2840.626330	17353.947667	466.278320	-67.743958
2840.626330	17353.947667	465.017578	-46.515438
2840.626330	17353.947667	463.756836	-49.903286
2840.626330	17353.947667	462.495117	-9.856539
2840.626330	17353.947667	461.233398	-66.583481
2840.626330	17353.947667	459.971680	-3.598835
2840.626330	17353.947667	458.709961	-12.631443
2840.626330	17353.947667	457.447266	-21.538193
2840.626330	17353.947667	456.184570	27.364632
2840.626330	17353.947667	454.921875	-41.011074
2840.626330	17353.947667	453.658203	-22.766912
2840.626330	17353.947667	452.394531	-74.400085
2840.626330	17353.947667	451.130859	-160.881454
2840.626330	17353.947667	449.867188	-154.619736
2840.626330	17353.947667	448.602539	-0.146168
2840.626330	17353.947667	447.337891	-135.636414
2840.626330	17353.947667	446.073242	72.429466
2840.626330	17353.947667	444.807617	-360.936646
2840.626330	17353.947667	443.542969	-197.952957
2840.626330	17353.947667	442.276367	38.997509
2840.626330	17353.947667	441.010742	33.495193
2840.626330	17353.947667	439.744141	-21.247011
2840.626330	17353.947667	438.478516	76.069138
2840.626330	17353.947667	437.210938	-68.901268
2840.626330	17353.947667	435.944336	-90.595741
2840.626330	17353.947667	434.676758	58.081043
2840.626330	17353.947667	433.409180	19.998053
2840.626330	17353.947667	432.141602	37.331825
2840.626330	17353.947667	430.873047	153.095871
2840.626330	17353.947667	429.604492	-67.483978
2840.626330	17353.947667	428.335938	150.725372
2840.626330	17353.947667	427.067383	133.101639
2840.626330	17353.947667	425.797852	242.478470
2840.626330	17353.947667	424.528320	40.343353
2840.626330	17353.947667	423.258789	180.287216
2840.626330	17353.947667	421.988281	195.156586
2840.626330	17353.947667	420.717773	132.117035
2840.626330	17353.947667	419.447266	337.140625
2840.626330	17353.947667	418.175781	71.234879
2840.626330	17353.947667	416.905273	153.137177
2840.626330	17353.947667	415.633789	87.543205
2840.626330	17353.947667	414.362305	244.718430
2840.626330	17353.947667	413.089844	74.455460
2840.626330	17353.947667	411.817383	83.941536
2840.626330	17353.947667	410.544922	240.339569
2840.626330	17353.947667	409.272461	185.936737
2840.626330	17353.947667	407.999023	290.613983
2840.626330	17353.947667	406.725586	176.391312
2840.626330	17353.947667	405.452148	382.496216
2840.626330	17353.947667	404.177734	196.153244
2840.626330	17353.947667	402.903320	242.209015
2840.626330	17353.947667	401.628906	261.316376
2840.626330	17353.947667	400.354492	288.146912
2840.626330	17353.947667	399.079102	43.196201
2840.626330	17353.947667	397.803711	311.804810
2840.626330	17353.947667	396.528320	275.977814
2840.626330	17353.947667	395.251953	257.958954
2840.626330	17353.947667	393.976563	174.174316
2840.626330	17353.947667	392.700195	112.222214
2840.626330	17353.947667	391.422852	263.553925
2840.626330	17353.947667	390.145508	196.217911
2840.626330	17353.947667	388.869141	77.318459
2840.626330	17353.947667	387.590820	263.083099
2840.626330	17353.947667	386.313477	-64.918648
2840.626330	17353.947667	385.035156	-82.252815
2840.626330	17353.947667	383.756836	9.437315
2840.626330	17353.947667	382.478516	189.700989
2840.626330	17353.947667	381.199219	118.798241
2840.626330	17353.947667	379.919922	229.945740
2840.626330	17353.947667	378.640625	53.410221
2840.626330	17353.947667	377.360352	91.299522
2840.626330	17353.947667	376.080078	-75.118156
2840.626330	17353.947667	374.799805	118.986847
2840.626330	17353.947667	373.519531	204.167618
2840.626330	17353.947667	372.238281	3.762032
2840.626330	17353.947667	370.957031	126.970398
2840.626330	17353.947667	369.675781	-17.109055
2840.626330	17353.947667	368.394531	9.962457
2840.626330	17353.947667	367.112305	155.238144
2840.626330	17353.947667	365.830078	55.540154
2840.626330	17353.947667	364.546875	-92.352913
2840.626330	17353.947667	363.264648	-6.583150
2840.626330	17353.947667	361.981445	51.081123
2840.626330	17353.947667	360.698242	-243.622894
2840.626330	17353.947667	359.414063	63.752247
2840.626330	17353.947667	358.129883	-115.023483
2840.626330	17353.947667	356.845703	-12.119596
2840.626330	17353.947667	355.561523	90.761665
2840.626330	17353.947667	354.276367	108.485458
2840.626330	17353.947667	352.991211	-35.833050
2840.626330	17353.947667	351.706055	-89.221123
2840.626330	17353.947667	350.420898	14.948641
2840.626330	17353.947667	349.134766	-79.534386
2840.626330	17353.947667	347.848633	294.751526
2840.626330	17353.947667	346.561523	108.301445
2840.626330	17353.947667	345.275391	-48.273052
2840.626330	17353.947667	343.988281	-7.453473
2840.626330	17353.947667	342.700195	-129.091797
2840.626330	17353.947667	341.413086	-59.554100
2840.626330	17353.947667	340.125000	85.710938
2840.626330	17353.947667	338.836914	-68.928719
2840.626330	17353.947667	337.548828	9.560376
2840.626330	17353.947667	336.259766	30.232788
2840.626330	17353.947667	334.970703	-95.683289
2840.626330	17353.947667	333.681641	-116.019722
2840.626330	17353.947667	332.391602	71.832603
2840.626330	17353.947667	331.101563	96.685112
2840.626330	17353.947667	329.811523	87.562965
2840.626330	17353.947667	328.521484	179.426788
2840.626330	17353.947667	327.230469	17.348227
2840.626330	17353.947667	325.939453	52.756195
2840.626330	17353.947667	324.648438	142.399582
2840.626330	17353.947667	323.356445	-187.220825
2840.626330	17353.947667	322.064453	-100.304901
2840.626330	17353.947667	320.772461	-102.489609
2840.626330	17353.947667	319.480469	-161.640762
2840.626330	17353.947667	318.187500	146.582428
2840.626330	17353.947667	316.894531	-302.574890
2840.626330	17353.947667	315.601563	-342.263306
2840.626330	17353.947667	314.307617	-65.504601
2840.626330	17353.947667	313.013672	51.035431
2840.626330	17353.947667	311.719727	29.434820
2840.626330	17353.947667	310.425781	-122.322754
2840.626330	17353.947667	309.130859	-97.063522
2840.626330	17353.947667	307.835938	28.760927
2840.626330	17353.947667	306.541016	-62.346611
2840.626330	17353.947667	305.245117	-25.234297
2840.626330	17353.947667	303.949219	11.545280
2840.626330	17353.947667	302.653320	-34.447258
2840.626330	17353.947667	301.356445	133.449753
2840.626330	17353.947667	300.060547	503.234619
2840.626330	17353.947667	298.763672	625.034790
