#X		#Y		#Wave		#Intensity
2763.261915	17364.720333	2000.043945	52.323627
2763.261915	17364.720333	1999.080078	154.157913
2763.261915	17364.720333	1998.116211	-45.397125
2763.261915	17364.720333	1997.151367	0.524470
2763.261915	17364.720333	1996.186523	-84.823105
2763.261915	17364.720333	1995.222656	-36.301121
2763.261915	17364.720333	1994.256836	59.320721
2763.261915	17364.720333	1993.291992	-1.037446
2763.261915	17364.720333	1992.327148	-6.843396
2763.261915	17364.720333	1991.361328	51.770332
2763.261915	17364.720333	1990.395508	117.845276
2763.261915	17364.720333	1989.429688	-157.527145
2763.261915	17364.720333	1988.463867	-46.794044
2763.261915	17364.720333	1987.497070	190.101791
2763.261915	17364.720333	1986.531250	80.730095
2763.261915	17364.720333	1985.564453	11.010880
2763.261915	17364.720333	1984.597656	92.171013
2763.261915	17364.720333	1983.630859	20.103317
2763.261915	17364.720333	1982.664063	98.857857
2763.261915	17364.720333	1981.696289	128.211990
2763.261915	17364.720333	1980.728516	16.790901
2763.261915	17364.720333	1979.761719	21.542311
2763.261915	17364.720333	1978.792969	11.516371
2763.261915	17364.720333	1977.825195	147.206589
2763.261915	17364.720333	1976.857422	226.113190
2763.261915	17364.720333	1975.888672	63.158417
2763.261915	17364.720333	1974.919922	134.726074
2763.261915	17364.720333	1973.951172	-30.539883
2763.261915	17364.720333	1972.982422	-60.040371
2763.261915	17364.720333	1972.013672	142.332474
2763.261915	17364.720333	1971.043945	19.182362
2763.261915	17364.720333	1970.075195	-165.519409
2763.261915	17364.720333	1969.105469	-49.407631
2763.261915	17364.720333	1968.135742	34.655689
2763.261915	17364.720333	1967.165039	10.305701
2763.261915	17364.720333	1966.195313	99.316727
2763.261915	17364.720333	1965.224609	35.615318
2763.261915	17364.720333	1964.253906	45.844288
2763.261915	17364.720333	1963.283203	-59.622238
2763.261915	17364.720333	1962.312500	41.756866
2763.261915	17364.720333	1961.341797	-21.775599
2763.261915	17364.720333	1960.370117	138.666779
2763.261915	17364.720333	1959.399414	30.905397
2763.261915	17364.720333	1958.427734	19.140223
2763.261915	17364.720333	1957.455078	91.020920
2763.261915	17364.720333	1956.483398	12.903930
2763.261915	17364.720333	1955.511719	-222.502945
2763.261915	17364.720333	1954.539063	-30.111404
2763.261915	17364.720333	1953.566406	211.379410
2763.261915	17364.720333	1952.593750	52.296406
2763.261915	17364.720333	1951.621094	134.040222
2763.261915	17364.720333	1950.647461	2.085000
2763.261915	17364.720333	1949.674805	-9.474255
2763.261915	17364.720333	1948.701172	-141.319839
2763.261915	17364.720333	1947.727539	-74.261765
2763.261915	17364.720333	1946.753906	54.144108
2763.261915	17364.720333	1945.780273	-23.608242
2763.261915	17364.720333	1944.805664	6.632737
2763.261915	17364.720333	1943.831055	-83.319466
2763.261915	17364.720333	1942.856445	197.103378
2763.261915	17364.720333	1941.881836	80.200920
2763.261915	17364.720333	1940.907227	196.255768
2763.261915	17364.720333	1939.932617	37.750710
2763.261915	17364.720333	1938.957031	58.214397
2763.261915	17364.720333	1937.981445	-70.782875
2763.261915	17364.720333	1937.005859	86.899445
2763.261915	17364.720333	1936.030273	80.428253
2763.261915	17364.720333	1935.054688	47.030060
2763.261915	17364.720333	1934.078125	-27.971001
2763.261915	17364.720333	1933.101563	-76.010002
2763.261915	17364.720333	1932.125000	-97.101631
2763.261915	17364.720333	1931.148438	9.065589
2763.261915	17364.720333	1930.171875	17.336370
2763.261915	17364.720333	1929.194336	76.976814
2763.261915	17364.720333	1928.217773	82.795486
2763.261915	17364.720333	1927.240234	-1.856507
2763.261915	17364.720333	1926.262695	8.871403
2763.261915	17364.720333	1925.284180	4.932871
2763.261915	17364.720333	1924.306641	-30.771742
2763.261915	17364.720333	1923.328125	31.274736
2763.261915	17364.720333	1922.350586	24.897472
2763.261915	17364.720333	1921.372070	-40.095810
2763.261915	17364.720333	1920.392578	17.037617
2763.261915	17364.720333	1919.414063	159.603882
2763.261915	17364.720333	1918.434570	26.272562
2763.261915	17364.720333	1917.456055	68.716492
2763.261915	17364.720333	1916.476563	15.976844
2763.261915	17364.720333	1915.497070	60.844666
2763.261915	17364.720333	1914.516602	-1.634018
2763.261915	17364.720333	1913.537109	148.086716
2763.261915	17364.720333	1912.556641	-26.555483
2763.261915	17364.720333	1911.576172	-91.428696
2763.261915	17364.720333	1910.595703	126.464745
2763.261915	17364.720333	1909.615234	-50.522030
2763.261915	17364.720333	1908.633789	30.827925
2763.261915	17364.720333	1907.653320	-55.948196
2763.261915	17364.720333	1906.671875	27.798693
2763.261915	17364.720333	1905.690430	62.805527
2763.261915	17364.720333	1904.708984	139.184753
2763.261915	17364.720333	1903.727539	-8.425289
2763.261915	17364.720333	1902.745117	240.727478
2763.261915	17364.720333	1901.762695	-55.293789
2763.261915	17364.720333	1900.780273	-0.871254
2763.261915	17364.720333	1899.797852	-26.747917
2763.261915	17364.720333	1898.815430	-33.166279
2763.261915	17364.720333	1897.832031	-119.831291
2763.261915	17364.720333	1896.849609	-75.192879
2763.261915	17364.720333	1895.866211	-166.695297
2763.261915	17364.720333	1894.882813	215.713928
2763.261915	17364.720333	1893.898438	104.735619
2763.261915	17364.720333	1892.915039	-57.225594
2763.261915	17364.720333	1891.930664	145.187744
2763.261915	17364.720333	1890.947266	-11.882854
2763.261915	17364.720333	1889.962891	-74.216682
2763.261915	17364.720333	1888.977539	140.192795
2763.261915	17364.720333	1887.993164	0.168789
2763.261915	17364.720333	1887.007813	32.471031
2763.261915	17364.720333	1886.023438	-54.128971
2763.261915	17364.720333	1885.038086	77.599663
2763.261915	17364.720333	1884.051758	-52.652924
2763.261915	17364.720333	1883.066406	62.029385
2763.261915	17364.720333	1882.081055	154.837585
2763.261915	17364.720333	1881.094727	97.321007
2763.261915	17364.720333	1880.108398	-91.048698
2763.261915	17364.720333	1879.122070	4.120312
2763.261915	17364.720333	1878.135742	60.480644
2763.261915	17364.720333	1877.148438	148.293030
2763.261915	17364.720333	1876.162109	-71.479332
2763.261915	17364.720333	1875.174805	-27.283518
2763.261915	17364.720333	1874.187500	4.778481
2763.261915	17364.720333	1873.199219	87.637276
2763.261915	17364.720333	1872.211914	42.204910
2763.261915	17364.720333	1871.223633	16.128464
2763.261915	17364.720333	1870.236328	4.559785
2763.261915	17364.720333	1869.248047	-4.601653
2763.261915	17364.720333	1868.258789	46.672714
2763.261915	17364.720333	1867.270508	-56.806477
2763.261915	17364.720333	1866.282227	151.532959
2763.261915	17364.720333	1865.292969	-26.872602
2763.261915	17364.720333	1864.303711	-2.274401
2763.261915	17364.720333	1863.314453	140.665268
2763.261915	17364.720333	1862.324219	-44.933659
2763.261915	17364.720333	1861.334961	-177.355560
2763.261915	17364.720333	1860.344727	105.514618
2763.261915	17364.720333	1859.354492	195.153748
2763.261915	17364.720333	1858.364258	159.244751
2763.261915	17364.720333	1857.374023	166.765015
2763.261915	17364.720333	1856.383789	-47.685043
2763.261915	17364.720333	1855.392578	92.496346
2763.261915	17364.720333	1854.401367	54.149441
2763.261915	17364.720333	1853.410156	-10.723480
2763.261915	17364.720333	1852.418945	151.012695
2763.261915	17364.720333	1851.426758	141.543152
2763.261915	17364.720333	1850.435547	151.336380
2763.261915	17364.720333	1849.443359	31.003645
2763.261915	17364.720333	1848.451172	79.317459
2763.261915	17364.720333	1847.458984	-103.614418
2763.261915	17364.720333	1846.466797	19.314333
2763.261915	17364.720333	1845.473633	-86.536873
2763.261915	17364.720333	1844.480469	-59.980400
2763.261915	17364.720333	1843.487305	29.117891
2763.261915	17364.720333	1842.494141	26.729065
2763.261915	17364.720333	1841.500977	36.349087
2763.261915	17364.720333	1840.506836	223.932526
2763.261915	17364.720333	1839.513672	26.658716
2763.261915	17364.720333	1838.519531	-62.366802
2763.261915	17364.720333	1837.525391	26.508097
2763.261915	17364.720333	1836.530273	187.429794
2763.261915	17364.720333	1835.536133	81.540222
2763.261915	17364.720333	1834.541016	-108.419518
2763.261915	17364.720333	1833.545898	-132.586258
2763.261915	17364.720333	1832.550781	40.167820
2763.261915	17364.720333	1831.555664	85.573082
2763.261915	17364.720333	1830.560547	56.517120
2763.261915	17364.720333	1829.564453	20.248735
2763.261915	17364.720333	1828.568359	27.168306
2763.261915	17364.720333	1827.572266	46.060894
2763.261915	17364.720333	1826.576172	55.327770
2763.261915	17364.720333	1825.580078	50.178810
2763.261915	17364.720333	1824.583008	152.917404
2763.261915	17364.720333	1823.585938	30.226274
2763.261915	17364.720333	1822.588867	-87.648087
2763.261915	17364.720333	1821.591797	113.253723
2763.261915	17364.720333	1820.594727	91.211395
2763.261915	17364.720333	1819.596680	119.463303
2763.261915	17364.720333	1818.599609	73.428947
2763.261915	17364.720333	1817.601563	75.284340
2763.261915	17364.720333	1816.603516	62.749462
2763.261915	17364.720333	1815.604492	287.194916
2763.261915	17364.720333	1814.606445	97.460335
2763.261915	17364.720333	1813.607422	58.534039
2763.261915	17364.720333	1812.608398	98.554085
2763.261915	17364.720333	1811.609375	-60.010834
2763.261915	17364.720333	1810.610352	-10.464002
2763.261915	17364.720333	1809.610352	62.951302
2763.261915	17364.720333	1808.611328	260.636993
2763.261915	17364.720333	1807.611328	97.283760
2763.261915	17364.720333	1806.611328	58.241745
2763.261915	17364.720333	1805.610352	16.799314
2763.261915	17364.720333	1804.610352	20.740889
2763.261915	17364.720333	1803.609375	3.158866
2763.261915	17364.720333	1802.608398	128.841934
2763.261915	17364.720333	1801.607422	-46.384251
2763.261915	17364.720333	1800.606445	45.792278
2763.261915	17364.720333	1799.605469	-29.158787
2763.261915	17364.720333	1798.603516	136.903336
2763.261915	17364.720333	1797.601563	-107.479637
2763.261915	17364.720333	1796.599609	63.256752
2763.261915	17364.720333	1795.597656	210.055328
2763.261915	17364.720333	1794.595703	127.865791
2763.261915	17364.720333	1793.592773	12.305355
2763.261915	17364.720333	1792.589844	156.571167
2763.261915	17364.720333	1791.587891	29.086054
2763.261915	17364.720333	1790.583984	123.207458
2763.261915	17364.720333	1789.581055	138.657013
2763.261915	17364.720333	1788.577148	137.402435
2763.261915	17364.720333	1787.574219	81.355927
2763.261915	17364.720333	1786.570313	61.016357
2763.261915	17364.720333	1785.566406	-59.315918
2763.261915	17364.720333	1784.561523	-29.694269
2763.261915	17364.720333	1783.557617	28.447487
2763.261915	17364.720333	1782.552734	-87.129234
2763.261915	17364.720333	1781.547852	-19.536098
2763.261915	17364.720333	1780.542969	40.871918
2763.261915	17364.720333	1779.538086	70.322861
2763.261915	17364.720333	1778.532227	-140.364700
2763.261915	17364.720333	1777.527344	86.331772
2763.261915	17364.720333	1776.521484	134.690506
2763.261915	17364.720333	1775.515625	85.595123
2763.261915	17364.720333	1774.508789	38.867519
2763.261915	17364.720333	1773.502930	-43.490574
2763.261915	17364.720333	1772.496094	-87.851479
2763.261915	17364.720333	1771.489258	-141.716751
2763.261915	17364.720333	1770.482422	67.885323
2763.261915	17364.720333	1769.475586	116.006538
2763.261915	17364.720333	1768.467773	-89.797440
2763.261915	17364.720333	1767.460938	145.696121
2763.261915	17364.720333	1766.453125	3.953975
2763.261915	17364.720333	1765.445313	-31.047728
2763.261915	17364.720333	1764.437500	-66.060898
2763.261915	17364.720333	1763.428711	-219.611511
2763.261915	17364.720333	1762.420898	-27.103552
2763.261915	17364.720333	1761.412109	-45.587078
2763.261915	17364.720333	1760.403320	-49.872929
2763.261915	17364.720333	1759.393555	68.985504
2763.261915	17364.720333	1758.384766	90.680107
2763.261915	17364.720333	1757.375000	173.900894
2763.261915	17364.720333	1756.366211	13.236356
2763.261915	17364.720333	1755.356445	-29.052299
2763.261915	17364.720333	1754.345703	-97.382057
2763.261915	17364.720333	1753.335938	-78.166267
2763.261915	17364.720333	1752.325195	-6.944605
2763.261915	17364.720333	1751.315430	52.403851
2763.261915	17364.720333	1750.304688	-39.631363
2763.261915	17364.720333	1749.292969	59.837467
2763.261915	17364.720333	1748.282227	-3.848878
2763.261915	17364.720333	1747.270508	3.360544
2763.261915	17364.720333	1746.259766	-140.672882
2763.261915	17364.720333	1745.248047	-50.805534
2763.261915	17364.720333	1744.235352	-29.494404
2763.261915	17364.720333	1743.223633	95.692329
2763.261915	17364.720333	1742.211914	15.400241
2763.261915	17364.720333	1741.199219	-20.037691
2763.261915	17364.720333	1740.186523	74.321098
2763.261915	17364.720333	1739.173828	76.593895
2763.261915	17364.720333	1738.160156	-20.247694
2763.261915	17364.720333	1737.147461	135.314362
2763.261915	17364.720333	1736.133789	-29.937016
2763.261915	17364.720333	1735.120117	-39.531799
2763.261915	17364.720333	1734.106445	-4.353668
2763.261915	17364.720333	1733.091797	-58.779739
2763.261915	17364.720333	1732.078125	32.898659
2763.261915	17364.720333	1731.063477	155.144928
2763.261915	17364.720333	1730.048828	124.208504
2763.261915	17364.720333	1729.034180	-142.254242
2763.261915	17364.720333	1728.019531	-104.880875
2763.261915	17364.720333	1727.003906	94.896698
2763.261915	17364.720333	1725.988281	-100.862450
2763.261915	17364.720333	1724.972656	308.241241
2763.261915	17364.720333	1723.957031	183.059494
2763.261915	17364.720333	1722.941406	-92.653679
2763.261915	17364.720333	1721.924805	-90.749207
2763.261915	17364.720333	1720.909180	-6.559951
2763.261915	17364.720333	1719.892578	-63.493027
2763.261915	17364.720333	1718.875977	39.418026
2763.261915	17364.720333	1717.858398	-62.201225
2763.261915	17364.720333	1716.841797	99.372169
2763.261915	17364.720333	1715.824219	-124.424316
2763.261915	17364.720333	1714.806641	44.101460
2763.261915	17364.720333	1713.789063	-45.781792
2763.261915	17364.720333	1712.770508	40.442032
2763.261915	17364.720333	1711.752930	32.715813
2763.261915	17364.720333	1710.734375	88.340134
2763.261915	17364.720333	1709.715820	-57.884377
2763.261915	17364.720333	1708.697266	4.734850
2763.261915	17364.720333	1707.678711	-7.752213
2763.261915	17364.720333	1706.659180	-198.496536
2763.261915	17364.720333	1705.640625	9.433237
2763.261915	17364.720333	1704.621094	48.467407
2763.261915	17364.720333	1703.600586	-41.450535
2763.261915	17364.720333	1702.581055	142.835495
2763.261915	17364.720333	1701.561523	85.701843
2763.261915	17364.720333	1700.541016	173.807022
2763.261915	17364.720333	1699.520508	86.202835
2763.261915	17364.720333	1698.500000	125.064278
2763.261915	17364.720333	1697.478516	-9.361300
2763.261915	17364.720333	1696.458008	139.482773
2763.261915	17364.720333	1695.436523	117.406395
2763.261915	17364.720333	1694.415039	221.673370
2763.261915	17364.720333	1693.393555	89.604233
2763.261915	17364.720333	1692.372070	97.905228
2763.261915	17364.720333	1691.349609	101.506248
2763.261915	17364.720333	1690.327148	88.722916
2763.261915	17364.720333	1689.304688	12.813265
2763.261915	17364.720333	1688.282227	210.363449
2763.261915	17364.720333	1687.259766	279.303345
2763.261915	17364.720333	1686.236328	67.846039
2763.261915	17364.720333	1685.213867	143.763351
2763.261915	17364.720333	1684.190430	285.022125
2763.261915	17364.720333	1683.166016	260.429199
2763.261915	17364.720333	1682.142578	203.153015
2763.261915	17364.720333	1681.119141	157.554016
2763.261915	17364.720333	1680.094727	354.644012
2763.261915	17364.720333	1679.070313	348.663635
2763.261915	17364.720333	1678.045898	456.972443
2763.261915	17364.720333	1677.020508	271.363495
2763.261915	17364.720333	1675.996094	235.049271
2763.261915	17364.720333	1674.970703	305.972046
2763.261915	17364.720333	1673.945313	346.554138
2763.261915	17364.720333	1672.919922	319.525269
2763.261915	17364.720333	1671.893555	278.510437
2763.261915	17364.720333	1670.868164	183.924423
2763.261915	17364.720333	1669.841797	343.226990
2763.261915	17364.720333	1668.815430	372.054321
2763.261915	17364.720333	1667.789063	333.342255
2763.261915	17364.720333	1666.761719	273.679626
2763.261915	17364.720333	1665.735352	411.851440
2763.261915	17364.720333	1664.708008	226.527298
2763.261915	17364.720333	1663.680664	266.922577
2763.261915	17364.720333	1662.653320	453.824677
2763.261915	17364.720333	1661.625000	301.121216
2763.261915	17364.720333	1660.597656	406.549438
2763.261915	17364.720333	1659.569336	395.693939
2763.261915	17364.720333	1658.541016	628.866821
2763.261915	17364.720333	1657.512695	464.592773
2763.261915	17364.720333	1656.483398	328.247681
2763.261915	17364.720333	1655.455078	335.963409
2763.261915	17364.720333	1654.425781	652.533447
2763.261915	17364.720333	1653.396484	437.263153
2763.261915	17364.720333	1652.366211	340.458069
2763.261915	17364.720333	1651.336914	343.488342
2763.261915	17364.720333	1650.306641	439.328156
2763.261915	17364.720333	1649.276367	437.680298
2763.261915	17364.720333	1648.246094	364.118317
2763.261915	17364.720333	1647.215820	494.666901
2763.261915	17364.720333	1646.185547	460.529449
2763.261915	17364.720333	1645.154297	403.212738
2763.261915	17364.720333	1644.123047	399.222321
2763.261915	17364.720333	1643.091797	423.037964
2763.261915	17364.720333	1642.060547	409.767426
2763.261915	17364.720333	1641.028320	359.431061
2763.261915	17364.720333	1639.997070	452.708710
2763.261915	17364.720333	1638.964844	439.424072
2763.261915	17364.720333	1637.931641	389.095062
2763.261915	17364.720333	1636.899414	493.871216
2763.261915	17364.720333	1635.867188	517.605896
2763.261915	17364.720333	1634.833984	409.437775
2763.261915	17364.720333	1633.800781	484.063782
2763.261915	17364.720333	1632.767578	614.167847
2763.261915	17364.720333	1631.734375	603.161377
2763.261915	17364.720333	1630.700195	790.984802
2763.261915	17364.720333	1629.666016	601.952209
2763.261915	17364.720333	1628.631836	644.102051
2763.261915	17364.720333	1627.597656	600.741272
2763.261915	17364.720333	1626.563477	608.220764
2763.261915	17364.720333	1625.528320	650.341309
2763.261915	17364.720333	1624.493164	486.916992
2763.261915	17364.720333	1623.458008	676.812439
2763.261915	17364.720333	1622.422852	753.523071
2763.261915	17364.720333	1621.387695	624.797302
2763.261915	17364.720333	1620.351563	678.412354
2763.261915	17364.720333	1619.315430	651.261597
2763.261915	17364.720333	1618.279297	559.538635
2763.261915	17364.720333	1617.243164	587.775024
2763.261915	17364.720333	1616.207031	537.608887
2763.261915	17364.720333	1615.169922	515.125122
2763.261915	17364.720333	1614.132813	642.466980
2763.261915	17364.720333	1613.095703	488.629883
2763.261915	17364.720333	1612.058594	433.926697
2763.261915	17364.720333	1611.020508	577.343750
2763.261915	17364.720333	1609.983398	455.866394
2763.261915	17364.720333	1608.945313	718.967957
2763.261915	17364.720333	1607.907227	468.599243
2763.261915	17364.720333	1606.868164	328.809204
2763.261915	17364.720333	1605.830078	506.655365
2763.261915	17364.720333	1604.791016	583.199951
2763.261915	17364.720333	1603.751953	408.985657
2763.261915	17364.720333	1602.712891	469.434631
2763.261915	17364.720333	1601.673828	644.840149
2763.261915	17364.720333	1600.633789	466.137970
2763.261915	17364.720333	1599.594727	531.162781
2763.261915	17364.720333	1598.554688	552.502380
2763.261915	17364.720333	1597.513672	580.732361
2763.261915	17364.720333	1596.473633	680.178711
2763.261915	17364.720333	1595.433594	756.627563
2763.261915	17364.720333	1594.392578	603.423889
2763.261915	17364.720333	1593.351563	709.721497
2763.261915	17364.720333	1592.310547	894.031555
2763.261915	17364.720333	1591.268555	949.760437
2763.261915	17364.720333	1590.227539	881.579651
2763.261915	17364.720333	1589.185547	1017.604614
2763.261915	17364.720333	1588.143555	1068.724365
2763.261915	17364.720333	1587.100586	1067.091553
2763.261915	17364.720333	1586.058594	1232.843384
2763.261915	17364.720333	1585.015625	1029.485962
2763.261915	17364.720333	1583.972656	1199.787109
2763.261915	17364.720333	1582.929688	1326.499390
2763.261915	17364.720333	1581.886719	1295.104492
2763.261915	17364.720333	1580.843750	1144.631836
2763.261915	17364.720333	1579.799805	1417.881958
2763.261915	17364.720333	1578.755859	1221.680054
2763.261915	17364.720333	1577.711914	1176.652710
2763.261915	17364.720333	1576.666992	1307.882202
2763.261915	17364.720333	1575.623047	1159.918457
2763.261915	17364.720333	1574.578125	1199.622559
2763.261915	17364.720333	1573.533203	1150.122681
2763.261915	17364.720333	1572.488281	1148.683594
2763.261915	17364.720333	1571.443359	1122.113525
2763.261915	17364.720333	1570.397461	1024.702759
2763.261915	17364.720333	1569.351563	929.633301
2763.261915	17364.720333	1568.305664	1136.252075
2763.261915	17364.720333	1567.259766	1171.460938
2763.261915	17364.720333	1566.213867	998.815674
2763.261915	17364.720333	1565.166992	1024.939087
2763.261915	17364.720333	1564.120117	1099.021729
2763.261915	17364.720333	1563.073242	953.943726
2763.261915	17364.720333	1562.026367	1085.112671
2763.261915	17364.720333	1560.978516	1031.410156
2763.261915	17364.720333	1559.930664	952.655457
2763.261915	17364.720333	1558.883789	942.387573
2763.261915	17364.720333	1557.834961	952.664795
2763.261915	17364.720333	1556.787109	962.964600
2763.261915	17364.720333	1555.739258	955.045593
2763.261915	17364.720333	1554.690430	999.572754
2763.261915	17364.720333	1553.641602	923.329956
2763.261915	17364.720333	1552.592773	906.378174
2763.261915	17364.720333	1551.542969	960.068909
2763.261915	17364.720333	1550.494141	931.779236
2763.261915	17364.720333	1549.444336	780.563416
2763.261915	17364.720333	1548.394531	684.069641
2763.261915	17364.720333	1547.344727	676.409485
2763.261915	17364.720333	1546.293945	702.909241
2763.261915	17364.720333	1545.244141	602.017029
2763.261915	17364.720333	1544.193359	544.408447
2763.261915	17364.720333	1543.142578	582.371155
2763.261915	17364.720333	1542.090820	668.095825
2763.261915	17364.720333	1541.040039	469.638641
2763.261915	17364.720333	1539.988281	387.206726
2763.261915	17364.720333	1538.936523	345.740997
2763.261915	17364.720333	1537.884766	540.617737
2763.261915	17364.720333	1536.833008	494.653595
2763.261915	17364.720333	1535.780273	371.514008
2763.261915	17364.720333	1534.727539	439.195343
2763.261915	17364.720333	1533.674805	413.797577
2763.261915	17364.720333	1532.622070	374.821930
2763.261915	17364.720333	1531.569336	372.202332
2763.261915	17364.720333	1530.515625	417.260559
2763.261915	17364.720333	1529.461914	471.406891
2763.261915	17364.720333	1528.408203	416.696350
2763.261915	17364.720333	1527.354492	225.983704
2763.261915	17364.720333	1526.299805	386.785187
2763.261915	17364.720333	1525.246094	318.621979
2763.261915	17364.720333	1524.191406	227.852432
2763.261915	17364.720333	1523.136719	329.747040
2763.261915	17364.720333	1522.081055	334.221588
2763.261915	17364.720333	1521.026367	413.473694
2763.261915	17364.720333	1519.970703	252.692123
2763.261915	17364.720333	1518.915039	175.778015
2763.261915	17364.720333	1517.859375	250.588135
2763.261915	17364.720333	1516.802734	298.244446
2763.261915	17364.720333	1515.747070	124.177650
2763.261915	17364.720333	1514.690430	257.876617
2763.261915	17364.720333	1513.633789	197.045090
2763.261915	17364.720333	1512.577148	235.773178
2763.261915	17364.720333	1511.519531	179.562927
2763.261915	17364.720333	1510.461914	114.370872
2763.261915	17364.720333	1509.405273	139.642731
2763.261915	17364.720333	1508.346680	244.022949
2763.261915	17364.720333	1507.289063	124.751373
2763.261915	17364.720333	1506.231445	93.652359
2763.261915	17364.720333	1505.172852	146.155884
2763.261915	17364.720333	1504.114258	92.562042
2763.261915	17364.720333	1503.055664	84.175766
2763.261915	17364.720333	1501.996094	12.638068
2763.261915	17364.720333	1500.937500	241.271210
2763.261915	17364.720333	1499.877930	-123.464294
2763.261915	17364.720333	1498.818359	-27.890604
2763.261915	17364.720333	1497.757813	182.692032
2763.261915	17364.720333	1496.698242	-17.107346
2763.261915	17364.720333	1495.637695	170.929901
2763.261915	17364.720333	1494.577148	59.188488
2763.261915	17364.720333	1493.516602	28.650059
2763.261915	17364.720333	1492.456055	77.015045
2763.261915	17364.720333	1491.394531	174.953140
2763.261915	17364.720333	1490.333008	11.671143
2763.261915	17364.720333	1489.271484	-86.210617
2763.261915	17364.720333	1488.209961	227.928192
2763.261915	17364.720333	1487.148438	49.107296
2763.261915	17364.720333	1486.085938	129.165543
2763.261915	17364.720333	1485.023438	24.759718
2763.261915	17364.720333	1483.960938	100.379257
2763.261915	17364.720333	1482.898438	61.326134
2763.261915	17364.720333	1481.834961	312.368042
2763.261915	17364.720333	1480.772461	71.079575
2763.261915	17364.720333	1479.708984	173.785049
2763.261915	17364.720333	1478.644531	15.869529
2763.261915	17364.720333	1477.581055	75.957169
2763.261915	17364.720333	1476.517578	127.063782
2763.261915	17364.720333	1475.453125	303.905548
2763.261915	17364.720333	1474.388672	112.611465
2763.261915	17364.720333	1473.323242	291.745453
2763.261915	17364.720333	1472.258789	177.009293
2763.261915	17364.720333	1471.193359	416.577606
2763.261915	17364.720333	1470.127930	409.544983
2763.261915	17364.720333	1469.062500	467.495605
2763.261915	17364.720333	1467.997070	254.334869
2763.261915	17364.720333	1466.930664	249.690430
2763.261915	17364.720333	1465.865234	204.931549
2763.261915	17364.720333	1464.798828	422.279175
2763.261915	17364.720333	1463.731445	348.119354
2763.261915	17364.720333	1462.665039	482.439240
2763.261915	17364.720333	1461.597656	390.799866
2763.261915	17364.720333	1460.530273	426.568909
2763.261915	17364.720333	1459.462891	589.824585
2763.261915	17364.720333	1458.395508	400.237030
2763.261915	17364.720333	1457.327148	538.267151
2763.261915	17364.720333	1456.259766	679.699524
2763.261915	17364.720333	1455.191406	463.188354
2763.261915	17364.720333	1454.123047	520.862854
2763.261915	17364.720333	1453.053711	643.173340
2763.261915	17364.720333	1451.985352	421.182343
2763.261915	17364.720333	1450.916016	478.268097
2763.261915	17364.720333	1449.846680	279.804626
2763.261915	17364.720333	1448.776367	409.244537
2763.261915	17364.720333	1447.707031	424.279663
2763.261915	17364.720333	1446.636719	208.184265
2763.261915	17364.720333	1445.566406	280.265686
2763.261915	17364.720333	1444.496094	244.070923
2763.261915	17364.720333	1443.425781	99.832474
2763.261915	17364.720333	1442.354492	496.574432
2763.261915	17364.720333	1441.283203	272.325714
2763.261915	17364.720333	1440.211914	179.233780
2763.261915	17364.720333	1439.140625	130.602478
2763.261915	17364.720333	1438.069336	-5.271296
2763.261915	17364.720333	1436.997070	7.350688
2763.261915	17364.720333	1435.924805	62.300743
2763.261915	17364.720333	1434.852539	125.281075
2763.261915	17364.720333	1433.780273	137.328842
2763.261915	17364.720333	1432.707031	139.401184
2763.261915	17364.720333	1431.633789	-9.533073
2763.261915	17364.720333	1430.560547	13.756587
2763.261915	17364.720333	1429.487305	-26.855776
2763.261915	17364.720333	1428.413086	59.670151
2763.261915	17364.720333	1427.339844	-82.527359
2763.261915	17364.720333	1426.265625	-169.833496
2763.261915	17364.720333	1425.191406	-144.590286
2763.261915	17364.720333	1424.116211	-0.808972
2763.261915	17364.720333	1423.041992	-49.070446
2763.261915	17364.720333	1421.966797	-77.402107
2763.261915	17364.720333	1420.891602	3.149729
2763.261915	17364.720333	1419.816406	-153.360245
2763.261915	17364.720333	1418.740234	235.054962
2763.261915	17364.720333	1417.665039	-128.039520
2763.261915	17364.720333	1416.588867	-39.045647
2763.261915	17364.720333	1415.512695	-8.415262
2763.261915	17364.720333	1414.435547	8.591737
2763.261915	17364.720333	1413.359375	-20.357389
2763.261915	17364.720333	1412.282227	0.346525
2763.261915	17364.720333	1411.205078	-174.232956
2763.261915	17364.720333	1410.127930	-8.044083
2763.261915	17364.720333	1409.049805	120.562630
2763.261915	17364.720333	1407.972656	-12.131791
2763.261915	17364.720333	1406.894531	57.352398
2763.261915	17364.720333	1405.816406	51.598038
2763.261915	17364.720333	1404.737305	106.822197
2763.261915	17364.720333	1403.659180	-14.916183
2763.261915	17364.720333	1402.580078	158.549530
2763.261915	17364.720333	1401.500977	173.233627
2763.261915	17364.720333	1400.421875	-112.184288
2763.261915	17364.720333	1399.341797	166.073639
2763.261915	17364.720333	1398.262695	122.986740
2763.261915	17364.720333	1397.182617	-53.727104
2763.261915	17364.720333	1396.102539	147.671707
2763.261915	17364.720333	1395.021484	81.541267
2763.261915	17364.720333	1393.941406	-11.382634
2763.261915	17364.720333	1392.860352	-49.026302
2763.261915	17364.720333	1391.779297	-140.564392
2763.261915	17364.720333	1390.698242	-149.276276
2763.261915	17364.720333	1389.616211	84.707054
2763.261915	17364.720333	1388.535156	-58.881996
2763.261915	17364.720333	1387.453125	-99.295464
2763.261915	17364.720333	1386.371094	-22.282467
2763.261915	17364.720333	1385.288086	18.881666
2763.261915	17364.720333	1384.206055	-112.566185
2763.261915	17364.720333	1383.123047	5.343992
2763.261915	17364.720333	1382.040039	-8.468183
2763.261915	17364.720333	1380.957031	83.982513
2763.261915	17364.720333	1379.873047	31.974688
2763.261915	17364.720333	1378.789063	1.333079
2763.261915	17364.720333	1377.705078	-21.293037
2763.261915	17364.720333	1376.621094	-115.088371
2763.261915	17364.720333	1375.537109	-55.741535
2763.261915	17364.720333	1374.452148	257.298737
2763.261915	17364.720333	1373.367188	-113.186043
2763.261915	17364.720333	1372.282227	-95.298538
2763.261915	17364.720333	1371.197266	6.340950
2763.261915	17364.720333	1370.112305	-92.987450
2763.261915	17364.720333	1369.026367	56.675930
2763.261915	17364.720333	1367.940430	44.668049
2763.261915	17364.720333	1366.854492	95.451622
2763.261915	17364.720333	1365.767578	93.609497
2763.261915	17364.720333	1364.681641	-64.769623
2763.261915	17364.720333	1363.594727	104.705750
2763.261915	17364.720333	1362.507813	78.643822
2763.261915	17364.720333	1361.419922	-12.781590
2763.261915	17364.720333	1360.333008	-22.854210
2763.261915	17364.720333	1359.245117	174.721115
2763.261915	17364.720333	1358.157227	29.585577
2763.261915	17364.720333	1357.069336	110.217506
2763.261915	17364.720333	1355.981445	1.766108
2763.261915	17364.720333	1354.892578	156.032394
2763.261915	17364.720333	1353.803711	64.767754
2763.261915	17364.720333	1352.714844	124.465126
2763.261915	17364.720333	1351.625000	222.819199
2763.261915	17364.720333	1350.536133	83.574738
2763.261915	17364.720333	1349.446289	229.005173
2763.261915	17364.720333	1348.356445	123.418289
2763.261915	17364.720333	1347.266602	133.199600
2763.261915	17364.720333	1346.175781	350.323273
2763.261915	17364.720333	1345.085938	267.898895
2763.261915	17364.720333	1343.995117	161.002014
2763.261915	17364.720333	1342.903320	269.303436
2763.261915	17364.720333	1341.812500	177.841171
2763.261915	17364.720333	1340.720703	205.317001
2763.261915	17364.720333	1339.629883	172.675064
2763.261915	17364.720333	1338.538086	83.545982
2763.261915	17364.720333	1337.445313	226.711853
2763.261915	17364.720333	1336.353516	148.993484
2763.261915	17364.720333	1335.260742	100.705345
2763.261915	17364.720333	1334.167969	128.762100
2763.261915	17364.720333	1333.075195	299.352905
2763.261915	17364.720333	1331.981445	138.828415
2763.261915	17364.720333	1330.888672	250.016830
2763.261915	17364.720333	1329.794922	315.042572
2763.261915	17364.720333	1328.701172	221.540802
2763.261915	17364.720333	1327.606445	254.418884
2763.261915	17364.720333	1326.512695	179.380737
2763.261915	17364.720333	1325.417969	266.046173
2763.261915	17364.720333	1324.323242	259.324585
2763.261915	17364.720333	1323.227539	361.927216
2763.261915	17364.720333	1322.132813	373.616272
2763.261915	17364.720333	1321.037109	301.243256
2763.261915	17364.720333	1319.941406	285.127594
2763.261915	17364.720333	1318.845703	446.850983
2763.261915	17364.720333	1317.750000	328.948303
2763.261915	17364.720333	1316.653320	233.070404
2763.261915	17364.720333	1315.556641	270.161560
2763.261915	17364.720333	1314.459961	275.396240
2763.261915	17364.720333	1313.363281	259.134460
2763.261915	17364.720333	1312.265625	228.398376
2763.261915	17364.720333	1311.167969	194.545151
2763.261915	17364.720333	1310.070313	246.179916
2763.261915	17364.720333	1308.972656	325.351166
2763.261915	17364.720333	1307.874023	282.392639
2763.261915	17364.720333	1306.776367	343.296051
2763.261915	17364.720333	1305.677734	241.231186
2763.261915	17364.720333	1304.579102	282.348999
2763.261915	17364.720333	1303.479492	318.256775
2763.261915	17364.720333	1302.380859	130.356064
2763.261915	17364.720333	1301.281250	88.834534
2763.261915	17364.720333	1300.181641	192.027542
2763.261915	17364.720333	1299.081055	152.667496
2763.261915	17364.720333	1297.981445	188.852005
2763.261915	17364.720333	1296.880859	187.658585
2763.261915	17364.720333	1295.780273	69.777946
2763.261915	17364.720333	1294.679688	175.777100
2763.261915	17364.720333	1293.578125	95.604416
2763.261915	17364.720333	1292.476563	108.151672
2763.261915	17364.720333	1291.375000	157.549362
2763.261915	17364.720333	1290.273438	84.420151
2763.261915	17364.720333	1289.171875	-9.429676
2763.261915	17364.720333	1288.069336	122.452278
2763.261915	17364.720333	1286.966797	31.058224
2763.261915	17364.720333	1285.864258	-27.878817
2763.261915	17364.720333	1284.761719	51.176910
2763.261915	17364.720333	1283.658203	35.629082
2763.261915	17364.720333	1282.554688	231.616272
2763.261915	17364.720333	1281.451172	29.029715
2763.261915	17364.720333	1280.347656	1.995961
2763.261915	17364.720333	1279.244141	73.666977
2763.261915	17364.720333	1278.139648	62.085209
2763.261915	17364.720333	1277.035156	172.741669
2763.261915	17364.720333	1275.930664	89.510933
2763.261915	17364.720333	1274.825195	-48.939449
2763.261915	17364.720333	1273.720703	46.722279
2763.261915	17364.720333	1272.615234	11.274935
2763.261915	17364.720333	1271.508789	-11.024981
2763.261915	17364.720333	1270.403320	-55.149548
2763.261915	17364.720333	1269.297852	94.665474
2763.261915	17364.720333	1268.191406	220.564301
2763.261915	17364.720333	1267.084961	47.431232
2763.261915	17364.720333	1265.977539	62.333389
2763.261915	17364.720333	1264.871094	78.623665
2763.261915	17364.720333	1263.763672	-37.199078
2763.261915	17364.720333	1262.656250	59.811913
2763.261915	17364.720333	1261.548828	223.162079
2763.261915	17364.720333	1260.440430	11.021145
2763.261915	17364.720333	1259.333008	179.904907
2763.261915	17364.720333	1258.224609	45.239170
2763.261915	17364.720333	1257.115234	249.039200
2763.261915	17364.720333	1256.006836	177.974960
2763.261915	17364.720333	1254.897461	272.535858
2763.261915	17364.720333	1253.788086	139.078644
2763.261915	17364.720333	1252.678711	250.629242
2763.261915	17364.720333	1251.569336	307.576904
2763.261915	17364.720333	1250.458984	244.942078
2763.261915	17364.720333	1249.349609	385.198242
2763.261915	17364.720333	1248.239258	373.792999
2763.261915	17364.720333	1247.127930	322.394897
2763.261915	17364.720333	1246.017578	197.542801
2763.261915	17364.720333	1244.906250	341.227295
2763.261915	17364.720333	1243.794922	441.999359
2763.261915	17364.720333	1242.683594	492.860474
2763.261915	17364.720333	1241.571289	385.541199
2763.261915	17364.720333	1240.459961	408.368347
2763.261915	17364.720333	1239.347656	494.700775
2763.261915	17364.720333	1238.234375	561.117188
2763.261915	17364.720333	1237.122070	505.850647
2763.261915	17364.720333	1236.008789	518.344055
2763.261915	17364.720333	1234.896484	632.321533
2763.261915	17364.720333	1233.782227	637.461975
2763.261915	17364.720333	1232.668945	515.783997
2763.261915	17364.720333	1231.555664	519.685974
2763.261915	17364.720333	1230.441406	475.576385
2763.261915	17364.720333	1229.327148	463.950287
2763.261915	17364.720333	1228.211914	424.285400
2763.261915	17364.720333	1227.097656	344.294037
2763.261915	17364.720333	1225.982422	300.306976
2763.261915	17364.720333	1224.867188	249.850616
2763.261915	17364.720333	1223.751953	244.022156
2763.261915	17364.720333	1222.635742	127.629402
2763.261915	17364.720333	1221.520508	104.031097
2763.261915	17364.720333	1220.404297	-35.108398
2763.261915	17364.720333	1219.287109	-30.584902
2763.261915	17364.720333	1218.170898	5.823098
2763.261915	17364.720333	1217.053711	24.701855
2763.261915	17364.720333	1215.936523	78.190971
2763.261915	17364.720333	1214.819336	59.713856
2763.261915	17364.720333	1213.702148	187.565018
2763.261915	17364.720333	1212.583984	116.227089
2763.261915	17364.720333	1211.465820	-10.777526
2763.261915	17364.720333	1210.347656	100.364235
2763.261915	17364.720333	1209.229492	235.393173
2763.261915	17364.720333	1208.110352	199.595642
2763.261915	17364.720333	1206.992188	263.832275
2763.261915	17364.720333	1205.873047	349.612701
2763.261915	17364.720333	1204.752930	337.378906
2763.261915	17364.720333	1203.633789	346.826477
2763.261915	17364.720333	1202.513672	432.591064
2763.261915	17364.720333	1201.393555	363.483124
2763.261915	17364.720333	1200.273438	406.319641
2763.261915	17364.720333	1199.152344	389.118408
2763.261915	17364.720333	1198.032227	339.226410
2763.261915	17364.720333	1196.911133	266.421875
2763.261915	17364.720333	1195.790039	167.006439
2763.261915	17364.720333	1194.667969	119.948158
2763.261915	17364.720333	1193.545898	161.713272
2763.261915	17364.720333	1192.424805	118.239243
2763.261915	17364.720333	1191.301758	176.027527
2763.261915	17364.720333	1190.179688	99.474319
2763.261915	17364.720333	1189.056641	98.280640
2763.261915	17364.720333	1187.933594	32.274113
2763.261915	17364.720333	1186.810547	3.243894
2763.261915	17364.720333	1185.687500	-54.448586
2763.261915	17364.720333	1184.563477	-78.431068
2763.261915	17364.720333	1183.440430	-103.800301
2763.261915	17364.720333	1182.316406	-12.593121
2763.261915	17364.720333	1181.191406	-80.313362
2763.261915	17364.720333	1180.067383	68.402260
2763.261915	17364.720333	1178.942383	-43.901123
2763.261915	17364.720333	1177.817383	-109.608711
2763.261915	17364.720333	1176.692383	-141.795074
2763.261915	17364.720333	1175.566406	-84.213043
2763.261915	17364.720333	1174.440430	-153.809769
2763.261915	17364.720333	1173.314453	-100.772148
2763.261915	17364.720333	1172.188477	-105.136673
2763.261915	17364.720333	1171.062500	-90.533112
2763.261915	17364.720333	1169.935547	-38.549252
2763.261915	17364.720333	1168.808594	-106.230362
2763.261915	17364.720333	1167.681641	-49.233532
2763.261915	17364.720333	1166.553711	15.916883
2763.261915	17364.720333	1165.426758	-72.039589
2763.261915	17364.720333	1164.298828	-5.808522
2763.261915	17364.720333	1163.170898	-166.431702
2763.261915	17364.720333	1162.041992	-15.885181
2763.261915	17364.720333	1160.914063	8.058959
2763.261915	17364.720333	1159.785156	-8.765402
2763.261915	17364.720333	1158.656250	20.021402
2763.261915	17364.720333	1157.526367	-39.615807
2763.261915	17364.720333	1156.397461	171.429916
2763.261915	17364.720333	1155.267578	43.991360
2763.261915	17364.720333	1154.137695	56.175804
2763.261915	17364.720333	1153.006836	52.307888
2763.261915	17364.720333	1151.876953	-130.790482
2763.261915	17364.720333	1150.746094	14.752448
2763.261915	17364.720333	1149.615234	-21.703047
2763.261915	17364.720333	1148.484375	-152.945374
2763.261915	17364.720333	1147.352539	-153.648483
2763.261915	17364.720333	1146.220703	83.925385
2763.261915	17364.720333	1145.088867	-112.816849
2763.261915	17364.720333	1143.957031	-19.739748
2763.261915	17364.720333	1142.825195	-66.944191
2763.261915	17364.720333	1141.692383	-12.008513
2763.261915	17364.720333	1140.559570	-109.649437
2763.261915	17364.720333	1139.426758	-117.033760
2763.261915	17364.720333	1138.292969	-71.946404
2763.261915	17364.720333	1137.159180	-13.354025
2763.261915	17364.720333	1136.025391	14.008226
2763.261915	17364.720333	1134.891602	15.718199
2763.261915	17364.720333	1133.757813	-81.929459
2763.261915	17364.720333	1132.623047	53.569794
2763.261915	17364.720333	1131.488281	85.466209
2763.261915	17364.720333	1130.353516	101.886475
2763.261915	17364.720333	1129.217773	-25.121948
2763.261915	17364.720333	1128.083008	44.301754
2763.261915	17364.720333	1126.947266	84.670235
2763.261915	17364.720333	1125.811523	104.519501
2763.261915	17364.720333	1124.674805	89.555145
2763.261915	17364.720333	1123.539063	-98.210953
2763.261915	17364.720333	1122.402344	46.883606
2763.261915	17364.720333	1121.265625	-91.914139
2763.261915	17364.720333	1120.127930	63.049572
2763.261915	17364.720333	1118.990234	182.319199
2763.261915	17364.720333	1117.853516	266.251801
2763.261915	17364.720333	1116.714844	146.513565
2763.261915	17364.720333	1115.577148	128.849487
2763.261915	17364.720333	1114.439453	73.794128
2763.261915	17364.720333	1113.300781	206.560730
2763.261915	17364.720333	1112.162109	118.905792
2763.261915	17364.720333	1111.022461	140.482452
2763.261915	17364.720333	1109.883789	216.293884
2763.261915	17364.720333	1108.744141	214.266129
2763.261915	17364.720333	1107.604492	79.594322
2763.261915	17364.720333	1106.463867	159.260590
2763.261915	17364.720333	1105.324219	395.957764
2763.261915	17364.720333	1104.183594	231.407135
2763.261915	17364.720333	1103.042969	498.336151
2763.261915	17364.720333	1101.902344	471.752441
2763.261915	17364.720333	1100.760742	422.400269
2763.261915	17364.720333	1099.619141	693.758606
2763.261915	17364.720333	1098.477539	678.293579
2763.261915	17364.720333	1097.335938	554.427917
2763.261915	17364.720333	1096.193359	599.935974
2763.261915	17364.720333	1095.051758	523.138123
2763.261915	17364.720333	1093.909180	526.674622
2763.261915	17364.720333	1092.765625	453.946106
2763.261915	17364.720333	1091.623047	585.413635
2763.261915	17364.720333	1090.479492	460.225189
2763.261915	17364.720333	1089.335938	343.964081
2763.261915	17364.720333	1088.192383	323.809296
2763.261915	17364.720333	1087.047852	437.769989
2763.261915	17364.720333	1085.903320	300.841614
2763.261915	17364.720333	1084.758789	437.516235
2763.261915	17364.720333	1083.614258	320.421173
2763.261915	17364.720333	1082.469727	325.963074
2763.261915	17364.720333	1081.324219	419.794952
2763.261915	17364.720333	1080.178711	355.947083
2763.261915	17364.720333	1079.033203	245.712830
2763.261915	17364.720333	1077.886719	247.755402
2763.261915	17364.720333	1076.740234	263.426971
2763.261915	17364.720333	1075.593750	420.481873
2763.261915	17364.720333	1074.447266	415.797882
2763.261915	17364.720333	1073.300781	345.961853
2763.261915	17364.720333	1072.153320	272.055847
2763.261915	17364.720333	1071.005859	333.422394
2763.261915	17364.720333	1069.858398	214.145920
2763.261915	17364.720333	1068.709961	382.675049
2763.261915	17364.720333	1067.561523	341.015076
2763.261915	17364.720333	1066.413086	255.815811
2763.261915	17364.720333	1065.264648	181.164597
2763.261915	17364.720333	1064.116211	191.225952
2763.261915	17364.720333	1062.966797	233.305328
2763.261915	17364.720333	1061.817383	176.762161
2763.261915	17364.720333	1060.667969	233.689178
2763.261915	17364.720333	1059.517578	257.417664
2763.261915	17364.720333	1058.368164	187.999237
2763.261915	17364.720333	1057.217773	180.516449
2763.261915	17364.720333	1056.067383	69.095932
2763.261915	17364.720333	1054.916016	146.816437
2763.261915	17364.720333	1053.764648	239.196777
2763.261915	17364.720333	1052.613281	139.163712
2763.261915	17364.720333	1051.461914	86.464279
2763.261915	17364.720333	1050.310547	33.751808
2763.261915	17364.720333	1049.158203	116.944748
2763.261915	17364.720333	1048.005859	244.143631
2763.261915	17364.720333	1046.853516	133.549622
2763.261915	17364.720333	1045.700195	264.041565
2763.261915	17364.720333	1044.547852	309.555664
2763.261915	17364.720333	1043.394531	295.757690
2763.261915	17364.720333	1042.240234	284.900574
2763.261915	17364.720333	1041.086914	231.844482
2763.261915	17364.720333	1039.932617	430.037811
2763.261915	17364.720333	1038.778320	309.929504
2763.261915	17364.720333	1037.624023	285.409210
2763.261915	17364.720333	1036.469727	166.538040
2763.261915	17364.720333	1035.314453	257.281494
2763.261915	17364.720333	1034.159180	388.183350
2763.261915	17364.720333	1033.003906	661.542542
2763.261915	17364.720333	1031.847656	616.570007
2763.261915	17364.720333	1030.692383	627.941040
2763.261915	17364.720333	1029.536133	629.610413
2763.261915	17364.720333	1028.378906	583.982300
2763.261915	17364.720333	1027.222656	579.737976
2763.261915	17364.720333	1026.065430	333.352081
2763.261915	17364.720333	1024.908203	493.515594
2763.261915	17364.720333	1023.750977	274.080200
2763.261915	17364.720333	1022.593750	300.906769
2763.261915	17364.720333	1021.435547	268.939056
2763.261915	17364.720333	1020.277344	155.119675
2763.261915	17364.720333	1019.119141	214.657700
2763.261915	17364.720333	1017.959961	177.007523
2763.261915	17364.720333	1016.800781	128.719299
2763.261915	17364.720333	1015.641602	178.778473
2763.261915	17364.720333	1014.482422	113.674393
2763.261915	17364.720333	1013.323242	100.001419
2763.261915	17364.720333	1012.163086	61.767540
2763.261915	17364.720333	1011.002930	157.124603
2763.261915	17364.720333	1009.842773	351.074188
2763.261915	17364.720333	1008.681641	199.775574
2763.261915	17364.720333	1007.520508	101.553085
2763.261915	17364.720333	1006.359375	100.298439
2763.261915	17364.720333	1005.198242	101.691940
2763.261915	17364.720333	1004.037109	117.725906
2763.261915	17364.720333	1002.875000	169.430618
2763.261915	17364.720333	1001.712891	96.128548
2763.261915	17364.720333	1000.550781	334.182648
2763.261915	17364.720333	999.387695	37.970272
2763.261915	17364.720333	998.224609	243.460007
2763.261915	17364.720333	997.061523	223.599289
2763.261915	17364.720333	995.898438	138.435593
2763.261915	17364.720333	994.734375	77.258827
2763.261915	17364.720333	993.571289	241.528259
2763.261915	17364.720333	992.407227	160.834183
2763.261915	17364.720333	991.242188	317.214294
2763.261915	17364.720333	990.078125	218.716431
2763.261915	17364.720333	988.913086	398.023987
2763.261915	17364.720333	987.748047	328.302612
2763.261915	17364.720333	986.583008	286.984589
2763.261915	17364.720333	985.416992	253.882050
2763.261915	17364.720333	984.250977	267.639252
2763.261915	17364.720333	983.084961	133.940414
2763.261915	17364.720333	981.918945	207.542603
2763.261915	17364.720333	980.751953	-18.580532
2763.261915	17364.720333	979.584961	134.587906
2763.261915	17364.720333	978.417969	36.745869
2763.261915	17364.720333	977.250977	135.210922
2763.261915	17364.720333	976.083008	274.953735
2763.261915	17364.720333	974.915039	89.932220
2763.261915	17364.720333	973.747070	110.004005
2763.261915	17364.720333	972.579102	103.220551
2763.261915	17364.720333	971.410156	36.195507
2763.261915	17364.720333	970.242188	9.109409
2763.261915	17364.720333	969.072266	84.413551
2763.261915	17364.720333	967.903320	165.073578
2763.261915	17364.720333	966.733398	15.332066
2763.261915	17364.720333	965.563477	8.566578
2763.261915	17364.720333	964.393555	258.127930
2763.261915	17364.720333	963.223633	263.251648
2763.261915	17364.720333	962.052734	87.963852
2763.261915	17364.720333	960.881836	86.101158
2763.261915	17364.720333	959.710938	-97.708282
2763.261915	17364.720333	958.540039	-52.667854
2763.261915	17364.720333	957.368164	104.845612
2763.261915	17364.720333	956.196289	282.908569
2763.261915	17364.720333	955.024414	78.071075
2763.261915	17364.720333	953.851563	111.165703
2763.261915	17364.720333	952.679688	238.467896
2763.261915	17364.720333	951.506836	132.434570
2763.261915	17364.720333	950.333984	131.231155
2763.261915	17364.720333	949.160156	52.707283
2763.261915	17364.720333	947.986328	151.719330
2763.261915	17364.720333	946.812500	-21.867706
2763.261915	17364.720333	945.638672	-143.159058
2763.261915	17364.720333	944.464844	-22.721876
2763.261915	17364.720333	943.290039	42.830963
2763.261915	17364.720333	942.115234	272.058594
2763.261915	17364.720333	940.940430	5.655110
2763.261915	17364.720333	939.764648	-16.320557
2763.261915	17364.720333	938.588867	63.651241
2763.261915	17364.720333	937.413086	-96.053276
2763.261915	17364.720333	936.237305	88.169174
2763.261915	17364.720333	935.060547	-50.077141
2763.261915	17364.720333	933.883789	24.940397
2763.261915	17364.720333	932.707031	14.619495
2763.261915	17364.720333	931.530273	87.219193
2763.261915	17364.720333	930.352539	41.349560
2763.261915	17364.720333	929.175781	139.920090
2763.261915	17364.720333	927.998047	-90.647179
2763.261915	17364.720333	926.819336	-48.914547
2763.261915	17364.720333	925.641602	2.280499
2763.261915	17364.720333	924.462891	202.540558
2763.261915	17364.720333	923.284180	-113.134987
2763.261915	17364.720333	922.104492	-5.216756
2763.261915	17364.720333	920.924805	126.299530
2763.261915	17364.720333	919.746094	129.044189
2763.261915	17364.720333	919.551758	45.357517
2763.261915	17364.720333	918.386719	155.467712
2763.261915	17364.720333	917.220703	36.215054
2763.261915	17364.720333	916.054688	-31.008436
2763.261915	17364.720333	914.887695	135.720108
2763.261915	17364.720333	913.721680	144.074219
2763.261915	17364.720333	912.554688	98.084923
2763.261915	17364.720333	911.387695	21.399660
2763.261915	17364.720333	910.220703	95.839958
2763.261915	17364.720333	909.052734	14.437994
2763.261915	17364.720333	907.885742	91.181396
2763.261915	17364.720333	906.717773	-94.038597
2763.261915	17364.720333	905.548828	124.222549
2763.261915	17364.720333	904.380859	-13.782314
2763.261915	17364.720333	903.211914	-26.757246
2763.261915	17364.720333	902.042969	139.447250
2763.261915	17364.720333	900.874023	-19.728161
2763.261915	17364.720333	899.704102	70.967834
2763.261915	17364.720333	898.535156	90.923920
2763.261915	17364.720333	897.365234	59.034081
2763.261915	17364.720333	896.194336	-12.892889
2763.261915	17364.720333	895.024414	9.389671
2763.261915	17364.720333	893.853516	-116.671097
2763.261915	17364.720333	892.682617	-92.043312
2763.261915	17364.720333	891.511719	-18.014814
2763.261915	17364.720333	890.340820	13.619687
2763.261915	17364.720333	889.168945	122.863365
2763.261915	17364.720333	887.997070	-33.718651
2763.261915	17364.720333	886.825195	0.222492
2763.261915	17364.720333	885.653320	64.702644
2763.261915	17364.720333	884.480469	-44.789234
2763.261915	17364.720333	883.307617	24.356945
2763.261915	17364.720333	882.134766	-106.246788
2763.261915	17364.720333	880.961914	-67.672478
2763.261915	17364.720333	879.788086	-106.625061
2763.261915	17364.720333	878.614258	42.279518
2763.261915	17364.720333	877.440430	90.166458
2763.261915	17364.720333	876.266602	-14.539716
2763.261915	17364.720333	875.091797	-187.263199
2763.261915	17364.720333	873.916992	29.545111
2763.261915	17364.720333	872.742188	-28.191738
2763.261915	17364.720333	871.567383	-172.685944
2763.261915	17364.720333	870.391602	-124.856857
2763.261915	17364.720333	869.215820	30.782631
2763.261915	17364.720333	868.040039	-181.624710
2763.261915	17364.720333	866.864258	-56.514233
2763.261915	17364.720333	865.687500	-8.773088
2763.261915	17364.720333	864.510742	78.762115
2763.261915	17364.720333	863.333984	-18.752684
2763.261915	17364.720333	862.157227	-113.892494
2763.261915	17364.720333	860.979492	18.071724
2763.261915	17364.720333	859.802734	61.037891
2763.261915	17364.720333	858.625000	-134.692841
2763.261915	17364.720333	857.446289	25.253689
2763.261915	17364.720333	856.268555	-139.993103
2763.261915	17364.720333	855.089844	10.525108
2763.261915	17364.720333	853.911133	-96.207954
2763.261915	17364.720333	852.731445	-32.258221
2763.261915	17364.720333	851.552734	1.277166
2763.261915	17364.720333	850.373047	-21.282183
2763.261915	17364.720333	849.193359	-6.458390
2763.261915	17364.720333	848.013672	24.704260
2763.261915	17364.720333	846.833008	-21.207861
2763.261915	17364.720333	845.652344	75.310471
2763.261915	17364.720333	844.471680	-28.955936
2763.261915	17364.720333	843.291016	95.521866
2763.261915	17364.720333	842.110352	131.282104
2763.261915	17364.720333	840.928711	125.036110
2763.261915	17364.720333	839.747070	144.444870
2763.261915	17364.720333	838.564453	51.917976
2763.261915	17364.720333	837.382813	-89.532799
2763.261915	17364.720333	836.200195	-123.708061
2763.261915	17364.720333	835.017578	37.878368
2763.261915	17364.720333	833.834961	-26.602501
2763.261915	17364.720333	832.651367	-195.880768
2763.261915	17364.720333	831.467773	54.114212
2763.261915	17364.720333	830.284180	10.620832
2763.261915	17364.720333	829.100586	-202.797821
2763.261915	17364.720333	827.916992	-83.301315
2763.261915	17364.720333	826.732422	-94.165680
2763.261915	17364.720333	825.547852	-53.844193
2763.261915	17364.720333	824.363281	-67.039894
2763.261915	17364.720333	823.177734	59.303703
2763.261915	17364.720333	821.992188	-74.815529
2763.261915	17364.720333	820.806641	88.668419
2763.261915	17364.720333	819.621094	68.477295
2763.261915	17364.720333	818.434570	141.240799
2763.261915	17364.720333	817.249023	-160.058075
2763.261915	17364.720333	816.062500	-94.247879
2763.261915	17364.720333	814.875000	15.657757
2763.261915	17364.720333	813.688477	34.968002
2763.261915	17364.720333	812.500977	-24.651587
2763.261915	17364.720333	811.313477	-88.889175
2763.261915	17364.720333	810.125977	23.241112
2763.261915	17364.720333	808.937500	44.852840
2763.261915	17364.720333	807.749023	191.698746
2763.261915	17364.720333	806.560547	268.918030
2763.261915	17364.720333	805.372070	67.899879
2763.261915	17364.720333	804.182617	80.211929
2763.261915	17364.720333	802.994141	164.356216
2763.261915	17364.720333	801.803711	213.714264
2763.261915	17364.720333	800.614258	73.100388
2763.261915	17364.720333	799.424805	147.929382
2763.261915	17364.720333	798.234375	116.216095
2763.261915	17364.720333	797.043945	216.471085
2763.261915	17364.720333	795.852539	55.142803
2763.261915	17364.720333	794.662109	14.210318
2763.261915	17364.720333	793.470703	179.203842
2763.261915	17364.720333	792.279297	85.061623
2763.261915	17364.720333	791.087891	76.524384
2763.261915	17364.720333	789.895508	35.622105
2763.261915	17364.720333	788.703125	82.579163
2763.261915	17364.720333	787.510742	99.470741
2763.261915	17364.720333	786.318359	102.490173
2763.261915	17364.720333	785.125000	-102.410698
2763.261915	17364.720333	783.931641	-50.845890
2763.261915	17364.720333	782.738281	-107.838379
2763.261915	17364.720333	781.544922	-210.983902
2763.261915	17364.720333	780.350586	76.017509
2763.261915	17364.720333	779.156250	-89.434502
2763.261915	17364.720333	777.961914	24.369989
2763.261915	17364.720333	776.767578	-11.820541
2763.261915	17364.720333	775.572266	11.971107
2763.261915	17364.720333	774.376953	141.823288
2763.261915	17364.720333	773.181641	6.495708
2763.261915	17364.720333	771.986328	-22.749004
2763.261915	17364.720333	770.790039	130.072189
2763.261915	17364.720333	769.593750	-58.162560
2763.261915	17364.720333	768.397461	11.672652
2763.261915	17364.720333	767.201172	58.447376
2763.261915	17364.720333	766.003906	89.084572
2763.261915	17364.720333	764.806641	124.311989
2763.261915	17364.720333	763.609375	182.538239
2763.261915	17364.720333	762.412109	220.028366
2763.261915	17364.720333	761.213867	133.268295
2763.261915	17364.720333	760.015625	74.143982
2763.261915	17364.720333	758.817383	141.524475
2763.261915	17364.720333	757.618164	183.585129
2763.261915	17364.720333	756.419922	64.713669
2763.261915	17364.720333	755.220703	104.469437
2763.261915	17364.720333	754.021484	-2.850509
2763.261915	17364.720333	752.821289	165.547348
2763.261915	17364.720333	751.621094	21.505995
2763.261915	17364.720333	750.420898	58.932037
2763.261915	17364.720333	749.220703	139.960617
2763.261915	17364.720333	748.020508	122.250786
2763.261915	17364.720333	746.819336	132.085770
2763.261915	17364.720333	745.618164	185.506805
2763.261915	17364.720333	744.416992	195.317459
2763.261915	17364.720333	743.214844	264.751617
2763.261915	17364.720333	742.012695	322.687927
2763.261915	17364.720333	740.810547	217.828384
2763.261915	17364.720333	739.608398	504.944824
2763.261915	17364.720333	738.406250	528.408691
2763.261915	17364.720333	737.203125	732.854736
2763.261915	17364.720333	736.000000	1021.962341
2763.261915	17364.720333	734.795898	1210.181152
2763.261915	17364.720333	733.592773	1173.930298
2763.261915	17364.720333	732.388672	1103.354492
2763.261915	17364.720333	731.184570	943.544006
2763.261915	17364.720333	729.979492	964.564331
2763.261915	17364.720333	728.775391	729.343933
2763.261915	17364.720333	727.570313	590.281616
2763.261915	17364.720333	726.365234	503.867493
2763.261915	17364.720333	725.160156	602.672058
2763.261915	17364.720333	723.954102	443.134827
2763.261915	17364.720333	722.748047	541.899963
2763.261915	17364.720333	721.541992	345.871674
2763.261915	17364.720333	720.334961	444.603516
2763.261915	17364.720333	719.128906	305.761230
2763.261915	17364.720333	717.921875	356.495148
2763.261915	17364.720333	716.714844	361.541382
2763.261915	17364.720333	715.506836	193.113190
2763.261915	17364.720333	714.298828	209.587753
2763.261915	17364.720333	713.090820	237.455658
2763.261915	17364.720333	711.882813	251.617615
2763.261915	17364.720333	710.674805	90.163269
2763.261915	17364.720333	709.465820	124.856133
2763.261915	17364.720333	708.256836	50.105206
2763.261915	17364.720333	707.047852	27.796543
2763.261915	17364.720333	705.837891	46.505630
2763.261915	17364.720333	704.627930	131.264053
2763.261915	17364.720333	703.417969	165.868973
2763.261915	17364.720333	702.208008	11.442327
2763.261915	17364.720333	700.998047	232.730011
2763.261915	17364.720333	699.787109	12.325063
2763.261915	17364.720333	698.576172	233.501770
2763.261915	17364.720333	697.364258	202.019638
2763.261915	17364.720333	696.153320	88.645760
2763.261915	17364.720333	694.941406	134.514053
2763.261915	17364.720333	693.729492	221.281189
2763.261915	17364.720333	692.516602	273.902435
2763.261915	17364.720333	691.304688	237.846100
2763.261915	17364.720333	690.091797	108.625481
2763.261915	17364.720333	688.878906	313.423615
2763.261915	17364.720333	687.665039	118.348106
2763.261915	17364.720333	686.451172	84.582512
2763.261915	17364.720333	685.237305	112.123260
2763.261915	17364.720333	684.023438	223.631332
2763.261915	17364.720333	682.809570	85.429794
2763.261915	17364.720333	681.594727	65.267342
2763.261915	17364.720333	680.379883	42.831970
2763.261915	17364.720333	679.165039	226.792480
2763.261915	17364.720333	677.949219	222.449295
2763.261915	17364.720333	676.733398	295.178925
2763.261915	17364.720333	675.517578	100.395760
2763.261915	17364.720333	674.301758	130.036224
2763.261915	17364.720333	673.084961	257.078400
2763.261915	17364.720333	671.869141	236.810287
2763.261915	17364.720333	670.651367	227.863708
2763.261915	17364.720333	669.434570	144.183746
2763.261915	17364.720333	668.216797	182.773056
2763.261915	17364.720333	667.000000	318.654144
2763.261915	17364.720333	665.781250	230.442596
2763.261915	17364.720333	664.563477	207.861450
2763.261915	17364.720333	663.344727	189.800522
2763.261915	17364.720333	662.125977	271.236115
2763.261915	17364.720333	660.907227	271.227722
2763.261915	17364.720333	659.688477	164.961731
2763.261915	17364.720333	658.468750	198.847305
2763.261915	17364.720333	657.249023	214.627441
2763.261915	17364.720333	656.029297	264.271271
2763.261915	17364.720333	654.808594	429.066864
2763.261915	17364.720333	653.587891	286.676636
2763.261915	17364.720333	652.367188	352.032166
2763.261915	17364.720333	651.146484	299.973236
2763.261915	17364.720333	649.924805	311.108154
2763.261915	17364.720333	648.704102	301.915894
2763.261915	17364.720333	647.482422	216.018936
2763.261915	17364.720333	646.259766	249.670578
2763.261915	17364.720333	645.037109	82.618858
2763.261915	17364.720333	643.815430	5.792045
2763.261915	17364.720333	642.591797	32.658619
2763.261915	17364.720333	641.369141	70.763710
2763.261915	17364.720333	640.145508	113.342934
2763.261915	17364.720333	638.921875	41.017471
2763.261915	17364.720333	637.698242	-56.064259
2763.261915	17364.720333	636.474609	119.300377
2763.261915	17364.720333	635.250000	105.496475
2763.261915	17364.720333	634.025391	145.693619
2763.261915	17364.720333	632.800781	35.108116
2763.261915	17364.720333	631.575195	120.262260
2763.261915	17364.720333	630.349609	-26.287104
2763.261915	17364.720333	629.124023	54.314548
2763.261915	17364.720333	627.898438	22.461792
2763.261915	17364.720333	626.671875	-34.116577
2763.261915	17364.720333	625.445313	-0.801623
2763.261915	17364.720333	624.218750	198.735825
2763.261915	17364.720333	622.992188	-6.139430
2763.261915	17364.720333	621.764648	141.632462
2763.261915	17364.720333	620.537109	24.389729
2763.261915	17364.720333	619.309570	-56.903648
2763.261915	17364.720333	618.081055	52.586555
2763.261915	17364.720333	616.852539	47.580486
2763.261915	17364.720333	615.624023	89.671524
2763.261915	17364.720333	614.395508	160.886154
2763.261915	17364.720333	613.166992	-57.210049
2763.261915	17364.720333	611.937500	-75.699402
2763.261915	17364.720333	610.708008	-145.748840
2763.261915	17364.720333	609.477539	97.948959
2763.261915	17364.720333	608.248047	63.710930
2763.261915	17364.720333	607.017578	-69.085686
2763.261915	17364.720333	605.787109	169.918594
2763.261915	17364.720333	604.555664	-27.804352
2763.261915	17364.720333	603.325195	-129.199188
2763.261915	17364.720333	602.093750	-96.279358
2763.261915	17364.720333	600.861328	-54.435802
2763.261915	17364.720333	599.629883	-41.706852
2763.261915	17364.720333	598.397461	-2.155793
2763.261915	17364.720333	597.165039	-107.986481
2763.261915	17364.720333	595.932617	-137.770432
2763.261915	17364.720333	594.699219	-20.028473
2763.261915	17364.720333	593.465820	21.669407
2763.261915	17364.720333	592.232422	-32.736095
2763.261915	17364.720333	590.999023	-29.050850
2763.261915	17364.720333	589.764648	104.154533
2763.261915	17364.720333	588.530273	27.404354
2763.261915	17364.720333	587.295898	144.892776
2763.261915	17364.720333	586.061523	144.029770
2763.261915	17364.720333	584.826172	-21.967173
2763.261915	17364.720333	583.590820	73.117233
2763.261915	17364.720333	582.355469	-19.207880
2763.261915	17364.720333	581.119141	-109.272392
2763.261915	17364.720333	579.882813	37.021847
2763.261915	17364.720333	578.646484	-8.452229
2763.261915	17364.720333	577.410156	113.227623
2763.261915	17364.720333	576.172852	63.285248
2763.261915	17364.720333	574.935547	-55.699207
2763.261915	17364.720333	573.698242	61.437260
2763.261915	17364.720333	572.460938	76.090561
2763.261915	17364.720333	571.222656	-0.541813
2763.261915	17364.720333	569.984375	196.615952
2763.261915	17364.720333	568.746094	180.061340
2763.261915	17364.720333	567.506836	259.174500
2763.261915	17364.720333	566.267578	102.474121
2763.261915	17364.720333	565.028320	292.752686
2763.261915	17364.720333	563.789063	269.505737
2763.261915	17364.720333	562.548828	166.242828
2763.261915	17364.720333	561.309570	-12.539995
2763.261915	17364.720333	560.068359	153.149277
2763.261915	17364.720333	558.828125	187.700943
2763.261915	17364.720333	557.586914	60.106773
2763.261915	17364.720333	556.345703	105.764961
2763.261915	17364.720333	555.104492	22.643312
2763.261915	17364.720333	553.863281	61.631992
2763.261915	17364.720333	552.621094	78.414909
2763.261915	17364.720333	551.378906	-9.081407
2763.261915	17364.720333	550.136719	-67.702599
2763.261915	17364.720333	548.893555	57.768959
2763.261915	17364.720333	547.650391	-58.481400
2763.261915	17364.720333	546.407227	-145.861313
2763.261915	17364.720333	545.164063	-71.414673
2763.261915	17364.720333	543.919922	-45.741661
2763.261915	17364.720333	542.675781	-82.100800
2763.261915	17364.720333	541.431641	-114.009071
2763.261915	17364.720333	540.186523	-141.468048
2763.261915	17364.720333	538.941406	1.558711
2763.261915	17364.720333	537.696289	40.503914
2763.261915	17364.720333	536.451172	-155.126480
2763.261915	17364.720333	535.205078	-89.597641
2763.261915	17364.720333	533.959961	20.151880
2763.261915	17364.720333	532.712891	-71.379211
2763.261915	17364.720333	531.466797	-156.226990
2763.261915	17364.720333	530.219727	-39.868668
2763.261915	17364.720333	528.972656	-100.351822
2763.261915	17364.720333	527.725586	-10.545005
2763.261915	17364.720333	526.478516	-6.918308
2763.261915	17364.720333	525.230469	-1.070322
2763.261915	17364.720333	523.982422	42.329243
2763.261915	17364.720333	522.734375	37.155987
2763.261915	17364.720333	521.485352	76.145340
2763.261915	17364.720333	520.236328	101.894646
2763.261915	17364.720333	518.987305	156.331253
2763.261915	17364.720333	517.737305	168.852753
2763.261915	17364.720333	516.488281	55.683338
2763.261915	17364.720333	515.238281	-8.910731
2763.261915	17364.720333	513.988281	80.847977
2763.261915	17364.720333	512.737305	-1.315298
2763.261915	17364.720333	511.486328	86.241592
2763.261915	17364.720333	510.235352	-33.295242
2763.261915	17364.720333	508.984375	-18.407673
2763.261915	17364.720333	507.732422	-40.937294
2763.261915	17364.720333	506.480469	4.812622
2763.261915	17364.720333	505.228516	13.149246
2763.261915	17364.720333	503.976563	67.718124
2763.261915	17364.720333	502.723633	7.883739
2763.261915	17364.720333	501.470703	42.684513
2763.261915	17364.720333	500.217773	-12.669595
2763.261915	17364.720333	498.963867	41.961323
2763.261915	17364.720333	497.709961	133.965195
2763.261915	17364.720333	496.456055	-72.936348
2763.261915	17364.720333	495.202148	-70.980667
2763.261915	17364.720333	493.947266	-101.948708
2763.261915	17364.720333	492.692383	-31.844309
2763.261915	17364.720333	491.437500	-73.729095
2763.261915	17364.720333	490.181641	-3.601788
2763.261915	17364.720333	488.926758	-58.585434
2763.261915	17364.720333	487.670898	-30.125612
2763.261915	17364.720333	486.414063	-25.780544
2763.261915	17364.720333	485.158203	20.268415
2763.261915	17364.720333	483.901367	105.803787
2763.261915	17364.720333	482.644531	-47.653698
2763.261915	17364.720333	481.386719	51.075466
2763.261915	17364.720333	480.128906	88.429390
2763.261915	17364.720333	478.871094	-113.034157
2763.261915	17364.720333	477.613281	-141.317017
2763.261915	17364.720333	476.355469	-132.322403
2763.261915	17364.720333	475.096680	32.170658
2763.261915	17364.720333	473.837891	-118.625092
2763.261915	17364.720333	472.578125	-74.521873
2763.261915	17364.720333	471.319336	11.170147
2763.261915	17364.720333	470.059570	42.163887
2763.261915	17364.720333	468.799805	60.051723
2763.261915	17364.720333	467.539063	64.844124
2763.261915	17364.720333	466.278320	-54.958954
2763.261915	17364.720333	465.017578	153.210617
2763.261915	17364.720333	463.756836	101.252449
2763.261915	17364.720333	462.495117	88.678894
2763.261915	17364.720333	461.233398	91.432991
2763.261915	17364.720333	459.971680	-28.090170
2763.261915	17364.720333	458.709961	88.293503
2763.261915	17364.720333	457.447266	45.291569
2763.261915	17364.720333	456.184570	170.399017
2763.261915	17364.720333	454.921875	11.800768
2763.261915	17364.720333	453.658203	-24.525709
2763.261915	17364.720333	452.394531	78.787392
2763.261915	17364.720333	451.130859	62.141605
2763.261915	17364.720333	449.867188	69.510674
2763.261915	17364.720333	448.602539	26.767401
2763.261915	17364.720333	447.337891	32.010715
2763.261915	17364.720333	446.073242	35.095497
2763.261915	17364.720333	444.807617	14.239143
2763.261915	17364.720333	443.542969	-89.351089
2763.261915	17364.720333	442.276367	57.531868
2763.261915	17364.720333	441.010742	41.093830
2763.261915	17364.720333	439.744141	26.856909
2763.261915	17364.720333	438.478516	-157.091202
2763.261915	17364.720333	437.210938	-68.999146
2763.261915	17364.720333	435.944336	-24.437483
2763.261915	17364.720333	434.676758	85.354424
2763.261915	17364.720333	433.409180	171.190781
2763.261915	17364.720333	432.141602	43.974918
2763.261915	17364.720333	430.873047	23.307190
2763.261915	17364.720333	429.604492	172.122116
2763.261915	17364.720333	428.335938	60.200661
2763.261915	17364.720333	427.067383	217.626419
2763.261915	17364.720333	425.797852	203.445618
2763.261915	17364.720333	424.528320	74.207619
2763.261915	17364.720333	423.258789	16.637280
2763.261915	17364.720333	421.988281	132.672577
2763.261915	17364.720333	420.717773	270.335693
2763.261915	17364.720333	419.447266	156.318893
2763.261915	17364.720333	418.175781	289.539246
2763.261915	17364.720333	416.905273	262.239563
2763.261915	17364.720333	415.633789	371.480438
2763.261915	17364.720333	414.362305	162.079376
2763.261915	17364.720333	413.089844	303.725800
2763.261915	17364.720333	411.817383	269.812134
2763.261915	17364.720333	410.544922	270.520081
2763.261915	17364.720333	409.272461	431.404114
2763.261915	17364.720333	407.999023	263.127106
2763.261915	17364.720333	406.725586	148.972641
2763.261915	17364.720333	405.452148	93.228218
2763.261915	17364.720333	404.177734	175.896378
2763.261915	17364.720333	402.903320	286.574371
2763.261915	17364.720333	401.628906	358.204498
2763.261915	17364.720333	400.354492	176.777664
2763.261915	17364.720333	399.079102	189.874619
2763.261915	17364.720333	397.803711	222.321671
2763.261915	17364.720333	396.528320	207.125336
2763.261915	17364.720333	395.251953	183.191757
2763.261915	17364.720333	393.976563	109.487717
2763.261915	17364.720333	392.700195	178.199997
2763.261915	17364.720333	391.422852	160.414688
2763.261915	17364.720333	390.145508	62.655163
2763.261915	17364.720333	388.869141	176.255035
2763.261915	17364.720333	387.590820	123.555534
2763.261915	17364.720333	386.313477	180.722168
2763.261915	17364.720333	385.035156	134.202927
2763.261915	17364.720333	383.756836	91.848778
2763.261915	17364.720333	382.478516	133.397415
2763.261915	17364.720333	381.199219	66.999985
2763.261915	17364.720333	379.919922	174.947067
2763.261915	17364.720333	378.640625	127.563065
2763.261915	17364.720333	377.360352	17.538462
2763.261915	17364.720333	376.080078	4.227985
2763.261915	17364.720333	374.799805	162.898651
2763.261915	17364.720333	373.519531	50.100903
2763.261915	17364.720333	372.238281	59.744190
2763.261915	17364.720333	370.957031	-75.001221
2763.261915	17364.720333	369.675781	-57.259998
2763.261915	17364.720333	368.394531	7.497685
2763.261915	17364.720333	367.112305	33.238892
2763.261915	17364.720333	365.830078	2.785406
2763.261915	17364.720333	364.546875	-8.633611
2763.261915	17364.720333	363.264648	-41.854500
2763.261915	17364.720333	361.981445	-94.734406
2763.261915	17364.720333	360.698242	92.564766
2763.261915	17364.720333	359.414063	-27.596346
2763.261915	17364.720333	358.129883	-191.013580
2763.261915	17364.720333	356.845703	83.029549
2763.261915	17364.720333	355.561523	-36.083282
2763.261915	17364.720333	354.276367	-104.088722
2763.261915	17364.720333	352.991211	37.668331
2763.261915	17364.720333	351.706055	60.986000
2763.261915	17364.720333	350.420898	-40.504932
2763.261915	17364.720333	349.134766	9.725575
2763.261915	17364.720333	347.848633	27.294388
2763.261915	17364.720333	346.561523	162.155289
2763.261915	17364.720333	345.275391	-3.417219
2763.261915	17364.720333	343.988281	53.220295
2763.261915	17364.720333	342.700195	25.762865
2763.261915	17364.720333	341.413086	-186.334045
2763.261915	17364.720333	340.125000	198.081879
2763.261915	17364.720333	338.836914	-49.432178
2763.261915	17364.720333	337.548828	-42.944763
2763.261915	17364.720333	336.259766	16.325878
2763.261915	17364.720333	334.970703	-87.606934
2763.261915	17364.720333	333.681641	30.106304
2763.261915	17364.720333	332.391602	-83.782021
2763.261915	17364.720333	331.101563	64.435364
2763.261915	17364.720333	329.811523	70.825287
2763.261915	17364.720333	328.521484	-23.962925
2763.261915	17364.720333	327.230469	14.975040
2763.261915	17364.720333	325.939453	-32.340771
2763.261915	17364.720333	324.648438	36.881485
2763.261915	17364.720333	323.356445	120.097740
2763.261915	17364.720333	322.064453	-72.850380
2763.261915	17364.720333	320.772461	87.402046
2763.261915	17364.720333	319.480469	-19.947084
2763.261915	17364.720333	318.187500	-162.382492
2763.261915	17364.720333	316.894531	-73.451698
2763.261915	17364.720333	315.601563	14.380328
2763.261915	17364.720333	314.307617	47.798531
2763.261915	17364.720333	313.013672	31.089375
2763.261915	17364.720333	311.719727	0.459409
2763.261915	17364.720333	310.425781	-46.242851
2763.261915	17364.720333	309.130859	37.817791
2763.261915	17364.720333	307.835938	-56.050365
2763.261915	17364.720333	306.541016	31.832756
2763.261915	17364.720333	305.245117	-94.396866
2763.261915	17364.720333	303.949219	33.302727
2763.261915	17364.720333	302.653320	46.863461
2763.261915	17364.720333	301.356445	80.225197
2763.261915	17364.720333	300.060547	29.253815
2763.261915	17364.720333	298.763672	106.402077
