#X		#Y		#Wave		#Intensity
2815.079202	17373.044667	2000.043945	-86.963417
2815.079202	17373.044667	1999.080078	218.703232
2815.079202	17373.044667	1998.116211	-19.166424
2815.079202	17373.044667	1997.151367	-31.945196
2815.079202	17373.044667	1996.186523	-10.536884
2815.079202	17373.044667	1995.222656	121.842964
2815.079202	17373.044667	1994.256836	3.561198
2815.079202	17373.044667	1993.291992	-189.432678
2815.079202	17373.044667	1992.327148	38.096355
2815.079202	17373.044667	1991.361328	59.658573
2815.079202	17373.044667	1990.395508	-104.825417
2815.079202	17373.044667	1989.429688	131.214828
2815.079202	17373.044667	1988.463867	42.679520
2815.079202	17373.044667	1987.497070	-26.407196
2815.079202	17373.044667	1986.531250	77.280350
2815.079202	17373.044667	1985.564453	-163.117218
2815.079202	17373.044667	1984.597656	-40.353321
2815.079202	17373.044667	1983.630859	84.508034
2815.079202	17373.044667	1982.664063	186.764832
2815.079202	17373.044667	1981.696289	34.187626
2815.079202	17373.044667	1980.728516	-160.623138
2815.079202	17373.044667	1979.761719	0.016959
2815.079202	17373.044667	1978.792969	64.021774
2815.079202	17373.044667	1977.825195	-0.648543
2815.079202	17373.044667	1976.857422	196.115555
2815.079202	17373.044667	1975.888672	19.890121
2815.079202	17373.044667	1974.919922	-171.309082
2815.079202	17373.044667	1973.951172	-14.792710
2815.079202	17373.044667	1972.982422	109.385216
2815.079202	17373.044667	1972.013672	107.534676
2815.079202	17373.044667	1971.043945	-146.019485
2815.079202	17373.044667	1970.075195	78.604469
2815.079202	17373.044667	1969.105469	174.793701
2815.079202	17373.044667	1968.135742	-113.669472
2815.079202	17373.044667	1967.165039	-3.030102
2815.079202	17373.044667	1966.195313	-47.785763
2815.079202	17373.044667	1965.224609	28.015915
2815.079202	17373.044667	1964.253906	59.324120
2815.079202	17373.044667	1963.283203	112.646179
2815.079202	17373.044667	1962.312500	-92.649460
2815.079202	17373.044667	1961.341797	243.474411
2815.079202	17373.044667	1960.370117	40.458916
2815.079202	17373.044667	1959.399414	39.157539
2815.079202	17373.044667	1958.427734	-21.279284
2815.079202	17373.044667	1957.455078	213.335999
2815.079202	17373.044667	1956.483398	295.324677
2815.079202	17373.044667	1955.511719	266.572144
2815.079202	17373.044667	1954.539063	124.685852
2815.079202	17373.044667	1953.566406	130.233383
2815.079202	17373.044667	1952.593750	81.658539
2815.079202	17373.044667	1951.621094	146.045593
2815.079202	17373.044667	1950.647461	72.806801
2815.079202	17373.044667	1949.674805	161.623642
2815.079202	17373.044667	1948.701172	166.881668
2815.079202	17373.044667	1947.727539	-31.650940
2815.079202	17373.044667	1946.753906	3.015542
2815.079202	17373.044667	1945.780273	101.437096
2815.079202	17373.044667	1944.805664	28.051218
2815.079202	17373.044667	1943.831055	82.223297
2815.079202	17373.044667	1942.856445	65.231537
2815.079202	17373.044667	1941.881836	126.693863
2815.079202	17373.044667	1940.907227	70.443855
2815.079202	17373.044667	1939.932617	24.009315
2815.079202	17373.044667	1938.957031	129.524078
2815.079202	17373.044667	1937.981445	-105.584641
2815.079202	17373.044667	1937.005859	181.193939
2815.079202	17373.044667	1936.030273	107.817764
2815.079202	17373.044667	1935.054688	14.883322
2815.079202	17373.044667	1934.078125	-38.836491
2815.079202	17373.044667	1933.101563	-53.360413
2815.079202	17373.044667	1932.125000	174.436005
2815.079202	17373.044667	1931.148438	10.635125
2815.079202	17373.044667	1930.171875	-94.369316
2815.079202	17373.044667	1929.194336	40.402119
2815.079202	17373.044667	1928.217773	69.981949
2815.079202	17373.044667	1927.240234	324.529938
2815.079202	17373.044667	1926.262695	-120.191292
2815.079202	17373.044667	1925.284180	-232.298340
2815.079202	17373.044667	1924.306641	24.685032
2815.079202	17373.044667	1923.328125	200.968216
2815.079202	17373.044667	1922.350586	59.636490
2815.079202	17373.044667	1921.372070	-5.895741
2815.079202	17373.044667	1920.392578	50.727249
2815.079202	17373.044667	1919.414063	-105.050339
2815.079202	17373.044667	1918.434570	154.251236
2815.079202	17373.044667	1917.456055	110.851257
2815.079202	17373.044667	1916.476563	-5.702195
2815.079202	17373.044667	1915.497070	-105.098068
2815.079202	17373.044667	1914.516602	56.583546
2815.079202	17373.044667	1913.537109	-13.444571
2815.079202	17373.044667	1912.556641	14.125415
2815.079202	17373.044667	1911.576172	5.155848
2815.079202	17373.044667	1910.595703	62.041573
2815.079202	17373.044667	1909.615234	-390.390015
2815.079202	17373.044667	1908.633789	-14.186051
2815.079202	17373.044667	1907.653320	52.535278
2815.079202	17373.044667	1906.671875	14.536927
2815.079202	17373.044667	1905.690430	69.130768
2815.079202	17373.044667	1904.708984	-212.248734
2815.079202	17373.044667	1903.727539	7.977360
2815.079202	17373.044667	1902.745117	-105.273354
2815.079202	17373.044667	1901.762695	-101.640579
2815.079202	17373.044667	1900.780273	11.511067
2815.079202	17373.044667	1899.797852	85.739784
2815.079202	17373.044667	1898.815430	77.291199
2815.079202	17373.044667	1897.832031	73.745918
2815.079202	17373.044667	1896.849609	-116.954315
2815.079202	17373.044667	1895.866211	-100.942780
2815.079202	17373.044667	1894.882813	-63.029778
2815.079202	17373.044667	1893.898438	-78.549797
2815.079202	17373.044667	1892.915039	71.162041
2815.079202	17373.044667	1891.930664	-342.635834
2815.079202	17373.044667	1890.947266	-168.580536
2815.079202	17373.044667	1889.962891	-57.684097
2815.079202	17373.044667	1888.977539	72.621986
2815.079202	17373.044667	1887.993164	96.121178
2815.079202	17373.044667	1887.007813	-154.559814
2815.079202	17373.044667	1886.023438	38.858379
2815.079202	17373.044667	1885.038086	69.711494
2815.079202	17373.044667	1884.051758	5.997507
2815.079202	17373.044667	1883.066406	-84.339447
2815.079202	17373.044667	1882.081055	-4.919218
2815.079202	17373.044667	1881.094727	-73.360603
2815.079202	17373.044667	1880.108398	23.035770
2815.079202	17373.044667	1879.122070	-149.529236
2815.079202	17373.044667	1878.135742	-57.961208
2815.079202	17373.044667	1877.148438	-53.602646
2815.079202	17373.044667	1876.162109	47.632656
2815.079202	17373.044667	1875.174805	-69.054176
2815.079202	17373.044667	1874.187500	133.840637
2815.079202	17373.044667	1873.199219	9.945284
2815.079202	17373.044667	1872.211914	176.476608
2815.079202	17373.044667	1871.223633	144.572266
2815.079202	17373.044667	1870.236328	6.259586
2815.079202	17373.044667	1869.248047	-153.762268
2815.079202	17373.044667	1868.258789	-93.687180
2815.079202	17373.044667	1867.270508	-14.292632
2815.079202	17373.044667	1866.282227	-268.474945
2815.079202	17373.044667	1865.292969	-133.494705
2815.079202	17373.044667	1864.303711	-257.090576
2815.079202	17373.044667	1863.314453	-206.717316
2815.079202	17373.044667	1862.324219	10.282409
2815.079202	17373.044667	1861.334961	-84.309372
2815.079202	17373.044667	1860.344727	-29.188114
2815.079202	17373.044667	1859.354492	76.593964
2815.079202	17373.044667	1858.364258	15.799859
2815.079202	17373.044667	1857.374023	162.528488
2815.079202	17373.044667	1856.383789	116.188324
2815.079202	17373.044667	1855.392578	154.268616
2815.079202	17373.044667	1854.401367	76.561874
2815.079202	17373.044667	1853.410156	51.908222
2815.079202	17373.044667	1852.418945	162.239563
2815.079202	17373.044667	1851.426758	108.610435
2815.079202	17373.044667	1850.435547	158.597061
2815.079202	17373.044667	1849.443359	121.802399
2815.079202	17373.044667	1848.451172	-13.770955
2815.079202	17373.044667	1847.458984	-50.578800
2815.079202	17373.044667	1846.466797	59.480682
2815.079202	17373.044667	1845.473633	94.831985
2815.079202	17373.044667	1844.480469	9.781536
2815.079202	17373.044667	1843.487305	81.154778
2815.079202	17373.044667	1842.494141	190.959793
2815.079202	17373.044667	1841.500977	132.285721
2815.079202	17373.044667	1840.506836	49.536373
2815.079202	17373.044667	1839.513672	108.658806
2815.079202	17373.044667	1838.519531	160.498444
2815.079202	17373.044667	1837.525391	269.964508
2815.079202	17373.044667	1836.530273	2.000727
2815.079202	17373.044667	1835.536133	212.280106
2815.079202	17373.044667	1834.541016	146.136993
2815.079202	17373.044667	1833.545898	82.365593
2815.079202	17373.044667	1832.550781	145.849060
2815.079202	17373.044667	1831.555664	-11.656413
2815.079202	17373.044667	1830.560547	118.923759
2815.079202	17373.044667	1829.564453	331.001709
2815.079202	17373.044667	1828.568359	41.375854
2815.079202	17373.044667	1827.572266	212.473373
2815.079202	17373.044667	1826.576172	133.952866
2815.079202	17373.044667	1825.580078	132.146744
2815.079202	17373.044667	1824.583008	96.697388
2815.079202	17373.044667	1823.585938	68.385033
2815.079202	17373.044667	1822.588867	164.659363
2815.079202	17373.044667	1821.591797	42.729828
2815.079202	17373.044667	1820.594727	167.578339
2815.079202	17373.044667	1819.596680	83.872375
2815.079202	17373.044667	1818.599609	50.422981
2815.079202	17373.044667	1817.601563	122.276436
2815.079202	17373.044667	1816.603516	328.108124
2815.079202	17373.044667	1815.604492	57.385059
2815.079202	17373.044667	1814.606445	205.541061
2815.079202	17373.044667	1813.607422	42.459732
2815.079202	17373.044667	1812.608398	-44.083549
2815.079202	17373.044667	1811.609375	122.882553
2815.079202	17373.044667	1810.610352	-88.189163
2815.079202	17373.044667	1809.610352	97.668892
2815.079202	17373.044667	1808.611328	-22.651318
2815.079202	17373.044667	1807.611328	-25.896975
2815.079202	17373.044667	1806.611328	-177.407318
2815.079202	17373.044667	1805.610352	-1.610539
2815.079202	17373.044667	1804.610352	121.469116
2815.079202	17373.044667	1803.609375	110.643394
2815.079202	17373.044667	1802.608398	121.214127
2815.079202	17373.044667	1801.607422	14.687996
2815.079202	17373.044667	1800.606445	75.200630
2815.079202	17373.044667	1799.605469	-88.763695
2815.079202	17373.044667	1798.603516	-71.418869
2815.079202	17373.044667	1797.601563	251.196701
2815.079202	17373.044667	1796.599609	108.440414
2815.079202	17373.044667	1795.597656	134.958725
2815.079202	17373.044667	1794.595703	130.359085
2815.079202	17373.044667	1793.592773	-189.039612
2815.079202	17373.044667	1792.589844	199.484634
2815.079202	17373.044667	1791.587891	473.366150
2815.079202	17373.044667	1790.583984	32.229984
2815.079202	17373.044667	1789.581055	93.793121
2815.079202	17373.044667	1788.577148	-85.342438
2815.079202	17373.044667	1787.574219	4.565596
2815.079202	17373.044667	1786.570313	-200.905579
2815.079202	17373.044667	1785.566406	-23.173704
2815.079202	17373.044667	1784.561523	325.722931
2815.079202	17373.044667	1783.557617	93.779549
2815.079202	17373.044667	1782.552734	-140.579803
2815.079202	17373.044667	1781.547852	-75.270340
2815.079202	17373.044667	1780.542969	-152.793701
2815.079202	17373.044667	1779.538086	57.289970
2815.079202	17373.044667	1778.532227	-84.663673
2815.079202	17373.044667	1777.527344	84.676125
2815.079202	17373.044667	1776.521484	-14.702404
2815.079202	17373.044667	1775.515625	-114.167747
2815.079202	17373.044667	1774.508789	68.948891
2815.079202	17373.044667	1773.502930	-144.743378
2815.079202	17373.044667	1772.496094	9.564128
2815.079202	17373.044667	1771.489258	130.448807
2815.079202	17373.044667	1770.482422	85.007942
2815.079202	17373.044667	1769.475586	146.248962
2815.079202	17373.044667	1768.467773	335.459259
2815.079202	17373.044667	1767.460938	-99.430183
2815.079202	17373.044667	1766.453125	44.432980
2815.079202	17373.044667	1765.445313	41.087940
2815.079202	17373.044667	1764.437500	11.534465
2815.079202	17373.044667	1763.428711	74.303574
2815.079202	17373.044667	1762.420898	108.485825
2815.079202	17373.044667	1761.412109	111.712730
2815.079202	17373.044667	1760.403320	17.675585
2815.079202	17373.044667	1759.393555	94.077873
2815.079202	17373.044667	1758.384766	-144.643066
2815.079202	17373.044667	1757.375000	-85.075356
2815.079202	17373.044667	1756.366211	142.426895
2815.079202	17373.044667	1755.356445	-82.367439
2815.079202	17373.044667	1754.345703	85.606720
2815.079202	17373.044667	1753.335938	45.191364
2815.079202	17373.044667	1752.325195	75.615654
2815.079202	17373.044667	1751.315430	-73.838409
2815.079202	17373.044667	1750.304688	-79.134521
2815.079202	17373.044667	1749.292969	-89.298279
2815.079202	17373.044667	1748.282227	37.515617
2815.079202	17373.044667	1747.270508	55.429741
2815.079202	17373.044667	1746.259766	9.420800
2815.079202	17373.044667	1745.248047	-46.160553
2815.079202	17373.044667	1744.235352	221.718781
2815.079202	17373.044667	1743.223633	71.398613
2815.079202	17373.044667	1742.211914	-180.517502
2815.079202	17373.044667	1741.199219	-113.803413
2815.079202	17373.044667	1740.186523	-16.563725
2815.079202	17373.044667	1739.173828	-53.990437
2815.079202	17373.044667	1738.160156	24.057348
2815.079202	17373.044667	1737.147461	38.271614
2815.079202	17373.044667	1736.133789	-190.564377
2815.079202	17373.044667	1735.120117	-42.184387
2815.079202	17373.044667	1734.106445	-174.520538
2815.079202	17373.044667	1733.091797	-182.026154
2815.079202	17373.044667	1732.078125	-55.323376
2815.079202	17373.044667	1731.063477	-72.526505
2815.079202	17373.044667	1730.048828	-52.158623
2815.079202	17373.044667	1729.034180	-64.896866
2815.079202	17373.044667	1728.019531	-61.271843
2815.079202	17373.044667	1727.003906	-43.659317
2815.079202	17373.044667	1725.988281	-160.343567
2815.079202	17373.044667	1724.972656	-72.365860
2815.079202	17373.044667	1723.957031	121.336998
2815.079202	17373.044667	1722.941406	-42.728382
2815.079202	17373.044667	1721.924805	-30.465555
2815.079202	17373.044667	1720.909180	-44.181423
2815.079202	17373.044667	1719.892578	210.000641
2815.079202	17373.044667	1718.875977	40.849060
2815.079202	17373.044667	1717.858398	-24.959991
2815.079202	17373.044667	1716.841797	104.180626
2815.079202	17373.044667	1715.824219	174.410431
2815.079202	17373.044667	1714.806641	380.728821
2815.079202	17373.044667	1713.789063	356.710938
2815.079202	17373.044667	1712.770508	189.349945
2815.079202	17373.044667	1711.752930	282.525574
2815.079202	17373.044667	1710.734375	316.862762
2815.079202	17373.044667	1709.715820	421.472839
2815.079202	17373.044667	1708.697266	296.010162
2815.079202	17373.044667	1707.678711	451.969910
2815.079202	17373.044667	1706.659180	518.627930
2815.079202	17373.044667	1705.640625	179.515671
2815.079202	17373.044667	1704.621094	426.500153
2815.079202	17373.044667	1703.600586	474.039246
2815.079202	17373.044667	1702.581055	284.780243
2815.079202	17373.044667	1701.561523	292.303619
2815.079202	17373.044667	1700.541016	49.053680
2815.079202	17373.044667	1699.520508	325.741577
2815.079202	17373.044667	1698.500000	426.599976
2815.079202	17373.044667	1697.478516	377.468506
2815.079202	17373.044667	1696.458008	288.480042
2815.079202	17373.044667	1695.436523	349.193451
2815.079202	17373.044667	1694.415039	168.782333
2815.079202	17373.044667	1693.393555	133.390533
2815.079202	17373.044667	1692.372070	430.049622
2815.079202	17373.044667	1691.349609	618.916199
2815.079202	17373.044667	1690.327148	527.053894
2815.079202	17373.044667	1689.304688	390.721893
2815.079202	17373.044667	1688.282227	541.824890
2815.079202	17373.044667	1687.259766	603.988159
2815.079202	17373.044667	1686.236328	626.310486
2815.079202	17373.044667	1685.213867	482.712830
2815.079202	17373.044667	1684.190430	416.139130
2815.079202	17373.044667	1683.166016	615.672668
2815.079202	17373.044667	1682.142578	569.946777
2815.079202	17373.044667	1681.119141	722.551331
2815.079202	17373.044667	1680.094727	576.308228
2815.079202	17373.044667	1679.070313	707.685425
2815.079202	17373.044667	1678.045898	610.336792
2815.079202	17373.044667	1677.020508	806.794067
2815.079202	17373.044667	1675.996094	599.726624
2815.079202	17373.044667	1674.970703	646.765930
2815.079202	17373.044667	1673.945313	758.981689
2815.079202	17373.044667	1672.919922	1050.527954
2815.079202	17373.044667	1671.893555	684.831726
2815.079202	17373.044667	1670.868164	1032.059082
2815.079202	17373.044667	1669.841797	1139.180664
2815.079202	17373.044667	1668.815430	1239.214233
2815.079202	17373.044667	1667.789063	1194.801636
2815.079202	17373.044667	1666.761719	1136.365112
2815.079202	17373.044667	1665.735352	1375.803589
2815.079202	17373.044667	1664.708008	1226.498657
2815.079202	17373.044667	1663.680664	1184.209106
2815.079202	17373.044667	1662.653320	1290.745239
2815.079202	17373.044667	1661.625000	1392.520996
2815.079202	17373.044667	1660.597656	1278.000610
2815.079202	17373.044667	1659.569336	1221.572632
2815.079202	17373.044667	1658.541016	1167.447510
2815.079202	17373.044667	1657.512695	1273.633057
2815.079202	17373.044667	1656.483398	1207.798584
2815.079202	17373.044667	1655.455078	1455.541626
2815.079202	17373.044667	1654.425781	1171.320923
2815.079202	17373.044667	1653.396484	1105.429077
2815.079202	17373.044667	1652.366211	1431.830688
2815.079202	17373.044667	1651.336914	1245.154419
2815.079202	17373.044667	1650.306641	1439.067993
2815.079202	17373.044667	1649.276367	1085.336792
2815.079202	17373.044667	1648.246094	1251.312134
2815.079202	17373.044667	1647.215820	1322.109131
2815.079202	17373.044667	1646.185547	1420.680542
2815.079202	17373.044667	1645.154297	1338.344482
2815.079202	17373.044667	1644.123047	1436.811768
2815.079202	17373.044667	1643.091797	1637.183716
2815.079202	17373.044667	1642.060547	1371.759033
2815.079202	17373.044667	1641.028320	1541.900513
2815.079202	17373.044667	1639.997070	1577.649414
2815.079202	17373.044667	1638.964844	1543.885986
2815.079202	17373.044667	1637.931641	1262.387451
2815.079202	17373.044667	1636.899414	1443.942993
2815.079202	17373.044667	1635.867188	1558.310181
2815.079202	17373.044667	1634.833984	1617.076294
2815.079202	17373.044667	1633.800781	1624.923218
2815.079202	17373.044667	1632.767578	1690.586914
2815.079202	17373.044667	1631.734375	1464.856445
2815.079202	17373.044667	1630.700195	1595.244995
2815.079202	17373.044667	1629.666016	1522.170532
2815.079202	17373.044667	1628.631836	1322.017822
2815.079202	17373.044667	1627.597656	1766.620483
2815.079202	17373.044667	1626.563477	1478.726440
2815.079202	17373.044667	1625.528320	1844.595337
2815.079202	17373.044667	1624.493164	1667.648682
2815.079202	17373.044667	1623.458008	1779.390503
2815.079202	17373.044667	1622.422852	1609.480713
2815.079202	17373.044667	1621.387695	1762.766724
2815.079202	17373.044667	1620.351563	1920.609619
2815.079202	17373.044667	1619.315430	1900.769287
2815.079202	17373.044667	1618.279297	1904.026489
2815.079202	17373.044667	1617.243164	1872.713257
2815.079202	17373.044667	1616.207031	1610.866333
2815.079202	17373.044667	1615.169922	1637.290649
2815.079202	17373.044667	1614.132813	1776.671265
2815.079202	17373.044667	1613.095703	2121.117432
2815.079202	17373.044667	1612.058594	2288.060547
2815.079202	17373.044667	1611.020508	2277.590332
2815.079202	17373.044667	1609.983398	2140.511230
2815.079202	17373.044667	1608.945313	2275.211914
2815.079202	17373.044667	1607.907227	2310.908936
2815.079202	17373.044667	1606.868164	2208.516357
2815.079202	17373.044667	1605.830078	2113.128906
2815.079202	17373.044667	1604.791016	2266.290283
2815.079202	17373.044667	1603.751953	2476.949219
2815.079202	17373.044667	1602.712891	2450.685059
2815.079202	17373.044667	1601.673828	2123.257813
2815.079202	17373.044667	1600.633789	2354.648193
2815.079202	17373.044667	1599.594727	2673.364014
2815.079202	17373.044667	1598.554688	2571.444336
2815.079202	17373.044667	1597.513672	2662.607666
2815.079202	17373.044667	1596.473633	2790.566162
2815.079202	17373.044667	1595.433594	2840.446045
2815.079202	17373.044667	1594.392578	2805.392334
2815.079202	17373.044667	1593.351563	2552.310303
2815.079202	17373.044667	1592.310547	2843.402344
2815.079202	17373.044667	1591.268555	2907.234375
2815.079202	17373.044667	1590.227539	2649.896973
2815.079202	17373.044667	1589.185547	2766.646729
2815.079202	17373.044667	1588.143555	2842.137939
2815.079202	17373.044667	1587.100586	2805.293701
2815.079202	17373.044667	1586.058594	2906.120605
2815.079202	17373.044667	1585.015625	2674.592041
2815.079202	17373.044667	1583.972656	2638.036133
2815.079202	17373.044667	1582.929688	2633.657715
2815.079202	17373.044667	1581.886719	2562.927002
2815.079202	17373.044667	1580.843750	2673.255859
2815.079202	17373.044667	1579.799805	2504.229980
2815.079202	17373.044667	1578.755859	2280.409180
2815.079202	17373.044667	1577.711914	2409.289551
2815.079202	17373.044667	1576.666992	2233.802734
2815.079202	17373.044667	1575.623047	2269.007568
2815.079202	17373.044667	1574.578125	2617.703857
2815.079202	17373.044667	1573.533203	2570.654297
2815.079202	17373.044667	1572.488281	2439.104248
2815.079202	17373.044667	1571.443359	2159.086670
2815.079202	17373.044667	1570.397461	2272.455811
2815.079202	17373.044667	1569.351563	2379.024414
2815.079202	17373.044667	1568.305664	2252.577148
2815.079202	17373.044667	1567.259766	2178.830322
2815.079202	17373.044667	1566.213867	2166.893066
2815.079202	17373.044667	1565.166992	2020.313110
2815.079202	17373.044667	1564.120117	2236.943848
2815.079202	17373.044667	1563.073242	2318.913574
2815.079202	17373.044667	1562.026367	2241.196533
2815.079202	17373.044667	1560.978516	1901.186890
2815.079202	17373.044667	1559.930664	2241.311523
2815.079202	17373.044667	1558.883789	2556.341064
2815.079202	17373.044667	1557.834961	2568.020264
2815.079202	17373.044667	1556.787109	2329.009277
2815.079202	17373.044667	1555.739258	2215.598877
2815.079202	17373.044667	1554.690430	2218.584229
2815.079202	17373.044667	1553.641602	2470.081055
2815.079202	17373.044667	1552.592773	2306.942627
2815.079202	17373.044667	1551.542969	2260.157227
2815.079202	17373.044667	1550.494141	2281.854736
2815.079202	17373.044667	1549.444336	2192.085938
2815.079202	17373.044667	1548.394531	1947.677002
2815.079202	17373.044667	1547.344727	2033.533325
2815.079202	17373.044667	1546.293945	2108.097412
2815.079202	17373.044667	1545.244141	2123.624512
2815.079202	17373.044667	1544.193359	2348.547852
2815.079202	17373.044667	1543.142578	1954.903076
2815.079202	17373.044667	1542.090820	2068.614258
2815.079202	17373.044667	1541.040039	2211.986084
2815.079202	17373.044667	1539.988281	2037.212158
2815.079202	17373.044667	1538.936523	2144.445557
2815.079202	17373.044667	1537.884766	2083.642090
2815.079202	17373.044667	1536.833008	1991.205566
2815.079202	17373.044667	1535.780273	1948.907593
2815.079202	17373.044667	1534.727539	1818.211182
2815.079202	17373.044667	1533.674805	1701.337891
2815.079202	17373.044667	1532.622070	1482.515381
2815.079202	17373.044667	1531.569336	1529.447632
2815.079202	17373.044667	1530.515625	1208.932739
2815.079202	17373.044667	1529.461914	1018.001038
2815.079202	17373.044667	1528.408203	1006.473694
2815.079202	17373.044667	1527.354492	1110.754028
2815.079202	17373.044667	1526.299805	999.757751
2815.079202	17373.044667	1525.246094	954.705017
2815.079202	17373.044667	1524.191406	576.676575
2815.079202	17373.044667	1523.136719	715.561096
2815.079202	17373.044667	1522.081055	748.069824
2815.079202	17373.044667	1521.026367	585.950928
2815.079202	17373.044667	1519.970703	648.231567
2815.079202	17373.044667	1518.915039	692.536133
2815.079202	17373.044667	1517.859375	503.838074
2815.079202	17373.044667	1516.802734	491.892212
2815.079202	17373.044667	1515.747070	489.175629
2815.079202	17373.044667	1514.690430	502.453278
2815.079202	17373.044667	1513.633789	414.110382
2815.079202	17373.044667	1512.577148	468.434753
2815.079202	17373.044667	1511.519531	335.244446
2815.079202	17373.044667	1510.461914	256.525787
2815.079202	17373.044667	1509.405273	250.332779
2815.079202	17373.044667	1508.346680	314.345734
2815.079202	17373.044667	1507.289063	57.717625
2815.079202	17373.044667	1506.231445	38.522568
2815.079202	17373.044667	1505.172852	19.499409
2815.079202	17373.044667	1504.114258	86.451775
2815.079202	17373.044667	1503.055664	-115.069023
2815.079202	17373.044667	1501.996094	-162.874496
2815.079202	17373.044667	1500.937500	3.878835
2815.079202	17373.044667	1499.877930	60.192558
2815.079202	17373.044667	1498.818359	-190.089584
2815.079202	17373.044667	1497.757813	-18.401546
2815.079202	17373.044667	1496.698242	128.596786
2815.079202	17373.044667	1495.637695	-15.076098
2815.079202	17373.044667	1494.577148	123.200157
2815.079202	17373.044667	1493.516602	133.164215
2815.079202	17373.044667	1492.456055	-27.912086
2815.079202	17373.044667	1491.394531	137.848755
2815.079202	17373.044667	1490.333008	308.224579
2815.079202	17373.044667	1489.271484	219.795746
2815.079202	17373.044667	1488.209961	34.787186
2815.079202	17373.044667	1487.148438	390.173767
2815.079202	17373.044667	1486.085938	576.839661
2815.079202	17373.044667	1485.023438	331.671051
2815.079202	17373.044667	1483.960938	466.906494
2815.079202	17373.044667	1482.898438	514.567688
2815.079202	17373.044667	1481.834961	760.246399
2815.079202	17373.044667	1480.772461	626.119202
2815.079202	17373.044667	1479.708984	824.840271
2815.079202	17373.044667	1478.644531	902.326294
2815.079202	17373.044667	1477.581055	465.565277
2815.079202	17373.044667	1476.517578	747.807434
2815.079202	17373.044667	1475.453125	572.143555
2815.079202	17373.044667	1474.388672	630.196228
2815.079202	17373.044667	1473.323242	641.154175
2815.079202	17373.044667	1472.258789	724.177490
2815.079202	17373.044667	1471.193359	814.133850
2815.079202	17373.044667	1470.127930	904.293640
2815.079202	17373.044667	1469.062500	658.258362
2815.079202	17373.044667	1467.997070	542.533936
2815.079202	17373.044667	1466.930664	899.612610
2815.079202	17373.044667	1465.865234	743.877014
2815.079202	17373.044667	1464.798828	442.985779
2815.079202	17373.044667	1463.731445	800.706970
2815.079202	17373.044667	1462.665039	569.541138
2815.079202	17373.044667	1461.597656	560.274902
2815.079202	17373.044667	1460.530273	680.665283
2815.079202	17373.044667	1459.462891	569.325317
2815.079202	17373.044667	1458.395508	629.167053
2815.079202	17373.044667	1457.327148	448.338440
2815.079202	17373.044667	1456.259766	496.580139
2815.079202	17373.044667	1455.191406	521.958130
2815.079202	17373.044667	1454.123047	627.946899
2815.079202	17373.044667	1453.053711	540.113220
2815.079202	17373.044667	1451.985352	468.248840
2815.079202	17373.044667	1450.916016	543.733643
2815.079202	17373.044667	1449.846680	371.453491
2815.079202	17373.044667	1448.776367	432.112427
2815.079202	17373.044667	1447.707031	335.133667
2815.079202	17373.044667	1446.636719	566.925659
2815.079202	17373.044667	1445.566406	444.465424
2815.079202	17373.044667	1444.496094	537.643127
2815.079202	17373.044667	1443.425781	290.948700
2815.079202	17373.044667	1442.354492	348.315491
2815.079202	17373.044667	1441.283203	350.340851
2815.079202	17373.044667	1440.211914	702.969666
2815.079202	17373.044667	1439.140625	192.166336
2815.079202	17373.044667	1438.069336	517.996765
2815.079202	17373.044667	1436.997070	489.535828
2815.079202	17373.044667	1435.924805	525.641602
2815.079202	17373.044667	1434.852539	655.622131
2815.079202	17373.044667	1433.780273	758.514099
2815.079202	17373.044667	1432.707031	597.765869
2815.079202	17373.044667	1431.633789	493.219330
2815.079202	17373.044667	1430.560547	580.500793
2815.079202	17373.044667	1429.487305	457.369415
2815.079202	17373.044667	1428.413086	646.088745
2815.079202	17373.044667	1427.339844	628.300049
2815.079202	17373.044667	1426.265625	948.402161
2815.079202	17373.044667	1425.191406	772.030701
2815.079202	17373.044667	1424.116211	992.287659
2815.079202	17373.044667	1423.041992	1053.852051
2815.079202	17373.044667	1421.966797	893.153137
2815.079202	17373.044667	1420.891602	998.556458
2815.079202	17373.044667	1419.816406	1119.842529
2815.079202	17373.044667	1418.740234	1183.973267
2815.079202	17373.044667	1417.665039	1090.860596
2815.079202	17373.044667	1416.588867	1157.714600
2815.079202	17373.044667	1415.512695	1115.157593
2815.079202	17373.044667	1414.435547	1039.960815
2815.079202	17373.044667	1413.359375	1266.103149
2815.079202	17373.044667	1412.282227	1242.192383
2815.079202	17373.044667	1411.205078	1400.459595
2815.079202	17373.044667	1410.127930	1437.028931
2815.079202	17373.044667	1409.049805	1156.846069
2815.079202	17373.044667	1407.972656	1244.782837
2815.079202	17373.044667	1406.894531	1265.198608
2815.079202	17373.044667	1405.816406	1182.614502
2815.079202	17373.044667	1404.737305	993.510010
2815.079202	17373.044667	1403.659180	855.892395
2815.079202	17373.044667	1402.580078	996.217834
2815.079202	17373.044667	1401.500977	843.618225
2815.079202	17373.044667	1400.421875	704.635620
2815.079202	17373.044667	1399.341797	774.798950
2815.079202	17373.044667	1398.262695	853.506592
2815.079202	17373.044667	1397.182617	910.962158
2815.079202	17373.044667	1396.102539	840.790833
2815.079202	17373.044667	1395.021484	1028.260498
2815.079202	17373.044667	1393.941406	782.717590
2815.079202	17373.044667	1392.860352	904.411499
2815.079202	17373.044667	1391.779297	907.625244
2815.079202	17373.044667	1390.698242	917.771912
2815.079202	17373.044667	1389.616211	1109.405029
2815.079202	17373.044667	1388.535156	1091.480713
2815.079202	17373.044667	1387.453125	1152.560669
2815.079202	17373.044667	1386.371094	1258.676880
2815.079202	17373.044667	1385.288086	1435.910767
2815.079202	17373.044667	1384.206055	976.202026
2815.079202	17373.044667	1383.123047	1123.441040
2815.079202	17373.044667	1382.040039	1216.231812
2815.079202	17373.044667	1380.957031	976.043945
2815.079202	17373.044667	1379.873047	1010.922241
2815.079202	17373.044667	1378.789063	1202.067871
2815.079202	17373.044667	1377.705078	1292.536377
2815.079202	17373.044667	1376.621094	892.820679
2815.079202	17373.044667	1375.537109	1080.995850
2815.079202	17373.044667	1374.452148	1219.738159
2815.079202	17373.044667	1373.367188	900.314453
2815.079202	17373.044667	1372.282227	960.793945
2815.079202	17373.044667	1371.197266	902.937073
2815.079202	17373.044667	1370.112305	773.686096
2815.079202	17373.044667	1369.026367	1146.588867
2815.079202	17373.044667	1367.940430	1016.956726
2815.079202	17373.044667	1366.854492	823.147583
2815.079202	17373.044667	1365.767578	749.760742
2815.079202	17373.044667	1364.681641	871.346191
2815.079202	17373.044667	1363.594727	956.609436
2815.079202	17373.044667	1362.507813	847.648071
2815.079202	17373.044667	1361.419922	676.590942
2815.079202	17373.044667	1360.333008	747.303589
2815.079202	17373.044667	1359.245117	683.732605
2815.079202	17373.044667	1358.157227	758.346191
2815.079202	17373.044667	1357.069336	711.795471
2815.079202	17373.044667	1355.981445	546.899353
2815.079202	17373.044667	1354.892578	654.023682
2815.079202	17373.044667	1353.803711	644.659607
2815.079202	17373.044667	1352.714844	608.776611
2815.079202	17373.044667	1351.625000	622.748474
2815.079202	17373.044667	1350.536133	523.192871
2815.079202	17373.044667	1349.446289	749.841187
2815.079202	17373.044667	1348.356445	756.531921
2815.079202	17373.044667	1347.266602	851.640564
2815.079202	17373.044667	1346.175781	1002.430176
2815.079202	17373.044667	1345.085938	805.773254
2815.079202	17373.044667	1343.995117	1092.853271
2815.079202	17373.044667	1342.903320	940.610779
2815.079202	17373.044667	1341.812500	891.187012
2815.079202	17373.044667	1340.720703	1135.301392
2815.079202	17373.044667	1339.629883	1007.094910
2815.079202	17373.044667	1338.538086	1051.515869
2815.079202	17373.044667	1337.445313	1209.066895
2815.079202	17373.044667	1336.353516	1255.869141
2815.079202	17373.044667	1335.260742	1284.804810
2815.079202	17373.044667	1334.167969	1385.119141
2815.079202	17373.044667	1333.075195	1175.344116
2815.079202	17373.044667	1331.981445	1290.204712
2815.079202	17373.044667	1330.888672	1182.385376
2815.079202	17373.044667	1329.794922	1341.913940
2815.079202	17373.044667	1328.701172	1392.501953
2815.079202	17373.044667	1327.606445	1262.261353
2815.079202	17373.044667	1326.512695	1171.956421
2815.079202	17373.044667	1325.417969	1339.976563
2815.079202	17373.044667	1324.323242	1205.041016
2815.079202	17373.044667	1323.227539	1457.863525
2815.079202	17373.044667	1322.132813	1067.777954
2815.079202	17373.044667	1321.037109	1352.172485
2815.079202	17373.044667	1319.941406	1210.859741
2815.079202	17373.044667	1318.845703	1186.773926
2815.079202	17373.044667	1317.750000	1153.606934
2815.079202	17373.044667	1316.653320	1211.051392
2815.079202	17373.044667	1315.556641	1141.755859
2815.079202	17373.044667	1314.459961	1078.332153
2815.079202	17373.044667	1313.363281	997.290405
2815.079202	17373.044667	1312.265625	958.296448
2815.079202	17373.044667	1311.167969	980.191650
2815.079202	17373.044667	1310.070313	678.835938
2815.079202	17373.044667	1308.972656	793.114685
2815.079202	17373.044667	1307.874023	766.611572
2815.079202	17373.044667	1306.776367	547.944092
2815.079202	17373.044667	1305.677734	605.804626
2815.079202	17373.044667	1304.579102	679.340881
2815.079202	17373.044667	1303.479492	650.658447
2815.079202	17373.044667	1302.380859	471.553955
2815.079202	17373.044667	1301.281250	622.577637
2815.079202	17373.044667	1300.181641	482.871246
2815.079202	17373.044667	1299.081055	338.097046
2815.079202	17373.044667	1297.981445	544.164734
2815.079202	17373.044667	1296.880859	437.385529
2815.079202	17373.044667	1295.780273	284.764374
2815.079202	17373.044667	1294.679688	347.596771
2815.079202	17373.044667	1293.578125	289.787323
2815.079202	17373.044667	1292.476563	415.030273
2815.079202	17373.044667	1291.375000	367.243256
2815.079202	17373.044667	1290.273438	380.205109
2815.079202	17373.044667	1289.171875	454.563965
2815.079202	17373.044667	1288.069336	467.676697
2815.079202	17373.044667	1286.966797	510.296997
2815.079202	17373.044667	1285.864258	494.884460
2815.079202	17373.044667	1284.761719	326.764893
2815.079202	17373.044667	1283.658203	562.226013
2815.079202	17373.044667	1282.554688	612.311462
2815.079202	17373.044667	1281.451172	579.256165
2815.079202	17373.044667	1280.347656	764.113586
2815.079202	17373.044667	1279.244141	560.994568
2815.079202	17373.044667	1278.139648	615.078674
2815.079202	17373.044667	1277.035156	601.306885
2815.079202	17373.044667	1275.930664	331.763763
2815.079202	17373.044667	1274.825195	664.714783
2815.079202	17373.044667	1273.720703	624.970825
2815.079202	17373.044667	1272.615234	684.137451
2815.079202	17373.044667	1271.508789	515.312866
2815.079202	17373.044667	1270.403320	535.653748
2815.079202	17373.044667	1269.297852	330.555450
2815.079202	17373.044667	1268.191406	395.664337
2815.079202	17373.044667	1267.084961	357.987701
2815.079202	17373.044667	1265.977539	583.657410
2815.079202	17373.044667	1264.871094	237.802536
2815.079202	17373.044667	1263.763672	299.682068
2815.079202	17373.044667	1262.656250	310.828766
2815.079202	17373.044667	1261.548828	175.515732
2815.079202	17373.044667	1260.440430	88.953911
2815.079202	17373.044667	1259.333008	243.074249
2815.079202	17373.044667	1258.224609	226.741196
2815.079202	17373.044667	1257.115234	280.197693
2815.079202	17373.044667	1256.006836	234.324875
2815.079202	17373.044667	1254.897461	189.707932
2815.079202	17373.044667	1253.788086	422.744873
2815.079202	17373.044667	1252.678711	511.545837
2815.079202	17373.044667	1251.569336	570.605713
2815.079202	17373.044667	1250.458984	450.065186
2815.079202	17373.044667	1249.349609	637.100403
2815.079202	17373.044667	1248.239258	736.208618
2815.079202	17373.044667	1247.127930	748.174805
2815.079202	17373.044667	1246.017578	856.606873
2815.079202	17373.044667	1244.906250	849.991272
2815.079202	17373.044667	1243.794922	703.361877
2815.079202	17373.044667	1242.683594	785.108276
2815.079202	17373.044667	1241.571289	893.763550
2815.079202	17373.044667	1240.459961	525.278625
2815.079202	17373.044667	1239.347656	580.927856
2815.079202	17373.044667	1238.234375	762.880127
2815.079202	17373.044667	1237.122070	628.095215
2815.079202	17373.044667	1236.008789	360.312286
2815.079202	17373.044667	1234.896484	359.203247
2815.079202	17373.044667	1233.782227	443.334167
2815.079202	17373.044667	1232.668945	428.694489
2815.079202	17373.044667	1231.555664	245.091736
2815.079202	17373.044667	1230.441406	318.545197
2815.079202	17373.044667	1229.327148	472.981720
2815.079202	17373.044667	1228.211914	397.518250
2815.079202	17373.044667	1227.097656	561.586853
2815.079202	17373.044667	1225.982422	486.552307
2815.079202	17373.044667	1224.867188	438.195068
2815.079202	17373.044667	1223.751953	486.047424
2815.079202	17373.044667	1222.635742	539.885315
2815.079202	17373.044667	1221.520508	320.813171
2815.079202	17373.044667	1220.404297	314.038116
2815.079202	17373.044667	1219.287109	222.419540
2815.079202	17373.044667	1218.170898	360.836365
2815.079202	17373.044667	1217.053711	248.538651
2815.079202	17373.044667	1215.936523	185.563095
2815.079202	17373.044667	1214.819336	144.321930
2815.079202	17373.044667	1213.702148	55.504692
2815.079202	17373.044667	1212.583984	74.592239
2815.079202	17373.044667	1211.465820	-24.579683
2815.079202	17373.044667	1210.347656	39.082809
2815.079202	17373.044667	1209.229492	-66.813683
2815.079202	17373.044667	1208.110352	19.263313
2815.079202	17373.044667	1206.992188	-40.494820
2815.079202	17373.044667	1205.873047	0.489369
2815.079202	17373.044667	1204.752930	97.502075
2815.079202	17373.044667	1203.633789	-148.134171
2815.079202	17373.044667	1202.513672	-94.797218
2815.079202	17373.044667	1201.393555	-89.376442
2815.079202	17373.044667	1200.273438	-176.498550
2815.079202	17373.044667	1199.152344	-13.517097
2815.079202	17373.044667	1198.032227	-28.277964
2815.079202	17373.044667	1196.911133	-155.358658
2815.079202	17373.044667	1195.790039	-196.847458
2815.079202	17373.044667	1194.667969	-4.814873
2815.079202	17373.044667	1193.545898	186.813034
2815.079202	17373.044667	1192.424805	-31.183527
2815.079202	17373.044667	1191.301758	7.929349
2815.079202	17373.044667	1190.179688	103.694809
2815.079202	17373.044667	1189.056641	112.697784
2815.079202	17373.044667	1187.933594	-52.152493
2815.079202	17373.044667	1186.810547	48.217594
2815.079202	17373.044667	1185.687500	-90.487465
2815.079202	17373.044667	1184.563477	-48.681328
2815.079202	17373.044667	1183.440430	40.818005
2815.079202	17373.044667	1182.316406	-59.104332
2815.079202	17373.044667	1181.191406	16.065598
2815.079202	17373.044667	1180.067383	39.556068
2815.079202	17373.044667	1178.942383	-64.578171
2815.079202	17373.044667	1177.817383	99.522896
2815.079202	17373.044667	1176.692383	-53.340443
2815.079202	17373.044667	1175.566406	229.237122
2815.079202	17373.044667	1174.440430	-38.731834
2815.079202	17373.044667	1173.314453	98.853790
2815.079202	17373.044667	1172.188477	161.819717
2815.079202	17373.044667	1171.062500	169.456528
2815.079202	17373.044667	1169.935547	152.689804
2815.079202	17373.044667	1168.808594	156.717041
2815.079202	17373.044667	1167.681641	54.592529
2815.079202	17373.044667	1166.553711	23.934065
2815.079202	17373.044667	1165.426758	53.420860
2815.079202	17373.044667	1164.298828	-59.308796
2815.079202	17373.044667	1163.170898	-5.849024
2815.079202	17373.044667	1162.041992	-54.783401
2815.079202	17373.044667	1160.914063	-59.634319
2815.079202	17373.044667	1159.785156	43.077854
2815.079202	17373.044667	1158.656250	49.345234
2815.079202	17373.044667	1157.526367	-44.710892
2815.079202	17373.044667	1156.397461	-135.972702
2815.079202	17373.044667	1155.267578	-17.465910
2815.079202	17373.044667	1154.137695	-25.644398
2815.079202	17373.044667	1153.006836	0.128540
2815.079202	17373.044667	1151.876953	-70.080460
2815.079202	17373.044667	1150.746094	65.928955
2815.079202	17373.044667	1149.615234	-30.801643
2815.079202	17373.044667	1148.484375	-155.599609
2815.079202	17373.044667	1147.352539	114.294525
2815.079202	17373.044667	1146.220703	-7.562793
2815.079202	17373.044667	1145.088867	-5.765473
2815.079202	17373.044667	1143.957031	-151.565628
2815.079202	17373.044667	1142.825195	-124.287598
2815.079202	17373.044667	1141.692383	-52.521809
2815.079202	17373.044667	1140.559570	-36.564945
2815.079202	17373.044667	1139.426758	47.379765
2815.079202	17373.044667	1138.292969	29.044983
2815.079202	17373.044667	1137.159180	-45.522964
2815.079202	17373.044667	1136.025391	-84.511650
2815.079202	17373.044667	1134.891602	-76.660385
2815.079202	17373.044667	1133.757813	185.265152
2815.079202	17373.044667	1132.623047	164.857681
2815.079202	17373.044667	1131.488281	214.338760
2815.079202	17373.044667	1130.353516	291.369476
2815.079202	17373.044667	1129.217773	299.366608
2815.079202	17373.044667	1128.083008	197.724075
2815.079202	17373.044667	1126.947266	-12.795889
2815.079202	17373.044667	1125.811523	148.473938
2815.079202	17373.044667	1124.674805	-37.082111
2815.079202	17373.044667	1123.539063	51.898235
2815.079202	17373.044667	1122.402344	-26.025455
2815.079202	17373.044667	1121.265625	91.510658
2815.079202	17373.044667	1120.127930	-62.225544
2815.079202	17373.044667	1118.990234	-108.573196
2815.079202	17373.044667	1117.853516	-137.387726
2815.079202	17373.044667	1116.714844	30.210106
2815.079202	17373.044667	1115.577148	29.078596
2815.079202	17373.044667	1114.439453	-191.615051
2815.079202	17373.044667	1113.300781	61.778522
2815.079202	17373.044667	1112.162109	36.749771
2815.079202	17373.044667	1111.022461	49.069038
2815.079202	17373.044667	1109.883789	72.268333
2815.079202	17373.044667	1108.744141	51.135212
2815.079202	17373.044667	1107.604492	-56.094460
2815.079202	17373.044667	1106.463867	16.055492
2815.079202	17373.044667	1105.324219	-91.778831
2815.079202	17373.044667	1104.183594	59.028492
2815.079202	17373.044667	1103.042969	-32.494370
2815.079202	17373.044667	1101.902344	118.103996
2815.079202	17373.044667	1100.760742	109.887375
2815.079202	17373.044667	1099.619141	281.492554
2815.079202	17373.044667	1098.477539	-8.195413
2815.079202	17373.044667	1097.335938	177.599121
2815.079202	17373.044667	1096.193359	359.731720
2815.079202	17373.044667	1095.051758	370.627808
2815.079202	17373.044667	1093.909180	377.009888
2815.079202	17373.044667	1092.765625	426.610535
2815.079202	17373.044667	1091.623047	128.104568
2815.079202	17373.044667	1090.479492	248.210236
2815.079202	17373.044667	1089.335938	157.940002
2815.079202	17373.044667	1088.192383	292.821564
2815.079202	17373.044667	1087.047852	314.737335
2815.079202	17373.044667	1085.903320	219.232269
2815.079202	17373.044667	1084.758789	138.340881
2815.079202	17373.044667	1083.614258	227.223709
2815.079202	17373.044667	1082.469727	198.180954
2815.079202	17373.044667	1081.324219	70.701225
2815.079202	17373.044667	1080.178711	123.572952
2815.079202	17373.044667	1079.033203	364.501617
2815.079202	17373.044667	1077.886719	354.591919
2815.079202	17373.044667	1076.740234	257.994751
2815.079202	17373.044667	1075.593750	339.049408
2815.079202	17373.044667	1074.447266	226.173355
2815.079202	17373.044667	1073.300781	567.075012
2815.079202	17373.044667	1072.153320	175.488693
2815.079202	17373.044667	1071.005859	127.797096
2815.079202	17373.044667	1069.858398	230.076859
2815.079202	17373.044667	1068.709961	158.574829
2815.079202	17373.044667	1067.561523	13.680733
2815.079202	17373.044667	1066.413086	-88.109833
2815.079202	17373.044667	1065.264648	63.905781
2815.079202	17373.044667	1064.116211	142.905792
2815.079202	17373.044667	1062.966797	265.371155
2815.079202	17373.044667	1061.817383	181.646057
2815.079202	17373.044667	1060.667969	221.173370
2815.079202	17373.044667	1059.517578	293.636047
2815.079202	17373.044667	1058.368164	262.796631
2815.079202	17373.044667	1057.217773	-57.932648
2815.079202	17373.044667	1056.067383	9.662787
2815.079202	17373.044667	1054.916016	-158.434479
2815.079202	17373.044667	1053.764648	91.053711
2815.079202	17373.044667	1052.613281	29.831017
2815.079202	17373.044667	1051.461914	79.383347
2815.079202	17373.044667	1050.310547	-6.970379
2815.079202	17373.044667	1049.158203	-31.126719
2815.079202	17373.044667	1048.005859	50.369518
2815.079202	17373.044667	1046.853516	101.111671
2815.079202	17373.044667	1045.700195	188.835876
2815.079202	17373.044667	1044.547852	61.601807
2815.079202	17373.044667	1043.394531	188.981705
2815.079202	17373.044667	1042.240234	216.367599
2815.079202	17373.044667	1041.086914	93.011856
2815.079202	17373.044667	1039.932617	187.930771
2815.079202	17373.044667	1038.778320	66.209846
2815.079202	17373.044667	1037.624023	90.807663
2815.079202	17373.044667	1036.469727	202.973846
2815.079202	17373.044667	1035.314453	72.381638
2815.079202	17373.044667	1034.159180	63.619648
2815.079202	17373.044667	1033.003906	237.426758
2815.079202	17373.044667	1031.847656	130.746613
2815.079202	17373.044667	1030.692383	219.115585
2815.079202	17373.044667	1029.536133	-0.213489
2815.079202	17373.044667	1028.378906	144.667099
2815.079202	17373.044667	1027.222656	345.300842
2815.079202	17373.044667	1026.065430	200.437363
2815.079202	17373.044667	1024.908203	-133.592163
2815.079202	17373.044667	1023.750977	-38.008785
2815.079202	17373.044667	1022.593750	106.459579
2815.079202	17373.044667	1021.435547	64.399765
2815.079202	17373.044667	1020.277344	-169.524887
2815.079202	17373.044667	1019.119141	163.388412
2815.079202	17373.044667	1017.959961	244.285950
2815.079202	17373.044667	1016.800781	-26.140511
2815.079202	17373.044667	1015.641602	-33.105171
2815.079202	17373.044667	1014.482422	179.381836
2815.079202	17373.044667	1013.323242	62.444183
2815.079202	17373.044667	1012.163086	-106.382362
2815.079202	17373.044667	1011.002930	5.848055
2815.079202	17373.044667	1009.842773	170.254227
2815.079202	17373.044667	1008.681641	105.140381
2815.079202	17373.044667	1007.520508	48.476891
2815.079202	17373.044667	1006.359375	-19.878204
2815.079202	17373.044667	1005.198242	113.817894
2815.079202	17373.044667	1004.037109	103.256218
2815.079202	17373.044667	1002.875000	14.294562
2815.079202	17373.044667	1001.712891	101.126099
2815.079202	17373.044667	1000.550781	218.553192
2815.079202	17373.044667	999.387695	67.549759
2815.079202	17373.044667	998.224609	1.908649
2815.079202	17373.044667	997.061523	27.638288
2815.079202	17373.044667	995.898438	-40.676743
2815.079202	17373.044667	994.734375	59.418781
2815.079202	17373.044667	993.571289	-37.448681
2815.079202	17373.044667	992.407227	79.788902
2815.079202	17373.044667	991.242188	-199.419724
2815.079202	17373.044667	990.078125	-88.272163
2815.079202	17373.044667	988.913086	-240.512070
2815.079202	17373.044667	987.748047	-65.306335
2815.079202	17373.044667	986.583008	-25.810616
2815.079202	17373.044667	985.416992	27.601969
2815.079202	17373.044667	984.250977	37.743118
2815.079202	17373.044667	983.084961	122.820427
2815.079202	17373.044667	981.918945	10.435040
2815.079202	17373.044667	980.751953	61.259636
2815.079202	17373.044667	979.584961	-232.605927
2815.079202	17373.044667	978.417969	26.050819
2815.079202	17373.044667	977.250977	27.194271
2815.079202	17373.044667	976.083008	54.845650
2815.079202	17373.044667	974.915039	117.325577
2815.079202	17373.044667	973.747070	48.962711
2815.079202	17373.044667	972.579102	72.072014
2815.079202	17373.044667	971.410156	61.152157
2815.079202	17373.044667	970.242188	-162.591507
2815.079202	17373.044667	969.072266	9.229488
2815.079202	17373.044667	967.903320	-88.297714
2815.079202	17373.044667	966.733398	-114.039688
2815.079202	17373.044667	965.563477	-145.676682
2815.079202	17373.044667	964.393555	100.551552
2815.079202	17373.044667	963.223633	244.163055
2815.079202	17373.044667	962.052734	149.532303
2815.079202	17373.044667	960.881836	297.427307
2815.079202	17373.044667	959.710938	135.739182
2815.079202	17373.044667	958.540039	5.483949
2815.079202	17373.044667	957.368164	145.304581
2815.079202	17373.044667	956.196289	298.356812
2815.079202	17373.044667	955.024414	293.452606
2815.079202	17373.044667	953.851563	128.648926
2815.079202	17373.044667	952.679688	53.834999
2815.079202	17373.044667	951.506836	59.182922
2815.079202	17373.044667	950.333984	47.265442
2815.079202	17373.044667	949.160156	103.022263
2815.079202	17373.044667	947.986328	-66.081284
2815.079202	17373.044667	946.812500	-50.071182
2815.079202	17373.044667	945.638672	-143.165833
2815.079202	17373.044667	944.464844	91.075546
2815.079202	17373.044667	943.290039	51.787888
2815.079202	17373.044667	942.115234	-15.743158
2815.079202	17373.044667	940.940430	-73.604172
2815.079202	17373.044667	939.764648	-57.496223
2815.079202	17373.044667	938.588867	104.878075
2815.079202	17373.044667	937.413086	33.236790
2815.079202	17373.044667	936.237305	-45.596546
2815.079202	17373.044667	935.060547	33.240421
2815.079202	17373.044667	933.883789	-17.910992
2815.079202	17373.044667	932.707031	-41.086658
2815.079202	17373.044667	931.530273	83.957825
2815.079202	17373.044667	930.352539	-145.445541
2815.079202	17373.044667	929.175781	-31.908298
2815.079202	17373.044667	927.998047	-18.094816
2815.079202	17373.044667	926.819336	188.082016
2815.079202	17373.044667	925.641602	72.183510
2815.079202	17373.044667	924.462891	-11.242861
2815.079202	17373.044667	923.284180	-90.016937
2815.079202	17373.044667	922.104492	2.553540
2815.079202	17373.044667	920.924805	88.143829
2815.079202	17373.044667	919.746094	97.205559
2815.079202	17373.044667	919.551758	50.230324
2815.079202	17373.044667	918.386719	-42.479233
2815.079202	17373.044667	917.220703	-121.267342
2815.079202	17373.044667	916.054688	-47.396286
2815.079202	17373.044667	914.887695	-114.587952
2815.079202	17373.044667	913.721680	-3.765430
2815.079202	17373.044667	912.554688	-31.651937
2815.079202	17373.044667	911.387695	-110.364265
2815.079202	17373.044667	910.220703	-101.258789
2815.079202	17373.044667	909.052734	-122.176620
2815.079202	17373.044667	907.885742	-115.384605
2815.079202	17373.044667	906.717773	-150.147064
2815.079202	17373.044667	905.548828	-60.239391
2815.079202	17373.044667	904.380859	15.775667
2815.079202	17373.044667	903.211914	-132.052795
2815.079202	17373.044667	902.042969	-231.375793
2815.079202	17373.044667	900.874023	-249.934570
2815.079202	17373.044667	899.704102	-104.754898
2815.079202	17373.044667	898.535156	28.829920
2815.079202	17373.044667	897.365234	44.807377
2815.079202	17373.044667	896.194336	81.526031
2815.079202	17373.044667	895.024414	233.426025
2815.079202	17373.044667	893.853516	83.492836
2815.079202	17373.044667	892.682617	166.238464
2815.079202	17373.044667	891.511719	193.684296
2815.079202	17373.044667	890.340820	297.088989
2815.079202	17373.044667	889.168945	-94.420998
2815.079202	17373.044667	887.997070	36.619389
2815.079202	17373.044667	886.825195	82.473701
2815.079202	17373.044667	885.653320	257.125153
2815.079202	17373.044667	884.480469	22.330994
2815.079202	17373.044667	883.307617	-30.716190
2815.079202	17373.044667	882.134766	139.251968
2815.079202	17373.044667	880.961914	214.909103
2815.079202	17373.044667	879.788086	134.275040
2815.079202	17373.044667	878.614258	-97.966400
2815.079202	17373.044667	877.440430	-109.599648
2815.079202	17373.044667	876.266602	-13.292919
2815.079202	17373.044667	875.091797	-45.605541
2815.079202	17373.044667	873.916992	245.776154
2815.079202	17373.044667	872.742188	-45.942078
2815.079202	17373.044667	871.567383	4.365464
2815.079202	17373.044667	870.391602	-32.527622
2815.079202	17373.044667	869.215820	-37.298897
2815.079202	17373.044667	868.040039	70.297401
2815.079202	17373.044667	866.864258	-42.270317
2815.079202	17373.044667	865.687500	53.813477
2815.079202	17373.044667	864.510742	-1.413959
2815.079202	17373.044667	863.333984	73.983528
2815.079202	17373.044667	862.157227	-75.171196
2815.079202	17373.044667	860.979492	-89.128120
2815.079202	17373.044667	859.802734	132.775574
2815.079202	17373.044667	858.625000	-87.296608
2815.079202	17373.044667	857.446289	-137.889099
2815.079202	17373.044667	856.268555	127.348488
2815.079202	17373.044667	855.089844	-62.864826
2815.079202	17373.044667	853.911133	-10.520091
2815.079202	17373.044667	852.731445	-67.986595
2815.079202	17373.044667	851.552734	14.042127
2815.079202	17373.044667	850.373047	-228.618332
2815.079202	17373.044667	849.193359	-119.180725
2815.079202	17373.044667	848.013672	122.746048
2815.079202	17373.044667	846.833008	46.972267
2815.079202	17373.044667	845.652344	160.818405
2815.079202	17373.044667	844.471680	251.762436
2815.079202	17373.044667	843.291016	187.379990
2815.079202	17373.044667	842.110352	145.835541
2815.079202	17373.044667	840.928711	172.774185
2815.079202	17373.044667	839.747070	-154.032379
2815.079202	17373.044667	838.564453	9.820670
2815.079202	17373.044667	837.382813	-193.675400
2815.079202	17373.044667	836.200195	61.304279
2815.079202	17373.044667	835.017578	17.459131
2815.079202	17373.044667	833.834961	39.721153
2815.079202	17373.044667	832.651367	-65.676849
2815.079202	17373.044667	831.467773	-114.085220
2815.079202	17373.044667	830.284180	31.156525
2815.079202	17373.044667	829.100586	48.758648
2815.079202	17373.044667	827.916992	136.925568
2815.079202	17373.044667	826.732422	291.067657
2815.079202	17373.044667	825.547852	237.967453
2815.079202	17373.044667	824.363281	137.068604
2815.079202	17373.044667	823.177734	47.567532
2815.079202	17373.044667	821.992188	183.300507
2815.079202	17373.044667	820.806641	-47.250759
2815.079202	17373.044667	819.621094	8.795811
2815.079202	17373.044667	818.434570	-71.620331
2815.079202	17373.044667	817.249023	-86.120575
2815.079202	17373.044667	816.062500	47.081905
2815.079202	17373.044667	814.875000	37.056583
2815.079202	17373.044667	813.688477	67.885330
2815.079202	17373.044667	812.500977	-108.008492
2815.079202	17373.044667	811.313477	165.747696
2815.079202	17373.044667	810.125977	55.674603
2815.079202	17373.044667	808.937500	113.583443
2815.079202	17373.044667	807.749023	51.155468
2815.079202	17373.044667	806.560547	34.092022
2815.079202	17373.044667	805.372070	-37.445599
2815.079202	17373.044667	804.182617	65.645660
2815.079202	17373.044667	802.994141	66.609337
2815.079202	17373.044667	801.803711	-161.424545
2815.079202	17373.044667	800.614258	-24.498821
2815.079202	17373.044667	799.424805	-125.612038
2815.079202	17373.044667	798.234375	27.027109
2815.079202	17373.044667	797.043945	109.337448
2815.079202	17373.044667	795.852539	144.016464
2815.079202	17373.044667	794.662109	219.383362
2815.079202	17373.044667	793.470703	256.193298
2815.079202	17373.044667	792.279297	202.409149
2815.079202	17373.044667	791.087891	189.326965
2815.079202	17373.044667	789.895508	264.436920
2815.079202	17373.044667	788.703125	-29.219830
2815.079202	17373.044667	787.510742	244.802124
2815.079202	17373.044667	786.318359	231.519470
2815.079202	17373.044667	785.125000	69.004250
2815.079202	17373.044667	783.931641	207.078049
2815.079202	17373.044667	782.738281	225.284912
2815.079202	17373.044667	781.544922	177.913956
2815.079202	17373.044667	780.350586	259.248932
2815.079202	17373.044667	779.156250	141.776688
2815.079202	17373.044667	777.961914	44.612495
2815.079202	17373.044667	776.767578	346.946869
2815.079202	17373.044667	775.572266	330.904144
2815.079202	17373.044667	774.376953	278.704773
2815.079202	17373.044667	773.181641	303.159332
2815.079202	17373.044667	771.986328	271.155579
2815.079202	17373.044667	770.790039	230.086258
2815.079202	17373.044667	769.593750	285.904358
2815.079202	17373.044667	768.397461	382.200775
2815.079202	17373.044667	767.201172	298.115234
2815.079202	17373.044667	766.003906	358.187683
2815.079202	17373.044667	764.806641	478.982697
2815.079202	17373.044667	763.609375	417.241516
2815.079202	17373.044667	762.412109	389.227936
2815.079202	17373.044667	761.213867	507.475800
2815.079202	17373.044667	760.015625	184.480576
2815.079202	17373.044667	758.817383	275.570465
2815.079202	17373.044667	757.618164	335.055511
2815.079202	17373.044667	756.419922	527.136169
2815.079202	17373.044667	755.220703	512.179321
2815.079202	17373.044667	754.021484	494.900665
2815.079202	17373.044667	752.821289	574.209473
2815.079202	17373.044667	751.621094	421.927948
2815.079202	17373.044667	750.420898	339.280731
2815.079202	17373.044667	749.220703	544.123413
2815.079202	17373.044667	748.020508	486.022522
2815.079202	17373.044667	746.819336	373.975006
2815.079202	17373.044667	745.618164	472.916656
2815.079202	17373.044667	744.416992	547.039978
2815.079202	17373.044667	743.214844	546.994995
2815.079202	17373.044667	742.012695	789.167969
2815.079202	17373.044667	740.810547	681.224976
2815.079202	17373.044667	739.608398	844.595947
2815.079202	17373.044667	738.406250	891.214600
2815.079202	17373.044667	737.203125	1013.943542
2815.079202	17373.044667	736.000000	1358.409668
2815.079202	17373.044667	734.795898	1467.361084
2815.079202	17373.044667	733.592773	1755.392700
2815.079202	17373.044667	732.388672	1523.568115
2815.079202	17373.044667	731.184570	1703.788818
2815.079202	17373.044667	729.979492	1608.454346
2815.079202	17373.044667	728.775391	1461.574951
2815.079202	17373.044667	727.570313	1187.095703
2815.079202	17373.044667	726.365234	999.894043
2815.079202	17373.044667	725.160156	953.603027
2815.079202	17373.044667	723.954102	1012.350098
2815.079202	17373.044667	722.748047	775.807007
2815.079202	17373.044667	721.541992	729.286560
2815.079202	17373.044667	720.334961	615.629883
2815.079202	17373.044667	719.128906	752.199463
2815.079202	17373.044667	717.921875	303.242676
2815.079202	17373.044667	716.714844	361.429718
2815.079202	17373.044667	715.506836	573.583801
2815.079202	17373.044667	714.298828	546.630371
2815.079202	17373.044667	713.090820	463.771881
2815.079202	17373.044667	711.882813	525.911072
2815.079202	17373.044667	710.674805	483.037537
2815.079202	17373.044667	709.465820	315.141235
2815.079202	17373.044667	708.256836	412.631378
2815.079202	17373.044667	707.047852	445.298401
2815.079202	17373.044667	705.837891	339.609528
2815.079202	17373.044667	704.627930	294.036804
2815.079202	17373.044667	703.417969	168.140259
2815.079202	17373.044667	702.208008	438.792480
2815.079202	17373.044667	700.998047	285.958832
2815.079202	17373.044667	699.787109	404.793610
2815.079202	17373.044667	698.576172	525.689331
2815.079202	17373.044667	697.364258	254.596985
2815.079202	17373.044667	696.153320	268.403290
2815.079202	17373.044667	694.941406	377.776276
2815.079202	17373.044667	693.729492	444.714294
2815.079202	17373.044667	692.516602	518.179871
2815.079202	17373.044667	691.304688	540.345581
2815.079202	17373.044667	690.091797	402.293854
2815.079202	17373.044667	688.878906	486.480560
2815.079202	17373.044667	687.665039	443.828796
2815.079202	17373.044667	686.451172	665.499756
2815.079202	17373.044667	685.237305	531.502930
2815.079202	17373.044667	684.023438	417.431885
2815.079202	17373.044667	682.809570	636.388062
2815.079202	17373.044667	681.594727	646.431702
2815.079202	17373.044667	680.379883	567.560669
2815.079202	17373.044667	679.165039	641.730835
2815.079202	17373.044667	677.949219	669.152710
2815.079202	17373.044667	676.733398	738.588989
2815.079202	17373.044667	675.517578	530.643250
2815.079202	17373.044667	674.301758	435.748901
2815.079202	17373.044667	673.084961	562.462952
2815.079202	17373.044667	671.869141	613.644104
2815.079202	17373.044667	670.651367	633.654297
2815.079202	17373.044667	669.434570	700.061279
2815.079202	17373.044667	668.216797	653.347778
2815.079202	17373.044667	667.000000	712.834167
2815.079202	17373.044667	665.781250	676.961487
2815.079202	17373.044667	664.563477	753.880798
2815.079202	17373.044667	663.344727	784.165833
2815.079202	17373.044667	662.125977	747.934326
2815.079202	17373.044667	660.907227	711.595520
2815.079202	17373.044667	659.688477	905.176147
2815.079202	17373.044667	658.468750	826.559387
2815.079202	17373.044667	657.249023	774.383911
2815.079202	17373.044667	656.029297	954.198792
2815.079202	17373.044667	654.808594	736.029663
2815.079202	17373.044667	653.587891	782.965637
2815.079202	17373.044667	652.367188	816.506287
2815.079202	17373.044667	651.146484	635.687988
2815.079202	17373.044667	649.924805	783.821350
2815.079202	17373.044667	648.704102	750.754395
2815.079202	17373.044667	647.482422	677.850769
2815.079202	17373.044667	646.259766	644.575500
2815.079202	17373.044667	645.037109	450.144653
2815.079202	17373.044667	643.815430	438.757050
2815.079202	17373.044667	642.591797	541.921082
2815.079202	17373.044667	641.369141	488.390320
2815.079202	17373.044667	640.145508	509.708069
2815.079202	17373.044667	638.921875	447.154449
2815.079202	17373.044667	637.698242	406.547546
2815.079202	17373.044667	636.474609	564.104919
2815.079202	17373.044667	635.250000	752.311951
2815.079202	17373.044667	634.025391	565.989319
2815.079202	17373.044667	632.800781	582.173889
2815.079202	17373.044667	631.575195	380.330536
2815.079202	17373.044667	630.349609	605.374878
2815.079202	17373.044667	629.124023	511.197479
2815.079202	17373.044667	627.898438	566.526794
2815.079202	17373.044667	626.671875	511.760956
2815.079202	17373.044667	625.445313	687.775085
2815.079202	17373.044667	624.218750	347.020386
2815.079202	17373.044667	622.992188	450.256683
2815.079202	17373.044667	621.764648	395.132874
2815.079202	17373.044667	620.537109	353.109436
2815.079202	17373.044667	619.309570	361.518585
2815.079202	17373.044667	618.081055	323.703400
2815.079202	17373.044667	616.852539	334.103210
2815.079202	17373.044667	615.624023	425.614746
2815.079202	17373.044667	614.395508	288.757751
2815.079202	17373.044667	613.166992	202.326462
2815.079202	17373.044667	611.937500	363.705719
2815.079202	17373.044667	610.708008	294.643982
2815.079202	17373.044667	609.477539	199.200775
2815.079202	17373.044667	608.248047	197.975800
2815.079202	17373.044667	607.017578	146.245026
2815.079202	17373.044667	605.787109	214.967255
2815.079202	17373.044667	604.555664	31.623743
2815.079202	17373.044667	603.325195	21.313847
2815.079202	17373.044667	602.093750	-26.310928
2815.079202	17373.044667	600.861328	-76.194580
2815.079202	17373.044667	599.629883	171.562515
2815.079202	17373.044667	598.397461	38.333229
2815.079202	17373.044667	597.165039	119.505722
2815.079202	17373.044667	595.932617	121.814018
2815.079202	17373.044667	594.699219	-107.790199
2815.079202	17373.044667	593.465820	-105.591385
2815.079202	17373.044667	592.232422	-13.834934
2815.079202	17373.044667	590.999023	121.524803
2815.079202	17373.044667	589.764648	138.748947
2815.079202	17373.044667	588.530273	77.247696
2815.079202	17373.044667	587.295898	-49.822884
2815.079202	17373.044667	586.061523	109.176682
2815.079202	17373.044667	584.826172	167.604095
2815.079202	17373.044667	583.590820	127.715538
2815.079202	17373.044667	582.355469	109.609543
2815.079202	17373.044667	581.119141	-28.561348
2815.079202	17373.044667	579.882813	90.686798
2815.079202	17373.044667	578.646484	-38.805264
2815.079202	17373.044667	577.410156	145.705612
2815.079202	17373.044667	576.172852	85.909966
2815.079202	17373.044667	574.935547	322.521454
2815.079202	17373.044667	573.698242	275.694397
2815.079202	17373.044667	572.460938	333.420990
2815.079202	17373.044667	571.222656	264.736450
2815.079202	17373.044667	569.984375	287.506012
2815.079202	17373.044667	568.746094	316.760010
2815.079202	17373.044667	567.506836	304.598083
2815.079202	17373.044667	566.267578	214.057449
2815.079202	17373.044667	565.028320	275.836426
2815.079202	17373.044667	563.789063	176.576767
2815.079202	17373.044667	562.548828	120.823380
2815.079202	17373.044667	561.309570	75.947716
2815.079202	17373.044667	560.068359	176.713181
2815.079202	17373.044667	558.828125	220.908417
2815.079202	17373.044667	557.586914	191.171951
2815.079202	17373.044667	556.345703	185.328308
2815.079202	17373.044667	555.104492	64.346397
2815.079202	17373.044667	553.863281	219.212723
2815.079202	17373.044667	552.621094	148.181168
2815.079202	17373.044667	551.378906	190.052856
2815.079202	17373.044667	550.136719	381.652222
2815.079202	17373.044667	548.893555	345.320984
2815.079202	17373.044667	547.650391	235.243118
2815.079202	17373.044667	546.407227	88.339729
2815.079202	17373.044667	545.164063	-138.733765
2815.079202	17373.044667	543.919922	-38.343613
2815.079202	17373.044667	542.675781	-20.358589
2815.079202	17373.044667	541.431641	168.826920
2815.079202	17373.044667	540.186523	-81.890610
2815.079202	17373.044667	538.941406	-63.884911
2815.079202	17373.044667	537.696289	60.245518
2815.079202	17373.044667	536.451172	73.911903
2815.079202	17373.044667	535.205078	120.054688
2815.079202	17373.044667	533.959961	131.577438
2815.079202	17373.044667	532.712891	-23.513113
2815.079202	17373.044667	531.466797	33.504925
2815.079202	17373.044667	530.219727	479.839539
2815.079202	17373.044667	528.972656	99.958511
2815.079202	17373.044667	527.725586	135.370651
2815.079202	17373.044667	526.478516	190.253616
2815.079202	17373.044667	525.230469	33.356506
2815.079202	17373.044667	523.982422	-43.495663
2815.079202	17373.044667	522.734375	190.779999
2815.079202	17373.044667	521.485352	-112.767624
2815.079202	17373.044667	520.236328	-191.586136
2815.079202	17373.044667	518.987305	-67.407196
2815.079202	17373.044667	517.737305	20.065157
2815.079202	17373.044667	516.488281	-270.061615
2815.079202	17373.044667	515.238281	-279.568390
2815.079202	17373.044667	513.988281	-77.647247
2815.079202	17373.044667	512.737305	-205.699524
2815.079202	17373.044667	511.486328	-57.683105
2815.079202	17373.044667	510.235352	-168.332901
2815.079202	17373.044667	508.984375	-240.088913
2815.079202	17373.044667	507.732422	-309.610260
2815.079202	17373.044667	506.480469	-348.884521
2815.079202	17373.044667	505.228516	-196.408539
2815.079202	17373.044667	503.976563	-99.919411
2815.079202	17373.044667	502.723633	-74.455162
2815.079202	17373.044667	501.470703	-74.766533
2815.079202	17373.044667	500.217773	-143.869141
2815.079202	17373.044667	498.963867	-88.107689
2815.079202	17373.044667	497.709961	10.714002
2815.079202	17373.044667	496.456055	-146.336899
2815.079202	17373.044667	495.202148	-101.158119
2815.079202	17373.044667	493.947266	-107.524132
2815.079202	17373.044667	492.692383	-42.901382
2815.079202	17373.044667	491.437500	34.655888
2815.079202	17373.044667	490.181641	-25.235241
2815.079202	17373.044667	488.926758	-7.708232
2815.079202	17373.044667	487.670898	-33.067509
2815.079202	17373.044667	486.414063	91.917679
2815.079202	17373.044667	485.158203	171.854431
2815.079202	17373.044667	483.901367	159.554626
2815.079202	17373.044667	482.644531	59.372845
2815.079202	17373.044667	481.386719	4.340935
2815.079202	17373.044667	480.128906	135.963562
2815.079202	17373.044667	478.871094	179.699188
2815.079202	17373.044667	477.613281	103.452438
2815.079202	17373.044667	476.355469	284.465729
2815.079202	17373.044667	475.096680	347.623169
2815.079202	17373.044667	473.837891	284.438293
2815.079202	17373.044667	472.578125	349.838013
2815.079202	17373.044667	471.319336	498.783417
2815.079202	17373.044667	470.059570	367.293274
2815.079202	17373.044667	468.799805	257.323792
2815.079202	17373.044667	467.539063	260.863068
2815.079202	17373.044667	466.278320	409.932251
2815.079202	17373.044667	465.017578	426.384888
2815.079202	17373.044667	463.756836	353.073364
2815.079202	17373.044667	462.495117	55.360298
2815.079202	17373.044667	461.233398	332.799316
2815.079202	17373.044667	459.971680	35.315559
2815.079202	17373.044667	458.709961	289.228516
2815.079202	17373.044667	457.447266	56.044853
2815.079202	17373.044667	456.184570	192.460907
2815.079202	17373.044667	454.921875	279.744843
2815.079202	17373.044667	453.658203	136.472229
2815.079202	17373.044667	452.394531	193.906113
2815.079202	17373.044667	451.130859	236.402969
2815.079202	17373.044667	449.867188	12.239975
2815.079202	17373.044667	448.602539	93.180481
2815.079202	17373.044667	447.337891	84.537399
2815.079202	17373.044667	446.073242	86.564819
2815.079202	17373.044667	444.807617	45.959084
2815.079202	17373.044667	443.542969	-71.342651
2815.079202	17373.044667	442.276367	145.880966
2815.079202	17373.044667	441.010742	34.970913
2815.079202	17373.044667	439.744141	137.045456
2815.079202	17373.044667	438.478516	277.378784
2815.079202	17373.044667	437.210938	236.670624
2815.079202	17373.044667	435.944336	95.920334
2815.079202	17373.044667	434.676758	306.260651
2815.079202	17373.044667	433.409180	5.904240
2815.079202	17373.044667	432.141602	103.337952
2815.079202	17373.044667	430.873047	149.623276
2815.079202	17373.044667	429.604492	132.034683
2815.079202	17373.044667	428.335938	193.012253
2815.079202	17373.044667	427.067383	221.995789
2815.079202	17373.044667	425.797852	-4.084495
2815.079202	17373.044667	424.528320	167.025391
2815.079202	17373.044667	423.258789	148.938187
2815.079202	17373.044667	421.988281	58.536999
2815.079202	17373.044667	420.717773	178.182541
2815.079202	17373.044667	419.447266	-58.910866
2815.079202	17373.044667	418.175781	96.461800
2815.079202	17373.044667	416.905273	228.266342
2815.079202	17373.044667	415.633789	-89.799057
2815.079202	17373.044667	414.362305	143.383026
2815.079202	17373.044667	413.089844	-141.015610
2815.079202	17373.044667	411.817383	57.730408
2815.079202	17373.044667	410.544922	156.563400
2815.079202	17373.044667	409.272461	60.198761
2815.079202	17373.044667	407.999023	-87.224182
2815.079202	17373.044667	406.725586	-25.212376
2815.079202	17373.044667	405.452148	-1.623858
2815.079202	17373.044667	404.177734	0.474726
2815.079202	17373.044667	402.903320	-16.793320
2815.079202	17373.044667	401.628906	200.465668
2815.079202	17373.044667	400.354492	127.477913
2815.079202	17373.044667	399.079102	-45.254650
2815.079202	17373.044667	397.803711	12.175678
2815.079202	17373.044667	396.528320	-4.810869
2815.079202	17373.044667	395.251953	32.731628
2815.079202	17373.044667	393.976563	0.097655
2815.079202	17373.044667	392.700195	-87.917801
2815.079202	17373.044667	391.422852	193.240265
2815.079202	17373.044667	390.145508	161.250046
2815.079202	17373.044667	388.869141	215.326920
2815.079202	17373.044667	387.590820	152.726212
2815.079202	17373.044667	386.313477	-1.139189
2815.079202	17373.044667	385.035156	97.647957
2815.079202	17373.044667	383.756836	113.520103
2815.079202	17373.044667	382.478516	27.528767
2815.079202	17373.044667	381.199219	170.729858
2815.079202	17373.044667	379.919922	60.231300
2815.079202	17373.044667	378.640625	214.628830
2815.079202	17373.044667	377.360352	125.900833
2815.079202	17373.044667	376.080078	141.789764
2815.079202	17373.044667	374.799805	-15.815471
2815.079202	17373.044667	373.519531	-89.931839
2815.079202	17373.044667	372.238281	-49.080902
2815.079202	17373.044667	370.957031	-11.218567
2815.079202	17373.044667	369.675781	44.673431
2815.079202	17373.044667	368.394531	65.954544
2815.079202	17373.044667	367.112305	42.080322
2815.079202	17373.044667	365.830078	10.920078
2815.079202	17373.044667	364.546875	165.855179
2815.079202	17373.044667	363.264648	-22.937065
2815.079202	17373.044667	361.981445	-42.528164
2815.079202	17373.044667	360.698242	-46.419674
2815.079202	17373.044667	359.414063	-110.307640
2815.079202	17373.044667	358.129883	-89.250114
2815.079202	17373.044667	356.845703	-220.609711
2815.079202	17373.044667	355.561523	-80.266418
2815.079202	17373.044667	354.276367	-73.542137
2815.079202	17373.044667	352.991211	-28.292204
2815.079202	17373.044667	351.706055	-45.281696
2815.079202	17373.044667	350.420898	-32.220806
2815.079202	17373.044667	349.134766	107.256462
2815.079202	17373.044667	347.848633	-115.437767
2815.079202	17373.044667	346.561523	-52.454182
2815.079202	17373.044667	345.275391	-18.294426
2815.079202	17373.044667	343.988281	137.791641
2815.079202	17373.044667	342.700195	26.058701
2815.079202	17373.044667	341.413086	48.813587
2815.079202	17373.044667	340.125000	136.743500
2815.079202	17373.044667	338.836914	214.436600
2815.079202	17373.044667	337.548828	5.588168
2815.079202	17373.044667	336.259766	177.777893
2815.079202	17373.044667	334.970703	44.578545
2815.079202	17373.044667	333.681641	114.379868
2815.079202	17373.044667	332.391602	60.735500
2815.079202	17373.044667	331.101563	253.759735
2815.079202	17373.044667	329.811523	122.624489
2815.079202	17373.044667	328.521484	47.811249
2815.079202	17373.044667	327.230469	-10.529593
2815.079202	17373.044667	325.939453	-12.723802
2815.079202	17373.044667	324.648438	82.899376
2815.079202	17373.044667	323.356445	-114.281998
2815.079202	17373.044667	322.064453	-205.379776
2815.079202	17373.044667	320.772461	-125.830925
2815.079202	17373.044667	319.480469	-132.450485
2815.079202	17373.044667	318.187500	-106.414711
2815.079202	17373.044667	316.894531	-229.189743
2815.079202	17373.044667	315.601563	-162.952393
2815.079202	17373.044667	314.307617	-78.919220
2815.079202	17373.044667	313.013672	-83.391548
2815.079202	17373.044667	311.719727	-128.457016
2815.079202	17373.044667	310.425781	4.588514
2815.079202	17373.044667	309.130859	-65.697586
2815.079202	17373.044667	307.835938	14.833722
2815.079202	17373.044667	306.541016	-41.298817
2815.079202	17373.044667	305.245117	42.657749
2815.079202	17373.044667	303.949219	320.730896
2815.079202	17373.044667	302.653320	280.888550
2815.079202	17373.044667	301.356445	449.428192
2815.079202	17373.044667	300.060547	503.983734
2815.079202	17373.044667	298.763672	714.634949
