#X		#Y		#Wave		#Intensity
2810.258989	17370.106667	2000.043945	-88.558609
2810.258989	17370.106667	1999.080078	-104.956230
2810.258989	17370.106667	1998.116211	-106.328438
2810.258989	17370.106667	1997.151367	-308.816528
2810.258989	17370.106667	1996.186523	-258.880493
2810.258989	17370.106667	1995.222656	35.914440
2810.258989	17370.106667	1994.256836	60.292179
2810.258989	17370.106667	1993.291992	232.898087
2810.258989	17370.106667	1992.327148	-5.874382
2810.258989	17370.106667	1991.361328	138.821732
2810.258989	17370.106667	1990.395508	70.320717
2810.258989	17370.106667	1989.429688	137.656433
2810.258989	17370.106667	1988.463867	113.154427
2810.258989	17370.106667	1987.497070	261.549988
2810.258989	17370.106667	1986.531250	75.768654
2810.258989	17370.106667	1985.564453	124.719597
2810.258989	17370.106667	1984.597656	116.563301
2810.258989	17370.106667	1983.630859	6.850489
2810.258989	17370.106667	1982.664063	129.268311
2810.258989	17370.106667	1981.696289	-89.528069
2810.258989	17370.106667	1980.728516	-49.045280
2810.258989	17370.106667	1979.761719	159.195892
2810.258989	17370.106667	1978.792969	68.387863
2810.258989	17370.106667	1977.825195	88.556908
2810.258989	17370.106667	1976.857422	-14.860227
2810.258989	17370.106667	1975.888672	-24.596600
2810.258989	17370.106667	1974.919922	-59.139717
2810.258989	17370.106667	1973.951172	157.849655
2810.258989	17370.106667	1972.982422	142.772003
2810.258989	17370.106667	1972.013672	-79.575882
2810.258989	17370.106667	1971.043945	-149.069427
2810.258989	17370.106667	1970.075195	62.412941
2810.258989	17370.106667	1969.105469	-29.452063
2810.258989	17370.106667	1968.135742	28.961613
2810.258989	17370.106667	1967.165039	92.203148
2810.258989	17370.106667	1966.195313	46.959396
2810.258989	17370.106667	1965.224609	218.411469
2810.258989	17370.106667	1964.253906	185.348999
2810.258989	17370.106667	1963.283203	127.625458
2810.258989	17370.106667	1962.312500	5.872447
2810.258989	17370.106667	1961.341797	-29.735653
2810.258989	17370.106667	1960.370117	84.737282
2810.258989	17370.106667	1959.399414	221.279236
2810.258989	17370.106667	1958.427734	72.403297
2810.258989	17370.106667	1957.455078	130.145370
2810.258989	17370.106667	1956.483398	109.165924
2810.258989	17370.106667	1955.511719	152.100327
2810.258989	17370.106667	1954.539063	8.199959
2810.258989	17370.106667	1953.566406	122.390587
2810.258989	17370.106667	1952.593750	-117.281944
2810.258989	17370.106667	1951.621094	53.392139
2810.258989	17370.106667	1950.647461	69.269043
2810.258989	17370.106667	1949.674805	13.936852
2810.258989	17370.106667	1948.701172	81.398117
2810.258989	17370.106667	1947.727539	-27.894978
2810.258989	17370.106667	1946.753906	145.120071
2810.258989	17370.106667	1945.780273	87.428490
2810.258989	17370.106667	1944.805664	76.395500
2810.258989	17370.106667	1943.831055	72.752914
2810.258989	17370.106667	1942.856445	257.983582
2810.258989	17370.106667	1941.881836	82.725517
2810.258989	17370.106667	1940.907227	-109.595329
2810.258989	17370.106667	1939.932617	-164.544342
2810.258989	17370.106667	1938.957031	-18.480536
2810.258989	17370.106667	1937.981445	127.568184
2810.258989	17370.106667	1937.005859	89.870049
2810.258989	17370.106667	1936.030273	115.911911
2810.258989	17370.106667	1935.054688	-34.330212
2810.258989	17370.106667	1934.078125	-174.678574
2810.258989	17370.106667	1933.101563	-114.196060
2810.258989	17370.106667	1932.125000	-117.323982
2810.258989	17370.106667	1931.148438	45.997200
2810.258989	17370.106667	1930.171875	-47.584179
2810.258989	17370.106667	1929.194336	-53.020535
2810.258989	17370.106667	1928.217773	-73.076698
2810.258989	17370.106667	1927.240234	-90.630074
2810.258989	17370.106667	1926.262695	148.574753
2810.258989	17370.106667	1925.284180	-101.116982
2810.258989	17370.106667	1924.306641	94.117020
2810.258989	17370.106667	1923.328125	15.670885
2810.258989	17370.106667	1922.350586	240.232697
2810.258989	17370.106667	1921.372070	-16.404896
2810.258989	17370.106667	1920.392578	-121.488876
2810.258989	17370.106667	1919.414063	49.417305
2810.258989	17370.106667	1918.434570	78.727448
2810.258989	17370.106667	1917.456055	-31.036339
2810.258989	17370.106667	1916.476563	210.680450
2810.258989	17370.106667	1915.497070	-108.780418
2810.258989	17370.106667	1914.516602	-115.842491
2810.258989	17370.106667	1913.537109	-188.699234
2810.258989	17370.106667	1912.556641	-93.229584
2810.258989	17370.106667	1911.576172	114.397980
2810.258989	17370.106667	1910.595703	-233.745026
2810.258989	17370.106667	1909.615234	3.172589
2810.258989	17370.106667	1908.633789	81.673454
2810.258989	17370.106667	1907.653320	-59.056957
2810.258989	17370.106667	1906.671875	121.815514
2810.258989	17370.106667	1905.690430	154.117844
2810.258989	17370.106667	1904.708984	11.151679
2810.258989	17370.106667	1903.727539	-7.570483
2810.258989	17370.106667	1902.745117	93.012993
2810.258989	17370.106667	1901.762695	-93.538864
2810.258989	17370.106667	1900.780273	-70.751770
2810.258989	17370.106667	1899.797852	-101.449348
2810.258989	17370.106667	1898.815430	89.212723
2810.258989	17370.106667	1897.832031	58.567516
2810.258989	17370.106667	1896.849609	-96.020271
2810.258989	17370.106667	1895.866211	-73.080360
2810.258989	17370.106667	1894.882813	37.368568
2810.258989	17370.106667	1893.898438	6.879288
2810.258989	17370.106667	1892.915039	212.069031
2810.258989	17370.106667	1891.930664	-22.409216
2810.258989	17370.106667	1890.947266	39.483486
2810.258989	17370.106667	1889.962891	9.115979
2810.258989	17370.106667	1888.977539	163.266861
2810.258989	17370.106667	1887.993164	-80.650146
2810.258989	17370.106667	1887.007813	-21.140192
2810.258989	17370.106667	1886.023438	-5.308228
2810.258989	17370.106667	1885.038086	119.686325
2810.258989	17370.106667	1884.051758	2.126787
2810.258989	17370.106667	1883.066406	-76.585106
2810.258989	17370.106667	1882.081055	-31.620363
2810.258989	17370.106667	1881.094727	-98.163651
2810.258989	17370.106667	1880.108398	-7.158194
2810.258989	17370.106667	1879.122070	-139.093246
2810.258989	17370.106667	1878.135742	-217.686630
2810.258989	17370.106667	1877.148438	166.353516
2810.258989	17370.106667	1876.162109	-52.723602
2810.258989	17370.106667	1875.174805	-249.934906
2810.258989	17370.106667	1874.187500	-25.886803
2810.258989	17370.106667	1873.199219	103.679268
2810.258989	17370.106667	1872.211914	-212.048981
2810.258989	17370.106667	1871.223633	-51.071999
2810.258989	17370.106667	1870.236328	-134.476440
2810.258989	17370.106667	1869.248047	-82.436630
2810.258989	17370.106667	1868.258789	15.503301
2810.258989	17370.106667	1867.270508	231.838806
2810.258989	17370.106667	1866.282227	-81.259552
2810.258989	17370.106667	1865.292969	50.382584
2810.258989	17370.106667	1864.303711	305.166718
2810.258989	17370.106667	1863.314453	33.210854
2810.258989	17370.106667	1862.324219	72.884598
2810.258989	17370.106667	1861.334961	6.259897
2810.258989	17370.106667	1860.344727	19.293762
2810.258989	17370.106667	1859.354492	27.455233
2810.258989	17370.106667	1858.364258	122.454147
2810.258989	17370.106667	1857.374023	173.940781
2810.258989	17370.106667	1856.383789	-27.949226
2810.258989	17370.106667	1855.392578	129.582138
2810.258989	17370.106667	1854.401367	72.372299
2810.258989	17370.106667	1853.410156	-4.156954
2810.258989	17370.106667	1852.418945	61.518711
2810.258989	17370.106667	1851.426758	9.011580
2810.258989	17370.106667	1850.435547	-33.895370
2810.258989	17370.106667	1849.443359	-50.343746
2810.258989	17370.106667	1848.451172	39.140972
2810.258989	17370.106667	1847.458984	147.795074
2810.258989	17370.106667	1846.466797	145.575577
2810.258989	17370.106667	1845.473633	-27.644798
2810.258989	17370.106667	1844.480469	102.417351
2810.258989	17370.106667	1843.487305	85.555984
2810.258989	17370.106667	1842.494141	13.283841
2810.258989	17370.106667	1841.500977	56.435936
2810.258989	17370.106667	1840.506836	22.525316
2810.258989	17370.106667	1839.513672	51.072906
2810.258989	17370.106667	1838.519531	108.377151
2810.258989	17370.106667	1837.525391	105.479881
2810.258989	17370.106667	1836.530273	112.108727
2810.258989	17370.106667	1835.536133	315.693542
2810.258989	17370.106667	1834.541016	-117.558662
2810.258989	17370.106667	1833.545898	234.738113
2810.258989	17370.106667	1832.550781	188.139740
2810.258989	17370.106667	1831.555664	86.236298
2810.258989	17370.106667	1830.560547	44.292694
2810.258989	17370.106667	1829.564453	-64.943436
2810.258989	17370.106667	1828.568359	92.141006
2810.258989	17370.106667	1827.572266	244.264114
2810.258989	17370.106667	1826.576172	81.970177
2810.258989	17370.106667	1825.580078	274.603302
2810.258989	17370.106667	1824.583008	121.740829
2810.258989	17370.106667	1823.585938	141.451523
2810.258989	17370.106667	1822.588867	-81.062019
2810.258989	17370.106667	1821.591797	168.534637
2810.258989	17370.106667	1820.594727	240.605255
2810.258989	17370.106667	1819.596680	113.684746
2810.258989	17370.106667	1818.599609	156.763336
2810.258989	17370.106667	1817.601563	99.122200
2810.258989	17370.106667	1816.603516	153.919876
2810.258989	17370.106667	1815.604492	110.420433
2810.258989	17370.106667	1814.606445	112.294777
2810.258989	17370.106667	1813.607422	252.836929
2810.258989	17370.106667	1812.608398	194.616180
2810.258989	17370.106667	1811.609375	47.783646
2810.258989	17370.106667	1810.610352	-137.388458
2810.258989	17370.106667	1809.610352	69.536201
2810.258989	17370.106667	1808.611328	324.072937
2810.258989	17370.106667	1807.611328	174.412918
2810.258989	17370.106667	1806.611328	-30.288750
2810.258989	17370.106667	1805.610352	-53.457439
2810.258989	17370.106667	1804.610352	-60.023975
2810.258989	17370.106667	1803.609375	40.753624
2810.258989	17370.106667	1802.608398	232.102432
2810.258989	17370.106667	1801.607422	112.851555
2810.258989	17370.106667	1800.606445	108.089928
2810.258989	17370.106667	1799.605469	67.389900
2810.258989	17370.106667	1798.603516	265.183746
2810.258989	17370.106667	1797.601563	90.574303
2810.258989	17370.106667	1796.599609	94.790291
2810.258989	17370.106667	1795.597656	-13.229625
2810.258989	17370.106667	1794.595703	78.939590
2810.258989	17370.106667	1793.592773	-72.244949
2810.258989	17370.106667	1792.589844	-56.670750
2810.258989	17370.106667	1791.587891	154.169800
2810.258989	17370.106667	1790.583984	126.506142
2810.258989	17370.106667	1789.581055	139.208191
2810.258989	17370.106667	1788.577148	168.420547
2810.258989	17370.106667	1787.574219	54.602268
2810.258989	17370.106667	1786.570313	16.856436
2810.258989	17370.106667	1785.566406	36.102390
2810.258989	17370.106667	1784.561523	57.561863
2810.258989	17370.106667	1783.557617	119.320213
2810.258989	17370.106667	1782.552734	152.345673
2810.258989	17370.106667	1781.547852	30.598343
2810.258989	17370.106667	1780.542969	125.152100
2810.258989	17370.106667	1779.538086	171.962708
2810.258989	17370.106667	1778.532227	-42.901134
2810.258989	17370.106667	1777.527344	-29.660744
2810.258989	17370.106667	1776.521484	128.367355
2810.258989	17370.106667	1775.515625	186.393311
2810.258989	17370.106667	1774.508789	82.704124
2810.258989	17370.106667	1773.502930	168.903976
2810.258989	17370.106667	1772.496094	150.428238
2810.258989	17370.106667	1771.489258	-98.482964
2810.258989	17370.106667	1770.482422	-72.114792
2810.258989	17370.106667	1769.475586	75.116753
2810.258989	17370.106667	1768.467773	-0.908324
2810.258989	17370.106667	1767.460938	70.028442
2810.258989	17370.106667	1766.453125	36.412560
2810.258989	17370.106667	1765.445313	-2.090917
2810.258989	17370.106667	1764.437500	25.649023
2810.258989	17370.106667	1763.428711	-122.202057
2810.258989	17370.106667	1762.420898	64.028076
2810.258989	17370.106667	1761.412109	60.455429
2810.258989	17370.106667	1760.403320	132.539886
2810.258989	17370.106667	1759.393555	-129.551498
2810.258989	17370.106667	1758.384766	-64.875679
2810.258989	17370.106667	1757.375000	-38.274734
2810.258989	17370.106667	1756.366211	63.925495
2810.258989	17370.106667	1755.356445	40.476154
2810.258989	17370.106667	1754.345703	-96.717476
2810.258989	17370.106667	1753.335938	-18.700010
2810.258989	17370.106667	1752.325195	219.977158
2810.258989	17370.106667	1751.315430	89.472191
2810.258989	17370.106667	1750.304688	-104.992409
2810.258989	17370.106667	1749.292969	-252.266113
2810.258989	17370.106667	1748.282227	28.208645
2810.258989	17370.106667	1747.270508	-5.902092
2810.258989	17370.106667	1746.259766	-82.668083
2810.258989	17370.106667	1745.248047	-235.164017
2810.258989	17370.106667	1744.235352	-57.097610
2810.258989	17370.106667	1743.223633	-117.742790
2810.258989	17370.106667	1742.211914	62.308144
2810.258989	17370.106667	1741.199219	60.366646
2810.258989	17370.106667	1740.186523	-52.645973
2810.258989	17370.106667	1739.173828	-76.095093
2810.258989	17370.106667	1738.160156	25.341173
2810.258989	17370.106667	1737.147461	-142.289001
2810.258989	17370.106667	1736.133789	-17.584028
2810.258989	17370.106667	1735.120117	66.845009
2810.258989	17370.106667	1734.106445	224.179733
2810.258989	17370.106667	1733.091797	126.746368
2810.258989	17370.106667	1732.078125	-13.192577
2810.258989	17370.106667	1731.063477	58.811153
2810.258989	17370.106667	1730.048828	-41.309784
2810.258989	17370.106667	1729.034180	-167.437134
2810.258989	17370.106667	1728.019531	-140.598099
2810.258989	17370.106667	1727.003906	-177.485641
2810.258989	17370.106667	1725.988281	-68.558105
2810.258989	17370.106667	1724.972656	-206.908066
2810.258989	17370.106667	1723.957031	-93.578293
2810.258989	17370.106667	1722.941406	-142.742371
2810.258989	17370.106667	1721.924805	-34.450184
2810.258989	17370.106667	1720.909180	78.390892
2810.258989	17370.106667	1719.892578	-27.608299
2810.258989	17370.106667	1718.875977	-60.824062
2810.258989	17370.106667	1717.858398	-89.467796
2810.258989	17370.106667	1716.841797	22.774857
2810.258989	17370.106667	1715.824219	101.944542
2810.258989	17370.106667	1714.806641	-230.085449
2810.258989	17370.106667	1713.789063	-240.380157
2810.258989	17370.106667	1712.770508	-81.753952
2810.258989	17370.106667	1711.752930	-85.267258
2810.258989	17370.106667	1710.734375	281.920349
2810.258989	17370.106667	1709.715820	29.350784
2810.258989	17370.106667	1708.697266	-70.737190
2810.258989	17370.106667	1707.678711	-16.083267
2810.258989	17370.106667	1706.659180	73.600197
2810.258989	17370.106667	1705.640625	-101.804489
2810.258989	17370.106667	1704.621094	83.760765
2810.258989	17370.106667	1703.600586	48.805065
2810.258989	17370.106667	1702.581055	84.077553
2810.258989	17370.106667	1701.561523	32.543507
2810.258989	17370.106667	1700.541016	369.771362
2810.258989	17370.106667	1699.520508	118.901802
2810.258989	17370.106667	1698.500000	3.845675
2810.258989	17370.106667	1697.478516	232.874313
2810.258989	17370.106667	1696.458008	218.299576
2810.258989	17370.106667	1695.436523	360.418274
2810.258989	17370.106667	1694.415039	478.990784
2810.258989	17370.106667	1693.393555	10.237564
2810.258989	17370.106667	1692.372070	105.262886
2810.258989	17370.106667	1691.349609	-78.136902
2810.258989	17370.106667	1690.327148	259.834076
2810.258989	17370.106667	1689.304688	48.253784
2810.258989	17370.106667	1688.282227	82.073212
2810.258989	17370.106667	1687.259766	115.800026
2810.258989	17370.106667	1686.236328	343.325012
2810.258989	17370.106667	1685.213867	292.743042
2810.258989	17370.106667	1684.190430	118.312378
2810.258989	17370.106667	1683.166016	168.006348
2810.258989	17370.106667	1682.142578	133.589203
2810.258989	17370.106667	1681.119141	395.533691
2810.258989	17370.106667	1680.094727	122.905098
2810.258989	17370.106667	1679.070313	295.938660
2810.258989	17370.106667	1678.045898	585.474121
2810.258989	17370.106667	1677.020508	406.042542
2810.258989	17370.106667	1675.996094	382.865875
2810.258989	17370.106667	1674.970703	630.052002
2810.258989	17370.106667	1673.945313	569.411682
2810.258989	17370.106667	1672.919922	573.991821
2810.258989	17370.106667	1671.893555	280.260620
2810.258989	17370.106667	1670.868164	454.844940
2810.258989	17370.106667	1669.841797	557.090576
2810.258989	17370.106667	1668.815430	486.932465
2810.258989	17370.106667	1667.789063	817.199768
2810.258989	17370.106667	1666.761719	481.549164
2810.258989	17370.106667	1665.735352	902.368530
2810.258989	17370.106667	1664.708008	743.588318
2810.258989	17370.106667	1663.680664	501.082245
2810.258989	17370.106667	1662.653320	416.795593
2810.258989	17370.106667	1661.625000	669.681824
2810.258989	17370.106667	1660.597656	680.656494
2810.258989	17370.106667	1659.569336	449.820740
2810.258989	17370.106667	1658.541016	539.775879
2810.258989	17370.106667	1657.512695	608.757385
2810.258989	17370.106667	1656.483398	724.131653
2810.258989	17370.106667	1655.455078	820.878906
2810.258989	17370.106667	1654.425781	871.101074
2810.258989	17370.106667	1653.396484	983.977783
2810.258989	17370.106667	1652.366211	1031.773804
2810.258989	17370.106667	1651.336914	935.657104
2810.258989	17370.106667	1650.306641	781.532104
2810.258989	17370.106667	1649.276367	926.748535
2810.258989	17370.106667	1648.246094	1129.891357
2810.258989	17370.106667	1647.215820	950.283875
2810.258989	17370.106667	1646.185547	1160.290527
2810.258989	17370.106667	1645.154297	1034.042236
2810.258989	17370.106667	1644.123047	1234.658325
2810.258989	17370.106667	1643.091797	1335.551758
2810.258989	17370.106667	1642.060547	1230.202148
2810.258989	17370.106667	1641.028320	1122.563843
2810.258989	17370.106667	1639.997070	1415.670898
2810.258989	17370.106667	1638.964844	1574.349854
2810.258989	17370.106667	1637.931641	1540.803955
2810.258989	17370.106667	1636.899414	1710.998657
2810.258989	17370.106667	1635.867188	1406.723267
2810.258989	17370.106667	1634.833984	1340.886475
2810.258989	17370.106667	1633.800781	1568.890259
2810.258989	17370.106667	1632.767578	1294.930176
2810.258989	17370.106667	1631.734375	1356.405518
2810.258989	17370.106667	1630.700195	1420.176392
2810.258989	17370.106667	1629.666016	1527.870117
2810.258989	17370.106667	1628.631836	1677.154053
2810.258989	17370.106667	1627.597656	1445.154907
2810.258989	17370.106667	1626.563477	1582.912964
2810.258989	17370.106667	1625.528320	1607.457153
2810.258989	17370.106667	1624.493164	1761.351318
2810.258989	17370.106667	1623.458008	1795.166870
2810.258989	17370.106667	1622.422852	1672.039551
2810.258989	17370.106667	1621.387695	1491.307251
2810.258989	17370.106667	1620.351563	1726.023560
2810.258989	17370.106667	1619.315430	1769.212280
2810.258989	17370.106667	1618.279297	1777.835083
2810.258989	17370.106667	1617.243164	1712.711426
2810.258989	17370.106667	1616.207031	1675.335327
2810.258989	17370.106667	1615.169922	1624.180786
2810.258989	17370.106667	1614.132813	1681.431152
2810.258989	17370.106667	1613.095703	1833.199585
2810.258989	17370.106667	1612.058594	1961.931519
2810.258989	17370.106667	1611.020508	1795.815796
2810.258989	17370.106667	1609.983398	2037.484131
2810.258989	17370.106667	1608.945313	2127.138916
2810.258989	17370.106667	1607.907227	1919.855469
2810.258989	17370.106667	1606.868164	1786.359253
2810.258989	17370.106667	1605.830078	2046.518799
2810.258989	17370.106667	1604.791016	2094.962646
2810.258989	17370.106667	1603.751953	2184.871338
2810.258989	17370.106667	1602.712891	2063.236084
2810.258989	17370.106667	1601.673828	2077.396484
2810.258989	17370.106667	1600.633789	1905.399658
2810.258989	17370.106667	1599.594727	1965.725342
2810.258989	17370.106667	1598.554688	1904.297974
2810.258989	17370.106667	1597.513672	1868.239746
2810.258989	17370.106667	1596.473633	1933.382202
2810.258989	17370.106667	1595.433594	2124.912109
2810.258989	17370.106667	1594.392578	1792.889160
2810.258989	17370.106667	1593.351563	2021.278809
2810.258989	17370.106667	1592.310547	1845.688354
2810.258989	17370.106667	1591.268555	2032.850220
2810.258989	17370.106667	1590.227539	1857.528320
2810.258989	17370.106667	1589.185547	1661.714355
2810.258989	17370.106667	1588.143555	1794.066772
2810.258989	17370.106667	1587.100586	2162.652588
2810.258989	17370.106667	1586.058594	2129.997314
2810.258989	17370.106667	1585.015625	2179.969482
2810.258989	17370.106667	1583.972656	1938.975098
2810.258989	17370.106667	1582.929688	1883.788330
2810.258989	17370.106667	1581.886719	2080.739990
2810.258989	17370.106667	1580.843750	1796.733887
2810.258989	17370.106667	1579.799805	2028.194824
2810.258989	17370.106667	1578.755859	1776.587036
2810.258989	17370.106667	1577.711914	1548.091797
2810.258989	17370.106667	1576.666992	1553.237793
2810.258989	17370.106667	1575.623047	1503.606079
2810.258989	17370.106667	1574.578125	1479.271118
2810.258989	17370.106667	1573.533203	1493.958130
2810.258989	17370.106667	1572.488281	1424.155151
2810.258989	17370.106667	1571.443359	1336.219727
2810.258989	17370.106667	1570.397461	1355.878784
2810.258989	17370.106667	1569.351563	1489.939819
2810.258989	17370.106667	1568.305664	1363.585938
2810.258989	17370.106667	1567.259766	1465.883057
2810.258989	17370.106667	1566.213867	1319.303101
2810.258989	17370.106667	1565.166992	1533.736572
2810.258989	17370.106667	1564.120117	1318.970703
2810.258989	17370.106667	1563.073242	1556.433594
2810.258989	17370.106667	1562.026367	1643.311279
2810.258989	17370.106667	1560.978516	1620.754150
2810.258989	17370.106667	1559.930664	1520.782593
2810.258989	17370.106667	1558.883789	1765.450195
2810.258989	17370.106667	1557.834961	1394.384888
2810.258989	17370.106667	1556.787109	1750.997437
2810.258989	17370.106667	1555.739258	1733.752197
2810.258989	17370.106667	1554.690430	1493.287720
2810.258989	17370.106667	1553.641602	1822.774536
2810.258989	17370.106667	1552.592773	1468.782349
2810.258989	17370.106667	1551.542969	1734.666016
2810.258989	17370.106667	1550.494141	1581.563843
2810.258989	17370.106667	1549.444336	1551.629150
2810.258989	17370.106667	1548.394531	1619.761108
2810.258989	17370.106667	1547.344727	1556.013428
2810.258989	17370.106667	1546.293945	1547.059204
2810.258989	17370.106667	1545.244141	1520.084106
2810.258989	17370.106667	1544.193359	1607.014038
2810.258989	17370.106667	1543.142578	1757.757202
2810.258989	17370.106667	1542.090820	1681.210938
2810.258989	17370.106667	1541.040039	1714.001831
2810.258989	17370.106667	1539.988281	1892.407593
2810.258989	17370.106667	1538.936523	1932.293945
2810.258989	17370.106667	1537.884766	1901.899902
2810.258989	17370.106667	1536.833008	2078.411865
2810.258989	17370.106667	1535.780273	2200.510254
2810.258989	17370.106667	1534.727539	2084.309570
2810.258989	17370.106667	1533.674805	2013.736694
2810.258989	17370.106667	1532.622070	1900.241455
2810.258989	17370.106667	1531.569336	1970.791504
2810.258989	17370.106667	1530.515625	2107.284668
2810.258989	17370.106667	1529.461914	1867.332642
2810.258989	17370.106667	1528.408203	1761.471558
2810.258989	17370.106667	1527.354492	1651.299561
2810.258989	17370.106667	1526.299805	1758.992676
2810.258989	17370.106667	1525.246094	1542.697388
2810.258989	17370.106667	1524.191406	1303.999268
2810.258989	17370.106667	1523.136719	1346.543091
2810.258989	17370.106667	1522.081055	1024.523926
2810.258989	17370.106667	1521.026367	879.491150
2810.258989	17370.106667	1519.970703	669.025879
2810.258989	17370.106667	1518.915039	628.634338
2810.258989	17370.106667	1517.859375	592.975281
2810.258989	17370.106667	1516.802734	736.299255
2810.258989	17370.106667	1515.747070	526.786560
2810.258989	17370.106667	1514.690430	430.652832
2810.258989	17370.106667	1513.633789	291.775360
2810.258989	17370.106667	1512.577148	83.043327
2810.258989	17370.106667	1511.519531	177.540054
2810.258989	17370.106667	1510.461914	134.305450
2810.258989	17370.106667	1509.405273	-30.751217
2810.258989	17370.106667	1508.346680	-87.100372
2810.258989	17370.106667	1507.289063	130.122665
2810.258989	17370.106667	1506.231445	123.849205
2810.258989	17370.106667	1505.172852	-272.897949
2810.258989	17370.106667	1504.114258	-70.988335
2810.258989	17370.106667	1503.055664	-94.692162
2810.258989	17370.106667	1501.996094	-88.855263
2810.258989	17370.106667	1500.937500	-130.202072
2810.258989	17370.106667	1499.877930	-51.773945
2810.258989	17370.106667	1498.818359	-76.930672
2810.258989	17370.106667	1497.757813	62.736481
2810.258989	17370.106667	1496.698242	13.163646
2810.258989	17370.106667	1495.637695	227.543289
2810.258989	17370.106667	1494.577148	40.876125
2810.258989	17370.106667	1493.516602	210.499161
2810.258989	17370.106667	1492.456055	103.157608
2810.258989	17370.106667	1491.394531	38.852024
2810.258989	17370.106667	1490.333008	269.775665
2810.258989	17370.106667	1489.271484	84.283043
2810.258989	17370.106667	1488.209961	502.342926
2810.258989	17370.106667	1487.148438	540.088074
2810.258989	17370.106667	1486.085938	449.759186
2810.258989	17370.106667	1485.023438	620.632446
2810.258989	17370.106667	1483.960938	485.742035
2810.258989	17370.106667	1482.898438	445.552612
2810.258989	17370.106667	1481.834961	257.186401
2810.258989	17370.106667	1480.772461	116.294388
2810.258989	17370.106667	1479.708984	123.984474
2810.258989	17370.106667	1478.644531	-126.507591
2810.258989	17370.106667	1477.581055	97.263870
2810.258989	17370.106667	1476.517578	262.723083
2810.258989	17370.106667	1475.453125	280.163208
2810.258989	17370.106667	1474.388672	86.756805
2810.258989	17370.106667	1473.323242	111.329582
2810.258989	17370.106667	1472.258789	33.008862
2810.258989	17370.106667	1471.193359	80.387817
2810.258989	17370.106667	1470.127930	298.363831
2810.258989	17370.106667	1469.062500	485.043030
2810.258989	17370.106667	1467.997070	178.742447
2810.258989	17370.106667	1466.930664	309.925476
2810.258989	17370.106667	1465.865234	281.842102
2810.258989	17370.106667	1464.798828	455.981232
2810.258989	17370.106667	1463.731445	307.457184
2810.258989	17370.106667	1462.665039	481.597931
2810.258989	17370.106667	1461.597656	586.420715
2810.258989	17370.106667	1460.530273	485.866028
2810.258989	17370.106667	1459.462891	542.012451
2810.258989	17370.106667	1458.395508	805.813660
2810.258989	17370.106667	1457.327148	739.023499
2810.258989	17370.106667	1456.259766	603.223572
2810.258989	17370.106667	1455.191406	800.777893
2810.258989	17370.106667	1454.123047	828.424561
2810.258989	17370.106667	1453.053711	898.868469
2810.258989	17370.106667	1451.985352	1162.502930
2810.258989	17370.106667	1450.916016	1058.929932
2810.258989	17370.106667	1449.846680	771.648254
2810.258989	17370.106667	1448.776367	851.856689
2810.258989	17370.106667	1447.707031	533.750916
2810.258989	17370.106667	1446.636719	724.703552
2810.258989	17370.106667	1445.566406	517.629883
2810.258989	17370.106667	1444.496094	429.382629
2810.258989	17370.106667	1443.425781	664.615479
2810.258989	17370.106667	1442.354492	647.333557
2810.258989	17370.106667	1441.283203	365.648743
2810.258989	17370.106667	1440.211914	622.098267
2810.258989	17370.106667	1439.140625	494.165741
2810.258989	17370.106667	1438.069336	643.143311
2810.258989	17370.106667	1436.997070	571.899353
2810.258989	17370.106667	1435.924805	449.497711
2810.258989	17370.106667	1434.852539	492.275543
2810.258989	17370.106667	1433.780273	194.398941
2810.258989	17370.106667	1432.707031	305.613770
2810.258989	17370.106667	1431.633789	196.549652
2810.258989	17370.106667	1430.560547	277.388336
2810.258989	17370.106667	1429.487305	-24.033224
2810.258989	17370.106667	1428.413086	8.426946
2810.258989	17370.106667	1427.339844	-158.540207
2810.258989	17370.106667	1426.265625	-126.437759
2810.258989	17370.106667	1425.191406	-156.249435
2810.258989	17370.106667	1424.116211	-103.011383
2810.258989	17370.106667	1423.041992	211.172058
2810.258989	17370.106667	1421.966797	-301.311310
2810.258989	17370.106667	1420.891602	-19.823862
2810.258989	17370.106667	1419.816406	-60.059963
2810.258989	17370.106667	1418.740234	65.186157
2810.258989	17370.106667	1417.665039	71.604416
2810.258989	17370.106667	1416.588867	169.177856
2810.258989	17370.106667	1415.512695	121.411476
2810.258989	17370.106667	1414.435547	197.896362
2810.258989	17370.106667	1413.359375	80.576042
2810.258989	17370.106667	1412.282227	126.932793
2810.258989	17370.106667	1411.205078	68.486549
2810.258989	17370.106667	1410.127930	226.596512
2810.258989	17370.106667	1409.049805	135.890610
2810.258989	17370.106667	1407.972656	280.225891
2810.258989	17370.106667	1406.894531	535.337952
2810.258989	17370.106667	1405.816406	532.689331
2810.258989	17370.106667	1404.737305	580.037354
2810.258989	17370.106667	1403.659180	490.864807
2810.258989	17370.106667	1402.580078	584.156494
2810.258989	17370.106667	1401.500977	693.472961
2810.258989	17370.106667	1400.421875	593.331543
2810.258989	17370.106667	1399.341797	729.619019
2810.258989	17370.106667	1398.262695	398.055145
2810.258989	17370.106667	1397.182617	792.726563
2810.258989	17370.106667	1396.102539	755.714539
2810.258989	17370.106667	1395.021484	822.623291
2810.258989	17370.106667	1393.941406	492.951599
2810.258989	17370.106667	1392.860352	485.616302
2810.258989	17370.106667	1391.779297	631.359192
2810.258989	17370.106667	1390.698242	575.426086
2810.258989	17370.106667	1389.616211	622.331909
2810.258989	17370.106667	1388.535156	663.164856
2810.258989	17370.106667	1387.453125	735.042358
2810.258989	17370.106667	1386.371094	692.395874
2810.258989	17370.106667	1385.288086	738.465454
2810.258989	17370.106667	1384.206055	840.481995
2810.258989	17370.106667	1383.123047	885.721802
2810.258989	17370.106667	1382.040039	993.177551
2810.258989	17370.106667	1380.957031	939.871216
2810.258989	17370.106667	1379.873047	1188.588257
2810.258989	17370.106667	1378.789063	1206.130615
2810.258989	17370.106667	1377.705078	1192.109009
2810.258989	17370.106667	1376.621094	1499.714478
2810.258989	17370.106667	1375.537109	1505.906494
2810.258989	17370.106667	1374.452148	1444.643066
2810.258989	17370.106667	1373.367188	1648.914551
2810.258989	17370.106667	1372.282227	1432.802856
2810.258989	17370.106667	1371.197266	1533.695801
2810.258989	17370.106667	1370.112305	1641.462402
2810.258989	17370.106667	1369.026367	1474.396729
2810.258989	17370.106667	1367.940430	1543.238037
2810.258989	17370.106667	1366.854492	1446.650757
2810.258989	17370.106667	1365.767578	1270.757690
2810.258989	17370.106667	1364.681641	1302.309937
2810.258989	17370.106667	1363.594727	1358.175659
2810.258989	17370.106667	1362.507813	1126.962646
2810.258989	17370.106667	1361.419922	1179.485229
2810.258989	17370.106667	1360.333008	1112.294678
2810.258989	17370.106667	1359.245117	1209.569336
2810.258989	17370.106667	1358.157227	1415.508423
2810.258989	17370.106667	1357.069336	1304.606567
2810.258989	17370.106667	1355.981445	1287.271240
2810.258989	17370.106667	1354.892578	1442.186768
2810.258989	17370.106667	1353.803711	1551.758789
2810.258989	17370.106667	1352.714844	1457.621582
2810.258989	17370.106667	1351.625000	1620.779785
2810.258989	17370.106667	1350.536133	1470.557495
2810.258989	17370.106667	1349.446289	1584.165894
2810.258989	17370.106667	1348.356445	1579.316895
2810.258989	17370.106667	1347.266602	1836.817627
2810.258989	17370.106667	1346.175781	1894.468018
2810.258989	17370.106667	1345.085938	1979.815796
2810.258989	17370.106667	1343.995117	2014.501831
2810.258989	17370.106667	1342.903320	2216.496338
2810.258989	17370.106667	1341.812500	2323.677002
2810.258989	17370.106667	1340.720703	2560.103516
2810.258989	17370.106667	1339.629883	2433.938477
2810.258989	17370.106667	1338.538086	2591.957764
2810.258989	17370.106667	1337.445313	2757.356445
2810.258989	17370.106667	1336.353516	2110.925537
2810.258989	17370.106667	1335.260742	2228.438477
2810.258989	17370.106667	1334.167969	2024.538696
2810.258989	17370.106667	1333.075195	2167.795166
2810.258989	17370.106667	1331.981445	2160.987549
2810.258989	17370.106667	1330.888672	2045.211060
2810.258989	17370.106667	1329.794922	2160.680908
2810.258989	17370.106667	1328.701172	2118.975586
2810.258989	17370.106667	1327.606445	2178.118164
2810.258989	17370.106667	1326.512695	2055.630615
2810.258989	17370.106667	1325.417969	2076.938965
2810.258989	17370.106667	1324.323242	2281.861084
2810.258989	17370.106667	1323.227539	2049.995361
2810.258989	17370.106667	1322.132813	2301.929932
2810.258989	17370.106667	1321.037109	2250.778564
2810.258989	17370.106667	1319.941406	2241.347168
2810.258989	17370.106667	1318.845703	2091.177490
2810.258989	17370.106667	1317.750000	2211.741699
2810.258989	17370.106667	1316.653320	2066.193359
2810.258989	17370.106667	1315.556641	1922.217651
2810.258989	17370.106667	1314.459961	1805.979004
2810.258989	17370.106667	1313.363281	1908.698608
2810.258989	17370.106667	1312.265625	1781.408447
2810.258989	17370.106667	1311.167969	1535.429932
2810.258989	17370.106667	1310.070313	1600.185547
2810.258989	17370.106667	1308.972656	1246.701904
2810.258989	17370.106667	1307.874023	1264.205688
2810.258989	17370.106667	1306.776367	1026.106567
2810.258989	17370.106667	1305.677734	1217.055298
2810.258989	17370.106667	1304.579102	1053.856689
2810.258989	17370.106667	1303.479492	791.567444
2810.258989	17370.106667	1302.380859	897.320618
2810.258989	17370.106667	1301.281250	912.770325
2810.258989	17370.106667	1300.181641	863.736694
2810.258989	17370.106667	1299.081055	840.176025
2810.258989	17370.106667	1297.981445	767.432190
2810.258989	17370.106667	1296.880859	831.282471
2810.258989	17370.106667	1295.780273	815.485474
2810.258989	17370.106667	1294.679688	771.292664
2810.258989	17370.106667	1293.578125	803.265991
2810.258989	17370.106667	1292.476563	910.818176
2810.258989	17370.106667	1291.375000	899.448914
2810.258989	17370.106667	1290.273438	875.264099
2810.258989	17370.106667	1289.171875	853.791626
2810.258989	17370.106667	1288.069336	952.575928
2810.258989	17370.106667	1286.966797	959.226074
2810.258989	17370.106667	1285.864258	1024.059082
2810.258989	17370.106667	1284.761719	1271.211182
2810.258989	17370.106667	1283.658203	1234.321533
2810.258989	17370.106667	1282.554688	1243.460205
2810.258989	17370.106667	1281.451172	1357.645386
2810.258989	17370.106667	1280.347656	1467.488892
2810.258989	17370.106667	1279.244141	1638.299194
2810.258989	17370.106667	1278.139648	1430.996460
2810.258989	17370.106667	1277.035156	1620.956543
2810.258989	17370.106667	1275.930664	1373.309814
2810.258989	17370.106667	1274.825195	1335.000366
2810.258989	17370.106667	1273.720703	1391.650146
2810.258989	17370.106667	1272.615234	1300.584473
2810.258989	17370.106667	1271.508789	1255.704590
2810.258989	17370.106667	1270.403320	1142.262573
2810.258989	17370.106667	1269.297852	1138.028442
2810.258989	17370.106667	1268.191406	1080.770996
2810.258989	17370.106667	1267.084961	1010.834045
2810.258989	17370.106667	1265.977539	808.522644
2810.258989	17370.106667	1264.871094	881.804016
2810.258989	17370.106667	1263.763672	809.357849
2810.258989	17370.106667	1262.656250	762.838501
2810.258989	17370.106667	1261.548828	649.437256
2810.258989	17370.106667	1260.440430	853.026428
2810.258989	17370.106667	1259.333008	1013.135925
2810.258989	17370.106667	1258.224609	1231.533203
2810.258989	17370.106667	1257.115234	1140.077515
2810.258989	17370.106667	1256.006836	1157.960815
2810.258989	17370.106667	1254.897461	1251.513184
2810.258989	17370.106667	1253.788086	1571.396851
2810.258989	17370.106667	1252.678711	1553.182129
2810.258989	17370.106667	1251.569336	1499.673584
2810.258989	17370.106667	1250.458984	1593.595825
2810.258989	17370.106667	1249.349609	1777.625977
2810.258989	17370.106667	1248.239258	1727.226318
2810.258989	17370.106667	1247.127930	1547.760010
2810.258989	17370.106667	1246.017578	1546.002808
2810.258989	17370.106667	1244.906250	1584.491089
2810.258989	17370.106667	1243.794922	1274.614380
2810.258989	17370.106667	1242.683594	1275.610840
2810.258989	17370.106667	1241.571289	1233.934448
2810.258989	17370.106667	1240.459961	1258.055908
2810.258989	17370.106667	1239.347656	1130.614746
2810.258989	17370.106667	1238.234375	1032.322632
2810.258989	17370.106667	1237.122070	1138.674194
2810.258989	17370.106667	1236.008789	1204.527344
2810.258989	17370.106667	1234.896484	997.260437
2810.258989	17370.106667	1233.782227	852.416626
2810.258989	17370.106667	1232.668945	737.631592
2810.258989	17370.106667	1231.555664	826.838684
2810.258989	17370.106667	1230.441406	772.298218
2810.258989	17370.106667	1229.327148	634.994995
2810.258989	17370.106667	1228.211914	573.296692
2810.258989	17370.106667	1227.097656	554.974121
2810.258989	17370.106667	1225.982422	592.434265
2810.258989	17370.106667	1224.867188	661.446472
2810.258989	17370.106667	1223.751953	620.145691
2810.258989	17370.106667	1222.635742	583.082764
2810.258989	17370.106667	1221.520508	559.150330
2810.258989	17370.106667	1220.404297	635.650452
2810.258989	17370.106667	1219.287109	672.407227
2810.258989	17370.106667	1218.170898	488.904480
2810.258989	17370.106667	1217.053711	728.414612
2810.258989	17370.106667	1215.936523	699.154663
2810.258989	17370.106667	1214.819336	633.679688
2810.258989	17370.106667	1213.702148	550.019043
2810.258989	17370.106667	1212.583984	594.098511
2810.258989	17370.106667	1211.465820	440.015198
2810.258989	17370.106667	1210.347656	451.904236
2810.258989	17370.106667	1209.229492	475.038361
2810.258989	17370.106667	1208.110352	463.922058
2810.258989	17370.106667	1206.992188	389.857758
2810.258989	17370.106667	1205.873047	394.673431
2810.258989	17370.106667	1204.752930	409.113342
2810.258989	17370.106667	1203.633789	281.485260
2810.258989	17370.106667	1202.513672	208.618744
2810.258989	17370.106667	1201.393555	251.432068
2810.258989	17370.106667	1200.273438	245.716629
2810.258989	17370.106667	1199.152344	225.404190
2810.258989	17370.106667	1198.032227	188.590393
2810.258989	17370.106667	1196.911133	192.691055
2810.258989	17370.106667	1195.790039	133.094604
2810.258989	17370.106667	1194.667969	58.373196
2810.258989	17370.106667	1193.545898	136.698608
2810.258989	17370.106667	1192.424805	122.669662
2810.258989	17370.106667	1191.301758	254.557251
2810.258989	17370.106667	1190.179688	196.961594
2810.258989	17370.106667	1189.056641	351.702911
2810.258989	17370.106667	1187.933594	425.647736
2810.258989	17370.106667	1186.810547	456.785858
2810.258989	17370.106667	1185.687500	495.537781
2810.258989	17370.106667	1184.563477	568.516113
2810.258989	17370.106667	1183.440430	559.127136
2810.258989	17370.106667	1182.316406	790.941162
2810.258989	17370.106667	1181.191406	823.127563
2810.258989	17370.106667	1180.067383	913.884094
2810.258989	17370.106667	1178.942383	955.597107
2810.258989	17370.106667	1177.817383	1004.973755
2810.258989	17370.106667	1176.692383	1016.735413
2810.258989	17370.106667	1175.566406	937.662170
2810.258989	17370.106667	1174.440430	833.543457
2810.258989	17370.106667	1173.314453	756.313660
2810.258989	17370.106667	1172.188477	808.976257
2810.258989	17370.106667	1171.062500	638.715698
2810.258989	17370.106667	1169.935547	610.588135
2810.258989	17370.106667	1168.808594	644.157776
2810.258989	17370.106667	1167.681641	513.007446
2810.258989	17370.106667	1166.553711	598.959778
2810.258989	17370.106667	1165.426758	555.426575
2810.258989	17370.106667	1164.298828	503.716095
2810.258989	17370.106667	1163.170898	316.693970
2810.258989	17370.106667	1162.041992	221.192215
2810.258989	17370.106667	1160.914063	168.886047
2810.258989	17370.106667	1159.785156	285.755096
2810.258989	17370.106667	1158.656250	25.491470
2810.258989	17370.106667	1157.526367	137.271667
2810.258989	17370.106667	1156.397461	-39.186459
2810.258989	17370.106667	1155.267578	-33.792500
2810.258989	17370.106667	1154.137695	-59.338390
2810.258989	17370.106667	1153.006836	-52.678154
2810.258989	17370.106667	1151.876953	-82.110832
2810.258989	17370.106667	1150.746094	4.102801
2810.258989	17370.106667	1149.615234	-143.755585
2810.258989	17370.106667	1148.484375	-43.039497
2810.258989	17370.106667	1147.352539	9.931834
2810.258989	17370.106667	1146.220703	41.950134
2810.258989	17370.106667	1145.088867	-2.243370
2810.258989	17370.106667	1143.957031	-49.242390
2810.258989	17370.106667	1142.825195	-46.115242
2810.258989	17370.106667	1141.692383	-55.426582
2810.258989	17370.106667	1140.559570	-158.710419
2810.258989	17370.106667	1139.426758	-79.362190
2810.258989	17370.106667	1138.292969	-282.305145
2810.258989	17370.106667	1137.159180	-275.507599
2810.258989	17370.106667	1136.025391	-158.768265
2810.258989	17370.106667	1134.891602	-206.183701
2810.258989	17370.106667	1133.757813	-82.350433
2810.258989	17370.106667	1132.623047	-39.967476
2810.258989	17370.106667	1131.488281	15.744393
2810.258989	17370.106667	1130.353516	75.105652
2810.258989	17370.106667	1129.217773	-47.014542
2810.258989	17370.106667	1128.083008	57.138157
2810.258989	17370.106667	1126.947266	-56.575134
2810.258989	17370.106667	1125.811523	108.117439
2810.258989	17370.106667	1124.674805	14.494922
2810.258989	17370.106667	1123.539063	-40.506035
2810.258989	17370.106667	1122.402344	43.751469
2810.258989	17370.106667	1121.265625	84.731049
2810.258989	17370.106667	1120.127930	-1.440863
2810.258989	17370.106667	1118.990234	-68.480164
2810.258989	17370.106667	1117.853516	-5.373919
2810.258989	17370.106667	1116.714844	61.310886
2810.258989	17370.106667	1115.577148	124.455307
2810.258989	17370.106667	1114.439453	-26.399302
2810.258989	17370.106667	1113.300781	17.918983
2810.258989	17370.106667	1112.162109	88.954552
2810.258989	17370.106667	1111.022461	-6.814172
2810.258989	17370.106667	1109.883789	177.052414
2810.258989	17370.106667	1108.744141	-56.709949
2810.258989	17370.106667	1107.604492	165.326294
2810.258989	17370.106667	1106.463867	154.691086
2810.258989	17370.106667	1105.324219	222.618561
2810.258989	17370.106667	1104.183594	307.570496
2810.258989	17370.106667	1103.042969	357.210144
2810.258989	17370.106667	1101.902344	429.165802
2810.258989	17370.106667	1100.760742	238.493439
2810.258989	17370.106667	1099.619141	230.004990
2810.258989	17370.106667	1098.477539	423.324890
2810.258989	17370.106667	1097.335938	391.132324
2810.258989	17370.106667	1096.193359	254.458527
2810.258989	17370.106667	1095.051758	450.727570
2810.258989	17370.106667	1093.909180	221.847229
2810.258989	17370.106667	1092.765625	329.031647
2810.258989	17370.106667	1091.623047	258.186737
2810.258989	17370.106667	1090.479492	374.242340
2810.258989	17370.106667	1089.335938	382.914429
2810.258989	17370.106667	1088.192383	175.221054
2810.258989	17370.106667	1087.047852	226.273102
2810.258989	17370.106667	1085.903320	375.742798
2810.258989	17370.106667	1084.758789	244.062332
2810.258989	17370.106667	1083.614258	153.736069
2810.258989	17370.106667	1082.469727	241.522400
2810.258989	17370.106667	1081.324219	334.487946
2810.258989	17370.106667	1080.178711	350.932220
2810.258989	17370.106667	1079.033203	314.054077
2810.258989	17370.106667	1077.886719	400.467773
2810.258989	17370.106667	1076.740234	534.979919
2810.258989	17370.106667	1075.593750	555.785400
2810.258989	17370.106667	1074.447266	532.692444
2810.258989	17370.106667	1073.300781	463.431122
2810.258989	17370.106667	1072.153320	325.877106
2810.258989	17370.106667	1071.005859	294.182129
2810.258989	17370.106667	1069.858398	489.772552
2810.258989	17370.106667	1068.709961	307.847168
2810.258989	17370.106667	1067.561523	400.903564
2810.258989	17370.106667	1066.413086	400.361298
2810.258989	17370.106667	1065.264648	499.066681
2810.258989	17370.106667	1064.116211	255.308380
2810.258989	17370.106667	1062.966797	266.987122
2810.258989	17370.106667	1061.817383	453.704315
2810.258989	17370.106667	1060.667969	327.095337
2810.258989	17370.106667	1059.517578	236.853683
2810.258989	17370.106667	1058.368164	272.337372
2810.258989	17370.106667	1057.217773	110.302818
2810.258989	17370.106667	1056.067383	256.669159
2810.258989	17370.106667	1054.916016	330.997803
2810.258989	17370.106667	1053.764648	228.210922
2810.258989	17370.106667	1052.613281	106.660736
2810.258989	17370.106667	1051.461914	8.040266
2810.258989	17370.106667	1050.310547	213.728104
2810.258989	17370.106667	1049.158203	168.918259
2810.258989	17370.106667	1048.005859	218.504852
2810.258989	17370.106667	1046.853516	167.548111
2810.258989	17370.106667	1045.700195	159.291718
2810.258989	17370.106667	1044.547852	253.677979
2810.258989	17370.106667	1043.394531	205.354691
2810.258989	17370.106667	1042.240234	222.081161
2810.258989	17370.106667	1041.086914	82.646683
2810.258989	17370.106667	1039.932617	108.615761
2810.258989	17370.106667	1038.778320	257.812592
2810.258989	17370.106667	1037.624023	391.319885
2810.258989	17370.106667	1036.469727	388.354126
2810.258989	17370.106667	1035.314453	455.172272
2810.258989	17370.106667	1034.159180	532.470825
2810.258989	17370.106667	1033.003906	586.139038
2810.258989	17370.106667	1031.847656	654.171143
2810.258989	17370.106667	1030.692383	632.247803
2810.258989	17370.106667	1029.536133	649.636841
2810.258989	17370.106667	1028.378906	358.332947
2810.258989	17370.106667	1027.222656	348.138245
2810.258989	17370.106667	1026.065430	279.525299
2810.258989	17370.106667	1024.908203	12.953676
2810.258989	17370.106667	1023.750977	215.424988
2810.258989	17370.106667	1022.593750	213.533691
2810.258989	17370.106667	1021.435547	110.988358
2810.258989	17370.106667	1020.277344	138.968399
2810.258989	17370.106667	1019.119141	123.268433
2810.258989	17370.106667	1017.959961	38.358654
2810.258989	17370.106667	1016.800781	-38.576542
2810.258989	17370.106667	1015.641602	124.717430
2810.258989	17370.106667	1014.482422	30.437513
2810.258989	17370.106667	1013.323242	99.865639
2810.258989	17370.106667	1012.163086	49.361454
2810.258989	17370.106667	1011.002930	137.723801
2810.258989	17370.106667	1009.842773	156.530472
2810.258989	17370.106667	1008.681641	29.430088
2810.258989	17370.106667	1007.520508	113.510643
2810.258989	17370.106667	1006.359375	113.722977
2810.258989	17370.106667	1005.198242	202.868530
2810.258989	17370.106667	1004.037109	433.601257
2810.258989	17370.106667	1002.875000	171.313751
2810.258989	17370.106667	1001.712891	213.517990
2810.258989	17370.106667	1000.550781	196.908920
2810.258989	17370.106667	999.387695	270.032379
2810.258989	17370.106667	998.224609	115.901360
2810.258989	17370.106667	997.061523	40.020409
2810.258989	17370.106667	995.898438	-109.985832
2810.258989	17370.106667	994.734375	126.740845
2810.258989	17370.106667	993.571289	-68.035622
2810.258989	17370.106667	992.407227	-31.682493
2810.258989	17370.106667	991.242188	-69.140640
2810.258989	17370.106667	990.078125	-114.848129
2810.258989	17370.106667	988.913086	55.697739
2810.258989	17370.106667	987.748047	120.920326
2810.258989	17370.106667	986.583008	100.707916
2810.258989	17370.106667	985.416992	84.835480
2810.258989	17370.106667	984.250977	38.683456
2810.258989	17370.106667	983.084961	-79.452644
2810.258989	17370.106667	981.918945	-93.425774
2810.258989	17370.106667	980.751953	-77.546028
2810.258989	17370.106667	979.584961	-154.232697
2810.258989	17370.106667	978.417969	8.567507
2810.258989	17370.106667	977.250977	-6.139986
2810.258989	17370.106667	976.083008	-58.819664
2810.258989	17370.106667	974.915039	-54.955219
2810.258989	17370.106667	973.747070	-61.734596
2810.258989	17370.106667	972.579102	39.302689
2810.258989	17370.106667	971.410156	-10.566731
2810.258989	17370.106667	970.242188	-6.296936
2810.258989	17370.106667	969.072266	224.466263
2810.258989	17370.106667	967.903320	179.453674
2810.258989	17370.106667	966.733398	42.984516
2810.258989	17370.106667	965.563477	244.312515
2810.258989	17370.106667	964.393555	163.872696
2810.258989	17370.106667	963.223633	226.990753
2810.258989	17370.106667	962.052734	217.966553
2810.258989	17370.106667	960.881836	180.039200
2810.258989	17370.106667	959.710938	273.458160
2810.258989	17370.106667	958.540039	402.109619
2810.258989	17370.106667	957.368164	409.840240
2810.258989	17370.106667	956.196289	268.757355
2810.258989	17370.106667	955.024414	316.517578
2810.258989	17370.106667	953.851563	238.000793
2810.258989	17370.106667	952.679688	203.933853
2810.258989	17370.106667	951.506836	259.806488
2810.258989	17370.106667	950.333984	232.205444
2810.258989	17370.106667	949.160156	284.102325
2810.258989	17370.106667	947.986328	103.113228
2810.258989	17370.106667	946.812500	-20.132626
2810.258989	17370.106667	945.638672	18.211826
2810.258989	17370.106667	944.464844	10.316848
2810.258989	17370.106667	943.290039	-5.888070
2810.258989	17370.106667	942.115234	-54.768288
2810.258989	17370.106667	940.940430	130.947021
2810.258989	17370.106667	939.764648	-24.737503
2810.258989	17370.106667	938.588867	46.670200
2810.258989	17370.106667	937.413086	20.861828
2810.258989	17370.106667	936.237305	10.529076
2810.258989	17370.106667	935.060547	-28.779531
2810.258989	17370.106667	933.883789	254.365555
2810.258989	17370.106667	932.707031	65.544670
2810.258989	17370.106667	931.530273	0.863534
2810.258989	17370.106667	930.352539	-34.540516
2810.258989	17370.106667	929.175781	77.545860
2810.258989	17370.106667	927.998047	106.178329
2810.258989	17370.106667	926.819336	74.613907
2810.258989	17370.106667	925.641602	-17.102013
2810.258989	17370.106667	924.462891	21.195538
2810.258989	17370.106667	923.284180	-2.595177
2810.258989	17370.106667	922.104492	45.402336
2810.258989	17370.106667	920.924805	-28.786716
2810.258989	17370.106667	919.746094	-23.669342
2810.258989	17370.106667	919.551758	33.600025
2810.258989	17370.106667	918.386719	147.389084
2810.258989	17370.106667	917.220703	-165.195038
2810.258989	17370.106667	916.054688	-109.537285
2810.258989	17370.106667	914.887695	-179.810104
2810.258989	17370.106667	913.721680	61.743805
2810.258989	17370.106667	912.554688	41.802883
2810.258989	17370.106667	911.387695	-71.054962
2810.258989	17370.106667	910.220703	17.422285
2810.258989	17370.106667	909.052734	-23.786480
2810.258989	17370.106667	907.885742	-8.878101
2810.258989	17370.106667	906.717773	-100.361694
2810.258989	17370.106667	905.548828	-37.091717
2810.258989	17370.106667	904.380859	74.483017
2810.258989	17370.106667	903.211914	-36.294102
2810.258989	17370.106667	902.042969	-104.509300
2810.258989	17370.106667	900.874023	105.559105
2810.258989	17370.106667	899.704102	-49.594482
2810.258989	17370.106667	898.535156	32.890694
2810.258989	17370.106667	897.365234	-10.182103
2810.258989	17370.106667	896.194336	8.549383
2810.258989	17370.106667	895.024414	121.855072
2810.258989	17370.106667	893.853516	100.017670
2810.258989	17370.106667	892.682617	-37.588150
2810.258989	17370.106667	891.511719	23.566826
2810.258989	17370.106667	890.340820	111.697365
2810.258989	17370.106667	889.168945	101.444244
2810.258989	17370.106667	887.997070	328.338348
2810.258989	17370.106667	886.825195	240.935257
2810.258989	17370.106667	885.653320	32.148880
2810.258989	17370.106667	884.480469	62.376804
2810.258989	17370.106667	883.307617	86.809067
2810.258989	17370.106667	882.134766	70.781471
2810.258989	17370.106667	880.961914	154.890518
2810.258989	17370.106667	879.788086	190.834518
2810.258989	17370.106667	878.614258	-0.374231
2810.258989	17370.106667	877.440430	-51.023037
2810.258989	17370.106667	876.266602	4.169158
2810.258989	17370.106667	875.091797	45.872276
2810.258989	17370.106667	873.916992	56.781212
2810.258989	17370.106667	872.742188	152.288315
2810.258989	17370.106667	871.567383	290.045715
2810.258989	17370.106667	870.391602	500.785767
2810.258989	17370.106667	869.215820	615.347839
2810.258989	17370.106667	868.040039	629.948547
2810.258989	17370.106667	866.864258	817.420593
2810.258989	17370.106667	865.687500	588.056824
2810.258989	17370.106667	864.510742	573.837280
2810.258989	17370.106667	863.333984	269.733307
2810.258989	17370.106667	862.157227	29.085480
2810.258989	17370.106667	860.979492	247.164108
2810.258989	17370.106667	859.802734	35.382664
2810.258989	17370.106667	858.625000	3.992067
2810.258989	17370.106667	857.446289	177.812271
2810.258989	17370.106667	856.268555	-53.020573
2810.258989	17370.106667	855.089844	15.286372
2810.258989	17370.106667	853.911133	-27.607203
2810.258989	17370.106667	852.731445	-14.918389
2810.258989	17370.106667	851.552734	-17.577385
2810.258989	17370.106667	850.373047	-33.648903
2810.258989	17370.106667	849.193359	-43.980068
2810.258989	17370.106667	848.013672	-60.062489
2810.258989	17370.106667	846.833008	-200.572815
2810.258989	17370.106667	845.652344	-195.584747
2810.258989	17370.106667	844.471680	-148.516159
2810.258989	17370.106667	843.291016	-197.133118
2810.258989	17370.106667	842.110352	-102.293938
2810.258989	17370.106667	840.928711	-32.363380
2810.258989	17370.106667	839.747070	6.933048
2810.258989	17370.106667	838.564453	-129.654205
2810.258989	17370.106667	837.382813	-61.718224
2810.258989	17370.106667	836.200195	-119.928093
2810.258989	17370.106667	835.017578	-149.476105
2810.258989	17370.106667	833.834961	-138.921326
2810.258989	17370.106667	832.651367	-197.126694
2810.258989	17370.106667	831.467773	-121.687775
2810.258989	17370.106667	830.284180	-248.624115
2810.258989	17370.106667	829.100586	-37.751156
2810.258989	17370.106667	827.916992	-23.502985
2810.258989	17370.106667	826.732422	-125.637680
2810.258989	17370.106667	825.547852	149.866425
2810.258989	17370.106667	824.363281	-17.134243
2810.258989	17370.106667	823.177734	88.527451
2810.258989	17370.106667	821.992188	140.756012
2810.258989	17370.106667	820.806641	-22.391447
2810.258989	17370.106667	819.621094	-48.320759
2810.258989	17370.106667	818.434570	51.456417
2810.258989	17370.106667	817.249023	118.790855
2810.258989	17370.106667	816.062500	66.122154
2810.258989	17370.106667	814.875000	253.309067
2810.258989	17370.106667	813.688477	312.872406
2810.258989	17370.106667	812.500977	385.708130
2810.258989	17370.106667	811.313477	336.730225
2810.258989	17370.106667	810.125977	342.903931
2810.258989	17370.106667	808.937500	432.722229
2810.258989	17370.106667	807.749023	391.287628
2810.258989	17370.106667	806.560547	442.982330
2810.258989	17370.106667	805.372070	333.085083
2810.258989	17370.106667	804.182617	436.014526
2810.258989	17370.106667	802.994141	384.992096
2810.258989	17370.106667	801.803711	567.577637
2810.258989	17370.106667	800.614258	615.230591
2810.258989	17370.106667	799.424805	556.512268
2810.258989	17370.106667	798.234375	531.954407
2810.258989	17370.106667	797.043945	562.405762
2810.258989	17370.106667	795.852539	526.405029
2810.258989	17370.106667	794.662109	693.353516
2810.258989	17370.106667	793.470703	480.888672
2810.258989	17370.106667	792.279297	482.741180
2810.258989	17370.106667	791.087891	298.768799
2810.258989	17370.106667	789.895508	346.073456
2810.258989	17370.106667	788.703125	283.410370
2810.258989	17370.106667	787.510742	319.251617
2810.258989	17370.106667	786.318359	305.788971
2810.258989	17370.106667	785.125000	205.177872
2810.258989	17370.106667	783.931641	216.279175
2810.258989	17370.106667	782.738281	128.895508
2810.258989	17370.106667	781.544922	81.250862
2810.258989	17370.106667	780.350586	188.747650
2810.258989	17370.106667	779.156250	303.722443
2810.258989	17370.106667	777.961914	216.220978
2810.258989	17370.106667	776.767578	230.826706
2810.258989	17370.106667	775.572266	239.710403
2810.258989	17370.106667	774.376953	161.591599
2810.258989	17370.106667	773.181641	397.176758
2810.258989	17370.106667	771.986328	356.751373
2810.258989	17370.106667	770.790039	522.207825
2810.258989	17370.106667	769.593750	438.237488
2810.258989	17370.106667	768.397461	386.354401
2810.258989	17370.106667	767.201172	540.223999
2810.258989	17370.106667	766.003906	471.253174
2810.258989	17370.106667	764.806641	268.274048
2810.258989	17370.106667	763.609375	346.450104
2810.258989	17370.106667	762.412109	222.701706
2810.258989	17370.106667	761.213867	221.540009
2810.258989	17370.106667	760.015625	163.758316
2810.258989	17370.106667	758.817383	156.844849
2810.258989	17370.106667	757.618164	59.411701
2810.258989	17370.106667	756.419922	193.739822
2810.258989	17370.106667	755.220703	94.343483
2810.258989	17370.106667	754.021484	51.439102
2810.258989	17370.106667	752.821289	113.955521
2810.258989	17370.106667	751.621094	287.472992
2810.258989	17370.106667	750.420898	123.907524
2810.258989	17370.106667	749.220703	237.008118
2810.258989	17370.106667	748.020508	286.025726
2810.258989	17370.106667	746.819336	133.672195
2810.258989	17370.106667	745.618164	331.157959
2810.258989	17370.106667	744.416992	445.759369
2810.258989	17370.106667	743.214844	441.808716
2810.258989	17370.106667	742.012695	637.042542
2810.258989	17370.106667	740.810547	548.360718
2810.258989	17370.106667	739.608398	762.151489
2810.258989	17370.106667	738.406250	714.680054
2810.258989	17370.106667	737.203125	971.415649
2810.258989	17370.106667	736.000000	1227.979858
2810.258989	17370.106667	734.795898	1337.941528
2810.258989	17370.106667	733.592773	1688.035645
2810.258989	17370.106667	732.388672	1780.833008
2810.258989	17370.106667	731.184570	1584.600708
2810.258989	17370.106667	729.979492	1596.590088
2810.258989	17370.106667	728.775391	1471.606201
2810.258989	17370.106667	727.570313	1295.982666
2810.258989	17370.106667	726.365234	1037.883667
2810.258989	17370.106667	725.160156	794.815674
2810.258989	17370.106667	723.954102	829.101074
2810.258989	17370.106667	722.748047	797.734070
2810.258989	17370.106667	721.541992	655.802246
2810.258989	17370.106667	720.334961	575.655212
2810.258989	17370.106667	719.128906	620.910278
2810.258989	17370.106667	717.921875	634.253052
2810.258989	17370.106667	716.714844	524.005432
2810.258989	17370.106667	715.506836	638.255981
2810.258989	17370.106667	714.298828	584.028748
2810.258989	17370.106667	713.090820	840.213135
2810.258989	17370.106667	711.882813	877.444702
2810.258989	17370.106667	710.674805	916.456604
2810.258989	17370.106667	709.465820	932.949524
2810.258989	17370.106667	708.256836	984.867859
2810.258989	17370.106667	707.047852	941.406677
2810.258989	17370.106667	705.837891	1069.737305
2810.258989	17370.106667	704.627930	1046.671387
2810.258989	17370.106667	703.417969	876.037964
2810.258989	17370.106667	702.208008	729.668945
2810.258989	17370.106667	700.998047	469.440155
2810.258989	17370.106667	699.787109	384.644775
2810.258989	17370.106667	698.576172	266.229614
2810.258989	17370.106667	697.364258	170.170273
2810.258989	17370.106667	696.153320	213.934296
2810.258989	17370.106667	694.941406	197.944092
2810.258989	17370.106667	693.729492	207.980835
2810.258989	17370.106667	692.516602	271.981842
2810.258989	17370.106667	691.304688	294.890808
2810.258989	17370.106667	690.091797	192.904572
2810.258989	17370.106667	688.878906	327.413513
2810.258989	17370.106667	687.665039	279.310364
2810.258989	17370.106667	686.451172	119.454353
2810.258989	17370.106667	685.237305	194.106323
2810.258989	17370.106667	684.023438	238.877716
2810.258989	17370.106667	682.809570	348.671967
2810.258989	17370.106667	681.594727	374.638916
2810.258989	17370.106667	680.379883	303.817383
2810.258989	17370.106667	679.165039	60.037128
2810.258989	17370.106667	677.949219	433.435638
2810.258989	17370.106667	676.733398	195.154037
2810.258989	17370.106667	675.517578	257.912750
2810.258989	17370.106667	674.301758	415.314514
2810.258989	17370.106667	673.084961	462.990387
2810.258989	17370.106667	671.869141	493.862671
2810.258989	17370.106667	670.651367	422.533600
2810.258989	17370.106667	669.434570	494.087128
2810.258989	17370.106667	668.216797	739.977051
2810.258989	17370.106667	667.000000	740.782593
2810.258989	17370.106667	665.781250	980.803528
2810.258989	17370.106667	664.563477	899.809143
2810.258989	17370.106667	663.344727	1020.881775
2810.258989	17370.106667	662.125977	891.568237
2810.258989	17370.106667	660.907227	730.728333
2810.258989	17370.106667	659.688477	631.036316
2810.258989	17370.106667	658.468750	577.628540
2810.258989	17370.106667	657.249023	661.239624
2810.258989	17370.106667	656.029297	739.189331
2810.258989	17370.106667	654.808594	415.267303
2810.258989	17370.106667	653.587891	472.733704
2810.258989	17370.106667	652.367188	528.256104
2810.258989	17370.106667	651.146484	500.424835
2810.258989	17370.106667	649.924805	472.535217
2810.258989	17370.106667	648.704102	590.704468
2810.258989	17370.106667	647.482422	638.488342
2810.258989	17370.106667	646.259766	606.687195
2810.258989	17370.106667	645.037109	519.385864
2810.258989	17370.106667	643.815430	450.538605
2810.258989	17370.106667	642.591797	348.394745
2810.258989	17370.106667	641.369141	325.661438
2810.258989	17370.106667	640.145508	511.557068
2810.258989	17370.106667	638.921875	453.590698
2810.258989	17370.106667	637.698242	371.590240
2810.258989	17370.106667	636.474609	287.717590
2810.258989	17370.106667	635.250000	410.480530
2810.258989	17370.106667	634.025391	389.237061
2810.258989	17370.106667	632.800781	303.390320
2810.258989	17370.106667	631.575195	291.280060
2810.258989	17370.106667	630.349609	220.120850
2810.258989	17370.106667	629.124023	475.192871
2810.258989	17370.106667	627.898438	363.371979
2810.258989	17370.106667	626.671875	457.897278
2810.258989	17370.106667	625.445313	414.173004
2810.258989	17370.106667	624.218750	490.125885
2810.258989	17370.106667	622.992188	538.375061
2810.258989	17370.106667	621.764648	288.321533
2810.258989	17370.106667	620.537109	347.532959
2810.258989	17370.106667	619.309570	92.008316
2810.258989	17370.106667	618.081055	186.090073
2810.258989	17370.106667	616.852539	121.901604
2810.258989	17370.106667	615.624023	243.429291
2810.258989	17370.106667	614.395508	151.588257
2810.258989	17370.106667	613.166992	61.579758
2810.258989	17370.106667	611.937500	57.938503
2810.258989	17370.106667	610.708008	-8.213338
2810.258989	17370.106667	609.477539	135.036362
2810.258989	17370.106667	608.248047	6.371026
2810.258989	17370.106667	607.017578	0.745154
2810.258989	17370.106667	605.787109	-48.975754
2810.258989	17370.106667	604.555664	-32.639877
2810.258989	17370.106667	603.325195	29.535587
2810.258989	17370.106667	602.093750	111.826759
2810.258989	17370.106667	600.861328	-22.397581
2810.258989	17370.106667	599.629883	1.122118
2810.258989	17370.106667	598.397461	30.096434
2810.258989	17370.106667	597.165039	-17.959953
2810.258989	17370.106667	595.932617	-69.688400
2810.258989	17370.106667	594.699219	-106.768723
2810.258989	17370.106667	593.465820	-98.059692
2810.258989	17370.106667	592.232422	5.861331
2810.258989	17370.106667	590.999023	91.403313
2810.258989	17370.106667	589.764648	2.961122
2810.258989	17370.106667	588.530273	11.544733
2810.258989	17370.106667	587.295898	146.375153
2810.258989	17370.106667	586.061523	-42.707474
2810.258989	17370.106667	584.826172	-32.348347
2810.258989	17370.106667	583.590820	76.746773
2810.258989	17370.106667	582.355469	-190.873444
2810.258989	17370.106667	581.119141	-3.217023
2810.258989	17370.106667	579.882813	-58.728436
2810.258989	17370.106667	578.646484	-30.173471
2810.258989	17370.106667	577.410156	-82.020546
2810.258989	17370.106667	576.172852	-40.708832
2810.258989	17370.106667	574.935547	53.536461
2810.258989	17370.106667	573.698242	102.093597
2810.258989	17370.106667	572.460938	285.699219
2810.258989	17370.106667	571.222656	84.162247
2810.258989	17370.106667	569.984375	118.073853
2810.258989	17370.106667	568.746094	232.233185
2810.258989	17370.106667	567.506836	349.987244
2810.258989	17370.106667	566.267578	256.185974
2810.258989	17370.106667	565.028320	191.595322
2810.258989	17370.106667	563.789063	256.441223
2810.258989	17370.106667	562.548828	126.286423
2810.258989	17370.106667	561.309570	249.431091
2810.258989	17370.106667	560.068359	181.274933
2810.258989	17370.106667	558.828125	171.435410
2810.258989	17370.106667	557.586914	123.373779
2810.258989	17370.106667	556.345703	100.829552
2810.258989	17370.106667	555.104492	120.165298
2810.258989	17370.106667	553.863281	235.940826
2810.258989	17370.106667	552.621094	167.952377
2810.258989	17370.106667	551.378906	303.703033
2810.258989	17370.106667	550.136719	223.037704
2810.258989	17370.106667	548.893555	156.966553
2810.258989	17370.106667	547.650391	307.229828
2810.258989	17370.106667	546.407227	-74.967178
2810.258989	17370.106667	545.164063	-26.409517
2810.258989	17370.106667	543.919922	-1.464972
2810.258989	17370.106667	542.675781	5.335121
2810.258989	17370.106667	541.431641	-11.441768
2810.258989	17370.106667	540.186523	17.191069
2810.258989	17370.106667	538.941406	11.360369
2810.258989	17370.106667	537.696289	114.426506
2810.258989	17370.106667	536.451172	101.382645
2810.258989	17370.106667	535.205078	128.272141
2810.258989	17370.106667	533.959961	66.340225
2810.258989	17370.106667	532.712891	173.053986
2810.258989	17370.106667	531.466797	138.390472
2810.258989	17370.106667	530.219727	0.484333
2810.258989	17370.106667	528.972656	-93.844772
2810.258989	17370.106667	527.725586	63.675423
2810.258989	17370.106667	526.478516	85.347412
2810.258989	17370.106667	525.230469	16.519249
2810.258989	17370.106667	523.982422	49.127525
2810.258989	17370.106667	522.734375	18.421906
2810.258989	17370.106667	521.485352	-82.799370
2810.258989	17370.106667	520.236328	11.434251
2810.258989	17370.106667	518.987305	29.709232
2810.258989	17370.106667	517.737305	-154.502380
2810.258989	17370.106667	516.488281	-136.113968
2810.258989	17370.106667	515.238281	-99.618477
2810.258989	17370.106667	513.988281	-106.463715
2810.258989	17370.106667	512.737305	-28.353432
2810.258989	17370.106667	511.486328	-53.188728
2810.258989	17370.106667	510.235352	-83.385429
2810.258989	17370.106667	508.984375	-207.408218
2810.258989	17370.106667	507.732422	-181.513657
2810.258989	17370.106667	506.480469	-191.679367
2810.258989	17370.106667	505.228516	-310.053802
2810.258989	17370.106667	503.976563	-87.390961
2810.258989	17370.106667	502.723633	-113.670105
2810.258989	17370.106667	501.470703	-314.796967
2810.258989	17370.106667	500.217773	-175.071655
2810.258989	17370.106667	498.963867	-123.681488
2810.258989	17370.106667	497.709961	-171.378235
2810.258989	17370.106667	496.456055	-33.446518
2810.258989	17370.106667	495.202148	45.030121
2810.258989	17370.106667	493.947266	-114.196358
2810.258989	17370.106667	492.692383	93.976372
2810.258989	17370.106667	491.437500	107.696007
2810.258989	17370.106667	490.181641	125.046417
2810.258989	17370.106667	488.926758	36.276325
2810.258989	17370.106667	487.670898	158.049271
2810.258989	17370.106667	486.414063	186.282272
2810.258989	17370.106667	485.158203	218.139633
2810.258989	17370.106667	483.901367	339.901062
2810.258989	17370.106667	482.644531	325.047821
2810.258989	17370.106667	481.386719	337.184937
2810.258989	17370.106667	480.128906	329.586395
2810.258989	17370.106667	478.871094	449.548523
2810.258989	17370.106667	477.613281	278.571594
2810.258989	17370.106667	476.355469	122.058098
2810.258989	17370.106667	475.096680	186.419357
2810.258989	17370.106667	473.837891	252.570389
2810.258989	17370.106667	472.578125	157.229889
2810.258989	17370.106667	471.319336	47.601635
2810.258989	17370.106667	470.059570	-6.369225
2810.258989	17370.106667	468.799805	126.177162
2810.258989	17370.106667	467.539063	-55.044769
2810.258989	17370.106667	466.278320	27.288439
2810.258989	17370.106667	465.017578	217.106689
2810.258989	17370.106667	463.756836	118.412010
2810.258989	17370.106667	462.495117	195.287567
2810.258989	17370.106667	461.233398	225.569000
2810.258989	17370.106667	459.971680	-71.805504
2810.258989	17370.106667	458.709961	153.612900
2810.258989	17370.106667	457.447266	40.686138
2810.258989	17370.106667	456.184570	17.251289
2810.258989	17370.106667	454.921875	-40.179733
2810.258989	17370.106667	453.658203	-35.017906
2810.258989	17370.106667	452.394531	-51.342541
2810.258989	17370.106667	451.130859	-48.027870
2810.258989	17370.106667	449.867188	-48.325237
2810.258989	17370.106667	448.602539	44.252155
2810.258989	17370.106667	447.337891	-141.949722
2810.258989	17370.106667	446.073242	-219.167969
2810.258989	17370.106667	444.807617	57.162704
2810.258989	17370.106667	443.542969	-95.163635
2810.258989	17370.106667	442.276367	73.795540
2810.258989	17370.106667	441.010742	17.758101
2810.258989	17370.106667	439.744141	45.523697
2810.258989	17370.106667	438.478516	-42.748623
2810.258989	17370.106667	437.210938	29.429209
2810.258989	17370.106667	435.944336	-3.712217
2810.258989	17370.106667	434.676758	52.189049
2810.258989	17370.106667	433.409180	58.055851
2810.258989	17370.106667	432.141602	83.408043
2810.258989	17370.106667	430.873047	96.156006
2810.258989	17370.106667	429.604492	163.984985
2810.258989	17370.106667	428.335938	112.343941
2810.258989	17370.106667	427.067383	8.954158
2810.258989	17370.106667	425.797852	265.002197
2810.258989	17370.106667	424.528320	275.206085
2810.258989	17370.106667	423.258789	-40.346294
2810.258989	17370.106667	421.988281	207.932983
2810.258989	17370.106667	420.717773	98.465813
2810.258989	17370.106667	419.447266	171.991791
2810.258989	17370.106667	418.175781	97.740341
2810.258989	17370.106667	416.905273	236.585648
2810.258989	17370.106667	415.633789	174.364761
2810.258989	17370.106667	414.362305	158.133011
2810.258989	17370.106667	413.089844	118.577278
2810.258989	17370.106667	411.817383	169.352386
2810.258989	17370.106667	410.544922	92.027435
2810.258989	17370.106667	409.272461	81.916458
2810.258989	17370.106667	407.999023	46.683125
2810.258989	17370.106667	406.725586	-31.403685
2810.258989	17370.106667	405.452148	87.131447
2810.258989	17370.106667	404.177734	121.948814
2810.258989	17370.106667	402.903320	198.980316
2810.258989	17370.106667	401.628906	169.287521
2810.258989	17370.106667	400.354492	133.943497
2810.258989	17370.106667	399.079102	185.068390
2810.258989	17370.106667	397.803711	-79.521179
2810.258989	17370.106667	396.528320	135.580063
2810.258989	17370.106667	395.251953	65.100975
2810.258989	17370.106667	393.976563	-32.306145
2810.258989	17370.106667	392.700195	-101.785789
2810.258989	17370.106667	391.422852	74.279144
2810.258989	17370.106667	390.145508	97.666290
2810.258989	17370.106667	388.869141	79.904411
2810.258989	17370.106667	387.590820	128.841782
2810.258989	17370.106667	386.313477	64.118164
2810.258989	17370.106667	385.035156	203.939636
2810.258989	17370.106667	383.756836	201.791168
2810.258989	17370.106667	382.478516	6.509527
2810.258989	17370.106667	381.199219	68.640518
2810.258989	17370.106667	379.919922	-14.655783
2810.258989	17370.106667	378.640625	18.022831
2810.258989	17370.106667	377.360352	161.271637
2810.258989	17370.106667	376.080078	12.611393
2810.258989	17370.106667	374.799805	136.868164
2810.258989	17370.106667	373.519531	-20.099117
2810.258989	17370.106667	372.238281	63.932396
2810.258989	17370.106667	370.957031	-73.204414
2810.258989	17370.106667	369.675781	-117.570557
2810.258989	17370.106667	368.394531	47.087093
2810.258989	17370.106667	367.112305	17.040516
2810.258989	17370.106667	365.830078	72.549133
2810.258989	17370.106667	364.546875	97.257988
2810.258989	17370.106667	363.264648	71.834412
2810.258989	17370.106667	361.981445	-17.836321
2810.258989	17370.106667	360.698242	-44.973320
2810.258989	17370.106667	359.414063	-134.615311
2810.258989	17370.106667	358.129883	-123.087311
2810.258989	17370.106667	356.845703	3.596869
2810.258989	17370.106667	355.561523	-46.619900
2810.258989	17370.106667	354.276367	27.013222
2810.258989	17370.106667	352.991211	20.486893
2810.258989	17370.106667	351.706055	-89.021828
2810.258989	17370.106667	350.420898	-39.639965
2810.258989	17370.106667	349.134766	-42.349953
2810.258989	17370.106667	347.848633	-97.115715
2810.258989	17370.106667	346.561523	-116.156601
2810.258989	17370.106667	345.275391	-27.476551
2810.258989	17370.106667	343.988281	-62.941448
2810.258989	17370.106667	342.700195	-1.374914
2810.258989	17370.106667	341.413086	-160.381256
2810.258989	17370.106667	340.125000	-94.347778
2810.258989	17370.106667	338.836914	-15.627844
2810.258989	17370.106667	337.548828	-62.781338
2810.258989	17370.106667	336.259766	-193.718353
2810.258989	17370.106667	334.970703	-71.870712
2810.258989	17370.106667	333.681641	64.256989
2810.258989	17370.106667	332.391602	84.942451
2810.258989	17370.106667	331.101563	-53.518810
2810.258989	17370.106667	329.811523	-6.082946
2810.258989	17370.106667	328.521484	-21.510260
2810.258989	17370.106667	327.230469	59.443119
2810.258989	17370.106667	325.939453	-74.771347
2810.258989	17370.106667	324.648438	62.340481
2810.258989	17370.106667	323.356445	-87.482719
2810.258989	17370.106667	322.064453	-1.139846
2810.258989	17370.106667	320.772461	67.651817
2810.258989	17370.106667	319.480469	55.938217
2810.258989	17370.106667	318.187500	24.849133
2810.258989	17370.106667	316.894531	-41.313847
2810.258989	17370.106667	315.601563	-23.773865
2810.258989	17370.106667	314.307617	-111.312248
2810.258989	17370.106667	313.013672	68.092010
2810.258989	17370.106667	311.719727	6.201548
2810.258989	17370.106667	310.425781	-35.055500
2810.258989	17370.106667	309.130859	-19.154234
2810.258989	17370.106667	307.835938	1.551345
2810.258989	17370.106667	306.541016	152.602051
2810.258989	17370.106667	305.245117	64.098267
2810.258989	17370.106667	303.949219	191.274109
2810.258989	17370.106667	302.653320	323.027161
2810.258989	17370.106667	301.356445	222.223404
2810.258989	17370.106667	300.060547	329.936005
2810.258989	17370.106667	298.763672	269.564270
