#X		#Y		#Wave		#Intensity
2761.148351	17469.429833	2000.043945	-188.916763
2761.148351	17469.429833	1999.080078	81.756416
2761.148351	17469.429833	1998.116211	30.669697
2761.148351	17469.429833	1997.151367	70.801758
2761.148351	17469.429833	1996.186523	-196.801529
2761.148351	17469.429833	1995.222656	10.845358
2761.148351	17469.429833	1994.256836	-79.238373
2761.148351	17469.429833	1993.291992	-137.546738
2761.148351	17469.429833	1992.327148	36.469685
2761.148351	17469.429833	1991.361328	271.899323
2761.148351	17469.429833	1990.395508	-7.946689
2761.148351	17469.429833	1989.429688	-3.511945
2761.148351	17469.429833	1988.463867	74.768028
2761.148351	17469.429833	1987.497070	28.983391
2761.148351	17469.429833	1986.531250	62.000687
2761.148351	17469.429833	1985.564453	141.652954
2761.148351	17469.429833	1984.597656	57.785202
2761.148351	17469.429833	1983.630859	94.749588
2761.148351	17469.429833	1982.664063	99.270569
2761.148351	17469.429833	1981.696289	182.568100
2761.148351	17469.429833	1980.728516	243.320007
2761.148351	17469.429833	1979.761719	34.557495
2761.148351	17469.429833	1978.792969	42.928638
2761.148351	17469.429833	1977.825195	130.051376
2761.148351	17469.429833	1976.857422	110.755714
2761.148351	17469.429833	1975.888672	-76.589546
2761.148351	17469.429833	1974.919922	-160.446548
2761.148351	17469.429833	1973.951172	4.697048
2761.148351	17469.429833	1972.982422	61.043251
2761.148351	17469.429833	1972.013672	25.923740
2761.148351	17469.429833	1971.043945	-43.887569
2761.148351	17469.429833	1970.075195	46.394333
2761.148351	17469.429833	1969.105469	-38.529430
2761.148351	17469.429833	1968.135742	-7.756334
2761.148351	17469.429833	1967.165039	45.027550
2761.148351	17469.429833	1966.195313	208.503235
2761.148351	17469.429833	1965.224609	145.181778
2761.148351	17469.429833	1964.253906	131.003632
2761.148351	17469.429833	1963.283203	281.668243
2761.148351	17469.429833	1962.312500	193.379730
2761.148351	17469.429833	1961.341797	21.332277
2761.148351	17469.429833	1960.370117	124.846382
2761.148351	17469.429833	1959.399414	107.671310
2761.148351	17469.429833	1958.427734	43.673050
2761.148351	17469.429833	1957.455078	77.985703
2761.148351	17469.429833	1956.483398	-148.437836
2761.148351	17469.429833	1955.511719	220.092499
2761.148351	17469.429833	1954.539063	18.161238
2761.148351	17469.429833	1953.566406	91.484421
2761.148351	17469.429833	1952.593750	12.382568
2761.148351	17469.429833	1951.621094	70.826439
2761.148351	17469.429833	1950.647461	161.127289
2761.148351	17469.429833	1949.674805	96.641563
2761.148351	17469.429833	1948.701172	-102.900551
2761.148351	17469.429833	1947.727539	11.808160
2761.148351	17469.429833	1946.753906	77.355354
2761.148351	17469.429833	1945.780273	64.325607
2761.148351	17469.429833	1944.805664	-19.874226
2761.148351	17469.429833	1943.831055	187.839478
2761.148351	17469.429833	1942.856445	282.643677
2761.148351	17469.429833	1941.881836	173.878204
2761.148351	17469.429833	1940.907227	-96.662056
2761.148351	17469.429833	1939.932617	-112.190247
2761.148351	17469.429833	1938.957031	19.322159
2761.148351	17469.429833	1937.981445	-18.280674
2761.148351	17469.429833	1937.005859	-58.317715
2761.148351	17469.429833	1936.030273	-32.204243
2761.148351	17469.429833	1935.054688	-128.535828
2761.148351	17469.429833	1934.078125	-21.607296
2761.148351	17469.429833	1933.101563	26.543089
2761.148351	17469.429833	1932.125000	23.292053
2761.148351	17469.429833	1931.148438	34.740334
2761.148351	17469.429833	1930.171875	24.183392
2761.148351	17469.429833	1929.194336	28.325462
2761.148351	17469.429833	1928.217773	-1.749534
2761.148351	17469.429833	1927.240234	68.461983
2761.148351	17469.429833	1926.262695	-8.013230
2761.148351	17469.429833	1925.284180	152.662079
2761.148351	17469.429833	1924.306641	7.827564
2761.148351	17469.429833	1923.328125	-14.756535
2761.148351	17469.429833	1922.350586	1.786737
2761.148351	17469.429833	1921.372070	203.982193
2761.148351	17469.429833	1920.392578	22.736723
2761.148351	17469.429833	1919.414063	-31.444777
2761.148351	17469.429833	1918.434570	-78.249458
2761.148351	17469.429833	1917.456055	43.404430
2761.148351	17469.429833	1916.476563	-44.808960
2761.148351	17469.429833	1915.497070	113.461006
2761.148351	17469.429833	1914.516602	-25.885046
2761.148351	17469.429833	1913.537109	-96.852417
2761.148351	17469.429833	1912.556641	17.559217
2761.148351	17469.429833	1911.576172	-24.059729
2761.148351	17469.429833	1910.595703	-14.438034
2761.148351	17469.429833	1909.615234	-126.631706
2761.148351	17469.429833	1908.633789	-90.115807
2761.148351	17469.429833	1907.653320	126.698189
2761.148351	17469.429833	1906.671875	-29.184940
2761.148351	17469.429833	1905.690430	204.659546
2761.148351	17469.429833	1904.708984	226.633316
2761.148351	17469.429833	1903.727539	158.569168
2761.148351	17469.429833	1902.745117	-99.270348
2761.148351	17469.429833	1901.762695	-40.637619
2761.148351	17469.429833	1900.780273	-8.751811
2761.148351	17469.429833	1899.797852	-15.759871
2761.148351	17469.429833	1898.815430	-27.592485
2761.148351	17469.429833	1897.832031	45.718895
2761.148351	17469.429833	1896.849609	-104.621971
2761.148351	17469.429833	1895.866211	19.789820
2761.148351	17469.429833	1894.882813	-16.202583
2761.148351	17469.429833	1893.898438	100.924011
2761.148351	17469.429833	1892.915039	91.718109
2761.148351	17469.429833	1891.930664	19.397205
2761.148351	17469.429833	1890.947266	-106.289726
2761.148351	17469.429833	1889.962891	37.598972
2761.148351	17469.429833	1888.977539	-12.733963
2761.148351	17469.429833	1887.993164	-26.615049
2761.148351	17469.429833	1887.007813	-4.065459
2761.148351	17469.429833	1886.023438	23.353733
2761.148351	17469.429833	1885.038086	4.700494
2761.148351	17469.429833	1884.051758	114.612915
2761.148351	17469.429833	1883.066406	-39.789173
2761.148351	17469.429833	1882.081055	-43.806503
2761.148351	17469.429833	1881.094727	73.389160
2761.148351	17469.429833	1880.108398	16.076994
2761.148351	17469.429833	1879.122070	-92.077301
2761.148351	17469.429833	1878.135742	-127.500328
2761.148351	17469.429833	1877.148438	-228.289673
2761.148351	17469.429833	1876.162109	116.539261
2761.148351	17469.429833	1875.174805	-18.127306
2761.148351	17469.429833	1874.187500	-60.747276
2761.148351	17469.429833	1873.199219	-108.182442
2761.148351	17469.429833	1872.211914	-114.456184
2761.148351	17469.429833	1871.223633	51.048664
2761.148351	17469.429833	1870.236328	-54.412544
2761.148351	17469.429833	1869.248047	65.078621
2761.148351	17469.429833	1868.258789	53.959126
2761.148351	17469.429833	1867.270508	-17.592400
2761.148351	17469.429833	1866.282227	63.154442
2761.148351	17469.429833	1865.292969	85.870956
2761.148351	17469.429833	1864.303711	-101.627068
2761.148351	17469.429833	1863.314453	109.523552
2761.148351	17469.429833	1862.324219	74.236725
2761.148351	17469.429833	1861.334961	-47.976917
2761.148351	17469.429833	1860.344727	-104.969116
2761.148351	17469.429833	1859.354492	89.088112
2761.148351	17469.429833	1858.364258	114.121353
2761.148351	17469.429833	1857.374023	115.000572
2761.148351	17469.429833	1856.383789	-127.798813
2761.148351	17469.429833	1855.392578	22.635998
2761.148351	17469.429833	1854.401367	18.652554
2761.148351	17469.429833	1853.410156	89.393738
2761.148351	17469.429833	1852.418945	-42.412125
2761.148351	17469.429833	1851.426758	74.059303
2761.148351	17469.429833	1850.435547	84.429779
2761.148351	17469.429833	1849.443359	65.856407
2761.148351	17469.429833	1848.451172	-53.913239
2761.148351	17469.429833	1847.458984	26.228567
2761.148351	17469.429833	1846.466797	-139.304779
2761.148351	17469.429833	1845.473633	-126.656441
2761.148351	17469.429833	1844.480469	-12.953695
2761.148351	17469.429833	1843.487305	-43.728470
2761.148351	17469.429833	1842.494141	-48.064426
2761.148351	17469.429833	1841.500977	144.826355
2761.148351	17469.429833	1840.506836	44.160908
2761.148351	17469.429833	1839.513672	46.894794
2761.148351	17469.429833	1838.519531	-51.402054
2761.148351	17469.429833	1837.525391	-75.190613
2761.148351	17469.429833	1836.530273	90.850471
2761.148351	17469.429833	1835.536133	112.599045
2761.148351	17469.429833	1834.541016	131.882492
2761.148351	17469.429833	1833.545898	9.381671
2761.148351	17469.429833	1832.550781	-2.655483
2761.148351	17469.429833	1831.555664	76.498001
2761.148351	17469.429833	1830.560547	88.342064
2761.148351	17469.429833	1829.564453	-34.295429
2761.148351	17469.429833	1828.568359	20.635838
2761.148351	17469.429833	1827.572266	51.488853
2761.148351	17469.429833	1826.576172	-88.058670
2761.148351	17469.429833	1825.580078	93.772057
2761.148351	17469.429833	1824.583008	47.653400
2761.148351	17469.429833	1823.585938	32.649696
2761.148351	17469.429833	1822.588867	-95.083740
2761.148351	17469.429833	1821.591797	141.447266
2761.148351	17469.429833	1820.594727	73.497185
2761.148351	17469.429833	1819.596680	211.529083
2761.148351	17469.429833	1818.599609	299.131134
2761.148351	17469.429833	1817.601563	168.688873
2761.148351	17469.429833	1816.603516	165.117813
2761.148351	17469.429833	1815.604492	-46.808651
2761.148351	17469.429833	1814.606445	-52.897179
2761.148351	17469.429833	1813.607422	94.083870
2761.148351	17469.429833	1812.608398	197.857040
2761.148351	17469.429833	1811.609375	31.193075
2761.148351	17469.429833	1810.610352	132.370514
2761.148351	17469.429833	1809.610352	61.249252
2761.148351	17469.429833	1808.611328	162.201981
2761.148351	17469.429833	1807.611328	162.627884
2761.148351	17469.429833	1806.611328	213.147095
2761.148351	17469.429833	1805.610352	34.165161
2761.148351	17469.429833	1804.610352	17.607294
2761.148351	17469.429833	1803.609375	53.502411
2761.148351	17469.429833	1802.608398	132.270416
2761.148351	17469.429833	1801.607422	144.056244
2761.148351	17469.429833	1800.606445	129.478027
2761.148351	17469.429833	1799.605469	150.604050
2761.148351	17469.429833	1798.603516	111.959450
2761.148351	17469.429833	1797.601563	106.626808
2761.148351	17469.429833	1796.599609	-8.534957
2761.148351	17469.429833	1795.597656	-45.058022
2761.148351	17469.429833	1794.595703	-117.440361
2761.148351	17469.429833	1793.592773	69.948685
2761.148351	17469.429833	1792.589844	85.541939
2761.148351	17469.429833	1791.587891	41.446968
2761.148351	17469.429833	1790.583984	-17.047039
2761.148351	17469.429833	1789.581055	93.509842
2761.148351	17469.429833	1788.577148	89.584274
2761.148351	17469.429833	1787.574219	164.134079
2761.148351	17469.429833	1786.570313	57.593296
2761.148351	17469.429833	1785.566406	22.389786
2761.148351	17469.429833	1784.561523	37.057259
2761.148351	17469.429833	1783.557617	122.992485
2761.148351	17469.429833	1782.552734	44.619934
2761.148351	17469.429833	1781.547852	116.009598
2761.148351	17469.429833	1780.542969	-79.096916
2761.148351	17469.429833	1779.538086	196.532242
2761.148351	17469.429833	1778.532227	34.521568
2761.148351	17469.429833	1777.527344	-25.341036
2761.148351	17469.429833	1776.521484	225.991226
2761.148351	17469.429833	1775.515625	54.200497
2761.148351	17469.429833	1774.508789	191.152084
2761.148351	17469.429833	1773.502930	-154.183914
2761.148351	17469.429833	1772.496094	84.614449
2761.148351	17469.429833	1771.489258	14.568708
2761.148351	17469.429833	1770.482422	84.470039
2761.148351	17469.429833	1769.475586	170.832260
2761.148351	17469.429833	1768.467773	12.639799
2761.148351	17469.429833	1767.460938	27.565428
2761.148351	17469.429833	1766.453125	-7.455517
2761.148351	17469.429833	1765.445313	61.751713
2761.148351	17469.429833	1764.437500	-61.237892
2761.148351	17469.429833	1763.428711	-115.571266
2761.148351	17469.429833	1762.420898	-63.352142
2761.148351	17469.429833	1761.412109	7.669660
2761.148351	17469.429833	1760.403320	0.356122
2761.148351	17469.429833	1759.393555	106.606316
2761.148351	17469.429833	1758.384766	141.650070
2761.148351	17469.429833	1757.375000	-72.069443
2761.148351	17469.429833	1756.366211	121.350021
2761.148351	17469.429833	1755.356445	42.371204
2761.148351	17469.429833	1754.345703	86.339493
2761.148351	17469.429833	1753.335938	-25.981737
2761.148351	17469.429833	1752.325195	-86.354988
2761.148351	17469.429833	1751.315430	148.807373
2761.148351	17469.429833	1750.304688	-65.531029
2761.148351	17469.429833	1749.292969	-60.058388
2761.148351	17469.429833	1748.282227	-40.524178
2761.148351	17469.429833	1747.270508	-103.847733
2761.148351	17469.429833	1746.259766	12.307433
2761.148351	17469.429833	1745.248047	97.571358
2761.148351	17469.429833	1744.235352	14.970807
2761.148351	17469.429833	1743.223633	130.646271
2761.148351	17469.429833	1742.211914	-51.334518
2761.148351	17469.429833	1741.199219	-82.307152
2761.148351	17469.429833	1740.186523	-120.474663
2761.148351	17469.429833	1739.173828	-222.464127
2761.148351	17469.429833	1738.160156	-223.105042
2761.148351	17469.429833	1737.147461	0.221187
2761.148351	17469.429833	1736.133789	-26.654194
2761.148351	17469.429833	1735.120117	85.469788
2761.148351	17469.429833	1734.106445	114.918800
2761.148351	17469.429833	1733.091797	-157.469162
2761.148351	17469.429833	1732.078125	-104.667480
2761.148351	17469.429833	1731.063477	-37.884556
2761.148351	17469.429833	1730.048828	106.486061
2761.148351	17469.429833	1729.034180	15.163705
2761.148351	17469.429833	1728.019531	-128.047302
2761.148351	17469.429833	1727.003906	-146.561493
2761.148351	17469.429833	1725.988281	-148.712296
2761.148351	17469.429833	1724.972656	-150.982468
2761.148351	17469.429833	1723.957031	-31.019751
2761.148351	17469.429833	1722.941406	-24.138865
2761.148351	17469.429833	1721.924805	243.680771
2761.148351	17469.429833	1720.909180	88.014336
2761.148351	17469.429833	1719.892578	-37.156387
2761.148351	17469.429833	1718.875977	-145.941299
2761.148351	17469.429833	1717.858398	-12.741063
2761.148351	17469.429833	1716.841797	5.167883
2761.148351	17469.429833	1715.824219	13.546830
2761.148351	17469.429833	1714.806641	-114.423584
2761.148351	17469.429833	1713.789063	86.318054
2761.148351	17469.429833	1712.770508	42.672436
2761.148351	17469.429833	1711.752930	-87.911163
2761.148351	17469.429833	1710.734375	23.177221
2761.148351	17469.429833	1709.715820	138.808289
2761.148351	17469.429833	1708.697266	33.749596
2761.148351	17469.429833	1707.678711	-47.918774
2761.148351	17469.429833	1706.659180	104.848877
2761.148351	17469.429833	1705.640625	32.365414
2761.148351	17469.429833	1704.621094	-21.452639
2761.148351	17469.429833	1703.600586	-35.521511
2761.148351	17469.429833	1702.581055	48.751564
2761.148351	17469.429833	1701.561523	-82.664955
2761.148351	17469.429833	1700.541016	69.303459
2761.148351	17469.429833	1699.520508	24.378229
2761.148351	17469.429833	1698.500000	-51.070385
2761.148351	17469.429833	1697.478516	-133.624298
2761.148351	17469.429833	1696.458008	-54.716942
2761.148351	17469.429833	1695.436523	33.412449
2761.148351	17469.429833	1694.415039	95.675247
2761.148351	17469.429833	1693.393555	87.639053
2761.148351	17469.429833	1692.372070	121.616600
2761.148351	17469.429833	1691.349609	24.518703
2761.148351	17469.429833	1690.327148	-67.954773
2761.148351	17469.429833	1689.304688	199.509918
2761.148351	17469.429833	1688.282227	202.686493
2761.148351	17469.429833	1687.259766	114.644577
2761.148351	17469.429833	1686.236328	98.960701
2761.148351	17469.429833	1685.213867	66.863503
2761.148351	17469.429833	1684.190430	286.901215
2761.148351	17469.429833	1683.166016	156.520248
2761.148351	17469.429833	1682.142578	177.866699
2761.148351	17469.429833	1681.119141	336.832458
2761.148351	17469.429833	1680.094727	129.275909
2761.148351	17469.429833	1679.070313	-26.947811
2761.148351	17469.429833	1678.045898	127.057175
2761.148351	17469.429833	1677.020508	117.659866
2761.148351	17469.429833	1675.996094	273.765045
2761.148351	17469.429833	1674.970703	341.134644
2761.148351	17469.429833	1673.945313	0.507963
2761.148351	17469.429833	1672.919922	116.705734
2761.148351	17469.429833	1671.893555	165.207062
2761.148351	17469.429833	1670.868164	213.641983
2761.148351	17469.429833	1669.841797	376.101959
2761.148351	17469.429833	1668.815430	265.989746
2761.148351	17469.429833	1667.789063	272.267670
2761.148351	17469.429833	1666.761719	383.214447
2761.148351	17469.429833	1665.735352	296.259521
2761.148351	17469.429833	1664.708008	206.938217
2761.148351	17469.429833	1663.680664	252.525620
2761.148351	17469.429833	1662.653320	270.131592
2761.148351	17469.429833	1661.625000	394.633331
2761.148351	17469.429833	1660.597656	356.302460
2761.148351	17469.429833	1659.569336	436.472809
2761.148351	17469.429833	1658.541016	370.145264
2761.148351	17469.429833	1657.512695	564.048889
2761.148351	17469.429833	1656.483398	530.140747
2761.148351	17469.429833	1655.455078	695.978149
2761.148351	17469.429833	1654.425781	483.153229
2761.148351	17469.429833	1653.396484	458.442596
2761.148351	17469.429833	1652.366211	614.757202
2761.148351	17469.429833	1651.336914	582.992615
2761.148351	17469.429833	1650.306641	548.867615
2761.148351	17469.429833	1649.276367	728.168762
2761.148351	17469.429833	1648.246094	754.272583
2761.148351	17469.429833	1647.215820	1035.446289
2761.148351	17469.429833	1646.185547	1035.915039
2761.148351	17469.429833	1645.154297	952.879883
2761.148351	17469.429833	1644.123047	981.106750
2761.148351	17469.429833	1643.091797	990.760376
2761.148351	17469.429833	1642.060547	1160.254517
2761.148351	17469.429833	1641.028320	1072.514526
2761.148351	17469.429833	1639.997070	1177.038086
2761.148351	17469.429833	1638.964844	959.617798
2761.148351	17469.429833	1637.931641	1105.725098
2761.148351	17469.429833	1636.899414	992.533203
2761.148351	17469.429833	1635.867188	1015.911072
2761.148351	17469.429833	1634.833984	861.088867
2761.148351	17469.429833	1633.800781	891.384460
2761.148351	17469.429833	1632.767578	1055.807251
2761.148351	17469.429833	1631.734375	968.103149
2761.148351	17469.429833	1630.700195	1296.568604
2761.148351	17469.429833	1629.666016	1248.121216
2761.148351	17469.429833	1628.631836	1285.200928
2761.148351	17469.429833	1627.597656	1428.554688
2761.148351	17469.429833	1626.563477	1209.152710
2761.148351	17469.429833	1625.528320	1139.954590
2761.148351	17469.429833	1624.493164	1239.367432
2761.148351	17469.429833	1623.458008	1354.908203
2761.148351	17469.429833	1622.422852	1271.889038
2761.148351	17469.429833	1621.387695	1472.790161
2761.148351	17469.429833	1620.351563	1419.780273
2761.148351	17469.429833	1619.315430	1516.762329
2761.148351	17469.429833	1618.279297	1408.430908
2761.148351	17469.429833	1617.243164	1470.813354
2761.148351	17469.429833	1616.207031	1528.577148
2761.148351	17469.429833	1615.169922	1570.183105
2761.148351	17469.429833	1614.132813	1547.258423
2761.148351	17469.429833	1613.095703	1409.144775
2761.148351	17469.429833	1612.058594	1648.951904
2761.148351	17469.429833	1611.020508	1570.793213
2761.148351	17469.429833	1609.983398	1428.224976
2761.148351	17469.429833	1608.945313	1617.292847
2761.148351	17469.429833	1607.907227	1414.955811
2761.148351	17469.429833	1606.868164	1521.136719
2761.148351	17469.429833	1605.830078	1735.482788
2761.148351	17469.429833	1604.791016	1724.286621
2761.148351	17469.429833	1603.751953	1749.935913
2761.148351	17469.429833	1602.712891	1688.217407
2761.148351	17469.429833	1601.673828	1626.561157
2761.148351	17469.429833	1600.633789	1571.850586
2761.148351	17469.429833	1599.594727	1749.370483
2761.148351	17469.429833	1598.554688	1765.983643
2761.148351	17469.429833	1597.513672	1865.332275
2761.148351	17469.429833	1596.473633	1739.580933
2761.148351	17469.429833	1595.433594	1650.675415
2761.148351	17469.429833	1594.392578	1600.874268
2761.148351	17469.429833	1593.351563	1723.331177
2761.148351	17469.429833	1592.310547	1733.319092
2761.148351	17469.429833	1591.268555	1864.973511
2761.148351	17469.429833	1590.227539	1684.596191
2761.148351	17469.429833	1589.185547	1513.505615
2761.148351	17469.429833	1588.143555	1732.453857
2761.148351	17469.429833	1587.100586	1511.073730
2761.148351	17469.429833	1586.058594	1587.910645
2761.148351	17469.429833	1585.015625	1380.523804
2761.148351	17469.429833	1583.972656	1329.125732
2761.148351	17469.429833	1582.929688	1378.634155
2761.148351	17469.429833	1581.886719	1487.753296
2761.148351	17469.429833	1580.843750	1482.375366
2761.148351	17469.429833	1579.799805	1341.943115
2761.148351	17469.429833	1578.755859	1405.408081
2761.148351	17469.429833	1577.711914	1430.007080
2761.148351	17469.429833	1576.666992	1369.974121
2761.148351	17469.429833	1575.623047	1502.265991
2761.148351	17469.429833	1574.578125	1533.906250
2761.148351	17469.429833	1573.533203	1405.499390
2761.148351	17469.429833	1572.488281	1517.345581
2761.148351	17469.429833	1571.443359	1537.771240
2761.148351	17469.429833	1570.397461	1523.966919
2761.148351	17469.429833	1569.351563	1510.251587
2761.148351	17469.429833	1568.305664	1471.490845
2761.148351	17469.429833	1567.259766	1425.977905
2761.148351	17469.429833	1566.213867	1378.286133
2761.148351	17469.429833	1565.166992	1469.995239
2761.148351	17469.429833	1564.120117	1388.229370
2761.148351	17469.429833	1563.073242	1534.870605
2761.148351	17469.429833	1562.026367	1375.706299
2761.148351	17469.429833	1560.978516	1547.567261
2761.148351	17469.429833	1559.930664	1482.179810
2761.148351	17469.429833	1558.883789	1410.085327
2761.148351	17469.429833	1557.834961	1210.376343
2761.148351	17469.429833	1556.787109	1015.417603
2761.148351	17469.429833	1555.739258	1158.032471
2761.148351	17469.429833	1554.690430	1145.689941
2761.148351	17469.429833	1553.641602	1083.320801
2761.148351	17469.429833	1552.592773	1052.976929
2761.148351	17469.429833	1551.542969	1195.857178
2761.148351	17469.429833	1550.494141	1038.176514
2761.148351	17469.429833	1549.444336	917.083557
2761.148351	17469.429833	1548.394531	1046.568115
2761.148351	17469.429833	1547.344727	1078.238647
2761.148351	17469.429833	1546.293945	834.638245
2761.148351	17469.429833	1545.244141	695.918091
2761.148351	17469.429833	1544.193359	814.401855
2761.148351	17469.429833	1543.142578	821.510315
2761.148351	17469.429833	1542.090820	765.050598
2761.148351	17469.429833	1541.040039	840.599792
2761.148351	17469.429833	1539.988281	870.763550
2761.148351	17469.429833	1538.936523	823.767883
2761.148351	17469.429833	1537.884766	761.004272
2761.148351	17469.429833	1536.833008	698.384705
2761.148351	17469.429833	1535.780273	763.086182
2761.148351	17469.429833	1534.727539	680.285217
2761.148351	17469.429833	1533.674805	767.912415
2761.148351	17469.429833	1532.622070	746.674561
2761.148351	17469.429833	1531.569336	929.815796
2761.148351	17469.429833	1530.515625	1083.502686
2761.148351	17469.429833	1529.461914	1078.459961
2761.148351	17469.429833	1528.408203	887.566528
2761.148351	17469.429833	1527.354492	823.862061
2761.148351	17469.429833	1526.299805	667.347717
2761.148351	17469.429833	1525.246094	551.835144
2761.148351	17469.429833	1524.191406	413.826874
2761.148351	17469.429833	1523.136719	688.380859
2761.148351	17469.429833	1522.081055	330.912750
2761.148351	17469.429833	1521.026367	476.539734
2761.148351	17469.429833	1519.970703	370.877655
2761.148351	17469.429833	1518.915039	392.176270
2761.148351	17469.429833	1517.859375	209.879562
2761.148351	17469.429833	1516.802734	-8.427299
2761.148351	17469.429833	1515.747070	481.715240
2761.148351	17469.429833	1514.690430	191.322723
2761.148351	17469.429833	1513.633789	299.256470
2761.148351	17469.429833	1512.577148	108.790451
2761.148351	17469.429833	1511.519531	327.749725
2761.148351	17469.429833	1510.461914	234.823257
2761.148351	17469.429833	1509.405273	112.701530
2761.148351	17469.429833	1508.346680	338.722504
2761.148351	17469.429833	1507.289063	178.499359
2761.148351	17469.429833	1506.231445	34.291893
2761.148351	17469.429833	1505.172852	222.231491
2761.148351	17469.429833	1504.114258	234.135178
2761.148351	17469.429833	1503.055664	250.693817
2761.148351	17469.429833	1501.996094	280.922943
2761.148351	17469.429833	1500.937500	345.139526
2761.148351	17469.429833	1499.877930	454.587219
2761.148351	17469.429833	1498.818359	352.119385
2761.148351	17469.429833	1497.757813	466.318542
2761.148351	17469.429833	1496.698242	289.779724
2761.148351	17469.429833	1495.637695	374.936127
2761.148351	17469.429833	1494.577148	352.027252
2761.148351	17469.429833	1493.516602	79.162773
2761.148351	17469.429833	1492.456055	207.557800
2761.148351	17469.429833	1491.394531	164.863907
2761.148351	17469.429833	1490.333008	201.153931
2761.148351	17469.429833	1489.271484	208.309952
2761.148351	17469.429833	1488.209961	442.966949
2761.148351	17469.429833	1487.148438	115.035286
2761.148351	17469.429833	1486.085938	417.417145
2761.148351	17469.429833	1485.023438	413.873077
2761.148351	17469.429833	1483.960938	282.273376
2761.148351	17469.429833	1482.898438	465.708008
2761.148351	17469.429833	1481.834961	320.959564
2761.148351	17469.429833	1480.772461	367.492706
2761.148351	17469.429833	1479.708984	157.958466
2761.148351	17469.429833	1478.644531	431.727509
2761.148351	17469.429833	1477.581055	298.958893
2761.148351	17469.429833	1476.517578	498.750824
2761.148351	17469.429833	1475.453125	368.549744
2761.148351	17469.429833	1474.388672	348.619507
2761.148351	17469.429833	1473.323242	483.621704
2761.148351	17469.429833	1472.258789	327.059540
2761.148351	17469.429833	1471.193359	392.722992
2761.148351	17469.429833	1470.127930	469.799164
2761.148351	17469.429833	1469.062500	378.738159
2761.148351	17469.429833	1467.997070	469.632721
2761.148351	17469.429833	1466.930664	403.823853
2761.148351	17469.429833	1465.865234	582.035706
2761.148351	17469.429833	1464.798828	426.976776
2761.148351	17469.429833	1463.731445	618.466797
2761.148351	17469.429833	1462.665039	481.835419
2761.148351	17469.429833	1461.597656	517.598633
2761.148351	17469.429833	1460.530273	696.320068
2761.148351	17469.429833	1459.462891	633.551331
2761.148351	17469.429833	1458.395508	595.917175
2761.148351	17469.429833	1457.327148	587.261780
2761.148351	17469.429833	1456.259766	634.722534
2761.148351	17469.429833	1455.191406	796.108154
2761.148351	17469.429833	1454.123047	563.501831
2761.148351	17469.429833	1453.053711	721.730530
2761.148351	17469.429833	1451.985352	740.471558
2761.148351	17469.429833	1450.916016	740.376526
2761.148351	17469.429833	1449.846680	416.640198
2761.148351	17469.429833	1448.776367	735.906616
2761.148351	17469.429833	1447.707031	724.112549
2761.148351	17469.429833	1446.636719	461.853058
2761.148351	17469.429833	1445.566406	487.929779
2761.148351	17469.429833	1444.496094	595.188049
2761.148351	17469.429833	1443.425781	171.526901
2761.148351	17469.429833	1442.354492	340.684784
2761.148351	17469.429833	1441.283203	409.013580
2761.148351	17469.429833	1440.211914	251.519669
2761.148351	17469.429833	1439.140625	347.093262
2761.148351	17469.429833	1438.069336	395.104004
2761.148351	17469.429833	1436.997070	400.284180
2761.148351	17469.429833	1435.924805	270.354980
2761.148351	17469.429833	1434.852539	37.455589
2761.148351	17469.429833	1433.780273	188.942902
2761.148351	17469.429833	1432.707031	53.361217
2761.148351	17469.429833	1431.633789	29.140110
2761.148351	17469.429833	1430.560547	-94.936768
2761.148351	17469.429833	1429.487305	-104.175621
2761.148351	17469.429833	1428.413086	-102.366653
2761.148351	17469.429833	1427.339844	-7.986653
2761.148351	17469.429833	1426.265625	118.210800
2761.148351	17469.429833	1425.191406	-112.969604
2761.148351	17469.429833	1424.116211	-212.037323
2761.148351	17469.429833	1423.041992	-6.928243
2761.148351	17469.429833	1421.966797	-137.969162
2761.148351	17469.429833	1420.891602	100.604973
2761.148351	17469.429833	1419.816406	-114.490662
2761.148351	17469.429833	1418.740234	55.722378
2761.148351	17469.429833	1417.665039	-131.740036
2761.148351	17469.429833	1416.588867	0.017260
2761.148351	17469.429833	1415.512695	-130.198425
2761.148351	17469.429833	1414.435547	55.544926
2761.148351	17469.429833	1413.359375	4.445751
2761.148351	17469.429833	1412.282227	251.490967
2761.148351	17469.429833	1411.205078	16.529352
2761.148351	17469.429833	1410.127930	76.340431
2761.148351	17469.429833	1409.049805	143.354858
2761.148351	17469.429833	1407.972656	242.014862
2761.148351	17469.429833	1406.894531	306.332977
2761.148351	17469.429833	1405.816406	286.386780
2761.148351	17469.429833	1404.737305	370.114227
2761.148351	17469.429833	1403.659180	274.464355
2761.148351	17469.429833	1402.580078	339.051178
2761.148351	17469.429833	1401.500977	249.034805
2761.148351	17469.429833	1400.421875	141.091141
2761.148351	17469.429833	1399.341797	217.649872
2761.148351	17469.429833	1398.262695	243.882462
2761.148351	17469.429833	1397.182617	186.462646
2761.148351	17469.429833	1396.102539	322.024506
2761.148351	17469.429833	1395.021484	192.698318
2761.148351	17469.429833	1393.941406	329.443665
2761.148351	17469.429833	1392.860352	221.390228
2761.148351	17469.429833	1391.779297	288.726288
2761.148351	17469.429833	1390.698242	243.301514
2761.148351	17469.429833	1389.616211	386.775024
2761.148351	17469.429833	1388.535156	391.258575
2761.148351	17469.429833	1387.453125	438.507904
2761.148351	17469.429833	1386.371094	470.817169
2761.148351	17469.429833	1385.288086	453.878082
2761.148351	17469.429833	1384.206055	575.565125
2761.148351	17469.429833	1383.123047	444.570526
2761.148351	17469.429833	1382.040039	477.659576
2761.148351	17469.429833	1380.957031	465.039276
2761.148351	17469.429833	1379.873047	331.257355
2761.148351	17469.429833	1378.789063	653.255554
2761.148351	17469.429833	1377.705078	505.802429
2761.148351	17469.429833	1376.621094	493.240723
2761.148351	17469.429833	1375.537109	511.160217
2761.148351	17469.429833	1374.452148	569.714600
2761.148351	17469.429833	1373.367188	697.356689
2761.148351	17469.429833	1372.282227	637.247742
2761.148351	17469.429833	1371.197266	615.147339
2761.148351	17469.429833	1370.112305	869.573975
2761.148351	17469.429833	1369.026367	670.403503
2761.148351	17469.429833	1367.940430	592.688843
2761.148351	17469.429833	1366.854492	926.247314
2761.148351	17469.429833	1365.767578	784.379700
2761.148351	17469.429833	1364.681641	633.596619
2761.148351	17469.429833	1363.594727	731.947021
2761.148351	17469.429833	1362.507813	676.381958
2761.148351	17469.429833	1361.419922	715.376282
2761.148351	17469.429833	1360.333008	872.342224
2761.148351	17469.429833	1359.245117	807.072632
2761.148351	17469.429833	1358.157227	800.347229
2761.148351	17469.429833	1357.069336	688.666870
2761.148351	17469.429833	1355.981445	763.636902
2761.148351	17469.429833	1354.892578	1000.896729
2761.148351	17469.429833	1353.803711	801.147705
2761.148351	17469.429833	1352.714844	699.722656
2761.148351	17469.429833	1351.625000	968.331604
2761.148351	17469.429833	1350.536133	915.783630
2761.148351	17469.429833	1349.446289	922.889587
2761.148351	17469.429833	1348.356445	968.890442
2761.148351	17469.429833	1347.266602	981.493896
2761.148351	17469.429833	1346.175781	839.446594
2761.148351	17469.429833	1345.085938	1051.273682
2761.148351	17469.429833	1343.995117	1151.424316
2761.148351	17469.429833	1342.903320	848.806824
2761.148351	17469.429833	1341.812500	1273.321899
2761.148351	17469.429833	1340.720703	1297.188721
2761.148351	17469.429833	1339.629883	1185.198364
2761.148351	17469.429833	1338.538086	1299.867310
2761.148351	17469.429833	1337.445313	1335.971680
2761.148351	17469.429833	1336.353516	1281.811157
2761.148351	17469.429833	1335.260742	1143.091797
2761.148351	17469.429833	1334.167969	1249.859253
2761.148351	17469.429833	1333.075195	1183.836914
2761.148351	17469.429833	1331.981445	998.062195
2761.148351	17469.429833	1330.888672	897.105347
2761.148351	17469.429833	1329.794922	872.842102
2761.148351	17469.429833	1328.701172	795.056091
2761.148351	17469.429833	1327.606445	879.231140
2761.148351	17469.429833	1326.512695	875.273010
2761.148351	17469.429833	1325.417969	1088.217041
2761.148351	17469.429833	1324.323242	1134.556641
2761.148351	17469.429833	1323.227539	1025.560913
2761.148351	17469.429833	1322.132813	1029.940918
2761.148351	17469.429833	1321.037109	1298.629883
2761.148351	17469.429833	1319.941406	1104.683350
2761.148351	17469.429833	1318.845703	1144.546509
2761.148351	17469.429833	1317.750000	1205.818726
2761.148351	17469.429833	1316.653320	1477.942505
2761.148351	17469.429833	1315.556641	1227.338257
2761.148351	17469.429833	1314.459961	1129.262817
2761.148351	17469.429833	1313.363281	1285.613403
2761.148351	17469.429833	1312.265625	1046.265991
2761.148351	17469.429833	1311.167969	1001.790649
2761.148351	17469.429833	1310.070313	1010.196899
2761.148351	17469.429833	1308.972656	906.230591
2761.148351	17469.429833	1307.874023	824.568848
2761.148351	17469.429833	1306.776367	816.527893
2761.148351	17469.429833	1305.677734	711.261963
2761.148351	17469.429833	1304.579102	648.420654
2761.148351	17469.429833	1303.479492	768.106140
2761.148351	17469.429833	1302.380859	562.622498
2761.148351	17469.429833	1301.281250	620.593079
2761.148351	17469.429833	1300.181641	491.818726
2761.148351	17469.429833	1299.081055	481.688782
2761.148351	17469.429833	1297.981445	469.511108
2761.148351	17469.429833	1296.880859	405.387726
2761.148351	17469.429833	1295.780273	447.123322
2761.148351	17469.429833	1294.679688	266.631836
2761.148351	17469.429833	1293.578125	479.258698
2761.148351	17469.429833	1292.476563	417.386749
2761.148351	17469.429833	1291.375000	335.992401
2761.148351	17469.429833	1290.273438	498.711182
2761.148351	17469.429833	1289.171875	351.449280
2761.148351	17469.429833	1288.069336	232.431152
2761.148351	17469.429833	1286.966797	334.197693
2761.148351	17469.429833	1285.864258	447.818115
2761.148351	17469.429833	1284.761719	562.803040
2761.148351	17469.429833	1283.658203	691.559631
2761.148351	17469.429833	1282.554688	654.039856
2761.148351	17469.429833	1281.451172	630.739746
2761.148351	17469.429833	1280.347656	354.800751
2761.148351	17469.429833	1279.244141	291.056763
2761.148351	17469.429833	1278.139648	397.184570
2761.148351	17469.429833	1277.035156	385.510132
2761.148351	17469.429833	1275.930664	399.890747
2761.148351	17469.429833	1274.825195	327.106812
2761.148351	17469.429833	1273.720703	357.150116
2761.148351	17469.429833	1272.615234	335.279633
2761.148351	17469.429833	1271.508789	318.234619
2761.148351	17469.429833	1270.403320	318.351532
2761.148351	17469.429833	1269.297852	393.568024
2761.148351	17469.429833	1268.191406	359.095123
2761.148351	17469.429833	1267.084961	485.191376
2761.148351	17469.429833	1265.977539	386.083527
2761.148351	17469.429833	1264.871094	272.674469
2761.148351	17469.429833	1263.763672	426.710571
2761.148351	17469.429833	1262.656250	426.464172
2761.148351	17469.429833	1261.548828	366.093384
2761.148351	17469.429833	1260.440430	320.560272
2761.148351	17469.429833	1259.333008	396.811768
2761.148351	17469.429833	1258.224609	251.772980
2761.148351	17469.429833	1257.115234	369.234924
2761.148351	17469.429833	1256.006836	393.275421
2761.148351	17469.429833	1254.897461	272.184784
2761.148351	17469.429833	1253.788086	425.119171
2761.148351	17469.429833	1252.678711	430.382294
2761.148351	17469.429833	1251.569336	419.164612
2761.148351	17469.429833	1250.458984	418.209381
2761.148351	17469.429833	1249.349609	488.138611
2761.148351	17469.429833	1248.239258	624.202454
2761.148351	17469.429833	1247.127930	626.104065
2761.148351	17469.429833	1246.017578	687.096313
2761.148351	17469.429833	1244.906250	575.825867
2761.148351	17469.429833	1243.794922	583.480225
2761.148351	17469.429833	1242.683594	721.549744
2761.148351	17469.429833	1241.571289	688.366455
2761.148351	17469.429833	1240.459961	643.386597
2761.148351	17469.429833	1239.347656	488.972504
2761.148351	17469.429833	1238.234375	578.349792
2761.148351	17469.429833	1237.122070	531.300049
2761.148351	17469.429833	1236.008789	476.603363
2761.148351	17469.429833	1234.896484	383.878418
2761.148351	17469.429833	1233.782227	437.370880
2761.148351	17469.429833	1232.668945	211.842178
2761.148351	17469.429833	1231.555664	217.792297
2761.148351	17469.429833	1230.441406	229.456467
2761.148351	17469.429833	1229.327148	152.513809
2761.148351	17469.429833	1228.211914	176.551086
2761.148351	17469.429833	1227.097656	333.077942
2761.148351	17469.429833	1225.982422	195.495224
2761.148351	17469.429833	1224.867188	74.347420
2761.148351	17469.429833	1223.751953	33.751942
2761.148351	17469.429833	1222.635742	91.450714
2761.148351	17469.429833	1221.520508	74.643158
2761.148351	17469.429833	1220.404297	114.637100
2761.148351	17469.429833	1219.287109	28.223703
2761.148351	17469.429833	1218.170898	27.586994
2761.148351	17469.429833	1217.053711	47.424263
2761.148351	17469.429833	1215.936523	-18.125927
2761.148351	17469.429833	1214.819336	145.980652
2761.148351	17469.429833	1213.702148	88.188637
2761.148351	17469.429833	1212.583984	5.244582
2761.148351	17469.429833	1211.465820	143.720825
2761.148351	17469.429833	1210.347656	143.648941
2761.148351	17469.429833	1209.229492	97.596626
2761.148351	17469.429833	1208.110352	95.089638
2761.148351	17469.429833	1206.992188	150.934875
2761.148351	17469.429833	1205.873047	118.079971
2761.148351	17469.429833	1204.752930	195.152100
2761.148351	17469.429833	1203.633789	21.965303
2761.148351	17469.429833	1202.513672	5.006019
2761.148351	17469.429833	1201.393555	40.224941
2761.148351	17469.429833	1200.273438	16.813879
2761.148351	17469.429833	1199.152344	50.251438
2761.148351	17469.429833	1198.032227	100.753464
2761.148351	17469.429833	1196.911133	113.859756
2761.148351	17469.429833	1195.790039	-52.965080
2761.148351	17469.429833	1194.667969	-163.634171
2761.148351	17469.429833	1193.545898	37.086739
2761.148351	17469.429833	1192.424805	77.102013
2761.148351	17469.429833	1191.301758	12.857636
2761.148351	17469.429833	1190.179688	-65.226189
2761.148351	17469.429833	1189.056641	6.573352
2761.148351	17469.429833	1187.933594	27.833561
2761.148351	17469.429833	1186.810547	59.880142
2761.148351	17469.429833	1185.687500	90.616928
2761.148351	17469.429833	1184.563477	111.973228
2761.148351	17469.429833	1183.440430	168.582214
2761.148351	17469.429833	1182.316406	195.676926
2761.148351	17469.429833	1181.191406	86.329056
2761.148351	17469.429833	1180.067383	120.084229
2761.148351	17469.429833	1178.942383	188.082428
2761.148351	17469.429833	1177.817383	33.551865
2761.148351	17469.429833	1176.692383	157.425751
2761.148351	17469.429833	1175.566406	5.623289
2761.148351	17469.429833	1174.440430	213.095520
2761.148351	17469.429833	1173.314453	80.895813
2761.148351	17469.429833	1172.188477	20.553112
2761.148351	17469.429833	1171.062500	72.600281
2761.148351	17469.429833	1169.935547	-38.907967
2761.148351	17469.429833	1168.808594	127.563721
2761.148351	17469.429833	1167.681641	-61.039646
2761.148351	17469.429833	1166.553711	-19.377359
2761.148351	17469.429833	1165.426758	-72.055626
2761.148351	17469.429833	1164.298828	-13.592943
2761.148351	17469.429833	1163.170898	-109.474159
2761.148351	17469.429833	1162.041992	38.824863
2761.148351	17469.429833	1160.914063	-20.576031
2761.148351	17469.429833	1159.785156	-49.777771
2761.148351	17469.429833	1158.656250	5.073917
2761.148351	17469.429833	1157.526367	-26.168896
2761.148351	17469.429833	1156.397461	-200.695450
2761.148351	17469.429833	1155.267578	32.326515
2761.148351	17469.429833	1154.137695	-98.816833
2761.148351	17469.429833	1153.006836	-102.111504
2761.148351	17469.429833	1151.876953	-108.901520
2761.148351	17469.429833	1150.746094	-76.015198
2761.148351	17469.429833	1149.615234	-218.602631
2761.148351	17469.429833	1148.484375	-10.731348
2761.148351	17469.429833	1147.352539	-109.076088
2761.148351	17469.429833	1146.220703	-203.015244
2761.148351	17469.429833	1145.088867	-169.975708
2761.148351	17469.429833	1143.957031	-36.923416
2761.148351	17469.429833	1142.825195	-84.801834
2761.148351	17469.429833	1141.692383	-139.172668
2761.148351	17469.429833	1140.559570	-163.208908
2761.148351	17469.429833	1139.426758	-150.440918
2761.148351	17469.429833	1138.292969	-25.289894
2761.148351	17469.429833	1137.159180	47.612370
2761.148351	17469.429833	1136.025391	113.498245
2761.148351	17469.429833	1134.891602	-3.110838
2761.148351	17469.429833	1133.757813	-96.220779
2761.148351	17469.429833	1132.623047	-167.428833
2761.148351	17469.429833	1131.488281	-116.576401
2761.148351	17469.429833	1130.353516	2.760337
2761.148351	17469.429833	1129.217773	-88.122482
2761.148351	17469.429833	1128.083008	-2.854326
2761.148351	17469.429833	1126.947266	-9.875171
2761.148351	17469.429833	1125.811523	24.281544
2761.148351	17469.429833	1124.674805	48.841446
2761.148351	17469.429833	1123.539063	-76.280487
2761.148351	17469.429833	1122.402344	85.313217
2761.148351	17469.429833	1121.265625	7.842324
2761.148351	17469.429833	1120.127930	-31.320284
2761.148351	17469.429833	1118.990234	-9.143195
2761.148351	17469.429833	1117.853516	149.247040
2761.148351	17469.429833	1116.714844	148.897369
2761.148351	17469.429833	1115.577148	207.407486
2761.148351	17469.429833	1114.439453	164.216614
2761.148351	17469.429833	1113.300781	266.482513
2761.148351	17469.429833	1112.162109	116.574837
2761.148351	17469.429833	1111.022461	264.614136
2761.148351	17469.429833	1109.883789	355.975891
2761.148351	17469.429833	1108.744141	140.971298
2761.148351	17469.429833	1107.604492	210.514236
2761.148351	17469.429833	1106.463867	85.198677
2761.148351	17469.429833	1105.324219	178.056839
2761.148351	17469.429833	1104.183594	178.892624
2761.148351	17469.429833	1103.042969	223.886826
2761.148351	17469.429833	1101.902344	131.928284
2761.148351	17469.429833	1100.760742	-9.677382
2761.148351	17469.429833	1099.619141	85.493950
2761.148351	17469.429833	1098.477539	140.416107
2761.148351	17469.429833	1097.335938	90.327576
2761.148351	17469.429833	1096.193359	132.433182
2761.148351	17469.429833	1095.051758	209.305267
2761.148351	17469.429833	1093.909180	150.098389
2761.148351	17469.429833	1092.765625	232.424881
2761.148351	17469.429833	1091.623047	193.856491
2761.148351	17469.429833	1090.479492	18.668520
2761.148351	17469.429833	1089.335938	14.381365
2761.148351	17469.429833	1088.192383	246.188629
2761.148351	17469.429833	1087.047852	291.826019
2761.148351	17469.429833	1085.903320	174.323853
2761.148351	17469.429833	1084.758789	-87.072472
2761.148351	17469.429833	1083.614258	-15.617564
2761.148351	17469.429833	1082.469727	43.465218
2761.148351	17469.429833	1081.324219	-48.711727
2761.148351	17469.429833	1080.178711	123.758217
2761.148351	17469.429833	1079.033203	-109.365852
2761.148351	17469.429833	1077.886719	8.954078
2761.148351	17469.429833	1076.740234	102.051582
2761.148351	17469.429833	1075.593750	95.074425
2761.148351	17469.429833	1074.447266	121.362762
2761.148351	17469.429833	1073.300781	28.828047
2761.148351	17469.429833	1072.153320	150.567642
2761.148351	17469.429833	1071.005859	141.788452
2761.148351	17469.429833	1069.858398	79.811119
2761.148351	17469.429833	1068.709961	51.557072
2761.148351	17469.429833	1067.561523	142.791992
2761.148351	17469.429833	1066.413086	212.879486
2761.148351	17469.429833	1065.264648	145.327713
2761.148351	17469.429833	1064.116211	298.287445
2761.148351	17469.429833	1062.966797	319.486511
2761.148351	17469.429833	1061.817383	130.669373
2761.148351	17469.429833	1060.667969	234.438934
2761.148351	17469.429833	1059.517578	356.956512
2761.148351	17469.429833	1058.368164	374.267700
2761.148351	17469.429833	1057.217773	342.449646
2761.148351	17469.429833	1056.067383	277.779236
2761.148351	17469.429833	1054.916016	195.059250
2761.148351	17469.429833	1053.764648	152.279602
2761.148351	17469.429833	1052.613281	350.900635
2761.148351	17469.429833	1051.461914	399.251862
2761.148351	17469.429833	1050.310547	264.380554
2761.148351	17469.429833	1049.158203	191.704453
2761.148351	17469.429833	1048.005859	321.875854
2761.148351	17469.429833	1046.853516	349.256470
2761.148351	17469.429833	1045.700195	202.333298
2761.148351	17469.429833	1044.547852	208.012482
2761.148351	17469.429833	1043.394531	187.205002
2761.148351	17469.429833	1042.240234	205.091797
2761.148351	17469.429833	1041.086914	497.913300
2761.148351	17469.429833	1039.932617	380.016754
2761.148351	17469.429833	1038.778320	266.887817
2761.148351	17469.429833	1037.624023	197.106033
2761.148351	17469.429833	1036.469727	283.087830
2761.148351	17469.429833	1035.314453	113.272949
2761.148351	17469.429833	1034.159180	345.093506
2761.148351	17469.429833	1033.003906	269.985474
2761.148351	17469.429833	1031.847656	361.264465
2761.148351	17469.429833	1030.692383	121.805443
2761.148351	17469.429833	1029.536133	247.848465
2761.148351	17469.429833	1028.378906	336.074493
2761.148351	17469.429833	1027.222656	230.391998
2761.148351	17469.429833	1026.065430	452.818115
2761.148351	17469.429833	1024.908203	248.206207
2761.148351	17469.429833	1023.750977	319.708130
2761.148351	17469.429833	1022.593750	420.786194
2761.148351	17469.429833	1021.435547	331.995911
2761.148351	17469.429833	1020.277344	333.725922
2761.148351	17469.429833	1019.119141	366.988434
2761.148351	17469.429833	1017.959961	362.353394
2761.148351	17469.429833	1016.800781	297.624725
2761.148351	17469.429833	1015.641602	213.903381
2761.148351	17469.429833	1014.482422	322.323639
2761.148351	17469.429833	1013.323242	64.556816
2761.148351	17469.429833	1012.163086	232.743057
2761.148351	17469.429833	1011.002930	141.099487
2761.148351	17469.429833	1009.842773	266.518127
2761.148351	17469.429833	1008.681641	162.059906
2761.148351	17469.429833	1007.520508	-12.921205
2761.148351	17469.429833	1006.359375	58.577156
2761.148351	17469.429833	1005.198242	172.867920
2761.148351	17469.429833	1004.037109	27.956429
2761.148351	17469.429833	1002.875000	55.535267
2761.148351	17469.429833	1001.712891	225.065964
2761.148351	17469.429833	1000.550781	201.877060
2761.148351	17469.429833	999.387695	245.467728
2761.148351	17469.429833	998.224609	90.148178
2761.148351	17469.429833	997.061523	186.101486
2761.148351	17469.429833	995.898438	-28.122629
2761.148351	17469.429833	994.734375	246.392349
2761.148351	17469.429833	993.571289	76.120796
2761.148351	17469.429833	992.407227	376.367432
2761.148351	17469.429833	991.242188	241.606247
2761.148351	17469.429833	990.078125	-66.428482
2761.148351	17469.429833	988.913086	-168.648010
2761.148351	17469.429833	987.748047	-105.590973
2761.148351	17469.429833	986.583008	-17.902960
2761.148351	17469.429833	985.416992	-3.847382
2761.148351	17469.429833	984.250977	-65.949135
2761.148351	17469.429833	983.084961	30.660358
2761.148351	17469.429833	981.918945	53.575233
2761.148351	17469.429833	980.751953	52.692616
2761.148351	17469.429833	979.584961	-4.018645
2761.148351	17469.429833	978.417969	37.167919
2761.148351	17469.429833	977.250977	65.866463
2761.148351	17469.429833	976.083008	0.721071
2761.148351	17469.429833	974.915039	120.798332
2761.148351	17469.429833	973.747070	-10.052731
2761.148351	17469.429833	972.579102	-7.432338
2761.148351	17469.429833	971.410156	141.242935
2761.148351	17469.429833	970.242188	9.140338
2761.148351	17469.429833	969.072266	24.923876
2761.148351	17469.429833	967.903320	0.239835
2761.148351	17469.429833	966.733398	43.646660
2761.148351	17469.429833	965.563477	-89.575027
2761.148351	17469.429833	964.393555	66.103439
2761.148351	17469.429833	963.223633	33.685345
2761.148351	17469.429833	962.052734	153.191406
2761.148351	17469.429833	960.881836	118.644989
2761.148351	17469.429833	959.710938	85.209518
2761.148351	17469.429833	958.540039	45.473213
2761.148351	17469.429833	957.368164	-39.755707
2761.148351	17469.429833	956.196289	144.153610
2761.148351	17469.429833	955.024414	47.461750
2761.148351	17469.429833	953.851563	-75.943558
2761.148351	17469.429833	952.679688	119.298859
2761.148351	17469.429833	951.506836	6.402613
2761.148351	17469.429833	950.333984	-21.238661
2761.148351	17469.429833	949.160156	-118.568359
2761.148351	17469.429833	947.986328	16.712427
2761.148351	17469.429833	946.812500	-62.142101
2761.148351	17469.429833	945.638672	-143.012527
2761.148351	17469.429833	944.464844	-96.408836
2761.148351	17469.429833	943.290039	80.699089
2761.148351	17469.429833	942.115234	-65.763283
2761.148351	17469.429833	940.940430	-160.945129
2761.148351	17469.429833	939.764648	-7.392064
2761.148351	17469.429833	938.588867	99.821884
2761.148351	17469.429833	937.413086	74.276054
2761.148351	17469.429833	936.237305	127.800766
2761.148351	17469.429833	935.060547	-69.727325
2761.148351	17469.429833	933.883789	144.287720
2761.148351	17469.429833	932.707031	-6.790620
2761.148351	17469.429833	931.530273	86.200974
2761.148351	17469.429833	930.352539	51.309982
2761.148351	17469.429833	929.175781	148.895157
2761.148351	17469.429833	927.998047	193.034653
2761.148351	17469.429833	926.819336	95.403870
2761.148351	17469.429833	925.641602	30.340683
2761.148351	17469.429833	924.462891	104.610603
2761.148351	17469.429833	923.284180	4.677309
2761.148351	17469.429833	922.104492	62.637959
2761.148351	17469.429833	920.924805	-37.270313
2761.148351	17469.429833	919.746094	-35.754166
2761.148351	17469.429833	919.551758	213.513016
2761.148351	17469.429833	918.386719	30.033794
2761.148351	17469.429833	917.220703	159.779037
2761.148351	17469.429833	916.054688	-23.643503
2761.148351	17469.429833	914.887695	34.148869
2761.148351	17469.429833	913.721680	-75.017044
2761.148351	17469.429833	912.554688	-17.267159
2761.148351	17469.429833	911.387695	107.648407
2761.148351	17469.429833	910.220703	-175.275604
2761.148351	17469.429833	909.052734	-182.443237
2761.148351	17469.429833	907.885742	-36.769299
2761.148351	17469.429833	906.717773	-11.573690
2761.148351	17469.429833	905.548828	-180.862228
2761.148351	17469.429833	904.380859	-153.361191
2761.148351	17469.429833	903.211914	36.101139
2761.148351	17469.429833	902.042969	-144.703842
2761.148351	17469.429833	900.874023	37.712223
2761.148351	17469.429833	899.704102	72.030586
2761.148351	17469.429833	898.535156	-97.151672
2761.148351	17469.429833	897.365234	52.738346
2761.148351	17469.429833	896.194336	130.906219
2761.148351	17469.429833	895.024414	12.611651
2761.148351	17469.429833	893.853516	46.832260
2761.148351	17469.429833	892.682617	34.828770
2761.148351	17469.429833	891.511719	15.888295
2761.148351	17469.429833	890.340820	-143.900787
2761.148351	17469.429833	889.168945	125.728096
2761.148351	17469.429833	887.997070	106.740273
2761.148351	17469.429833	886.825195	-53.009781
2761.148351	17469.429833	885.653320	119.499886
2761.148351	17469.429833	884.480469	-1.003296
2761.148351	17469.429833	883.307617	-26.923111
2761.148351	17469.429833	882.134766	83.183762
2761.148351	17469.429833	880.961914	-90.298447
2761.148351	17469.429833	879.788086	-63.218548
2761.148351	17469.429833	878.614258	120.520187
2761.148351	17469.429833	877.440430	92.228729
2761.148351	17469.429833	876.266602	114.605255
2761.148351	17469.429833	875.091797	-8.114646
2761.148351	17469.429833	873.916992	37.268314
2761.148351	17469.429833	872.742188	98.730614
2761.148351	17469.429833	871.567383	61.195015
2761.148351	17469.429833	870.391602	-33.861263
2761.148351	17469.429833	869.215820	112.649277
2761.148351	17469.429833	868.040039	127.988243
2761.148351	17469.429833	866.864258	-6.159412
2761.148351	17469.429833	865.687500	-105.781876
2761.148351	17469.429833	864.510742	-124.930786
2761.148351	17469.429833	863.333984	5.285823
2761.148351	17469.429833	862.157227	133.135880
2761.148351	17469.429833	860.979492	-42.300514
2761.148351	17469.429833	859.802734	-31.653727
2761.148351	17469.429833	858.625000	4.231194
2761.148351	17469.429833	857.446289	46.972214
2761.148351	17469.429833	856.268555	-59.510681
2761.148351	17469.429833	855.089844	-104.007942
2761.148351	17469.429833	853.911133	-95.735695
2761.148351	17469.429833	852.731445	-112.715034
2761.148351	17469.429833	851.552734	-120.531746
2761.148351	17469.429833	850.373047	-167.341156
2761.148351	17469.429833	849.193359	-88.067368
2761.148351	17469.429833	848.013672	-68.433716
2761.148351	17469.429833	846.833008	79.495644
2761.148351	17469.429833	845.652344	76.140396
2761.148351	17469.429833	844.471680	198.746902
2761.148351	17469.429833	843.291016	229.681671
2761.148351	17469.429833	842.110352	420.855591
2761.148351	17469.429833	840.928711	76.281097
2761.148351	17469.429833	839.747070	63.680630
2761.148351	17469.429833	838.564453	-131.986664
2761.148351	17469.429833	837.382813	15.559455
2761.148351	17469.429833	836.200195	217.918610
2761.148351	17469.429833	835.017578	1.698100
2761.148351	17469.429833	833.834961	5.029017
2761.148351	17469.429833	832.651367	72.340118
2761.148351	17469.429833	831.467773	52.759735
2761.148351	17469.429833	830.284180	147.409180
2761.148351	17469.429833	829.100586	187.171997
2761.148351	17469.429833	827.916992	25.910707
2761.148351	17469.429833	826.732422	216.345459
2761.148351	17469.429833	825.547852	160.116867
2761.148351	17469.429833	824.363281	222.579132
2761.148351	17469.429833	823.177734	-66.442162
2761.148351	17469.429833	821.992188	201.336182
2761.148351	17469.429833	820.806641	88.035469
2761.148351	17469.429833	819.621094	31.773104
2761.148351	17469.429833	818.434570	16.552765
2761.148351	17469.429833	817.249023	256.638641
2761.148351	17469.429833	816.062500	4.289379
2761.148351	17469.429833	814.875000	164.471878
2761.148351	17469.429833	813.688477	78.508568
2761.148351	17469.429833	812.500977	195.279510
2761.148351	17469.429833	811.313477	93.351303
2761.148351	17469.429833	810.125977	150.818848
2761.148351	17469.429833	808.937500	-19.403713
2761.148351	17469.429833	807.749023	33.457302
2761.148351	17469.429833	806.560547	225.071014
2761.148351	17469.429833	805.372070	198.179306
2761.148351	17469.429833	804.182617	48.446209
2761.148351	17469.429833	802.994141	94.314171
2761.148351	17469.429833	801.803711	78.747078
2761.148351	17469.429833	800.614258	51.791630
2761.148351	17469.429833	799.424805	6.636758
2761.148351	17469.429833	798.234375	22.818460
2761.148351	17469.429833	797.043945	77.581795
2761.148351	17469.429833	795.852539	-15.338562
2761.148351	17469.429833	794.662109	102.929337
2761.148351	17469.429833	793.470703	57.655437
2761.148351	17469.429833	792.279297	125.859795
2761.148351	17469.429833	791.087891	7.917080
2761.148351	17469.429833	789.895508	10.240564
2761.148351	17469.429833	788.703125	135.023712
2761.148351	17469.429833	787.510742	-48.716209
2761.148351	17469.429833	786.318359	-35.145054
2761.148351	17469.429833	785.125000	-32.948788
2761.148351	17469.429833	783.931641	-82.917229
2761.148351	17469.429833	782.738281	-46.789948
2761.148351	17469.429833	781.544922	-65.086800
2761.148351	17469.429833	780.350586	41.169235
2761.148351	17469.429833	779.156250	149.610321
2761.148351	17469.429833	777.961914	47.402645
2761.148351	17469.429833	776.767578	4.057132
2761.148351	17469.429833	775.572266	-272.420502
2761.148351	17469.429833	774.376953	-30.648472
2761.148351	17469.429833	773.181641	59.412479
2761.148351	17469.429833	771.986328	-4.405437
2761.148351	17469.429833	770.790039	157.899475
2761.148351	17469.429833	769.593750	78.184235
2761.148351	17469.429833	768.397461	7.505189
2761.148351	17469.429833	767.201172	24.954327
2761.148351	17469.429833	766.003906	19.760769
2761.148351	17469.429833	764.806641	80.040947
2761.148351	17469.429833	763.609375	-4.289412
2761.148351	17469.429833	762.412109	-88.625122
2761.148351	17469.429833	761.213867	199.534317
2761.148351	17469.429833	760.015625	40.623817
2761.148351	17469.429833	758.817383	-111.491646
2761.148351	17469.429833	757.618164	-92.117340
2761.148351	17469.429833	756.419922	-111.138206
2761.148351	17469.429833	755.220703	205.835968
2761.148351	17469.429833	754.021484	110.012756
2761.148351	17469.429833	752.821289	84.068703
2761.148351	17469.429833	751.621094	213.606964
2761.148351	17469.429833	750.420898	261.927124
2761.148351	17469.429833	749.220703	346.229584
2761.148351	17469.429833	748.020508	365.133270
2761.148351	17469.429833	746.819336	242.110016
2761.148351	17469.429833	745.618164	272.195282
2761.148351	17469.429833	744.416992	176.165710
2761.148351	17469.429833	743.214844	341.193726
2761.148351	17469.429833	742.012695	233.848572
2761.148351	17469.429833	740.810547	436.947968
2761.148351	17469.429833	739.608398	453.238770
2761.148351	17469.429833	738.406250	424.504944
2761.148351	17469.429833	737.203125	649.780579
2761.148351	17469.429833	736.000000	820.969727
2761.148351	17469.429833	734.795898	1025.748901
2761.148351	17469.429833	733.592773	1050.654907
2761.148351	17469.429833	732.388672	1309.118408
2761.148351	17469.429833	731.184570	1264.236816
2761.148351	17469.429833	729.979492	1055.413086
2761.148351	17469.429833	728.775391	911.733459
2761.148351	17469.429833	727.570313	649.108521
2761.148351	17469.429833	726.365234	624.407410
2761.148351	17469.429833	725.160156	447.110443
2761.148351	17469.429833	723.954102	579.375488
2761.148351	17469.429833	722.748047	368.425293
2761.148351	17469.429833	721.541992	200.114304
2761.148351	17469.429833	720.334961	179.771057
2761.148351	17469.429833	719.128906	370.058441
2761.148351	17469.429833	717.921875	134.484772
2761.148351	17469.429833	716.714844	241.713974
2761.148351	17469.429833	715.506836	68.879707
2761.148351	17469.429833	714.298828	-7.642554
2761.148351	17469.429833	713.090820	110.594414
2761.148351	17469.429833	711.882813	-57.774632
2761.148351	17469.429833	710.674805	-35.902550
2761.148351	17469.429833	709.465820	-38.703201
2761.148351	17469.429833	708.256836	-72.868752
2761.148351	17469.429833	707.047852	-6.427990
2761.148351	17469.429833	705.837891	66.640671
2761.148351	17469.429833	704.627930	-77.216110
2761.148351	17469.429833	703.417969	-66.843025
2761.148351	17469.429833	702.208008	-60.992455
2761.148351	17469.429833	700.998047	-113.280540
2761.148351	17469.429833	699.787109	-0.308402
2761.148351	17469.429833	698.576172	-32.589584
2761.148351	17469.429833	697.364258	-122.959633
2761.148351	17469.429833	696.153320	0.957873
2761.148351	17469.429833	694.941406	-49.307087
2761.148351	17469.429833	693.729492	-90.674126
2761.148351	17469.429833	692.516602	4.004998
2761.148351	17469.429833	691.304688	82.986435
2761.148351	17469.429833	690.091797	-18.738657
2761.148351	17469.429833	688.878906	-80.339211
2761.148351	17469.429833	687.665039	196.836334
2761.148351	17469.429833	686.451172	92.774887
2761.148351	17469.429833	685.237305	180.320435
2761.148351	17469.429833	684.023438	116.307144
2761.148351	17469.429833	682.809570	243.802643
2761.148351	17469.429833	681.594727	110.680542
2761.148351	17469.429833	680.379883	135.622330
2761.148351	17469.429833	679.165039	171.636078
2761.148351	17469.429833	677.949219	120.801369
2761.148351	17469.429833	676.733398	134.459045
2761.148351	17469.429833	675.517578	27.954609
2761.148351	17469.429833	674.301758	59.324993
2761.148351	17469.429833	673.084961	232.925568
2761.148351	17469.429833	671.869141	41.862450
2761.148351	17469.429833	670.651367	159.739609
2761.148351	17469.429833	669.434570	395.289734
2761.148351	17469.429833	668.216797	390.773865
2761.148351	17469.429833	667.000000	423.976715
2761.148351	17469.429833	665.781250	319.442261
2761.148351	17469.429833	664.563477	257.093170
2761.148351	17469.429833	663.344727	485.489075
2761.148351	17469.429833	662.125977	478.520172
2761.148351	17469.429833	660.907227	384.984833
2761.148351	17469.429833	659.688477	346.901978
2761.148351	17469.429833	658.468750	435.199585
2761.148351	17469.429833	657.249023	377.081451
2761.148351	17469.429833	656.029297	281.261932
2761.148351	17469.429833	654.808594	327.282196
2761.148351	17469.429833	653.587891	331.144073
2761.148351	17469.429833	652.367188	467.886139
2761.148351	17469.429833	651.146484	580.170105
2761.148351	17469.429833	649.924805	539.567322
2761.148351	17469.429833	648.704102	565.368408
2761.148351	17469.429833	647.482422	642.026917
2761.148351	17469.429833	646.259766	610.175293
2761.148351	17469.429833	645.037109	638.040283
2761.148351	17469.429833	643.815430	577.378906
2761.148351	17469.429833	642.591797	724.593323
2761.148351	17469.429833	641.369141	752.313904
2761.148351	17469.429833	640.145508	691.556580
2761.148351	17469.429833	638.921875	805.400879
2761.148351	17469.429833	637.698242	700.399170
2761.148351	17469.429833	636.474609	741.224060
2761.148351	17469.429833	635.250000	759.907654
2761.148351	17469.429833	634.025391	517.968994
2761.148351	17469.429833	632.800781	494.684235
2761.148351	17469.429833	631.575195	416.189972
2761.148351	17469.429833	630.349609	348.736755
2761.148351	17469.429833	629.124023	329.828339
2761.148351	17469.429833	627.898438	143.243774
2761.148351	17469.429833	626.671875	250.046402
2761.148351	17469.429833	625.445313	186.988892
2761.148351	17469.429833	624.218750	201.094543
2761.148351	17469.429833	622.992188	248.234268
2761.148351	17469.429833	621.764648	315.159821
2761.148351	17469.429833	620.537109	267.468781
2761.148351	17469.429833	619.309570	177.925644
2761.148351	17469.429833	618.081055	253.566345
2761.148351	17469.429833	616.852539	190.442581
2761.148351	17469.429833	615.624023	197.770111
2761.148351	17469.429833	614.395508	222.685547
2761.148351	17469.429833	613.166992	370.796265
2761.148351	17469.429833	611.937500	175.633270
2761.148351	17469.429833	610.708008	149.898819
2761.148351	17469.429833	609.477539	84.574142
2761.148351	17469.429833	608.248047	-46.685242
2761.148351	17469.429833	607.017578	-54.814213
2761.148351	17469.429833	605.787109	90.882652
2761.148351	17469.429833	604.555664	-196.333084
2761.148351	17469.429833	603.325195	34.983219
2761.148351	17469.429833	602.093750	-238.938278
2761.148351	17469.429833	600.861328	9.830144
2761.148351	17469.429833	599.629883	34.575977
2761.148351	17469.429833	598.397461	228.299881
2761.148351	17469.429833	597.165039	7.209083
2761.148351	17469.429833	595.932617	56.055592
2761.148351	17469.429833	594.699219	-61.822823
2761.148351	17469.429833	593.465820	98.849449
2761.148351	17469.429833	592.232422	27.052954
2761.148351	17469.429833	590.999023	40.777008
2761.148351	17469.429833	589.764648	28.193403
2761.148351	17469.429833	588.530273	96.689102
2761.148351	17469.429833	587.295898	77.535675
2761.148351	17469.429833	586.061523	128.481262
2761.148351	17469.429833	584.826172	203.492599
2761.148351	17469.429833	583.590820	370.426392
2761.148351	17469.429833	582.355469	399.407745
2761.148351	17469.429833	581.119141	474.336060
2761.148351	17469.429833	579.882813	380.782867
2761.148351	17469.429833	578.646484	438.207245
2761.148351	17469.429833	577.410156	412.520416
2761.148351	17469.429833	576.172852	358.430481
2761.148351	17469.429833	574.935547	157.921997
2761.148351	17469.429833	573.698242	169.505798
2761.148351	17469.429833	572.460938	338.422241
2761.148351	17469.429833	571.222656	199.261322
2761.148351	17469.429833	569.984375	285.138367
2761.148351	17469.429833	568.746094	-0.211145
2761.148351	17469.429833	567.506836	125.006920
2761.148351	17469.429833	566.267578	280.752594
2761.148351	17469.429833	565.028320	48.024971
2761.148351	17469.429833	563.789063	-79.855499
2761.148351	17469.429833	562.548828	211.144653
2761.148351	17469.429833	561.309570	170.571075
2761.148351	17469.429833	560.068359	53.722324
2761.148351	17469.429833	558.828125	-36.883572
2761.148351	17469.429833	557.586914	75.259811
2761.148351	17469.429833	556.345703	163.419891
2761.148351	17469.429833	555.104492	-49.054630
2761.148351	17469.429833	553.863281	28.270874
2761.148351	17469.429833	552.621094	51.156616
2761.148351	17469.429833	551.378906	-93.566643
2761.148351	17469.429833	550.136719	-29.236757
2761.148351	17469.429833	548.893555	-93.291695
2761.148351	17469.429833	547.650391	84.219315
2761.148351	17469.429833	546.407227	105.080437
2761.148351	17469.429833	545.164063	-17.559883
2761.148351	17469.429833	543.919922	-105.321159
2761.148351	17469.429833	542.675781	178.721786
2761.148351	17469.429833	541.431641	121.471275
2761.148351	17469.429833	540.186523	151.201416
2761.148351	17469.429833	538.941406	13.688795
2761.148351	17469.429833	537.696289	104.337639
2761.148351	17469.429833	536.451172	40.820679
2761.148351	17469.429833	535.205078	209.674835
2761.148351	17469.429833	533.959961	144.090576
2761.148351	17469.429833	532.712891	54.705345
2761.148351	17469.429833	531.466797	23.994646
2761.148351	17469.429833	530.219727	2.022798
2761.148351	17469.429833	528.972656	-24.225080
2761.148351	17469.429833	527.725586	-7.042197
2761.148351	17469.429833	526.478516	14.523332
2761.148351	17469.429833	525.230469	-28.887877
2761.148351	17469.429833	523.982422	-28.886669
2761.148351	17469.429833	522.734375	-230.301514
2761.148351	17469.429833	521.485352	-230.146988
2761.148351	17469.429833	520.236328	-201.783173
2761.148351	17469.429833	518.987305	-143.063049
2761.148351	17469.429833	517.737305	110.494003
2761.148351	17469.429833	516.488281	89.171577
2761.148351	17469.429833	515.238281	52.770157
2761.148351	17469.429833	513.988281	-9.511158
2761.148351	17469.429833	512.737305	-108.473930
2761.148351	17469.429833	511.486328	78.077858
2761.148351	17469.429833	510.235352	31.145521
2761.148351	17469.429833	508.984375	-61.090939
2761.148351	17469.429833	507.732422	28.278906
2761.148351	17469.429833	506.480469	-7.625456
2761.148351	17469.429833	505.228516	68.862198
2761.148351	17469.429833	503.976563	-124.544106
2761.148351	17469.429833	502.723633	118.299515
2761.148351	17469.429833	501.470703	97.769028
2761.148351	17469.429833	500.217773	55.730690
2761.148351	17469.429833	498.963867	13.772734
2761.148351	17469.429833	497.709961	137.992538
2761.148351	17469.429833	496.456055	35.777691
2761.148351	17469.429833	495.202148	37.167137
2761.148351	17469.429833	493.947266	86.042107
2761.148351	17469.429833	492.692383	70.303291
2761.148351	17469.429833	491.437500	69.718956
2761.148351	17469.429833	490.181641	112.280701
2761.148351	17469.429833	488.926758	163.505325
2761.148351	17469.429833	487.670898	229.842117
2761.148351	17469.429833	486.414063	95.989952
2761.148351	17469.429833	485.158203	-244.373688
2761.148351	17469.429833	483.901367	-46.538651
2761.148351	17469.429833	482.644531	-16.546495
2761.148351	17469.429833	481.386719	-70.398827
2761.148351	17469.429833	480.128906	22.070580
2761.148351	17469.429833	478.871094	82.306213
2761.148351	17469.429833	477.613281	166.220261
2761.148351	17469.429833	476.355469	121.202370
2761.148351	17469.429833	475.096680	-18.285271
2761.148351	17469.429833	473.837891	48.575363
2761.148351	17469.429833	472.578125	-45.626663
2761.148351	17469.429833	471.319336	-15.187253
2761.148351	17469.429833	470.059570	71.106003
2761.148351	17469.429833	468.799805	105.898796
2761.148351	17469.429833	467.539063	-33.098816
2761.148351	17469.429833	466.278320	-8.931807
2761.148351	17469.429833	465.017578	-10.470907
2761.148351	17469.429833	463.756836	22.347641
2761.148351	17469.429833	462.495117	198.847977
2761.148351	17469.429833	461.233398	-1.968465
2761.148351	17469.429833	459.971680	-52.636784
2761.148351	17469.429833	458.709961	6.030479
2761.148351	17469.429833	457.447266	0.438297
2761.148351	17469.429833	456.184570	-37.245346
2761.148351	17469.429833	454.921875	-132.698486
2761.148351	17469.429833	453.658203	-125.322983
2761.148351	17469.429833	452.394531	55.446270
2761.148351	17469.429833	451.130859	-22.771193
2761.148351	17469.429833	449.867188	-214.326614
2761.148351	17469.429833	448.602539	-123.433685
2761.148351	17469.429833	447.337891	-111.690842
2761.148351	17469.429833	446.073242	-33.661552
2761.148351	17469.429833	444.807617	-103.154488
2761.148351	17469.429833	443.542969	-208.941284
2761.148351	17469.429833	442.276367	-203.574005
2761.148351	17469.429833	441.010742	-142.667267
2761.148351	17469.429833	439.744141	129.649521
2761.148351	17469.429833	438.478516	98.628685
2761.148351	17469.429833	437.210938	16.370077
2761.148351	17469.429833	435.944336	85.675652
2761.148351	17469.429833	434.676758	71.707497
2761.148351	17469.429833	433.409180	57.722401
2761.148351	17469.429833	432.141602	-28.806194
2761.148351	17469.429833	430.873047	125.647667
2761.148351	17469.429833	429.604492	53.997681
2761.148351	17469.429833	428.335938	114.500145
2761.148351	17469.429833	427.067383	108.864342
2761.148351	17469.429833	425.797852	135.141968
2761.148351	17469.429833	424.528320	118.748299
2761.148351	17469.429833	423.258789	70.356102
2761.148351	17469.429833	421.988281	200.780228
2761.148351	17469.429833	420.717773	64.972771
2761.148351	17469.429833	419.447266	101.547523
2761.148351	17469.429833	418.175781	14.604870
2761.148351	17469.429833	416.905273	44.625614
2761.148351	17469.429833	415.633789	66.031502
2761.148351	17469.429833	414.362305	221.300598
2761.148351	17469.429833	413.089844	10.712116
2761.148351	17469.429833	411.817383	95.563301
2761.148351	17469.429833	410.544922	12.375163
2761.148351	17469.429833	409.272461	-124.018951
2761.148351	17469.429833	407.999023	109.128944
2761.148351	17469.429833	406.725586	74.443962
2761.148351	17469.429833	405.452148	194.631073
2761.148351	17469.429833	404.177734	-71.746140
2761.148351	17469.429833	402.903320	33.249760
2761.148351	17469.429833	401.628906	2.231472
2761.148351	17469.429833	400.354492	28.331064
2761.148351	17469.429833	399.079102	103.017204
2761.148351	17469.429833	397.803711	43.886353
2761.148351	17469.429833	396.528320	-91.740486
2761.148351	17469.429833	395.251953	-60.069420
2761.148351	17469.429833	393.976563	-30.742580
2761.148351	17469.429833	392.700195	-101.234787
2761.148351	17469.429833	391.422852	35.652679
2761.148351	17469.429833	390.145508	-33.186020
2761.148351	17469.429833	388.869141	-70.483131
2761.148351	17469.429833	387.590820	-101.683144
2761.148351	17469.429833	386.313477	-217.792007
2761.148351	17469.429833	385.035156	-44.253704
2761.148351	17469.429833	383.756836	-23.395718
2761.148351	17469.429833	382.478516	98.672279
2761.148351	17469.429833	381.199219	82.924522
2761.148351	17469.429833	379.919922	126.054077
2761.148351	17469.429833	378.640625	52.582550
2761.148351	17469.429833	377.360352	-23.321886
2761.148351	17469.429833	376.080078	67.354279
2761.148351	17469.429833	374.799805	104.817581
2761.148351	17469.429833	373.519531	67.972588
2761.148351	17469.429833	372.238281	153.202332
2761.148351	17469.429833	370.957031	-131.413025
2761.148351	17469.429833	369.675781	161.934784
2761.148351	17469.429833	368.394531	72.824280
2761.148351	17469.429833	367.112305	19.163713
2761.148351	17469.429833	365.830078	-47.582584
2761.148351	17469.429833	364.546875	64.451454
2761.148351	17469.429833	363.264648	89.532410
2761.148351	17469.429833	361.981445	34.006096
2761.148351	17469.429833	360.698242	-66.256416
2761.148351	17469.429833	359.414063	31.024546
2761.148351	17469.429833	358.129883	-57.629295
2761.148351	17469.429833	356.845703	11.139844
2761.148351	17469.429833	355.561523	47.731503
2761.148351	17469.429833	354.276367	92.130730
2761.148351	17469.429833	352.991211	169.582596
2761.148351	17469.429833	351.706055	86.483978
2761.148351	17469.429833	350.420898	70.103584
2761.148351	17469.429833	349.134766	219.212692
2761.148351	17469.429833	347.848633	165.742737
2761.148351	17469.429833	346.561523	-186.906662
2761.148351	17469.429833	345.275391	-48.285290
2761.148351	17469.429833	343.988281	-32.325809
2761.148351	17469.429833	342.700195	-42.332947
2761.148351	17469.429833	341.413086	-23.663630
2761.148351	17469.429833	340.125000	29.909492
2761.148351	17469.429833	338.836914	36.485722
2761.148351	17469.429833	337.548828	163.994324
2761.148351	17469.429833	336.259766	-72.436363
2761.148351	17469.429833	334.970703	74.332977
2761.148351	17469.429833	333.681641	54.467125
2761.148351	17469.429833	332.391602	102.911003
2761.148351	17469.429833	331.101563	-59.236050
2761.148351	17469.429833	329.811523	104.771973
2761.148351	17469.429833	328.521484	-134.618011
2761.148351	17469.429833	327.230469	-129.743301
2761.148351	17469.429833	325.939453	-98.624077
2761.148351	17469.429833	324.648438	101.117386
2761.148351	17469.429833	323.356445	153.142609
2761.148351	17469.429833	322.064453	-183.198105
2761.148351	17469.429833	320.772461	92.783615
2761.148351	17469.429833	319.480469	-32.127438
2761.148351	17469.429833	318.187500	164.047134
2761.148351	17469.429833	316.894531	66.164497
2761.148351	17469.429833	315.601563	-3.566645
2761.148351	17469.429833	314.307617	-1.314958
2761.148351	17469.429833	313.013672	-88.072227
2761.148351	17469.429833	311.719727	110.271698
2761.148351	17469.429833	310.425781	-137.767075
2761.148351	17469.429833	309.130859	64.175926
2761.148351	17469.429833	307.835938	-79.876953
2761.148351	17469.429833	306.541016	-89.490593
2761.148351	17469.429833	305.245117	145.819550
2761.148351	17469.429833	303.949219	16.481129
2761.148351	17469.429833	302.653320	-28.671295
2761.148351	17469.429833	301.356445	68.647392
2761.148351	17469.429833	300.060547	139.462143
2761.148351	17469.429833	298.763672	166.992523
