#X		#Y		#Wave		#Intensity
9683.744149	4757.310000	1999.946289	-53.939144
9683.744149	4757.310000	1998.981445	-15.041461
9683.744149	4757.310000	1998.017578	-71.646629
9683.744149	4757.310000	1997.052734	50.232319
9683.744149	4757.310000	1996.088867	127.512711
9683.744149	4757.310000	1995.124023	145.349228
9683.744149	4757.310000	1994.159180	44.334728
9683.744149	4757.310000	1993.193359	27.586226
9683.744149	4757.310000	1992.228516	-6.446471
9683.744149	4757.310000	1991.262695	61.055790
9683.744149	4757.310000	1990.296875	36.996845
9683.744149	4757.310000	1989.331055	243.103729
9683.744149	4757.310000	1988.365234	63.226048
9683.744149	4757.310000	1987.398438	-86.872856
9683.744149	4757.310000	1986.432617	-83.552071
9683.744149	4757.310000	1985.465820	-77.732613
9683.744149	4757.310000	1984.499023	-19.970686
9683.744149	4757.310000	1983.532227	111.948654
9683.744149	4757.310000	1982.565430	48.620251
9683.744149	4757.310000	1981.597656	91.582657
9683.744149	4757.310000	1980.629883	75.267899
9683.744149	4757.310000	1979.662109	214.585327
9683.744149	4757.310000	1978.694336	-179.513214
9683.744149	4757.310000	1977.726563	14.164901
9683.744149	4757.310000	1976.758789	49.811775
9683.744149	4757.310000	1975.790039	82.996979
9683.744149	4757.310000	1974.821289	52.035786
9683.744149	4757.310000	1973.852539	-136.787842
9683.744149	4757.310000	1972.883789	-118.322716
9683.744149	4757.310000	1971.915039	35.795231
9683.744149	4757.310000	1970.945313	88.778336
9683.744149	4757.310000	1969.975586	-28.343327
9683.744149	4757.310000	1969.005859	36.992123
9683.744149	4757.310000	1968.036133	-3.646590
9683.744149	4757.310000	1967.066406	14.880081
9683.744149	4757.310000	1966.096680	90.074974
9683.744149	4757.310000	1965.125977	66.736557
9683.744149	4757.310000	1964.155273	11.408534
9683.744149	4757.310000	1963.184570	-24.187460
9683.744149	4757.310000	1962.213867	-131.142776
9683.744149	4757.310000	1961.242188	-38.694485
9683.744149	4757.310000	1960.271484	142.319977
9683.744149	4757.310000	1959.299805	87.094994
9683.744149	4757.310000	1958.328125	-2.534245
9683.744149	4757.310000	1957.356445	6.254058
9683.744149	4757.310000	1956.384766	113.404762
9683.744149	4757.310000	1955.412109	92.687279
9683.744149	4757.310000	1954.439453	128.520294
9683.744149	4757.310000	1953.467773	250.364456
9683.744149	4757.310000	1952.495117	126.467102
9683.744149	4757.310000	1951.521484	-26.855717
9683.744149	4757.310000	1950.548828	-79.410332
9683.744149	4757.310000	1949.575195	42.413013
9683.744149	4757.310000	1948.601563	105.273712
9683.744149	4757.310000	1947.627930	-23.351557
9683.744149	4757.310000	1946.654297	-100.381615
9683.744149	4757.310000	1945.680664	99.907310
9683.744149	4757.310000	1944.706055	94.042160
9683.744149	4757.310000	1943.732422	-51.629154
9683.744149	4757.310000	1942.757813	87.243050
9683.744149	4757.310000	1941.783203	-33.842976
9683.744149	4757.310000	1940.807617	114.789192
9683.744149	4757.310000	1939.833008	182.487442
9683.744149	4757.310000	1938.857422	51.661087
9683.744149	4757.310000	1937.881836	26.245419
9683.744149	4757.310000	1936.906250	-141.240814
9683.744149	4757.310000	1935.930664	-19.647034
9683.744149	4757.310000	1934.955078	-71.960800
9683.744149	4757.310000	1933.978516	-202.601318
9683.744149	4757.310000	1933.001953	-41.890163
9683.744149	4757.310000	1932.025391	99.184135
9683.744149	4757.310000	1931.048828	-158.650635
9683.744149	4757.310000	1930.072266	-117.910378
9683.744149	4757.310000	1929.094727	86.702080
9683.744149	4757.310000	1928.118164	-114.731049
9683.744149	4757.310000	1927.140625	77.581573
9683.744149	4757.310000	1926.163086	37.576702
9683.744149	4757.310000	1925.184570	24.472408
9683.744149	4757.310000	1924.207031	-93.707672
9683.744149	4757.310000	1923.228516	52.036316
9683.744149	4757.310000	1922.250000	143.982452
9683.744149	4757.310000	1921.271484	42.942532
9683.744149	4757.310000	1920.292969	100.668312
9683.744149	4757.310000	1919.314453	77.802658
9683.744149	4757.310000	1918.334961	162.349808
9683.744149	4757.310000	1917.355469	32.090790
9683.744149	4757.310000	1916.375977	50.729500
9683.744149	4757.310000	1915.396484	3.487928
9683.744149	4757.310000	1914.416992	24.561691
9683.744149	4757.310000	1913.436523	35.869602
9683.744149	4757.310000	1912.457031	-18.661854
9683.744149	4757.310000	1911.476563	-170.691452
9683.744149	4757.310000	1910.496094	45.384613
9683.744149	4757.310000	1909.515625	0.622301
9683.744149	4757.310000	1908.534180	26.531265
9683.744149	4757.310000	1907.552734	-49.886265
9683.744149	4757.310000	1906.572266	-92.177361
9683.744149	4757.310000	1905.590820	23.827332
9683.744149	4757.310000	1904.608398	39.961143
9683.744149	4757.310000	1903.626953	151.023651
9683.744149	4757.310000	1902.644531	-98.160507
9683.744149	4757.310000	1901.663086	-99.053970
9683.744149	4757.310000	1900.680664	-90.220299
9683.744149	4757.310000	1899.698242	-103.286125
9683.744149	4757.310000	1898.714844	-16.641720
9683.744149	4757.310000	1897.732422	96.714195
9683.744149	4757.310000	1896.749023	90.900658
9683.744149	4757.310000	1895.765625	-85.057098
9683.744149	4757.310000	1894.782227	86.557091
9683.744149	4757.310000	1893.798828	190.071686
9683.744149	4757.310000	1892.814453	74.909439
9683.744149	4757.310000	1891.831055	-11.067523
9683.744149	4757.310000	1890.846680	17.112850
9683.744149	4757.310000	1889.862305	103.546120
9683.744149	4757.310000	1888.877930	-108.630630
9683.744149	4757.310000	1887.892578	89.421303
9683.744149	4757.310000	1886.908203	37.465504
9683.744149	4757.310000	1885.922852	65.581390
9683.744149	4757.310000	1884.937500	108.234177
9683.744149	4757.310000	1883.952148	65.985260
9683.744149	4757.310000	1882.965820	40.717293
9683.744149	4757.310000	1881.980469	78.484421
9683.744149	4757.310000	1880.994141	-67.978714
9683.744149	4757.310000	1880.007813	20.670094
9683.744149	4757.310000	1879.021484	-38.516548
9683.744149	4757.310000	1878.035156	-41.971863
9683.744149	4757.310000	1877.047852	75.663803
9683.744149	4757.310000	1876.061523	101.232765
9683.744149	4757.310000	1875.074219	-1.533328
9683.744149	4757.310000	1874.086914	-176.885986
9683.744149	4757.310000	1873.098633	49.562748
9683.744149	4757.310000	1872.111328	89.604454
9683.744149	4757.310000	1871.123047	-105.044891
9683.744149	4757.310000	1870.135742	7.559144
9683.744149	4757.310000	1869.147461	144.294632
9683.744149	4757.310000	1868.158203	118.970505
9683.744149	4757.310000	1867.169922	11.457507
9683.744149	4757.310000	1866.180664	-108.110962
9683.744149	4757.310000	1865.192383	-27.068724
9683.744149	4757.310000	1864.203125	-105.528503
9683.744149	4757.310000	1863.213867	-51.108440
9683.744149	4757.310000	1862.223633	-16.040758
9683.744149	4757.310000	1861.234375	9.348095
9683.744149	4757.310000	1860.244141	-129.453094
9683.744149	4757.310000	1859.253906	-12.348078
9683.744149	4757.310000	1858.263672	172.277283
9683.744149	4757.310000	1857.273438	67.276367
9683.744149	4757.310000	1856.282227	94.987717
9683.744149	4757.310000	1855.291992	62.381367
9683.744149	4757.310000	1854.300781	-52.216587
9683.744149	4757.310000	1853.309570	139.425888
9683.744149	4757.310000	1852.317383	27.244926
9683.744149	4757.310000	1851.326172	-7.776164
9683.744149	4757.310000	1850.333984	135.523102
9683.744149	4757.310000	1849.342773	18.558678
9683.744149	4757.310000	1848.350586	-91.147659
9683.744149	4757.310000	1847.357422	85.769676
9683.744149	4757.310000	1846.365234	-91.351456
9683.744149	4757.310000	1845.372070	30.106384
9683.744149	4757.310000	1844.379883	67.264801
9683.744149	4757.310000	1843.386719	10.539530
9683.744149	4757.310000	1842.393555	62.099228
9683.744149	4757.310000	1841.399414	65.512756
9683.744149	4757.310000	1840.406250	83.346611
9683.744149	4757.310000	1839.412109	156.469589
9683.744149	4757.310000	1838.417969	133.380936
9683.744149	4757.310000	1837.423828	55.000942
9683.744149	4757.310000	1836.429688	-71.429283
9683.744149	4757.310000	1835.434570	-99.306290
9683.744149	4757.310000	1834.440430	-67.120087
9683.744149	4757.310000	1833.445313	133.180603
9683.744149	4757.310000	1832.450195	64.416885
9683.744149	4757.310000	1831.454102	19.675089
9683.744149	4757.310000	1830.458984	51.761673
9683.744149	4757.310000	1829.462891	-72.194054
9683.744149	4757.310000	1828.466797	75.058273
9683.744149	4757.310000	1827.470703	-118.461472
9683.744149	4757.310000	1826.474609	33.514687
9683.744149	4757.310000	1825.478516	89.484169
9683.744149	4757.310000	1824.481445	-10.451621
9683.744149	4757.310000	1823.484375	43.077827
9683.744149	4757.310000	1822.487305	-85.603378
9683.744149	4757.310000	1821.490234	6.237556
9683.744149	4757.310000	1820.493164	40.521896
9683.744149	4757.310000	1819.495117	31.654200
9683.744149	4757.310000	1818.498047	-92.193558
9683.744149	4757.310000	1817.500000	-81.903564
9683.744149	4757.310000	1816.500977	36.110935
9683.744149	4757.310000	1815.502930	67.888695
9683.744149	4757.310000	1814.504883	-10.458224
9683.744149	4757.310000	1813.505859	59.571812
9683.744149	4757.310000	1812.506836	33.858746
9683.744149	4757.310000	1811.507813	0.963992
9683.744149	4757.310000	1810.508789	-36.717056
9683.744149	4757.310000	1809.508789	-103.095894
9683.744149	4757.310000	1808.508789	-9.286658
9683.744149	4757.310000	1807.508789	7.982994
9683.744149	4757.310000	1806.508789	63.466862
9683.744149	4757.310000	1805.508789	-100.907913
9683.744149	4757.310000	1804.508789	78.767738
9683.744149	4757.310000	1803.507813	93.551971
9683.744149	4757.310000	1802.506836	58.166172
9683.744149	4757.310000	1801.505859	139.768448
9683.744149	4757.310000	1800.504883	87.644325
9683.744149	4757.310000	1799.502930	-55.172497
9683.744149	4757.310000	1798.501953	112.258095
9683.744149	4757.310000	1797.500000	48.187153
9683.744149	4757.310000	1796.498047	-44.500751
9683.744149	4757.310000	1795.496094	-13.157285
9683.744149	4757.310000	1794.493164	-8.075001
9683.744149	4757.310000	1793.491211	42.286472
9683.744149	4757.310000	1792.488281	21.103331
9683.744149	4757.310000	1791.485352	-33.452175
9683.744149	4757.310000	1790.482422	35.890858
9683.744149	4757.310000	1789.478516	-90.149467
9683.744149	4757.310000	1788.475586	-20.857800
9683.744149	4757.310000	1787.471680	-89.725578
9683.744149	4757.310000	1786.467773	-58.592194
9683.744149	4757.310000	1785.463867	143.896271
9683.744149	4757.310000	1784.459961	34.523914
9683.744149	4757.310000	1783.455078	208.324677
9683.744149	4757.310000	1782.450195	87.046623
9683.744149	4757.310000	1781.445313	-136.481201
9683.744149	4757.310000	1780.440430	118.052628
9683.744149	4757.310000	1779.435547	132.329681
9683.744149	4757.310000	1778.429688	-103.024879
9683.744149	4757.310000	1777.424805	25.334543
9683.744149	4757.310000	1776.418945	-19.846029
9683.744149	4757.310000	1775.413086	122.662567
9683.744149	4757.310000	1774.406250	15.679291
9683.744149	4757.310000	1773.400391	-24.781179
9683.744149	4757.310000	1772.393555	24.981146
9683.744149	4757.310000	1771.386719	-13.133594
9683.744149	4757.310000	1770.379883	174.236343
9683.744149	4757.310000	1769.373047	57.754978
9683.744149	4757.310000	1768.365234	-8.878965
9683.744149	4757.310000	1767.358398	161.718552
9683.744149	4757.310000	1766.350586	-116.036835
9683.744149	4757.310000	1765.342773	4.675024
9683.744149	4757.310000	1764.334961	-121.248947
9683.744149	4757.310000	1763.326172	4.115514
9683.744149	4757.310000	1762.318359	103.346466
9683.744149	4757.310000	1761.309570	-22.588879
9683.744149	4757.310000	1760.300781	24.445665
9683.744149	4757.310000	1759.291016	64.332787
9683.744149	4757.310000	1758.282227	-16.588554
9683.744149	4757.310000	1757.272461	68.236603
9683.744149	4757.310000	1756.262695	105.664253
9683.744149	4757.310000	1755.252930	86.252953
9683.744149	4757.310000	1754.243164	54.997299
9683.744149	4757.310000	1753.233398	19.000763
9683.744149	4757.310000	1752.222656	-64.315987
9683.744149	4757.310000	1751.211914	-97.956223
9683.744149	4757.310000	1750.201172	-13.376038
9683.744149	4757.310000	1749.190430	-106.157486
9683.744149	4757.310000	1748.179688	16.168653
9683.744149	4757.310000	1747.167969	-24.637686
9683.744149	4757.310000	1746.156250	-219.028900
9683.744149	4757.310000	1745.144531	-21.223753
9683.744149	4757.310000	1744.132813	-78.595795
9683.744149	4757.310000	1743.121094	-67.485855
9683.744149	4757.310000	1742.108398	-23.351366
9683.744149	4757.310000	1741.095703	-94.920006
9683.744149	4757.310000	1740.083008	8.161734
9683.744149	4757.310000	1739.070313	78.148735
9683.744149	4757.310000	1738.057617	-19.412125
9683.744149	4757.310000	1737.043945	-15.536460
9683.744149	4757.310000	1736.030273	-14.041693
9683.744149	4757.310000	1735.016602	-106.880943
9683.744149	4757.310000	1734.002930	12.456061
9683.744149	4757.310000	1732.989258	70.446869
9683.744149	4757.310000	1731.974609	-24.779200
9683.744149	4757.310000	1730.959961	28.438576
9683.744149	4757.310000	1729.945313	-85.629768
9683.744149	4757.310000	1728.930664	-46.594074
9683.744149	4757.310000	1727.916016	-2.884976
9683.744149	4757.310000	1726.900391	-29.843439
9683.744149	4757.310000	1725.885742	180.920059
9683.744149	4757.310000	1724.870117	-34.370213
9683.744149	4757.310000	1723.853516	-108.432030
9683.744149	4757.310000	1722.837891	57.463100
9683.744149	4757.310000	1721.822266	32.765209
9683.744149	4757.310000	1720.805664	92.706001
9683.744149	4757.310000	1719.789063	145.549423
9683.744149	4757.310000	1718.772461	174.846329
9683.744149	4757.310000	1717.754883	58.396725
9683.744149	4757.310000	1716.738281	92.356094
9683.744149	4757.310000	1715.720703	83.990906
9683.744149	4757.310000	1714.703125	80.305954
9683.744149	4757.310000	1713.685547	104.782257
9683.744149	4757.310000	1712.667969	105.748978
9683.744149	4757.310000	1711.649414	123.122749
9683.744149	4757.310000	1710.630859	-70.760994
9683.744149	4757.310000	1709.612305	14.649099
9683.744149	4757.310000	1708.593750	39.007401
9683.744149	4757.310000	1707.575195	35.188015
9683.744149	4757.310000	1706.555664	75.904373
9683.744149	4757.310000	1705.536133	-17.066099
9683.744149	4757.310000	1704.516602	-105.332184
9683.744149	4757.310000	1703.497070	134.554932
9683.744149	4757.310000	1702.477539	-28.735706
9683.744149	4757.310000	1701.457031	70.423325
9683.744149	4757.310000	1700.437500	-3.816284
9683.744149	4757.310000	1699.416992	-24.184664
9683.744149	4757.310000	1698.395508	25.678593
9683.744149	4757.310000	1697.375000	19.320803
9683.744149	4757.310000	1696.354492	92.529037
9683.744149	4757.310000	1695.333008	191.429642
9683.744149	4757.310000	1694.311523	119.465820
9683.744149	4757.310000	1693.290039	162.139633
9683.744149	4757.310000	1692.267578	125.250267
9683.744149	4757.310000	1691.246094	174.883316
9683.744149	4757.310000	1690.223633	-4.650098
9683.744149	4757.310000	1689.201172	37.934109
9683.744149	4757.310000	1688.178711	155.271820
9683.744149	4757.310000	1687.155273	160.381866
9683.744149	4757.310000	1686.132813	6.613722
9683.744149	4757.310000	1685.109375	128.500992
9683.744149	4757.310000	1684.085938	175.594467
9683.744149	4757.310000	1683.062500	152.605240
9683.744149	4757.310000	1682.039063	96.926041
9683.744149	4757.310000	1681.014648	164.945770
9683.744149	4757.310000	1679.990234	134.914490
9683.744149	4757.310000	1678.965820	144.539398
9683.744149	4757.310000	1677.941406	210.127319
9683.744149	4757.310000	1676.916992	47.118832
9683.744149	4757.310000	1675.891602	-43.564014
9683.744149	4757.310000	1674.866211	164.173676
9683.744149	4757.310000	1673.840820	85.124062
9683.744149	4757.310000	1672.815430	27.061747
9683.744149	4757.310000	1671.790039	369.752533
9683.744149	4757.310000	1670.763672	181.171158
9683.744149	4757.310000	1669.737305	-58.592293
9683.744149	4757.310000	1668.710938	16.078569
9683.744149	4757.310000	1667.684570	-67.607063
9683.744149	4757.310000	1666.658203	265.378357
9683.744149	4757.310000	1665.630859	39.681377
9683.744149	4757.310000	1664.603516	121.190010
9683.744149	4757.310000	1663.576172	346.885925
9683.744149	4757.310000	1662.548828	246.857193
9683.744149	4757.310000	1661.520508	342.183929
9683.744149	4757.310000	1660.493164	239.842346
9683.744149	4757.310000	1659.464844	337.429871
9683.744149	4757.310000	1658.436523	0.362975
9683.744149	4757.310000	1657.408203	167.641861
9683.744149	4757.310000	1656.378906	302.313416
9683.744149	4757.310000	1655.350586	267.365601
9683.744149	4757.310000	1654.321289	381.038452
9683.744149	4757.310000	1653.291992	195.139053
9683.744149	4757.310000	1652.261719	136.971085
9683.744149	4757.310000	1651.232422	259.850739
9683.744149	4757.310000	1650.202148	384.986755
9683.744149	4757.310000	1649.171875	442.781921
9683.744149	4757.310000	1648.141602	491.265808
9683.744149	4757.310000	1647.111328	407.527557
9683.744149	4757.310000	1646.080078	683.203796
9683.744149	4757.310000	1645.049805	515.982971
9683.744149	4757.310000	1644.018555	455.431030
9683.744149	4757.310000	1642.987305	640.530029
9683.744149	4757.310000	1641.955078	563.733032
9683.744149	4757.310000	1640.923828	588.885742
9683.744149	4757.310000	1639.891602	433.366516
9683.744149	4757.310000	1638.859375	537.239563
9683.744149	4757.310000	1637.827148	613.282532
9683.744149	4757.310000	1636.794922	580.498474
9683.744149	4757.310000	1635.761719	550.029053
9683.744149	4757.310000	1634.729492	521.882080
9683.744149	4757.310000	1633.696289	537.685974
9683.744149	4757.310000	1632.662109	645.984985
9683.744149	4757.310000	1631.628906	867.548706
9683.744149	4757.310000	1630.594727	760.715454
9683.744149	4757.310000	1629.561523	787.991333
9683.744149	4757.310000	1628.527344	683.513489
9683.744149	4757.310000	1627.493164	756.988647
9683.744149	4757.310000	1626.458008	747.257507
9683.744149	4757.310000	1625.423828	686.716675
9683.744149	4757.310000	1624.388672	570.767090
9683.744149	4757.310000	1623.353516	618.783447
9683.744149	4757.310000	1622.318359	777.578552
9683.744149	4757.310000	1621.282227	693.971680
9683.744149	4757.310000	1620.247070	931.136719
9683.744149	4757.310000	1619.210938	605.287170
9683.744149	4757.310000	1618.174805	690.131653
9683.744149	4757.310000	1617.137695	661.934753
9683.744149	4757.310000	1616.101563	677.559937
9683.744149	4757.310000	1615.064453	981.324097
9683.744149	4757.310000	1614.027344	953.080505
9683.744149	4757.310000	1612.990234	825.761169
9683.744149	4757.310000	1611.953125	841.330200
9683.744149	4757.310000	1610.916016	810.823120
9683.744149	4757.310000	1609.877930	948.440063
9683.744149	4757.310000	1608.839844	1021.532349
9683.744149	4757.310000	1607.801758	776.908936
9683.744149	4757.310000	1606.763672	999.613098
9683.744149	4757.310000	1605.724609	1026.625244
9683.744149	4757.310000	1604.685547	943.192322
9683.744149	4757.310000	1603.646484	1032.315430
9683.744149	4757.310000	1602.607422	1022.512756
9683.744149	4757.310000	1601.568359	1058.703369
9683.744149	4757.310000	1600.528320	966.137329
9683.744149	4757.310000	1599.489258	958.658569
9683.744149	4757.310000	1598.449219	1118.938477
9683.744149	4757.310000	1597.408203	812.742065
9683.744149	4757.310000	1596.368164	752.469910
9683.744149	4757.310000	1595.327148	928.779846
9683.744149	4757.310000	1594.287109	1052.217773
9683.744149	4757.310000	1593.246094	847.306885
9683.744149	4757.310000	1592.204102	1009.733032
9683.744149	4757.310000	1591.163086	894.423096
9683.744149	4757.310000	1590.121094	758.508545
9683.744149	4757.310000	1589.079102	1122.748901
9683.744149	4757.310000	1588.037109	812.545898
9683.744149	4757.310000	1586.995117	917.524902
9683.744149	4757.310000	1585.953125	921.593506
9683.744149	4757.310000	1584.910156	891.280090
9683.744149	4757.310000	1583.867188	872.445740
9683.744149	4757.310000	1582.824219	810.092651
9683.744149	4757.310000	1581.781250	701.955688
9683.744149	4757.310000	1580.737305	779.389404
9683.744149	4757.310000	1579.693359	804.132751
9683.744149	4757.310000	1578.649414	673.190002
9683.744149	4757.310000	1577.605469	803.263672
9683.744149	4757.310000	1576.561523	738.764282
9683.744149	4757.310000	1575.516602	843.620728
9683.744149	4757.310000	1574.472656	689.940186
9683.744149	4757.310000	1573.427734	888.568420
9683.744149	4757.310000	1572.381836	684.643616
9683.744149	4757.310000	1571.336914	597.422119
9683.744149	4757.310000	1570.291016	736.551636
9683.744149	4757.310000	1569.246094	807.079590
9683.744149	4757.310000	1568.200195	891.300171
9683.744149	4757.310000	1567.153320	587.116089
9683.744149	4757.310000	1566.107422	577.726074
9683.744149	4757.310000	1565.060547	550.080688
9683.744149	4757.310000	1564.013672	606.941040
9683.744149	4757.310000	1562.966797	846.419800
9683.744149	4757.310000	1561.919922	757.162842
9683.744149	4757.310000	1560.872070	727.282043
9683.744149	4757.310000	1559.825195	731.656433
9683.744149	4757.310000	1558.777344	564.967346
9683.744149	4757.310000	1557.729492	635.539185
9683.744149	4757.310000	1556.680664	409.682068
9683.744149	4757.310000	1555.632813	810.845398
9683.744149	4757.310000	1554.583984	616.990723
9683.744149	4757.310000	1553.535156	735.421997
9683.744149	4757.310000	1552.486328	664.726501
9683.744149	4757.310000	1551.436523	569.018188
9683.744149	4757.310000	1550.387695	555.360413
9683.744149	4757.310000	1549.337891	587.263855
9683.744149	4757.310000	1548.288086	671.536194
9683.744149	4757.310000	1547.238281	582.815552
9683.744149	4757.310000	1546.187500	314.372162
9683.744149	4757.310000	1545.136719	514.745178
9683.744149	4757.310000	1544.086914	533.088867
9683.744149	4757.310000	1543.035156	631.038574
9683.744149	4757.310000	1541.984375	515.238953
9683.744149	4757.310000	1540.933594	399.508209
9683.744149	4757.310000	1539.881836	383.853058
9683.744149	4757.310000	1538.830078	290.964813
9683.744149	4757.310000	1537.778320	359.453247
9683.744149	4757.310000	1536.725586	539.244080
9683.744149	4757.310000	1535.673828	426.017181
9683.744149	4757.310000	1534.621094	480.888397
9683.744149	4757.310000	1533.568359	490.360474
9683.744149	4757.310000	1532.515625	284.224731
9683.744149	4757.310000	1531.461914	407.250854
9683.744149	4757.310000	1530.409180	369.168213
9683.744149	4757.310000	1529.355469	362.882965
9683.744149	4757.310000	1528.301758	263.641815
9683.744149	4757.310000	1527.247070	339.066071
9683.744149	4757.310000	1526.193359	267.132965
9683.744149	4757.310000	1525.138672	319.920715
9683.744149	4757.310000	1524.083984	236.744278
9683.744149	4757.310000	1523.029297	26.749508
9683.744149	4757.310000	1521.974609	163.462143
9683.744149	4757.310000	1520.918945	205.024216
9683.744149	4757.310000	1519.863281	94.886238
9683.744149	4757.310000	1518.807617	61.798573
9683.744149	4757.310000	1517.751953	189.466644
9683.744149	4757.310000	1516.696289	256.014801
9683.744149	4757.310000	1515.639648	252.425095
9683.744149	4757.310000	1514.583008	6.816808
9683.744149	4757.310000	1513.526367	39.533066
9683.744149	4757.310000	1512.469727	85.838852
9683.744149	4757.310000	1511.412109	138.939926
9683.744149	4757.310000	1510.355469	124.248070
9683.744149	4757.310000	1509.297852	-59.903618
9683.744149	4757.310000	1508.240234	52.049286
9683.744149	4757.310000	1507.181641	17.152531
9683.744149	4757.310000	1506.124023	106.532425
9683.744149	4757.310000	1505.065430	139.456940
9683.744149	4757.310000	1504.006836	181.436630
9683.744149	4757.310000	1502.948242	-126.438347
9683.744149	4757.310000	1501.888672	8.178714
9683.744149	4757.310000	1500.830078	-10.647771
9683.744149	4757.310000	1499.770508	-24.919992
9683.744149	4757.310000	1498.710938	12.728859
9683.744149	4757.310000	1497.650391	18.828247
9683.744149	4757.310000	1496.590820	-112.560654
9683.744149	4757.310000	1495.530273	-198.777634
9683.744149	4757.310000	1494.469727	-102.372063
9683.744149	4757.310000	1493.409180	-10.470580
9683.744149	4757.310000	1492.348633	-148.348297
9683.744149	4757.310000	1491.287109	33.699284
9683.744149	4757.310000	1490.225586	-239.165466
9683.744149	4757.310000	1489.164063	-117.876816
9683.744149	4757.310000	1488.102539	-115.897385
9683.744149	4757.310000	1487.041016	-48.609695
9683.744149	4757.310000	1485.978516	-37.561028
9683.744149	4757.310000	1484.916016	-71.440781
9683.744149	4757.310000	1483.853516	56.628284
9683.744149	4757.310000	1482.791016	-163.835999
9683.744149	4757.310000	1481.727539	-166.086777
9683.744149	4757.310000	1480.664063	9.305483
9683.744149	4757.310000	1479.600586	-71.559326
9683.744149	4757.310000	1478.537109	-78.156540
9683.744149	4757.310000	1477.473633	-134.194885
9683.744149	4757.310000	1476.409180	135.540451
9683.744149	4757.310000	1475.344727	34.723911
9683.744149	4757.310000	1474.280273	88.879181
9683.744149	4757.310000	1473.215820	-11.737636
9683.744149	4757.310000	1472.151367	-188.491531
9683.744149	4757.310000	1471.085938	76.520973
9683.744149	4757.310000	1470.020508	50.036606
9683.744149	4757.310000	1468.955078	61.841728
9683.744149	4757.310000	1467.888672	102.735458
9683.744149	4757.310000	1466.823242	219.755035
9683.744149	4757.310000	1465.756836	68.323723
9683.744149	4757.310000	1464.690430	84.647720
9683.744149	4757.310000	1463.624023	170.070984
9683.744149	4757.310000	1462.556641	72.882118
9683.744149	4757.310000	1461.490234	8.724325
9683.744149	4757.310000	1460.422852	107.985168
9683.744149	4757.310000	1459.355469	60.257332
9683.744149	4757.310000	1458.287109	101.014137
9683.744149	4757.310000	1457.219727	182.575180
9683.744149	4757.310000	1456.151367	199.642838
9683.744149	4757.310000	1455.083008	278.813477
9683.744149	4757.310000	1454.014648	214.868546
9683.744149	4757.310000	1452.945313	274.648773
9683.744149	4757.310000	1451.876953	325.350189
9683.744149	4757.310000	1450.807617	161.515518
9683.744149	4757.310000	1449.738281	217.909790
9683.744149	4757.310000	1448.668945	253.533173
9683.744149	4757.310000	1447.598633	189.008865
9683.744149	4757.310000	1446.528320	318.695526
9683.744149	4757.310000	1445.458008	400.156799
9683.744149	4757.310000	1444.387695	403.708252
9683.744149	4757.310000	1443.317383	380.377350
9683.744149	4757.310000	1442.246094	441.582458
9683.744149	4757.310000	1441.174805	306.901703
9683.744149	4757.310000	1440.103516	423.872314
9683.744149	4757.310000	1439.032227	345.368439
9683.744149	4757.310000	1437.960938	437.398041
9683.744149	4757.310000	1436.888672	310.449951
9683.744149	4757.310000	1435.816406	148.978058
9683.744149	4757.310000	1434.744141	115.703140
9683.744149	4757.310000	1433.670898	272.486298
9683.744149	4757.310000	1432.598633	283.362579
9683.744149	4757.310000	1431.525391	230.833344
9683.744149	4757.310000	1430.452148	26.141266
9683.744149	4757.310000	1429.378906	214.578400
9683.744149	4757.310000	1428.304688	277.165283
9683.744149	4757.310000	1427.231445	293.573090
9683.744149	4757.310000	1426.157227	187.183609
9683.744149	4757.310000	1425.083008	89.669868
9683.744149	4757.310000	1424.007813	251.879715
9683.744149	4757.310000	1422.933594	119.308136
9683.744149	4757.310000	1421.858398	6.607824
9683.744149	4757.310000	1420.783203	329.206451
9683.744149	4757.310000	1419.708008	149.587479
9683.744149	4757.310000	1418.631836	332.987671
9683.744149	4757.310000	1417.555664	150.715332
9683.744149	4757.310000	1416.479492	104.704163
9683.744149	4757.310000	1415.403320	69.804741
9683.744149	4757.310000	1414.327148	126.149933
9683.744149	4757.310000	1413.250000	65.850746
9683.744149	4757.310000	1412.173828	347.313202
9683.744149	4757.310000	1411.096680	276.332581
9683.744149	4757.310000	1410.018555	-17.747168
9683.744149	4757.310000	1408.941406	331.798981
9683.744149	4757.310000	1407.863281	278.995087
9683.744149	4757.310000	1406.785156	177.869720
9683.744149	4757.310000	1405.707031	197.743149
9683.744149	4757.310000	1404.628906	259.681763
9683.744149	4757.310000	1403.549805	349.479645
9683.744149	4757.310000	1402.470703	5.761766
9683.744149	4757.310000	1401.391602	86.513420
9683.744149	4757.310000	1400.312500	345.106659
9683.744149	4757.310000	1399.233398	261.831512
9683.744149	4757.310000	1398.153320	266.014465
9683.744149	4757.310000	1397.073242	198.399384
9683.744149	4757.310000	1395.993164	-101.215973
9683.744149	4757.310000	1394.913086	44.722084
9683.744149	4757.310000	1393.832031	-47.416775
9683.744149	4757.310000	1392.750977	87.131554
9683.744149	4757.310000	1391.669922	226.363098
9683.744149	4757.310000	1390.588867	216.781708
9683.744149	4757.310000	1389.506836	263.409576
9683.744149	4757.310000	1388.425781	-67.462921
9683.744149	4757.310000	1387.343750	211.629654
9683.744149	4757.310000	1386.261719	202.701080
9683.744149	4757.310000	1385.178711	270.630188
9683.744149	4757.310000	1384.096680	208.636581
9683.744149	4757.310000	1383.013672	254.540634
9683.744149	4757.310000	1381.930664	335.495483
9683.744149	4757.310000	1380.846680	225.899734
9683.744149	4757.310000	1379.763672	261.420776
9683.744149	4757.310000	1378.679688	369.957520
9683.744149	4757.310000	1377.595703	192.699966
9683.744149	4757.310000	1376.511719	214.113861
9683.744149	4757.310000	1375.427734	270.352386
9683.744149	4757.310000	1374.342773	198.541885
9683.744149	4757.310000	1373.257813	300.922058
9683.744149	4757.310000	1372.172852	244.356995
9683.744149	4757.310000	1371.087891	264.656128
9683.744149	4757.310000	1370.001953	261.572021
9683.744149	4757.310000	1368.916992	360.986816
9683.744149	4757.310000	1367.831055	227.563080
9683.744149	4757.310000	1366.744141	351.926727
9683.744149	4757.310000	1365.658203	162.879608
9683.744149	4757.310000	1364.571289	427.726074
9683.744149	4757.310000	1363.484375	540.066650
9683.744149	4757.310000	1362.397461	492.169647
9683.744149	4757.310000	1361.310547	211.413879
9683.744149	4757.310000	1360.222656	316.561005
9683.744149	4757.310000	1359.135742	215.621246
9683.744149	4757.310000	1358.047852	355.433716
9683.744149	4757.310000	1356.958984	200.568649
9683.744149	4757.310000	1355.871094	241.064270
9683.744149	4757.310000	1354.782227	247.920135
9683.744149	4757.310000	1353.693359	317.382751
9683.744149	4757.310000	1352.604492	270.775116
9683.744149	4757.310000	1351.515625	231.259155
9683.744149	4757.310000	1350.425781	380.428986
9683.744149	4757.310000	1349.335938	281.510406
9683.744149	4757.310000	1348.246094	313.781494
9683.744149	4757.310000	1347.156250	247.714676
9683.744149	4757.310000	1346.066406	380.394653
9683.744149	4757.310000	1344.975586	319.643341
9683.744149	4757.310000	1343.884766	402.362061
9683.744149	4757.310000	1342.793945	451.092529
9683.744149	4757.310000	1341.702148	512.067871
9683.744149	4757.310000	1340.611328	441.819183
9683.744149	4757.310000	1339.519531	263.653778
9683.744149	4757.310000	1338.427734	411.447388
9683.744149	4757.310000	1337.334961	363.389404
9683.744149	4757.310000	1336.243164	164.248703
9683.744149	4757.310000	1335.150391	223.714890
9683.744149	4757.310000	1334.057617	37.826534
9683.744149	4757.310000	1332.964844	125.103859
9683.744149	4757.310000	1331.871094	229.086044
9683.744149	4757.310000	1330.778320	133.495621
9683.744149	4757.310000	1329.684570	209.354660
9683.744149	4757.310000	1328.590820	65.393860
9683.744149	4757.310000	1327.496094	145.316635
9683.744149	4757.310000	1326.402344	129.195755
9683.744149	4757.310000	1325.307617	214.232315
9683.744149	4757.310000	1324.212891	104.257416
9683.744149	4757.310000	1323.117188	79.604507
9683.744149	4757.310000	1322.022461	106.999329
9683.744149	4757.310000	1320.926758	-87.727814
9683.744149	4757.310000	1319.831055	94.511833
9683.744149	4757.310000	1318.735352	27.985512
9683.744149	4757.310000	1317.638672	115.228004
9683.744149	4757.310000	1316.542969	196.335739
9683.744149	4757.310000	1315.446289	82.116928
9683.744149	4757.310000	1314.349609	32.726528
9683.744149	4757.310000	1313.251953	112.321533
9683.744149	4757.310000	1312.155273	173.422852
9683.744149	4757.310000	1311.057617	-167.869995
9683.744149	4757.310000	1309.959961	25.038219
9683.744149	4757.310000	1308.862305	26.825819
9683.744149	4757.310000	1307.763672	162.103104
9683.744149	4757.310000	1306.665039	76.340149
9683.744149	4757.310000	1305.566406	176.982864
9683.744149	4757.310000	1304.467773	-56.789440
9683.744149	4757.310000	1303.369141	78.929085
9683.744149	4757.310000	1302.269531	60.824104
9683.744149	4757.310000	1301.169922	-36.959705
9683.744149	4757.310000	1300.070313	175.531372
9683.744149	4757.310000	1298.970703	86.350632
9683.744149	4757.310000	1297.870117	145.943634
9683.744149	4757.310000	1296.769531	218.193192
9683.744149	4757.310000	1295.668945	251.413345
9683.744149	4757.310000	1294.568359	194.718918
9683.744149	4757.310000	1293.466797	41.558502
9683.744149	4757.310000	1292.366211	295.007355
9683.744149	4757.310000	1291.264648	253.492355
9683.744149	4757.310000	1290.162109	73.199738
9683.744149	4757.310000	1289.060547	159.479919
9683.744149	4757.310000	1287.958008	128.238525
9683.744149	4757.310000	1286.855469	90.296516
9683.744149	4757.310000	1285.752930	136.277496
9683.744149	4757.310000	1284.650391	106.150757
9683.744149	4757.310000	1283.546875	48.079002
9683.744149	4757.310000	1282.444336	49.481636
9683.744149	4757.310000	1281.339844	44.068428
9683.744149	4757.310000	1280.236328	112.782043
9683.744149	4757.310000	1279.132813	67.147514
9683.744149	4757.310000	1278.028320	142.114777
9683.744149	4757.310000	1276.923828	84.201805
9683.744149	4757.310000	1275.819336	-62.498108
9683.744149	4757.310000	1274.713867	199.367401
9683.744149	4757.310000	1273.608398	13.414825
9683.744149	4757.310000	1272.503906	-26.556786
9683.744149	4757.310000	1271.397461	103.790947
9683.744149	4757.310000	1270.291992	-81.380302
9683.744149	4757.310000	1269.185547	188.849625
9683.744149	4757.310000	1268.080078	119.792023
9683.744149	4757.310000	1266.972656	-21.733017
9683.744149	4757.310000	1265.866211	-15.207657
9683.744149	4757.310000	1264.759766	-37.060669
9683.744149	4757.310000	1263.652344	-3.448273
9683.744149	4757.310000	1262.544922	-94.643860
9683.744149	4757.310000	1261.436523	5.085064
9683.744149	4757.310000	1260.329102	-11.241560
9683.744149	4757.310000	1259.220703	-155.657288
9683.744149	4757.310000	1258.112305	-45.785198
9683.744149	4757.310000	1257.003906	19.487503
9683.744149	4757.310000	1255.895508	52.681820
9683.744149	4757.310000	1254.786133	-21.918871
9683.744149	4757.310000	1253.676758	12.050542
9683.744149	4757.310000	1252.567383	-61.448513
9683.744149	4757.310000	1251.458008	-77.541519
9683.744149	4757.310000	1250.347656	-23.490934
9683.744149	4757.310000	1249.237305	45.157143
9683.744149	4757.310000	1248.126953	-88.227661
9683.744149	4757.310000	1247.016602	-34.120441
9683.744149	4757.310000	1245.905273	53.471283
9683.744149	4757.310000	1244.793945	66.366585
9683.744149	4757.310000	1243.682617	0.917500
9683.744149	4757.310000	1242.571289	-29.028795
9683.744149	4757.310000	1241.459961	318.375824
9683.744149	4757.310000	1240.347656	174.940338
9683.744149	4757.310000	1239.235352	128.757172
9683.744149	4757.310000	1238.123047	18.543577
9683.744149	4757.310000	1237.009766	72.618332
9683.744149	4757.310000	1235.897461	142.209641
9683.744149	4757.310000	1234.784180	32.355904
9683.744149	4757.310000	1233.670898	81.000076
9683.744149	4757.310000	1232.556641	26.886728
9683.744149	4757.310000	1231.443359	-73.467926
9683.744149	4757.310000	1230.329102	-31.097664
9683.744149	4757.310000	1229.214844	-154.244156
9683.744149	4757.310000	1228.099609	-10.737006
9683.744149	4757.310000	1226.985352	14.974105
9683.744149	4757.310000	1225.870117	72.315422
9683.744149	4757.310000	1224.754883	27.141928
9683.744149	4757.310000	1223.639648	188.969727
9683.744149	4757.310000	1222.523438	-0.171365
9683.744149	4757.310000	1221.408203	46.832367
9683.744149	4757.310000	1220.291992	184.227539
9683.744149	4757.310000	1219.174805	87.508812
9683.744149	4757.310000	1218.058594	29.837717
9683.744149	4757.310000	1216.941406	10.107396
9683.744149	4757.310000	1215.824219	-52.359436
9683.744149	4757.310000	1214.707031	55.246304
9683.744149	4757.310000	1213.589844	-66.995796
9683.744149	4757.310000	1212.471680	78.332764
9683.744149	4757.310000	1211.353516	79.326172
9683.744149	4757.310000	1210.235352	-130.690857
9683.744149	4757.310000	1209.117188	-67.822319
9683.744149	4757.310000	1207.998047	35.935253
9683.744149	4757.310000	1206.878906	39.490490
9683.744149	4757.310000	1205.759766	129.993317
9683.744149	4757.310000	1204.640625	29.302605
9683.744149	4757.310000	1203.520508	93.110321
9683.744149	4757.310000	1202.401367	-82.439102
9683.744149	4757.310000	1201.281250	8.463032
9683.744149	4757.310000	1200.160156	98.468094
9683.744149	4757.310000	1199.040039	98.205902
9683.744149	4757.310000	1197.918945	-56.634991
9683.744149	4757.310000	1196.797852	40.023521
9683.744149	4757.310000	1195.676758	154.311340
9683.744149	4757.310000	1194.555664	-104.624069
9683.744149	4757.310000	1193.433594	40.012756
9683.744149	4757.310000	1192.311523	-132.686890
9683.744149	4757.310000	1191.189453	-96.044281
9683.744149	4757.310000	1190.066406	-139.201477
9683.744149	4757.310000	1188.944336	-55.052017
9683.744149	4757.310000	1187.821289	-136.264816
9683.744149	4757.310000	1186.698242	-58.851089
9683.744149	4757.310000	1185.574219	-107.241005
9683.744149	4757.310000	1184.451172	-65.875389
9683.744149	4757.310000	1183.327148	5.259873
9683.744149	4757.310000	1182.203125	-88.382019
9683.744149	4757.310000	1181.078125	-17.183420
9683.744149	4757.310000	1179.954102	6.780643
9683.744149	4757.310000	1178.829102	-44.183292
9683.744149	4757.310000	1177.704102	-74.499428
9683.744149	4757.310000	1176.579102	-75.587639
9683.744149	4757.310000	1175.453125	-85.561768
9683.744149	4757.310000	1174.327148	-50.931908
9683.744149	4757.310000	1173.201172	-93.833267
9683.744149	4757.310000	1172.075195	-60.057289
9683.744149	4757.310000	1170.949219	46.580662
9683.744149	4757.310000	1169.822266	-15.195425
9683.744149	4757.310000	1168.695313	-136.190002
9683.744149	4757.310000	1167.568359	-156.150574
9683.744149	4757.310000	1166.440430	-105.406380
9683.744149	4757.310000	1165.313477	-35.696175
9683.744149	4757.310000	1164.185547	41.420570
9683.744149	4757.310000	1163.057617	-146.466980
9683.744149	4757.310000	1161.928711	-43.801403
9683.744149	4757.310000	1160.800781	19.712868
9683.744149	4757.310000	1159.671875	-7.804561
9683.744149	4757.310000	1158.541992	-70.353653
9683.744149	4757.310000	1157.413086	-187.509323
9683.744149	4757.310000	1156.283203	-58.487995
9683.744149	4757.310000	1155.154297	-37.748310
9683.744149	4757.310000	1154.023438	-68.147308
9683.744149	4757.310000	1152.893555	30.767971
9683.744149	4757.310000	1151.763672	45.575851
9683.744149	4757.310000	1150.632813	23.079685
9683.744149	4757.310000	1149.501953	-3.236089
9683.744149	4757.310000	1148.370117	-1.593055
9683.744149	4757.310000	1147.239258	67.212067
9683.744149	4757.310000	1146.107422	-36.547234
9683.744149	4757.310000	1144.975586	9.456349
9683.744149	4757.310000	1143.843750	27.138479
9683.744149	4757.310000	1142.710938	-28.967634
9683.744149	4757.310000	1141.578125	132.105042
9683.744149	4757.310000	1140.445313	-55.691223
9683.744149	4757.310000	1139.312500	14.263372
9683.744149	4757.310000	1138.178711	124.586426
9683.744149	4757.310000	1137.045898	110.710648
9683.744149	4757.310000	1135.912109	-18.212420
9683.744149	4757.310000	1134.777344	-79.642151
9683.744149	4757.310000	1133.643555	-3.082215
9683.744149	4757.310000	1132.508789	30.770664
9683.744149	4757.310000	1131.374023	-9.820843
9683.744149	4757.310000	1130.239258	44.866104
9683.744149	4757.310000	1129.104492	111.919083
9683.744149	4757.310000	1127.968750	79.861778
9683.744149	4757.310000	1126.833008	91.304626
9683.744149	4757.310000	1125.697266	36.613056
9683.744149	4757.310000	1124.560547	117.662239
9683.744149	4757.310000	1123.424805	285.233185
9683.744149	4757.310000	1122.288086	190.356750
9683.744149	4757.310000	1121.151367	25.426754
9683.744149	4757.310000	1120.013672	146.792389
9683.744149	4757.310000	1118.876953	86.926788
9683.744149	4757.310000	1117.739258	-18.092018
9683.744149	4757.310000	1116.601563	-13.601053
9683.744149	4757.310000	1115.462891	141.822037
9683.744149	4757.310000	1114.324219	34.053143
9683.744149	4757.310000	1113.186523	79.510315
9683.744149	4757.310000	1112.046875	-19.076647
9683.744149	4757.310000	1110.908203	93.690384
9683.744149	4757.310000	1109.769531	102.713707
9683.744149	4757.310000	1108.629883	-84.836426
9683.744149	4757.310000	1107.490234	39.697838
9683.744149	4757.310000	1106.349609	116.814819
9683.744149	4757.310000	1105.209961	115.891205
9683.744149	4757.310000	1104.069336	-108.541969
9683.744149	4757.310000	1102.928711	164.606873
9683.744149	4757.310000	1101.787109	29.564470
9683.744149	4757.310000	1100.646484	183.256104
9683.744149	4757.310000	1099.504883	114.329292
9683.744149	4757.310000	1098.363281	93.092056
9683.744149	4757.310000	1097.221680	82.470963
9683.744149	4757.310000	1096.079102	272.943604
9683.744149	4757.310000	1094.936523	87.475830
9683.744149	4757.310000	1093.793945	221.074295
9683.744149	4757.310000	1092.651367	162.605560
9683.744149	4757.310000	1091.507813	24.054392
9683.744149	4757.310000	1090.364258	150.857513
9683.744149	4757.310000	1089.220703	124.628029
9683.744149	4757.310000	1088.077148	55.349213
9683.744149	4757.310000	1086.933594	193.364182
9683.744149	4757.310000	1085.789063	196.508667
9683.744149	4757.310000	1084.644531	137.533508
9683.744149	4757.310000	1083.499023	99.969719
9683.744149	4757.310000	1082.354492	-11.020993
9683.744149	4757.310000	1081.208984	136.805603
9683.744149	4757.310000	1080.063477	184.022751
9683.744149	4757.310000	1078.917969	103.745094
9683.744149	4757.310000	1077.771484	222.701736
9683.744149	4757.310000	1076.625977	175.073792
9683.744149	4757.310000	1075.479492	199.910843
9683.744149	4757.310000	1074.332031	165.580368
9683.744149	4757.310000	1073.185547	234.023468
9683.744149	4757.310000	1072.038086	220.355469
9683.744149	4757.310000	1070.890625	114.436058
9683.744149	4757.310000	1069.743164	119.806656
9683.744149	4757.310000	1068.594727	95.749367
9683.744149	4757.310000	1067.447266	168.391190
9683.744149	4757.310000	1066.298828	65.164017
9683.744149	4757.310000	1065.149414	175.670242
9683.744149	4757.310000	1064.000977	131.040985
9683.744149	4757.310000	1062.851563	242.242142
9683.744149	4757.310000	1061.702148	146.263596
9683.744149	4757.310000	1060.552734	170.782547
9683.744149	4757.310000	1059.402344	159.398727
9683.744149	4757.310000	1058.252930	186.876938
9683.744149	4757.310000	1057.102539	160.021133
9683.744149	4757.310000	1055.951172	59.219852
9683.744149	4757.310000	1054.800781	37.236649
9683.744149	4757.310000	1053.649414	60.460732
9683.744149	4757.310000	1052.498047	39.654751
9683.744149	4757.310000	1051.346680	-120.855598
9683.744149	4757.310000	1050.194336	-31.429810
9683.744149	4757.310000	1049.042969	56.891827
9683.744149	4757.310000	1047.890625	244.350739
9683.744149	4757.310000	1046.738281	14.301089
9683.744149	4757.310000	1045.584961	-58.346718
9683.744149	4757.310000	1044.431641	85.832352
9683.744149	4757.310000	1043.278320	163.715286
9683.744149	4757.310000	1042.125000	118.897850
9683.744149	4757.310000	1040.971680	169.345901
9683.744149	4757.310000	1039.817383	115.849083
9683.744149	4757.310000	1038.663086	201.323853
9683.744149	4757.310000	1037.508789	155.218018
9683.744149	4757.310000	1036.353516	30.528669
9683.744149	4757.310000	1035.198242	136.351074
9683.744149	4757.310000	1034.042969	208.865479
9683.744149	4757.310000	1032.887695	383.996765
9683.744149	4757.310000	1031.732422	329.337311
9683.744149	4757.310000	1030.576172	335.437256
9683.744149	4757.310000	1029.419922	213.603516
9683.744149	4757.310000	1028.263672	59.081776
9683.744149	4757.310000	1027.106445	178.392807
9683.744149	4757.310000	1025.949219	370.216187
9683.744149	4757.310000	1024.792969	149.171524
9683.744149	4757.310000	1023.634766	187.630371
9683.744149	4757.310000	1022.477539	85.121300
9683.744149	4757.310000	1021.319336	-168.668427
9683.744149	4757.310000	1020.161133	254.791534
9683.744149	4757.310000	1019.002930	-14.415711
9683.744149	4757.310000	1017.843750	64.603455
9683.744149	4757.310000	1016.684570	194.084534
9683.744149	4757.310000	1015.525391	21.967142
9683.744149	4757.310000	1014.366211	73.007751
9683.744149	4757.310000	1013.207031	38.279766
9683.744149	4757.310000	1012.046875	74.281609
9683.744149	4757.310000	1010.886719	-47.433140
9683.744149	4757.310000	1009.726563	-18.637766
9683.744149	4757.310000	1008.565430	-130.278732
9683.744149	4757.310000	1007.404297	34.261581
9683.744149	4757.310000	1006.243164	-106.322296
9683.744149	4757.310000	1005.082031	81.131912
9683.744149	4757.310000	1003.920898	67.517448
9683.744149	4757.310000	1002.758789	-131.347656
9683.744149	4757.310000	1001.596680	38.907360
9683.744149	4757.310000	1000.433594	-44.003048
9683.744149	4757.310000	999.271484	-46.053169
9683.744149	4757.310000	998.108398	4.101241
9683.744149	4757.310000	996.945313	184.689468
9683.744149	4757.310000	995.782227	97.913857
9683.744149	4757.310000	994.618164	49.320290
9683.744149	4757.310000	993.454102	137.061478
9683.744149	4757.310000	992.290039	221.517532
9683.744149	4757.310000	991.125977	19.780437
9683.744149	4757.310000	989.960938	141.520004
9683.744149	4757.310000	988.796875	230.325500
9683.744149	4757.310000	987.630859	-20.660431
9683.744149	4757.310000	986.465820	-38.266518
9683.744149	4757.310000	985.300781	-22.326399
9683.744149	4757.310000	984.134766	-36.812500
9683.744149	4757.310000	982.968750	133.139130
9683.744149	4757.310000	981.801758	73.849945
9683.744149	4757.310000	980.635742	7.002409
9683.744149	4757.310000	979.468750	-145.834030
9683.744149	4757.310000	978.301758	147.234451
9683.744149	4757.310000	977.133789	94.114716
9683.744149	4757.310000	975.966797	-136.434906
9683.744149	4757.310000	974.798828	21.306196
9683.744149	4757.310000	973.630859	73.161682
9683.744149	4757.310000	972.461914	67.685242
9683.744149	4757.310000	971.293945	-52.033962
9683.744149	4757.310000	970.125000	37.525726
9683.744149	4757.310000	968.956055	1.348239
9683.744149	4757.310000	967.786133	65.667847
9683.744149	4757.310000	966.617188	-8.149243
9683.744149	4757.310000	965.447266	94.089348
9683.744149	4757.310000	964.276367	-9.498512
9683.744149	4757.310000	963.106445	-8.873600
9683.744149	4757.310000	961.935547	36.855042
9683.744149	4757.310000	960.764648	25.809713
9683.744149	4757.310000	959.593750	-4.689974
9683.744149	4757.310000	958.422852	-80.372749
9683.744149	4757.310000	957.250977	12.203952
9683.744149	4757.310000	956.079102	86.375908
9683.744149	4757.310000	954.907227	78.794273
9683.744149	4757.310000	953.734375	40.313171
9683.744149	4757.310000	952.562500	-68.345612
9683.744149	4757.310000	951.389648	27.259247
9683.744149	4757.310000	950.215820	-9.760212
9683.744149	4757.310000	949.042969	-59.103939
9683.744149	4757.310000	947.869141	-4.602708
9683.744149	4757.310000	946.695313	-12.331194
9683.744149	4757.310000	945.521484	-2.302292
9683.744149	4757.310000	944.346680	-31.950140
9683.744149	4757.310000	943.172852	-32.550152
9683.744149	4757.310000	941.998047	-76.926964
9683.744149	4757.310000	940.822266	26.796600
9683.744149	4757.310000	939.647461	41.182171
9683.744149	4757.310000	938.471680	105.117386
9683.744149	4757.310000	937.295898	65.468178
9683.744149	4757.310000	936.119141	99.627426
9683.744149	4757.310000	934.943359	-60.950035
9683.744149	4757.310000	933.766602	2.872806
9683.744149	4757.310000	932.589844	182.743195
9683.744149	4757.310000	931.413086	172.493958
9683.744149	4757.310000	930.235352	132.573517
9683.744149	4757.310000	929.057617	28.516901
9683.744149	4757.310000	927.879883	111.989906
9683.744149	4757.310000	926.702148	22.797031
9683.744149	4757.310000	925.523438	-9.718826
9683.744149	4757.310000	924.344727	14.471551
9683.744149	4757.310000	923.166016	18.916300
9683.744149	4757.310000	921.987305	-3.771991
9683.744149	4757.310000	920.807617	-56.038082
9683.744149	4757.310000	919.627930	-55.133945
9683.744149	4757.310000	919.497070	32.229500
9683.744149	4757.310000	918.331055	75.994064
9683.744149	4757.310000	917.165039	97.558296
9683.744149	4757.310000	915.999023	-31.099022
9683.744149	4757.310000	914.833008	7.674231
9683.744149	4757.310000	913.666016	103.022545
9683.744149	4757.310000	912.499023	-87.127274
9683.744149	4757.310000	911.332031	54.910599
9683.744149	4757.310000	910.165039	56.670597
9683.744149	4757.310000	908.997070	-39.953831
9683.744149	4757.310000	907.830078	45.387905
9683.744149	4757.310000	906.661133	54.475193
9683.744149	4757.310000	905.493164	149.562363
9683.744149	4757.310000	904.325195	207.736679
9683.744149	4757.310000	903.156250	61.966724
9683.744149	4757.310000	901.987305	16.945040
9683.744149	4757.310000	900.818359	30.863770
9683.744149	4757.310000	899.648438	246.088409
9683.744149	4757.310000	898.478516	-0.272429
9683.744149	4757.310000	897.308594	99.494858
9683.744149	4757.310000	896.138672	152.587296
9683.744149	4757.310000	894.968750	-71.566666
9683.744149	4757.310000	893.797852	25.660126
9683.744149	4757.310000	892.626953	-51.271145
9683.744149	4757.310000	891.456055	14.013286
9683.744149	4757.310000	890.284180	-94.775490
9683.744149	4757.310000	889.113281	-12.379309
9683.744149	4757.310000	887.941406	28.317623
9683.744149	4757.310000	886.768555	157.175354
9683.744149	4757.310000	885.596680	26.353470
9683.744149	4757.310000	884.423828	-21.170980
9683.744149	4757.310000	883.250977	288.748322
9683.744149	4757.310000	882.078125	104.095428
9683.744149	4757.310000	880.905273	83.468727
9683.744149	4757.310000	879.731445	-10.560962
9683.744149	4757.310000	878.557617	5.515492
9683.744149	4757.310000	877.383789	-88.481903
9683.744149	4757.310000	876.209961	44.951447
9683.744149	4757.310000	875.035156	95.200775
9683.744149	4757.310000	873.860352	409.391937
9683.744149	4757.310000	872.685547	222.487991
9683.744149	4757.310000	871.510742	116.275726
9683.744149	4757.310000	870.334961	0.326388
9683.744149	4757.310000	869.159180	6.525113
9683.744149	4757.310000	867.983398	32.244617
9683.744149	4757.310000	866.807617	165.357132
9683.744149	4757.310000	865.630859	32.370850
9683.744149	4757.310000	864.454102	87.324745
9683.744149	4757.310000	863.277344	-28.531050
9683.744149	4757.310000	862.100586	-168.739853
9683.744149	4757.310000	860.922852	39.832981
9683.744149	4757.310000	859.745117	-75.967445
9683.744149	4757.310000	858.567383	39.852158
9683.744149	4757.310000	857.389648	-27.173899
9683.744149	4757.310000	856.210938	-55.192772
9683.744149	4757.310000	855.032227	-22.303675
9683.744149	4757.310000	853.853516	-55.199364
9683.744149	4757.310000	852.674805	116.465973
9683.744149	4757.310000	851.495117	12.933794
9683.744149	4757.310000	850.315430	-73.523994
9683.744149	4757.310000	849.135742	195.364182
9683.744149	4757.310000	847.956055	-15.203366
9683.744149	4757.310000	846.775391	100.288734
9683.744149	4757.310000	845.595703	103.845154
9683.744149	4757.310000	844.415039	-16.623125
9683.744149	4757.310000	843.233398	-17.920740
9683.744149	4757.310000	842.052734	-109.160675
9683.744149	4757.310000	840.871094	-98.302101
9683.744149	4757.310000	839.689453	-70.447151
9683.744149	4757.310000	838.506836	-202.936996
9683.744149	4757.310000	837.325195	94.498238
9683.744149	4757.310000	836.142578	30.004271
9683.744149	4757.310000	834.959961	-66.030296
9683.744149	4757.310000	833.777344	131.657745
9683.744149	4757.310000	832.593750	-49.305531
9683.744149	4757.310000	831.410156	-40.958782
9683.744149	4757.310000	830.226563	-105.392815
9683.744149	4757.310000	829.042969	55.735134
9683.744149	4757.310000	827.858398	22.814772
9683.744149	4757.310000	826.673828	28.688305
9683.744149	4757.310000	825.489258	17.586185
9683.744149	4757.310000	824.304688	-8.057036
9683.744149	4757.310000	823.120117	-48.233089
9683.744149	4757.310000	821.934570	-47.222256
9683.744149	4757.310000	820.749023	14.323046
9683.744149	4757.310000	819.562500	-93.647018
9683.744149	4757.310000	818.376953	-44.235077
9683.744149	4757.310000	817.190430	101.956787
9683.744149	4757.310000	816.003906	-141.489471
9683.744149	4757.310000	814.817383	-130.826843
9683.744149	4757.310000	813.629883	-21.010511
9683.744149	4757.310000	812.442383	57.316879
9683.744149	4757.310000	811.254883	-77.152870
9683.744149	4757.310000	810.067383	-44.788498
9683.744149	4757.310000	808.878906	-41.445610
9683.744149	4757.310000	807.690430	-120.262962
9683.744149	4757.310000	806.501953	-63.776794
9683.744149	4757.310000	805.313477	-130.496994
9683.744149	4757.310000	804.124023	109.468353
9683.744149	4757.310000	802.934570	-63.501446
9683.744149	4757.310000	801.745117	-120.551537
9683.744149	4757.310000	800.555664	15.469781
9683.744149	4757.310000	799.365234	-31.939669
9683.744149	4757.310000	798.175781	50.920322
9683.744149	4757.310000	796.985352	1.092866
9683.744149	4757.310000	795.793945	-39.077984
9683.744149	4757.310000	794.603516	-79.242088
9683.744149	4757.310000	793.412109	121.620659
9683.744149	4757.310000	792.220703	105.517021
9683.744149	4757.310000	791.028320	2.678102
9683.744149	4757.310000	789.836914	-27.866711
9683.744149	4757.310000	788.644531	-70.450920
9683.744149	4757.310000	787.452148	-84.135628
9683.744149	4757.310000	786.258789	-32.831871
9683.744149	4757.310000	785.066406	126.741730
9683.744149	4757.310000	783.873047	55.241814
9683.744149	4757.310000	782.679688	17.439323
9683.744149	4757.310000	781.485352	-37.195980
9683.744149	4757.310000	780.291992	-139.914902
9683.744149	4757.310000	779.097656	69.943993
9683.744149	4757.310000	777.903320	89.809364
9683.744149	4757.310000	776.708008	-85.006790
9683.744149	4757.310000	775.512695	-264.569458
9683.744149	4757.310000	774.318359	-93.347389
9683.744149	4757.310000	773.122070	-128.758179
9683.744149	4757.310000	771.926758	-3.286638
9683.744149	4757.310000	770.730469	182.135696
9683.744149	4757.310000	769.534180	168.248062
9683.744149	4757.310000	768.337891	204.745483
9683.744149	4757.310000	767.141602	54.072964
9683.744149	4757.310000	765.944336	145.717621
9683.744149	4757.310000	764.747070	91.016891
9683.744149	4757.310000	763.549805	177.787827
9683.744149	4757.310000	762.351563	317.245026
9683.744149	4757.310000	761.154297	252.905533
9683.744149	4757.310000	759.956055	202.952301
9683.744149	4757.310000	758.757813	184.146622
9683.744149	4757.310000	757.558594	-76.588005
9683.744149	4757.310000	756.359375	57.897903
9683.744149	4757.310000	755.160156	185.125961
9683.744149	4757.310000	753.960938	27.427849
9683.744149	4757.310000	752.761719	164.143509
9683.744149	4757.310000	751.561523	197.893661
9683.744149	4757.310000	750.361328	152.666168
9683.744149	4757.310000	749.160156	78.734535
9683.744149	4757.310000	747.959961	47.855808
9683.744149	4757.310000	746.758789	50.438133
9683.744149	4757.310000	745.557617	234.655502
9683.744149	4757.310000	744.356445	67.481636
9683.744149	4757.310000	743.154297	89.103958
9683.744149	4757.310000	741.952148	53.363983
9683.744149	4757.310000	740.750000	5.673884
9683.744149	4757.310000	739.547852	8.122604
9683.744149	4757.310000	738.344727	-1.391582
9683.744149	4757.310000	737.142578	22.488274
9683.744149	4757.310000	735.939453	168.030792
9683.744149	4757.310000	734.735352	139.325821
9683.744149	4757.310000	733.532227	8.040945
9683.744149	4757.310000	732.328125	151.030609
9683.744149	4757.310000	731.124023	74.580780
9683.744149	4757.310000	729.918945	-87.680443
9683.744149	4757.310000	728.714844	107.587532
9683.744149	4757.310000	727.509766	54.936714
9683.744149	4757.310000	726.303711	111.862183
9683.744149	4757.310000	725.098633	54.410233
9683.744149	4757.310000	723.892578	32.669830
9683.744149	4757.310000	722.686523	-53.372723
9683.744149	4757.310000	721.480469	189.066772
9683.744149	4757.310000	720.274414	-30.303152
9683.744149	4757.310000	719.067383	73.967102
9683.744149	4757.310000	717.860352	118.691574
9683.744149	4757.310000	716.653320	160.985992
9683.744149	4757.310000	715.445313	105.738388
9683.744149	4757.310000	714.238281	105.158554
9683.744149	4757.310000	713.030273	-9.542456
9683.744149	4757.310000	711.821289	23.097681
9683.744149	4757.310000	710.613281	67.568726
9683.744149	4757.310000	709.404297	59.727051
9683.744149	4757.310000	708.195313	-59.763500
9683.744149	4757.310000	706.986328	103.299706
9683.744149	4757.310000	705.776367	-61.328365
9683.744149	4757.310000	704.566406	-26.569248
9683.744149	4757.310000	703.356445	62.711330
9683.744149	4757.310000	702.146484	-2.284971
9683.744149	4757.310000	700.935547	-57.807713
9683.744149	4757.310000	699.724609	-84.892563
9683.744149	4757.310000	698.513672	-97.781715
9683.744149	4757.310000	697.302734	-84.633873
9683.744149	4757.310000	696.090820	96.721695
9683.744149	4757.310000	694.878906	223.463806
9683.744149	4757.310000	693.666992	120.334625
9683.744149	4757.310000	692.455078	88.255058
9683.744149	4757.310000	691.242188	72.717468
9683.744149	4757.310000	690.029297	9.794847
9683.744149	4757.310000	688.816406	-79.180779
9683.744149	4757.310000	687.602539	18.772608
9683.744149	4757.310000	686.389648	76.421417
9683.744149	4757.310000	685.175781	195.495743
9683.744149	4757.310000	683.960938	236.431534
9683.744149	4757.310000	682.747070	133.079391
9683.744149	4757.310000	681.532227	195.189224
9683.744149	4757.310000	680.317383	-31.103661
9683.744149	4757.310000	679.102539	92.350159
9683.744149	4757.310000	677.886719	-60.694157
9683.744149	4757.310000	676.670898	22.459846
9683.744149	4757.310000	675.455078	67.746277
9683.744149	4757.310000	674.239258	-75.905647
9683.744149	4757.310000	673.022461	181.708786
9683.744149	4757.310000	671.805664	177.217865
9683.744149	4757.310000	670.588867	200.988800
9683.744149	4757.310000	669.372070	-53.649776
9683.744149	4757.310000	668.154297	198.810928
9683.744149	4757.310000	666.936523	132.798660
9683.744149	4757.310000	665.718750	135.123062
9683.744149	4757.310000	664.500977	113.822235
9683.744149	4757.310000	663.282227	134.887253
9683.744149	4757.310000	662.063477	160.598083
9683.744149	4757.310000	660.844727	188.596893
9683.744149	4757.310000	659.625000	-42.513077
9683.744149	4757.310000	658.405273	114.890579
9683.744149	4757.310000	657.185547	213.322113
9683.744149	4757.310000	655.965820	92.787964
9683.744149	4757.310000	654.745117	82.828690
9683.744149	4757.310000	653.525391	6.950334
9683.744149	4757.310000	652.303711	119.189789
9683.744149	4757.310000	651.083008	144.322876
9683.744149	4757.310000	649.861328	-44.551018
9683.744149	4757.310000	648.640625	-12.465018
9683.744149	4757.310000	647.417969	68.888237
9683.744149	4757.310000	646.196289	121.955078
9683.744149	4757.310000	644.973633	144.397522
9683.744149	4757.310000	643.750977	0.030045
9683.744149	4757.310000	642.528320	81.061287
9683.744149	4757.310000	641.305664	89.224823
9683.744149	4757.310000	640.082031	87.929382
9683.744149	4757.310000	638.858398	187.467194
9683.744149	4757.310000	637.634766	153.179749
9683.744149	4757.310000	636.410156	311.164612
9683.744149	4757.310000	635.185547	236.867538
9683.744149	4757.310000	633.960938	3.113906
9683.744149	4757.310000	632.736328	104.578758
9683.744149	4757.310000	631.510742	121.566048
9683.744149	4757.310000	630.285156	126.764885
9683.744149	4757.310000	629.059570	92.072990
9683.744149	4757.310000	627.833984	45.619045
9683.744149	4757.310000	626.607422	-0.886916
9683.744149	4757.310000	625.380859	50.880203
9683.744149	4757.310000	624.154297	60.429497
9683.744149	4757.310000	622.927734	69.906281
9683.744149	4757.310000	621.700195	128.435944
9683.744149	4757.310000	620.472656	282.770599
9683.744149	4757.310000	619.245117	34.750931
9683.744149	4757.310000	618.016602	29.914282
9683.744149	4757.310000	616.788086	-19.401587
9683.744149	4757.310000	615.559570	139.227036
9683.744149	4757.310000	614.331055	-1.353771
9683.744149	4757.310000	613.101563	23.907852
9683.744149	4757.310000	611.872070	-74.693062
9683.744149	4757.310000	610.642578	216.625641
9683.744149	4757.310000	609.413086	178.583618
9683.744149	4757.310000	608.182617	173.158844
9683.744149	4757.310000	606.952148	-54.018932
9683.744149	4757.310000	605.721680	78.116684
9683.744149	4757.310000	604.491211	140.150146
9683.744149	4757.310000	603.259766	260.382477
9683.744149	4757.310000	602.028320	-22.863880
9683.744149	4757.310000	600.796875	-12.348208
9683.744149	4757.310000	599.564453	54.020947
9683.744149	4757.310000	598.332031	34.078876
9683.744149	4757.310000	597.099609	2.427217
9683.744149	4757.310000	595.867188	-5.990602
9683.744149	4757.310000	594.633789	169.476273
9683.744149	4757.310000	593.400391	-9.069020
9683.744149	4757.310000	592.166992	184.803818
9683.744149	4757.310000	590.933594	41.096855
9683.744149	4757.310000	589.699219	141.666855
9683.744149	4757.310000	588.464844	309.580597
9683.744149	4757.310000	587.230469	200.607269
9683.744149	4757.310000	585.995117	-10.699690
9683.744149	4757.310000	584.760742	168.552917
9683.744149	4757.310000	583.525391	-40.472168
9683.744149	4757.310000	582.289063	92.087440
9683.744149	4757.310000	581.053711	154.833786
9683.744149	4757.310000	579.817383	138.509445
9683.744149	4757.310000	578.581055	159.276947
9683.744149	4757.310000	577.343750	163.709915
9683.744149	4757.310000	576.107422	119.334702
9683.744149	4757.310000	574.870117	214.142548
9683.744149	4757.310000	573.631836	178.907547
9683.744149	4757.310000	572.394531	201.617798
9683.744149	4757.310000	571.156250	156.988892
9683.744149	4757.310000	569.917969	309.398651
9683.744149	4757.310000	568.679688	202.041748
9683.744149	4757.310000	567.440430	247.623886
9683.744149	4757.310000	566.202148	288.493134
9683.744149	4757.310000	564.961914	208.798309
9683.744149	4757.310000	563.722656	217.094528
9683.744149	4757.310000	562.482422	269.313080
9683.744149	4757.310000	561.243164	96.877625
9683.744149	4757.310000	560.001953	197.573257
9683.744149	4757.310000	558.761719	244.941986
9683.744149	4757.310000	557.520508	139.514877
9683.744149	4757.310000	556.279297	-14.507302
9683.744149	4757.310000	555.038086	213.073685
9683.744149	4757.310000	553.795898	220.826431
9683.744149	4757.310000	552.554688	161.481003
9683.744149	4757.310000	551.311523	185.290329
9683.744149	4757.310000	550.069336	160.510880
9683.744149	4757.310000	548.826172	218.843567
9683.744149	4757.310000	547.583984	101.557419
9683.744149	4757.310000	546.339844	-115.049690
9683.744149	4757.310000	545.096680	-47.637245
9683.744149	4757.310000	543.852539	-49.566650
9683.744149	4757.310000	542.608398	-60.784004
9683.744149	4757.310000	541.364258	-72.052856
9683.744149	4757.310000	540.119141	-62.619923
9683.744149	4757.310000	538.875000	68.995430
9683.744149	4757.310000	537.628906	-83.129967
9683.744149	4757.310000	536.383789	122.086067
9683.744149	4757.310000	535.137695	66.708847
9683.744149	4757.310000	533.892578	18.222778
9683.744149	4757.310000	532.645508	61.842453
9683.744149	4757.310000	531.399414	-120.327026
9683.744149	4757.310000	530.152344	-21.531145
9683.744149	4757.310000	528.905273	40.334309
9683.744149	4757.310000	527.658203	16.955084
9683.744149	4757.310000	526.410156	32.651009
9683.744149	4757.310000	525.163086	16.088169
9683.744149	4757.310000	523.914063	-152.355972
9683.744149	4757.310000	522.666016	10.414669
9683.744149	4757.310000	521.416992	-47.679817
9683.744149	4757.310000	520.167969	-89.703423
9683.744149	4757.310000	518.918945	84.295242
9683.744149	4757.310000	517.669922	136.385223
9683.744149	4757.310000	516.419922	-103.369728
9683.744149	4757.310000	515.169922	-55.950481
9683.744149	4757.310000	513.919922	-121.119522
9683.744149	4757.310000	512.668945	119.047615
9683.744149	4757.310000	511.417969	17.051134
9683.744149	4757.310000	510.166992	-98.712296
9683.744149	4757.310000	508.916016	-88.271782
9683.744149	4757.310000	507.664063	-50.355824
9683.744149	4757.310000	506.412109	-10.201435
9683.744149	4757.310000	505.160156	-15.961777
9683.744149	4757.310000	503.907227	-30.935753
9683.744149	4757.310000	502.655273	-32.179905
9683.744149	4757.310000	501.402344	-150.334229
9683.744149	4757.310000	500.148438	-158.514420
9683.744149	4757.310000	498.895508	-72.806664
9683.744149	4757.310000	497.641602	-106.259850
9683.744149	4757.310000	496.387695	9.085879
9683.744149	4757.310000	495.132813	-202.990997
9683.744149	4757.310000	493.878906	1.511803
9683.744149	4757.310000	492.624023	45.722893
9683.744149	4757.310000	491.368164	18.960091
9683.744149	4757.310000	490.113281	15.056799
9683.744149	4757.310000	488.857422	-55.195469
9683.744149	4757.310000	487.601563	23.146072
9683.744149	4757.310000	486.344727	220.264389
9683.744149	4757.310000	485.088867	145.352341
9683.744149	4757.310000	483.832031	-16.380857
9683.744149	4757.310000	482.575195	-41.028587
9683.744149	4757.310000	481.317383	7.372214
9683.744149	4757.310000	480.059570	167.596313
9683.744149	4757.310000	478.801758	78.916405
9683.744149	4757.310000	477.543945	254.972336
9683.744149	4757.310000	476.285156	122.894913
9683.744149	4757.310000	475.027344	41.040108
9683.744149	4757.310000	473.767578	139.346832
9683.744149	4757.310000	472.508789	162.345032
9683.744149	4757.310000	471.249023	114.627029
9683.744149	4757.310000	469.989258	-97.199593
9683.744149	4757.310000	468.729492	-76.537254
9683.744149	4757.310000	467.469727	-12.626345
9683.744149	4757.310000	466.208984	-10.278907
9683.744149	4757.310000	464.948242	55.800034
9683.744149	4757.310000	463.686523	-37.559135
9683.744149	4757.310000	462.425781	-1.152923
9683.744149	4757.310000	461.164063	146.709885
9683.744149	4757.310000	459.901367	19.163517
9683.744149	4757.310000	458.639648	-87.876678
9683.744149	4757.310000	457.376953	7.497001
9683.744149	4757.310000	456.114258	43.678848
9683.744149	4757.310000	454.851563	102.545082
9683.744149	4757.310000	453.587891	45.430294
9683.744149	4757.310000	452.324219	-59.413944
9683.744149	4757.310000	451.060547	60.660824
9683.744149	4757.310000	449.796875	-1.059329
9683.744149	4757.310000	448.532227	82.532249
9683.744149	4757.310000	447.267578	161.508179
9683.744149	4757.310000	446.002930	-66.020500
9683.744149	4757.310000	444.737305	87.748787
9683.744149	4757.310000	443.471680	32.673641
9683.744149	4757.310000	442.206055	218.023010
9683.744149	4757.310000	440.940430	33.581371
9683.744149	4757.310000	439.673828	19.215263
9683.744149	4757.310000	438.407227	111.349388
9683.744149	4757.310000	437.140625	101.401695
9683.744149	4757.310000	435.873047	213.753922
9683.744149	4757.310000	434.605469	124.377434
9683.744149	4757.310000	433.337891	116.516968
9683.744149	4757.310000	432.070313	119.921104
9683.744149	4757.310000	430.801758	48.539291
9683.744149	4757.310000	429.533203	78.976341
9683.744149	4757.310000	428.264648	68.596649
9683.744149	4757.310000	426.996094	169.010574
9683.744149	4757.310000	425.726563	106.430504
9683.744149	4757.310000	424.457031	-5.954114
9683.744149	4757.310000	423.186523	53.453484
9683.744149	4757.310000	421.916992	96.935837
9683.744149	4757.310000	420.646484	147.078156
9683.744149	4757.310000	419.375977	264.891754
9683.744149	4757.310000	418.104492	-17.305788
9683.744149	4757.310000	416.833008	50.593330
9683.744149	4757.310000	415.561523	249.324081
9683.744149	4757.310000	414.290039	170.175003
9683.744149	4757.310000	413.017578	233.130630
9683.744149	4757.310000	411.746094	0.334670
9683.744149	4757.310000	410.472656	198.409561
9683.744149	4757.310000	409.200195	278.985413
9683.744149	4757.310000	407.926758	-46.545334
9683.744149	4757.310000	406.653320	49.541508
9683.744149	4757.310000	405.379883	291.957947
9683.744149	4757.310000	404.105469	227.605423
9683.744149	4757.310000	402.831055	93.272263
9683.744149	4757.310000	401.556641	91.738213
9683.744149	4757.310000	400.282227	256.693909
9683.744149	4757.310000	399.006836	16.078485
9683.744149	4757.310000	397.731445	72.539215
9683.744149	4757.310000	396.456055	209.806107
9683.744149	4757.310000	395.179688	166.779022
9683.744149	4757.310000	393.903320	114.560028
9683.744149	4757.310000	392.626953	125.123474
9683.744149	4757.310000	391.350586	220.908325
9683.744149	4757.310000	390.073242	237.711227
9683.744149	4757.310000	388.795898	166.597641
9683.744149	4757.310000	387.518555	50.313351
9683.744149	4757.310000	386.240234	326.994415
9683.744149	4757.310000	384.961914	-12.213952
9683.744149	4757.310000	383.683594	-30.403727
9683.744149	4757.310000	382.405273	90.330818
9683.744149	4757.310000	381.125977	194.977188
9683.744149	4757.310000	379.846680	77.067932
9683.744149	4757.310000	378.567383	8.247106
9683.744149	4757.310000	377.287109	228.498566
9683.744149	4757.310000	376.006836	158.965881
9683.744149	4757.310000	374.726563	172.067520
9683.744149	4757.310000	373.446289	200.478424
9683.744149	4757.310000	372.165039	87.258057
9683.744149	4757.310000	370.883789	-19.594862
9683.744149	4757.310000	369.602539	133.073990
9683.744149	4757.310000	368.320313	-32.851784
9683.744149	4757.310000	367.039063	107.675301
9683.744149	4757.310000	365.755859	10.306837
9683.744149	4757.310000	364.473633	-13.609449
9683.744149	4757.310000	363.190430	239.487488
9683.744149	4757.310000	361.907227	53.403477
9683.744149	4757.310000	360.624023	-74.963860
9683.744149	4757.310000	359.340820	55.621548
9683.744149	4757.310000	358.056641	-100.652489
9683.744149	4757.310000	356.772461	10.832144
9683.744149	4757.310000	355.487305	-79.513954
9683.744149	4757.310000	354.202148	-58.709492
9683.744149	4757.310000	352.916992	-121.216019
9683.744149	4757.310000	351.631836	68.046448
9683.744149	4757.310000	350.346680	-29.297665
9683.744149	4757.310000	349.060547	118.270638
9683.744149	4757.310000	347.774414	-7.275279
9683.744149	4757.310000	346.487305	-93.365829
9683.744149	4757.310000	345.200195	-21.771814
9683.744149	4757.310000	343.913086	35.614891
9683.744149	4757.310000	342.625977	72.088394
9683.744149	4757.310000	341.338867	-61.754040
9683.744149	4757.310000	340.050781	82.226563
9683.744149	4757.310000	338.762695	-44.427971
9683.744149	4757.310000	337.473633	166.726379
9683.744149	4757.310000	336.184570	-33.072208
9683.744149	4757.310000	334.895508	20.158258
9683.744149	4757.310000	333.606445	154.758530
9683.744149	4757.310000	332.317383	12.203491
9683.744149	4757.310000	331.027344	-89.088249
9683.744149	4757.310000	329.736328	-44.583992
9683.744149	4757.310000	328.446289	-36.783642
9683.744149	4757.310000	327.155273	65.476845
9683.744149	4757.310000	325.864258	-55.883907
9683.744149	4757.310000	324.573242	70.615677
9683.744149	4757.310000	323.281250	20.159187
9683.744149	4757.310000	321.989258	-71.566727
9683.744149	4757.310000	320.697266	-95.692078
9683.744149	4757.310000	319.405273	-85.620064
9683.744149	4757.310000	318.112305	-168.049103
9683.744149	4757.310000	316.819336	-114.201942
9683.744149	4757.310000	315.526367	189.014908
9683.744149	4757.310000	314.232422	-39.927902
9683.744149	4757.310000	312.938477	-225.941833
9683.744149	4757.310000	311.644531	76.841431
9683.744149	4757.310000	310.349609	29.568090
9683.744149	4757.310000	309.054688	138.088257
9683.744149	4757.310000	307.759766	160.589920
9683.744149	4757.310000	306.464844	320.963318
9683.744149	4757.310000	305.168945	160.275589
9683.744149	4757.310000	303.873047	290.268829
9683.744149	4757.310000	302.577148	238.868561
9683.744149	4757.310000	301.281250	526.601013
9683.744149	4757.310000	299.984375	497.725861
