#X		#Y		#Wave		#Intensity
-14765.403191	5411.336667	1999.946289	75.548279
-14765.403191	5411.336667	1998.981445	-4.507966
-14765.403191	5411.336667	1998.017578	131.660004
-14765.403191	5411.336667	1997.052734	-26.978670
-14765.403191	5411.336667	1996.088867	-44.195892
-14765.403191	5411.336667	1995.124023	-58.797256
-14765.403191	5411.336667	1994.159180	-58.401764
-14765.403191	5411.336667	1993.193359	-87.595390
-14765.403191	5411.336667	1992.228516	36.847126
-14765.403191	5411.336667	1991.262695	-66.368805
-14765.403191	5411.336667	1990.296875	-18.459211
-14765.403191	5411.336667	1989.331055	-34.786400
-14765.403191	5411.336667	1988.365234	30.644781
-14765.403191	5411.336667	1987.398438	-126.452812
-14765.403191	5411.336667	1986.432617	119.722084
-14765.403191	5411.336667	1985.465820	19.746649
-14765.403191	5411.336667	1984.499023	-13.341669
-14765.403191	5411.336667	1983.532227	111.868515
-14765.403191	5411.336667	1982.565430	83.913643
-14765.403191	5411.336667	1981.597656	-22.999420
-14765.403191	5411.336667	1980.629883	33.258327
-14765.403191	5411.336667	1979.662109	-1.800003
-14765.403191	5411.336667	1978.694336	131.160034
-14765.403191	5411.336667	1977.726563	-244.444061
-14765.403191	5411.336667	1976.758789	-10.114689
-14765.403191	5411.336667	1975.790039	-84.291672
-14765.403191	5411.336667	1974.821289	103.196640
-14765.403191	5411.336667	1973.852539	39.047192
-14765.403191	5411.336667	1972.883789	-52.137760
-14765.403191	5411.336667	1971.915039	236.573181
-14765.403191	5411.336667	1970.945313	123.335434
-14765.403191	5411.336667	1969.975586	7.741380
-14765.403191	5411.336667	1969.005859	119.016449
-14765.403191	5411.336667	1968.036133	185.955460
-14765.403191	5411.336667	1967.066406	-96.941666
-14765.403191	5411.336667	1966.096680	9.546720
-14765.403191	5411.336667	1965.125977	88.962372
-14765.403191	5411.336667	1964.155273	-67.998047
-14765.403191	5411.336667	1963.184570	-62.351078
-14765.403191	5411.336667	1962.213867	-192.042908
-14765.403191	5411.336667	1961.242188	136.139435
-14765.403191	5411.336667	1960.271484	141.894455
-14765.403191	5411.336667	1959.299805	221.502625
-14765.403191	5411.336667	1958.328125	1.033510
-14765.403191	5411.336667	1957.356445	211.069397
-14765.403191	5411.336667	1956.384766	202.229691
-14765.403191	5411.336667	1955.412109	85.265915
-14765.403191	5411.336667	1954.439453	10.168495
-14765.403191	5411.336667	1953.467773	-5.887699
-14765.403191	5411.336667	1952.495117	223.803360
-14765.403191	5411.336667	1951.521484	-91.915031
-14765.403191	5411.336667	1950.548828	-147.137833
-14765.403191	5411.336667	1949.575195	38.347107
-14765.403191	5411.336667	1948.601563	-183.770599
-14765.403191	5411.336667	1947.627930	183.360153
-14765.403191	5411.336667	1946.654297	12.891286
-14765.403191	5411.336667	1945.680664	235.123199
-14765.403191	5411.336667	1944.706055	177.614655
-14765.403191	5411.336667	1943.732422	110.334953
-14765.403191	5411.336667	1942.757813	28.389378
-14765.403191	5411.336667	1941.783203	221.118881
-14765.403191	5411.336667	1940.807617	-98.575790
-14765.403191	5411.336667	1939.833008	62.277531
-14765.403191	5411.336667	1938.857422	345.621277
-14765.403191	5411.336667	1937.881836	77.583542
-14765.403191	5411.336667	1936.906250	39.933674
-14765.403191	5411.336667	1935.930664	198.252579
-14765.403191	5411.336667	1934.955078	307.546967
-14765.403191	5411.336667	1933.978516	-104.685501
-14765.403191	5411.336667	1933.001953	112.355186
-14765.403191	5411.336667	1932.025391	180.029312
-14765.403191	5411.336667	1931.048828	-19.035242
-14765.403191	5411.336667	1930.072266	114.707405
-14765.403191	5411.336667	1929.094727	130.998230
-14765.403191	5411.336667	1928.118164	37.231266
-14765.403191	5411.336667	1927.140625	92.660973
-14765.403191	5411.336667	1926.163086	-147.737732
-14765.403191	5411.336667	1925.184570	110.586716
-14765.403191	5411.336667	1924.207031	46.229641
-14765.403191	5411.336667	1923.228516	-0.995847
-14765.403191	5411.336667	1922.250000	222.955536
-14765.403191	5411.336667	1921.271484	-127.149445
-14765.403191	5411.336667	1920.292969	-184.089935
-14765.403191	5411.336667	1919.314453	-60.340340
-14765.403191	5411.336667	1918.334961	4.777994
-14765.403191	5411.336667	1917.355469	86.950104
-14765.403191	5411.336667	1916.375977	100.762169
-14765.403191	5411.336667	1915.396484	4.775972
-14765.403191	5411.336667	1914.416992	72.247643
-14765.403191	5411.336667	1913.436523	122.618576
-14765.403191	5411.336667	1912.457031	-144.024399
-14765.403191	5411.336667	1911.476563	208.646576
-14765.403191	5411.336667	1910.496094	100.504189
-14765.403191	5411.336667	1909.515625	33.819302
-14765.403191	5411.336667	1908.534180	11.009906
-14765.403191	5411.336667	1907.552734	-6.931102
-14765.403191	5411.336667	1906.572266	-44.366234
-14765.403191	5411.336667	1905.590820	-147.544830
-14765.403191	5411.336667	1904.608398	-131.396210
-14765.403191	5411.336667	1903.626953	-156.651550
-14765.403191	5411.336667	1902.644531	49.299137
-14765.403191	5411.336667	1901.663086	-34.410023
-14765.403191	5411.336667	1900.680664	-110.802864
-14765.403191	5411.336667	1899.698242	7.411582
-14765.403191	5411.336667	1898.714844	-17.918045
-14765.403191	5411.336667	1897.732422	107.495888
-14765.403191	5411.336667	1896.749023	-29.705490
-14765.403191	5411.336667	1895.765625	39.727882
-14765.403191	5411.336667	1894.782227	143.138367
-14765.403191	5411.336667	1893.798828	15.671053
-14765.403191	5411.336667	1892.814453	-43.745361
-14765.403191	5411.336667	1891.831055	-6.011425
-14765.403191	5411.336667	1890.846680	177.390778
-14765.403191	5411.336667	1889.862305	-3.475997
-14765.403191	5411.336667	1888.877930	26.889856
-14765.403191	5411.336667	1887.892578	8.686503
-14765.403191	5411.336667	1886.908203	89.953117
-14765.403191	5411.336667	1885.922852	35.310982
-14765.403191	5411.336667	1884.937500	-172.144775
-14765.403191	5411.336667	1883.952148	105.483025
-14765.403191	5411.336667	1882.965820	286.000885
-14765.403191	5411.336667	1881.980469	-79.029289
-14765.403191	5411.336667	1880.994141	6.881777
-14765.403191	5411.336667	1880.007813	100.006142
-14765.403191	5411.336667	1879.021484	1.665820
-14765.403191	5411.336667	1878.035156	-26.411873
-14765.403191	5411.336667	1877.047852	-187.708603
-14765.403191	5411.336667	1876.061523	-31.753922
-14765.403191	5411.336667	1875.074219	-55.038277
-14765.403191	5411.336667	1874.086914	-22.664413
-14765.403191	5411.336667	1873.098633	-94.391403
-14765.403191	5411.336667	1872.111328	-13.678242
-14765.403191	5411.336667	1871.123047	-116.880791
-14765.403191	5411.336667	1870.135742	-12.057524
-14765.403191	5411.336667	1869.147461	-71.743111
-14765.403191	5411.336667	1868.158203	83.761452
-14765.403191	5411.336667	1867.169922	43.367580
-14765.403191	5411.336667	1866.180664	82.725060
-14765.403191	5411.336667	1865.192383	395.106750
-14765.403191	5411.336667	1864.203125	-44.051495
-14765.403191	5411.336667	1863.213867	45.948708
-14765.403191	5411.336667	1862.223633	85.172310
-14765.403191	5411.336667	1861.234375	317.529144
-14765.403191	5411.336667	1860.244141	-56.205292
-14765.403191	5411.336667	1859.253906	33.624565
-14765.403191	5411.336667	1858.263672	224.753998
-14765.403191	5411.336667	1857.273438	-129.530914
-14765.403191	5411.336667	1856.282227	177.302414
-14765.403191	5411.336667	1855.291992	100.484497
-14765.403191	5411.336667	1854.300781	-2.857911
-14765.403191	5411.336667	1853.309570	-96.543625
-14765.403191	5411.336667	1852.317383	-47.993267
-14765.403191	5411.336667	1851.326172	111.378418
-14765.403191	5411.336667	1850.333984	111.621819
-14765.403191	5411.336667	1849.342773	184.113327
-14765.403191	5411.336667	1848.350586	205.967682
-14765.403191	5411.336667	1847.357422	119.410378
-14765.403191	5411.336667	1846.365234	112.317024
-14765.403191	5411.336667	1845.372070	40.199673
-14765.403191	5411.336667	1844.379883	81.208450
-14765.403191	5411.336667	1843.386719	-5.371245
-14765.403191	5411.336667	1842.393555	102.948769
-14765.403191	5411.336667	1841.399414	151.060135
-14765.403191	5411.336667	1840.406250	78.863220
-14765.403191	5411.336667	1839.412109	-89.521805
-14765.403191	5411.336667	1838.417969	61.900192
-14765.403191	5411.336667	1837.423828	97.852905
-14765.403191	5411.336667	1836.429688	59.258255
-14765.403191	5411.336667	1835.434570	54.294868
-14765.403191	5411.336667	1834.440430	236.696472
-14765.403191	5411.336667	1833.445313	-99.835030
-14765.403191	5411.336667	1832.450195	154.521851
-14765.403191	5411.336667	1831.454102	111.016960
-14765.403191	5411.336667	1830.458984	-83.743683
-14765.403191	5411.336667	1829.462891	-40.833771
-14765.403191	5411.336667	1828.466797	184.414032
-14765.403191	5411.336667	1827.470703	-130.296066
-14765.403191	5411.336667	1826.474609	1.274295
-14765.403191	5411.336667	1825.478516	331.836151
-14765.403191	5411.336667	1824.481445	-11.578572
-14765.403191	5411.336667	1823.484375	86.250313
-14765.403191	5411.336667	1822.487305	16.221367
-14765.403191	5411.336667	1821.490234	39.659904
-14765.403191	5411.336667	1820.493164	302.677368
-14765.403191	5411.336667	1819.495117	72.057495
-14765.403191	5411.336667	1818.498047	140.902115
-14765.403191	5411.336667	1817.500000	-20.203871
-14765.403191	5411.336667	1816.500977	175.482742
-14765.403191	5411.336667	1815.502930	100.558105
-14765.403191	5411.336667	1814.504883	360.717041
-14765.403191	5411.336667	1813.505859	101.475578
-14765.403191	5411.336667	1812.506836	-73.955513
-14765.403191	5411.336667	1811.507813	73.586029
-14765.403191	5411.336667	1810.508789	-73.124252
-14765.403191	5411.336667	1809.508789	210.608292
-14765.403191	5411.336667	1808.508789	-132.161713
-14765.403191	5411.336667	1807.508789	146.644043
-14765.403191	5411.336667	1806.508789	203.066711
-14765.403191	5411.336667	1805.508789	149.531296
-14765.403191	5411.336667	1804.508789	41.046730
-14765.403191	5411.336667	1803.507813	13.788003
-14765.403191	5411.336667	1802.506836	110.691757
-14765.403191	5411.336667	1801.505859	102.481804
-14765.403191	5411.336667	1800.504883	65.605591
-14765.403191	5411.336667	1799.502930	-33.332310
-14765.403191	5411.336667	1798.501953	182.722168
-14765.403191	5411.336667	1797.500000	26.493599
-14765.403191	5411.336667	1796.498047	18.190283
-14765.403191	5411.336667	1795.496094	21.790920
-14765.403191	5411.336667	1794.493164	-39.010159
-14765.403191	5411.336667	1793.491211	71.831558
-14765.403191	5411.336667	1792.488281	10.998468
-14765.403191	5411.336667	1791.485352	-107.027588
-14765.403191	5411.336667	1790.482422	-98.753242
-14765.403191	5411.336667	1789.478516	-188.171768
-14765.403191	5411.336667	1788.475586	-106.096817
-14765.403191	5411.336667	1787.471680	125.944809
-14765.403191	5411.336667	1786.467773	67.419449
-14765.403191	5411.336667	1785.463867	-55.373856
-14765.403191	5411.336667	1784.459961	-23.448570
-14765.403191	5411.336667	1783.455078	70.309349
-14765.403191	5411.336667	1782.450195	97.399529
-14765.403191	5411.336667	1781.445313	3.153239
-14765.403191	5411.336667	1780.440430	-114.858009
-14765.403191	5411.336667	1779.435547	-80.675995
-14765.403191	5411.336667	1778.429688	36.674572
-14765.403191	5411.336667	1777.424805	68.399040
-14765.403191	5411.336667	1776.418945	-97.140152
-14765.403191	5411.336667	1775.413086	-65.441277
-14765.403191	5411.336667	1774.406250	-31.397276
-14765.403191	5411.336667	1773.400391	318.480560
-14765.403191	5411.336667	1772.393555	117.326965
-14765.403191	5411.336667	1771.386719	-62.402126
-14765.403191	5411.336667	1770.379883	-28.458445
-14765.403191	5411.336667	1769.373047	-56.248005
-14765.403191	5411.336667	1768.365234	65.434784
-14765.403191	5411.336667	1767.358398	-33.563736
-14765.403191	5411.336667	1766.350586	118.866585
-14765.403191	5411.336667	1765.342773	-89.218628
-14765.403191	5411.336667	1764.334961	-219.003693
-14765.403191	5411.336667	1763.326172	89.772545
-14765.403191	5411.336667	1762.318359	-56.619564
-14765.403191	5411.336667	1761.309570	105.065727
-14765.403191	5411.336667	1760.300781	79.516930
-14765.403191	5411.336667	1759.291016	-17.096619
-14765.403191	5411.336667	1758.282227	44.978935
-14765.403191	5411.336667	1757.272461	-44.518589
-14765.403191	5411.336667	1756.262695	-129.262924
-14765.403191	5411.336667	1755.252930	-258.958862
-14765.403191	5411.336667	1754.243164	-73.893326
-14765.403191	5411.336667	1753.233398	125.282616
-14765.403191	5411.336667	1752.222656	-54.104591
-14765.403191	5411.336667	1751.211914	-39.506905
-14765.403191	5411.336667	1750.201172	-55.667240
-14765.403191	5411.336667	1749.190430	136.206650
-14765.403191	5411.336667	1748.179688	143.628677
-14765.403191	5411.336667	1747.167969	91.954567
-14765.403191	5411.336667	1746.156250	52.102520
-14765.403191	5411.336667	1745.144531	68.947800
-14765.403191	5411.336667	1744.132813	33.813908
-14765.403191	5411.336667	1743.121094	-29.655354
-14765.403191	5411.336667	1742.108398	88.680832
-14765.403191	5411.336667	1741.095703	29.923355
-14765.403191	5411.336667	1740.083008	82.099823
-14765.403191	5411.336667	1739.070313	-141.828583
-14765.403191	5411.336667	1738.057617	56.607170
-14765.403191	5411.336667	1737.043945	-176.686554
-14765.403191	5411.336667	1736.030273	-18.431046
-14765.403191	5411.336667	1735.016602	-86.595795
-14765.403191	5411.336667	1734.002930	3.199353
-14765.403191	5411.336667	1732.989258	-159.237732
-14765.403191	5411.336667	1731.974609	-69.482132
-14765.403191	5411.336667	1730.959961	-142.333252
-14765.403191	5411.336667	1729.945313	-130.365051
-14765.403191	5411.336667	1728.930664	8.765518
-14765.403191	5411.336667	1727.916016	-0.508678
-14765.403191	5411.336667	1726.900391	53.777275
-14765.403191	5411.336667	1725.885742	28.006844
-14765.403191	5411.336667	1724.870117	-82.481247
-14765.403191	5411.336667	1723.853516	-94.113503
-14765.403191	5411.336667	1722.837891	51.863689
-14765.403191	5411.336667	1721.822266	-32.713680
-14765.403191	5411.336667	1720.805664	-91.398308
-14765.403191	5411.336667	1719.789063	200.240952
-14765.403191	5411.336667	1718.772461	31.044220
-14765.403191	5411.336667	1717.754883	82.820091
-14765.403191	5411.336667	1716.738281	-48.705086
-14765.403191	5411.336667	1715.720703	118.170609
-14765.403191	5411.336667	1714.703125	28.957438
-14765.403191	5411.336667	1713.685547	-74.316002
-14765.403191	5411.336667	1712.667969	5.582002
-14765.403191	5411.336667	1711.649414	-85.917892
-14765.403191	5411.336667	1710.630859	-85.854225
-14765.403191	5411.336667	1709.612305	-189.041183
-14765.403191	5411.336667	1708.593750	19.838898
-14765.403191	5411.336667	1707.575195	-48.150261
-14765.403191	5411.336667	1706.555664	76.190552
-14765.403191	5411.336667	1705.536133	-160.611755
-14765.403191	5411.336667	1704.516602	85.602272
-14765.403191	5411.336667	1703.497070	83.271362
-14765.403191	5411.336667	1702.477539	-19.826874
-14765.403191	5411.336667	1701.457031	52.834892
-14765.403191	5411.336667	1700.437500	-54.905598
-14765.403191	5411.336667	1699.416992	20.075377
-14765.403191	5411.336667	1698.395508	-24.395742
-14765.403191	5411.336667	1697.375000	109.078354
-14765.403191	5411.336667	1696.354492	116.103111
-14765.403191	5411.336667	1695.333008	-134.302917
-14765.403191	5411.336667	1694.311523	-19.603073
-14765.403191	5411.336667	1693.290039	-14.895713
-14765.403191	5411.336667	1692.267578	172.245911
-14765.403191	5411.336667	1691.246094	10.887049
-14765.403191	5411.336667	1690.223633	22.603605
-14765.403191	5411.336667	1689.201172	24.967398
-14765.403191	5411.336667	1688.178711	90.433769
-14765.403191	5411.336667	1687.155273	-31.054899
-14765.403191	5411.336667	1686.132813	-241.270279
-14765.403191	5411.336667	1685.109375	-173.446045
-14765.403191	5411.336667	1684.085938	97.527733
-14765.403191	5411.336667	1683.062500	46.188396
-14765.403191	5411.336667	1682.039063	169.954178
-14765.403191	5411.336667	1681.014648	95.289955
-14765.403191	5411.336667	1679.990234	106.997009
-14765.403191	5411.336667	1678.965820	125.704498
-14765.403191	5411.336667	1677.941406	137.411697
-14765.403191	5411.336667	1676.916992	170.108139
-14765.403191	5411.336667	1675.891602	284.408112
-14765.403191	5411.336667	1674.866211	51.310162
-14765.403191	5411.336667	1673.840820	186.577209
-14765.403191	5411.336667	1672.815430	214.601135
-14765.403191	5411.336667	1671.790039	135.443710
-14765.403191	5411.336667	1670.763672	133.196808
-14765.403191	5411.336667	1669.737305	252.065948
-14765.403191	5411.336667	1668.710938	114.753532
-14765.403191	5411.336667	1667.684570	121.844772
-14765.403191	5411.336667	1666.658203	170.839920
-14765.403191	5411.336667	1665.630859	219.823074
-14765.403191	5411.336667	1664.603516	261.815155
-14765.403191	5411.336667	1663.576172	192.135742
-14765.403191	5411.336667	1662.548828	241.112228
-14765.403191	5411.336667	1661.520508	131.948868
-14765.403191	5411.336667	1660.493164	36.786728
-14765.403191	5411.336667	1659.464844	125.308502
-14765.403191	5411.336667	1658.436523	4.638551
-14765.403191	5411.336667	1657.408203	195.392349
-14765.403191	5411.336667	1656.378906	-78.554893
-14765.403191	5411.336667	1655.350586	179.520798
-14765.403191	5411.336667	1654.321289	414.284607
-14765.403191	5411.336667	1653.291992	214.784714
-14765.403191	5411.336667	1652.261719	87.335762
-14765.403191	5411.336667	1651.232422	43.502487
-14765.403191	5411.336667	1650.202148	275.834930
-14765.403191	5411.336667	1649.171875	255.205429
-14765.403191	5411.336667	1648.141602	236.915939
-14765.403191	5411.336667	1647.111328	121.241150
-14765.403191	5411.336667	1646.080078	330.241882
-14765.403191	5411.336667	1645.049805	281.848938
-14765.403191	5411.336667	1644.018555	344.741394
-14765.403191	5411.336667	1642.987305	358.959442
-14765.403191	5411.336667	1641.955078	287.460480
-14765.403191	5411.336667	1640.923828	382.786530
-14765.403191	5411.336667	1639.891602	413.242737
-14765.403191	5411.336667	1638.859375	404.337006
-14765.403191	5411.336667	1637.827148	339.885986
-14765.403191	5411.336667	1636.794922	453.703400
-14765.403191	5411.336667	1635.761719	213.419571
-14765.403191	5411.336667	1634.729492	306.423920
-14765.403191	5411.336667	1633.696289	262.923187
-14765.403191	5411.336667	1632.662109	434.550476
-14765.403191	5411.336667	1631.628906	303.201965
-14765.403191	5411.336667	1630.594727	433.171387
-14765.403191	5411.336667	1629.561523	267.234772
-14765.403191	5411.336667	1628.527344	177.643890
-14765.403191	5411.336667	1627.493164	263.710205
-14765.403191	5411.336667	1626.458008	359.002625
-14765.403191	5411.336667	1625.423828	387.292206
-14765.403191	5411.336667	1624.388672	313.982178
-14765.403191	5411.336667	1623.353516	67.556808
-14765.403191	5411.336667	1622.318359	432.962585
-14765.403191	5411.336667	1621.282227	283.579071
-14765.403191	5411.336667	1620.247070	201.187820
-14765.403191	5411.336667	1619.210938	326.480408
-14765.403191	5411.336667	1618.174805	447.129395
-14765.403191	5411.336667	1617.137695	316.384552
-14765.403191	5411.336667	1616.101563	439.333008
-14765.403191	5411.336667	1615.064453	377.836273
-14765.403191	5411.336667	1614.027344	480.022034
-14765.403191	5411.336667	1612.990234	538.405090
-14765.403191	5411.336667	1611.953125	417.084351
-14765.403191	5411.336667	1610.916016	482.408539
-14765.403191	5411.336667	1609.877930	619.120789
-14765.403191	5411.336667	1608.839844	619.951050
-14765.403191	5411.336667	1607.801758	505.698425
-14765.403191	5411.336667	1606.763672	504.290802
-14765.403191	5411.336667	1605.724609	567.340454
-14765.403191	5411.336667	1604.685547	508.447418
-14765.403191	5411.336667	1603.646484	523.208618
-14765.403191	5411.336667	1602.607422	512.687683
-14765.403191	5411.336667	1601.568359	750.527344
-14765.403191	5411.336667	1600.528320	588.281433
-14765.403191	5411.336667	1599.489258	561.731628
-14765.403191	5411.336667	1598.449219	477.765533
-14765.403191	5411.336667	1597.408203	538.604126
-14765.403191	5411.336667	1596.368164	509.852234
-14765.403191	5411.336667	1595.327148	538.554810
-14765.403191	5411.336667	1594.287109	670.598877
-14765.403191	5411.336667	1593.246094	582.219849
-14765.403191	5411.336667	1592.204102	599.486389
-14765.403191	5411.336667	1591.163086	616.768677
-14765.403191	5411.336667	1590.121094	737.320923
-14765.403191	5411.336667	1589.079102	596.333679
-14765.403191	5411.336667	1588.037109	671.020874
-14765.403191	5411.336667	1586.995117	598.944336
-14765.403191	5411.336667	1585.953125	577.360046
-14765.403191	5411.336667	1584.910156	652.083740
-14765.403191	5411.336667	1583.867188	497.627167
-14765.403191	5411.336667	1582.824219	503.648682
-14765.403191	5411.336667	1581.781250	612.782227
-14765.403191	5411.336667	1580.737305	424.146393
-14765.403191	5411.336667	1579.693359	622.615173
-14765.403191	5411.336667	1578.649414	516.526489
-14765.403191	5411.336667	1577.605469	545.561218
-14765.403191	5411.336667	1576.561523	581.476379
-14765.403191	5411.336667	1575.516602	498.420898
-14765.403191	5411.336667	1574.472656	488.631439
-14765.403191	5411.336667	1573.427734	259.294525
-14765.403191	5411.336667	1572.381836	581.203369
-14765.403191	5411.336667	1571.336914	351.992828
-14765.403191	5411.336667	1570.291016	438.360413
-14765.403191	5411.336667	1569.246094	419.588318
-14765.403191	5411.336667	1568.200195	428.273529
-14765.403191	5411.336667	1567.153320	523.800049
-14765.403191	5411.336667	1566.107422	420.594421
-14765.403191	5411.336667	1565.060547	609.771484
-14765.403191	5411.336667	1564.013672	292.022949
-14765.403191	5411.336667	1562.966797	506.319763
-14765.403191	5411.336667	1561.919922	629.267395
-14765.403191	5411.336667	1560.872070	380.246765
-14765.403191	5411.336667	1559.825195	443.910614
-14765.403191	5411.336667	1558.777344	477.926697
-14765.403191	5411.336667	1557.729492	443.542419
-14765.403191	5411.336667	1556.680664	365.880829
-14765.403191	5411.336667	1555.632813	488.887512
-14765.403191	5411.336667	1554.583984	461.449158
-14765.403191	5411.336667	1553.535156	160.600128
-14765.403191	5411.336667	1552.486328	456.818054
-14765.403191	5411.336667	1551.436523	431.772064
-14765.403191	5411.336667	1550.387695	541.132019
-14765.403191	5411.336667	1549.337891	379.520294
-14765.403191	5411.336667	1548.288086	261.258179
-14765.403191	5411.336667	1547.238281	382.059570
-14765.403191	5411.336667	1546.187500	423.200226
-14765.403191	5411.336667	1545.136719	239.111694
-14765.403191	5411.336667	1544.086914	264.400208
-14765.403191	5411.336667	1543.035156	280.616455
-14765.403191	5411.336667	1541.984375	230.914001
-14765.403191	5411.336667	1540.933594	422.241455
-14765.403191	5411.336667	1539.881836	172.575790
-14765.403191	5411.336667	1538.830078	204.829849
-14765.403191	5411.336667	1537.778320	157.579880
-14765.403191	5411.336667	1536.725586	378.431885
-14765.403191	5411.336667	1535.673828	449.329315
-14765.403191	5411.336667	1534.621094	472.548615
-14765.403191	5411.336667	1533.568359	370.926270
-14765.403191	5411.336667	1532.515625	396.484802
-14765.403191	5411.336667	1531.461914	360.794189
-14765.403191	5411.336667	1530.409180	406.828918
-14765.403191	5411.336667	1529.355469	210.153702
-14765.403191	5411.336667	1528.301758	206.369568
-14765.403191	5411.336667	1527.247070	213.959702
-14765.403191	5411.336667	1526.193359	237.446152
-14765.403191	5411.336667	1525.138672	197.491577
-14765.403191	5411.336667	1524.083984	137.189011
-14765.403191	5411.336667	1523.029297	-27.282782
-14765.403191	5411.336667	1521.974609	130.018600
-14765.403191	5411.336667	1520.918945	90.249352
-14765.403191	5411.336667	1519.863281	100.345177
-14765.403191	5411.336667	1518.807617	-267.614807
-14765.403191	5411.336667	1517.751953	-74.040703
-14765.403191	5411.336667	1516.696289	-90.977470
-14765.403191	5411.336667	1515.639648	12.047673
-14765.403191	5411.336667	1514.583008	-72.696739
-14765.403191	5411.336667	1513.526367	80.107658
-14765.403191	5411.336667	1512.469727	-49.777412
-14765.403191	5411.336667	1511.412109	-118.531433
-14765.403191	5411.336667	1510.355469	38.810074
-14765.403191	5411.336667	1509.297852	-47.948757
-14765.403191	5411.336667	1508.240234	-123.342316
-14765.403191	5411.336667	1507.181641	-155.749191
-14765.403191	5411.336667	1506.124023	-253.612381
-14765.403191	5411.336667	1505.065430	-28.483984
-14765.403191	5411.336667	1504.006836	-230.119202
-14765.403191	5411.336667	1502.948242	-138.196762
-14765.403191	5411.336667	1501.888672	-73.356842
-14765.403191	5411.336667	1500.830078	-40.102337
-14765.403191	5411.336667	1499.770508	-241.440109
-14765.403191	5411.336667	1498.710938	-129.154846
-14765.403191	5411.336667	1497.650391	-107.078003
-14765.403191	5411.336667	1496.590820	-46.653164
-14765.403191	5411.336667	1495.530273	83.661873
-14765.403191	5411.336667	1494.469727	-24.931387
-14765.403191	5411.336667	1493.409180	-59.093128
-14765.403191	5411.336667	1492.348633	-167.548996
-14765.403191	5411.336667	1491.287109	-176.822662
-14765.403191	5411.336667	1490.225586	-91.481316
-14765.403191	5411.336667	1489.164063	-37.660736
-14765.403191	5411.336667	1488.102539	65.692734
-14765.403191	5411.336667	1487.041016	-17.756914
-14765.403191	5411.336667	1485.978516	58.620090
-14765.403191	5411.336667	1484.916016	-141.764084
-14765.403191	5411.336667	1483.853516	-74.270844
-14765.403191	5411.336667	1482.791016	132.585114
-14765.403191	5411.336667	1481.727539	-85.535118
-14765.403191	5411.336667	1480.664063	98.821526
-14765.403191	5411.336667	1479.600586	130.297562
-14765.403191	5411.336667	1478.537109	-71.870781
-14765.403191	5411.336667	1477.473633	38.321304
-14765.403191	5411.336667	1476.409180	-35.679779
-14765.403191	5411.336667	1475.344727	0.437269
-14765.403191	5411.336667	1474.280273	-84.635262
-14765.403191	5411.336667	1473.215820	-50.692387
-14765.403191	5411.336667	1472.151367	28.001152
-14765.403191	5411.336667	1471.085938	10.283485
-14765.403191	5411.336667	1470.020508	151.913025
-14765.403191	5411.336667	1468.955078	163.397461
-14765.403191	5411.336667	1467.888672	-15.568521
-14765.403191	5411.336667	1466.823242	-4.002472
-14765.403191	5411.336667	1465.756836	173.465515
-14765.403191	5411.336667	1464.690430	17.095650
-14765.403191	5411.336667	1463.624023	-96.462776
-14765.403191	5411.336667	1462.556641	147.989914
-14765.403191	5411.336667	1461.490234	-84.228188
-14765.403191	5411.336667	1460.422852	-14.379704
-14765.403191	5411.336667	1459.355469	-87.598145
-14765.403191	5411.336667	1458.287109	96.548668
-14765.403191	5411.336667	1457.219727	108.351295
-14765.403191	5411.336667	1456.151367	-11.552328
-14765.403191	5411.336667	1455.083008	124.958092
-14765.403191	5411.336667	1454.014648	112.344330
-14765.403191	5411.336667	1452.945313	88.507431
-14765.403191	5411.336667	1451.876953	54.070675
-14765.403191	5411.336667	1450.807617	112.384178
-14765.403191	5411.336667	1449.738281	104.343475
-14765.403191	5411.336667	1448.668945	-164.783035
-14765.403191	5411.336667	1447.598633	-70.016068
-14765.403191	5411.336667	1446.528320	-13.091024
-14765.403191	5411.336667	1445.458008	-93.384048
-14765.403191	5411.336667	1444.387695	188.668167
-14765.403191	5411.336667	1443.317383	137.363327
-14765.403191	5411.336667	1442.246094	184.120270
-14765.403191	5411.336667	1441.174805	6.745440
-14765.403191	5411.336667	1440.103516	4.908588
-14765.403191	5411.336667	1439.032227	45.785316
-14765.403191	5411.336667	1437.960938	52.206505
-14765.403191	5411.336667	1436.888672	2.905573
-14765.403191	5411.336667	1435.816406	104.520851
-14765.403191	5411.336667	1434.744141	117.335365
-14765.403191	5411.336667	1433.670898	91.109932
-14765.403191	5411.336667	1432.598633	78.257904
-14765.403191	5411.336667	1431.525391	88.490593
-14765.403191	5411.336667	1430.452148	-133.088943
-14765.403191	5411.336667	1429.378906	-7.969210
-14765.403191	5411.336667	1428.304688	-163.934174
-14765.403191	5411.336667	1427.231445	56.684143
-14765.403191	5411.336667	1426.157227	224.936142
-14765.403191	5411.336667	1425.083008	-15.991273
-14765.403191	5411.336667	1424.007813	39.975407
-14765.403191	5411.336667	1422.933594	43.643623
-14765.403191	5411.336667	1421.858398	-14.851090
-14765.403191	5411.336667	1420.783203	16.890961
-14765.403191	5411.336667	1419.708008	-124.144119
-14765.403191	5411.336667	1418.631836	165.885834
-14765.403191	5411.336667	1417.555664	65.774979
-14765.403191	5411.336667	1416.479492	108.247688
-14765.403191	5411.336667	1415.403320	109.718781
-14765.403191	5411.336667	1414.327148	-110.440895
-14765.403191	5411.336667	1413.250000	0.446867
-14765.403191	5411.336667	1412.173828	39.353115
-14765.403191	5411.336667	1411.096680	182.495819
-14765.403191	5411.336667	1410.018555	62.430454
-14765.403191	5411.336667	1408.941406	175.428741
-14765.403191	5411.336667	1407.863281	50.272217
-14765.403191	5411.336667	1406.785156	67.351501
-14765.403191	5411.336667	1405.707031	134.892899
-14765.403191	5411.336667	1404.628906	151.275055
-14765.403191	5411.336667	1403.549805	149.728088
-14765.403191	5411.336667	1402.470703	61.357365
-14765.403191	5411.336667	1401.391602	70.563004
-14765.403191	5411.336667	1400.312500	250.994156
-14765.403191	5411.336667	1399.233398	124.372253
-14765.403191	5411.336667	1398.153320	240.750717
-14765.403191	5411.336667	1397.073242	203.503357
-14765.403191	5411.336667	1395.993164	360.661163
-14765.403191	5411.336667	1394.913086	150.280487
-14765.403191	5411.336667	1393.832031	152.746872
-14765.403191	5411.336667	1392.750977	77.859818
-14765.403191	5411.336667	1391.669922	-24.371180
-14765.403191	5411.336667	1390.588867	37.406139
-14765.403191	5411.336667	1389.506836	82.925003
-14765.403191	5411.336667	1388.425781	95.293335
-14765.403191	5411.336667	1387.343750	17.963217
-14765.403191	5411.336667	1386.261719	130.676453
-14765.403191	5411.336667	1385.178711	0.316712
-14765.403191	5411.336667	1384.096680	120.310150
-14765.403191	5411.336667	1383.013672	198.939041
-14765.403191	5411.336667	1381.930664	39.892372
-14765.403191	5411.336667	1380.846680	231.669113
-14765.403191	5411.336667	1379.763672	241.965790
-14765.403191	5411.336667	1378.679688	104.708359
-14765.403191	5411.336667	1377.595703	85.987106
-14765.403191	5411.336667	1376.511719	-55.971699
-14765.403191	5411.336667	1375.427734	30.328712
-14765.403191	5411.336667	1374.342773	117.809227
-14765.403191	5411.336667	1373.257813	114.817894
-14765.403191	5411.336667	1372.172852	131.330994
-14765.403191	5411.336667	1371.087891	-11.279741
-14765.403191	5411.336667	1370.001953	45.953506
-14765.403191	5411.336667	1368.916992	-31.514175
-14765.403191	5411.336667	1367.831055	175.789246
-14765.403191	5411.336667	1366.744141	134.568588
-14765.403191	5411.336667	1365.658203	73.162628
-14765.403191	5411.336667	1364.571289	155.730011
-14765.403191	5411.336667	1363.484375	111.079636
-14765.403191	5411.336667	1362.397461	51.402569
-14765.403191	5411.336667	1361.310547	95.737564
-14765.403191	5411.336667	1360.222656	102.996819
-14765.403191	5411.336667	1359.135742	10.343253
-14765.403191	5411.336667	1358.047852	279.650421
-14765.403191	5411.336667	1356.958984	174.591873
-14765.403191	5411.336667	1355.871094	164.140991
-14765.403191	5411.336667	1354.782227	103.132339
-14765.403191	5411.336667	1353.693359	44.261425
-14765.403191	5411.336667	1352.604492	-56.783592
-14765.403191	5411.336667	1351.515625	172.600464
-14765.403191	5411.336667	1350.425781	179.650070
-14765.403191	5411.336667	1349.335938	180.047043
-14765.403191	5411.336667	1348.246094	149.950226
-14765.403191	5411.336667	1347.156250	116.562424
-14765.403191	5411.336667	1346.066406	167.946777
-14765.403191	5411.336667	1344.975586	142.259674
-14765.403191	5411.336667	1343.884766	146.820618
-14765.403191	5411.336667	1342.793945	72.312874
-14765.403191	5411.336667	1341.702148	272.593048
-14765.403191	5411.336667	1340.611328	197.190063
-14765.403191	5411.336667	1339.519531	385.574310
-14765.403191	5411.336667	1338.427734	228.659027
-14765.403191	5411.336667	1337.334961	373.054718
-14765.403191	5411.336667	1336.243164	91.606712
-14765.403191	5411.336667	1335.150391	149.139908
-14765.403191	5411.336667	1334.057617	317.519653
-14765.403191	5411.336667	1332.964844	370.704620
-14765.403191	5411.336667	1331.871094	261.318970
-14765.403191	5411.336667	1330.778320	127.213860
-14765.403191	5411.336667	1329.684570	159.890015
-14765.403191	5411.336667	1328.590820	287.784027
-14765.403191	5411.336667	1327.496094	238.414673
-14765.403191	5411.336667	1326.402344	175.097931
-14765.403191	5411.336667	1325.307617	181.704605
-14765.403191	5411.336667	1324.212891	213.826599
-14765.403191	5411.336667	1323.117188	272.667206
-14765.403191	5411.336667	1322.022461	288.930145
-14765.403191	5411.336667	1320.926758	213.888519
-14765.403191	5411.336667	1319.831055	156.690918
-14765.403191	5411.336667	1318.735352	29.848711
-14765.403191	5411.336667	1317.638672	289.803436
-14765.403191	5411.336667	1316.542969	86.774460
-14765.403191	5411.336667	1315.446289	202.004608
-14765.403191	5411.336667	1314.349609	146.813370
-14765.403191	5411.336667	1313.251953	127.037750
-14765.403191	5411.336667	1312.155273	204.098358
-14765.403191	5411.336667	1311.057617	103.573906
-14765.403191	5411.336667	1309.959961	180.862000
-14765.403191	5411.336667	1308.862305	111.112694
-14765.403191	5411.336667	1307.763672	145.528229
-14765.403191	5411.336667	1306.665039	25.447647
-14765.403191	5411.336667	1305.566406	108.201660
-14765.403191	5411.336667	1304.467773	-15.213976
-14765.403191	5411.336667	1303.369141	47.738472
-14765.403191	5411.336667	1302.269531	191.137177
-14765.403191	5411.336667	1301.169922	61.084915
-14765.403191	5411.336667	1300.070313	-41.165745
-14765.403191	5411.336667	1298.970703	-132.524307
-14765.403191	5411.336667	1297.870117	-82.976128
-14765.403191	5411.336667	1296.769531	-53.661564
-14765.403191	5411.336667	1295.668945	34.831158
-14765.403191	5411.336667	1294.568359	-119.927994
-14765.403191	5411.336667	1293.466797	-57.508385
-14765.403191	5411.336667	1292.366211	-68.299660
-14765.403191	5411.336667	1291.264648	-142.645279
-14765.403191	5411.336667	1290.162109	-187.710678
-14765.403191	5411.336667	1289.060547	8.318684
-14765.403191	5411.336667	1287.958008	-3.655618
-14765.403191	5411.336667	1286.855469	12.382401
-14765.403191	5411.336667	1285.752930	-41.147671
-14765.403191	5411.336667	1284.650391	-72.091866
-14765.403191	5411.336667	1283.546875	-82.992310
-14765.403191	5411.336667	1282.444336	-54.722797
-14765.403191	5411.336667	1281.339844	-134.192261
-14765.403191	5411.336667	1280.236328	124.232170
-14765.403191	5411.336667	1279.132813	113.048424
-14765.403191	5411.336667	1278.028320	-3.862842
-14765.403191	5411.336667	1276.923828	-98.759918
-14765.403191	5411.336667	1275.819336	-80.434158
-14765.403191	5411.336667	1274.713867	54.334919
-14765.403191	5411.336667	1273.608398	74.197258
-14765.403191	5411.336667	1272.503906	-37.153179
-14765.403191	5411.336667	1271.397461	-48.538815
-14765.403191	5411.336667	1270.291992	-72.472816
-14765.403191	5411.336667	1269.185547	-96.737679
-14765.403191	5411.336667	1268.080078	-39.608147
-14765.403191	5411.336667	1266.972656	-54.240822
-14765.403191	5411.336667	1265.866211	-161.782471
-14765.403191	5411.336667	1264.759766	-132.630859
-14765.403191	5411.336667	1263.652344	-263.260986
-14765.403191	5411.336667	1262.544922	-168.393860
-14765.403191	5411.336667	1261.436523	-176.869690
-14765.403191	5411.336667	1260.329102	60.734272
-14765.403191	5411.336667	1259.220703	-76.231956
-14765.403191	5411.336667	1258.112305	-173.308578
-14765.403191	5411.336667	1257.003906	-165.101379
-14765.403191	5411.336667	1255.895508	-149.616486
-14765.403191	5411.336667	1254.786133	-206.874969
-14765.403191	5411.336667	1253.676758	-45.530220
-14765.403191	5411.336667	1252.567383	-149.769058
-14765.403191	5411.336667	1251.458008	-231.005829
-14765.403191	5411.336667	1250.347656	-207.980423
-14765.403191	5411.336667	1249.237305	-133.728943
-14765.403191	5411.336667	1248.126953	-155.335663
-14765.403191	5411.336667	1247.016602	-73.625084
-14765.403191	5411.336667	1245.905273	-233.188721
-14765.403191	5411.336667	1244.793945	-203.945419
-14765.403191	5411.336667	1243.682617	-174.599564
-14765.403191	5411.336667	1242.571289	-148.273468
-14765.403191	5411.336667	1241.459961	-153.272110
-14765.403191	5411.336667	1240.347656	-164.115814
-14765.403191	5411.336667	1239.235352	-155.307281
-14765.403191	5411.336667	1238.123047	-12.286228
-14765.403191	5411.336667	1237.009766	-0.179499
-14765.403191	5411.336667	1235.897461	8.839045
-14765.403191	5411.336667	1234.784180	21.400715
-14765.403191	5411.336667	1233.670898	27.356459
-14765.403191	5411.336667	1232.556641	53.132072
-14765.403191	5411.336667	1231.443359	148.673050
-14765.403191	5411.336667	1230.329102	106.356606
-14765.403191	5411.336667	1229.214844	219.065048
-14765.403191	5411.336667	1228.099609	207.338333
-14765.403191	5411.336667	1226.985352	150.454208
-14765.403191	5411.336667	1225.870117	-5.997434
-14765.403191	5411.336667	1224.754883	-57.582394
-14765.403191	5411.336667	1223.639648	91.056511
-14765.403191	5411.336667	1222.523438	70.400543
-14765.403191	5411.336667	1221.408203	-20.924635
-14765.403191	5411.336667	1220.291992	11.349348
-14765.403191	5411.336667	1219.174805	32.216331
-14765.403191	5411.336667	1218.058594	7.995529
-14765.403191	5411.336667	1216.941406	137.043030
-14765.403191	5411.336667	1215.824219	215.259094
-14765.403191	5411.336667	1214.707031	52.095638
-14765.403191	5411.336667	1213.589844	57.834717
-14765.403191	5411.336667	1212.471680	108.515930
-14765.403191	5411.336667	1211.353516	150.184189
-14765.403191	5411.336667	1210.235352	272.124451
-14765.403191	5411.336667	1209.117188	168.975204
-14765.403191	5411.336667	1207.998047	139.094315
-14765.403191	5411.336667	1206.878906	126.970184
-14765.403191	5411.336667	1205.759766	135.513763
-14765.403191	5411.336667	1204.640625	0.724864
-14765.403191	5411.336667	1203.520508	111.574547
-14765.403191	5411.336667	1202.401367	145.794983
-14765.403191	5411.336667	1201.281250	97.952446
-14765.403191	5411.336667	1200.160156	150.337677
-14765.403191	5411.336667	1199.040039	124.300255
-14765.403191	5411.336667	1197.918945	45.083008
-14765.403191	5411.336667	1196.797852	65.658035
-14765.403191	5411.336667	1195.676758	223.922653
-14765.403191	5411.336667	1194.555664	303.803467
-14765.403191	5411.336667	1193.433594	111.949020
-14765.403191	5411.336667	1192.311523	270.870605
-14765.403191	5411.336667	1191.189453	393.748718
-14765.403191	5411.336667	1190.066406	327.898834
-14765.403191	5411.336667	1188.944336	208.212112
-14765.403191	5411.336667	1187.821289	178.589081
-14765.403191	5411.336667	1186.698242	288.709137
-14765.403191	5411.336667	1185.574219	130.481400
-14765.403191	5411.336667	1184.451172	190.691818
-14765.403191	5411.336667	1183.327148	241.616623
-14765.403191	5411.336667	1182.203125	126.016487
-14765.403191	5411.336667	1181.078125	243.153854
-14765.403191	5411.336667	1179.954102	127.461472
-14765.403191	5411.336667	1178.829102	-9.336423
-14765.403191	5411.336667	1177.704102	41.779739
-14765.403191	5411.336667	1176.579102	75.610657
-14765.403191	5411.336667	1175.453125	-17.946583
-14765.403191	5411.336667	1174.327148	-19.597879
-14765.403191	5411.336667	1173.201172	5.765095
-14765.403191	5411.336667	1172.075195	-74.784485
-14765.403191	5411.336667	1170.949219	-66.413681
-14765.403191	5411.336667	1169.822266	-50.878860
-14765.403191	5411.336667	1168.695313	8.381828
-14765.403191	5411.336667	1167.568359	59.199394
-14765.403191	5411.336667	1166.440430	20.018538
-14765.403191	5411.336667	1165.313477	-56.867699
-14765.403191	5411.336667	1164.185547	-113.277901
-14765.403191	5411.336667	1163.057617	-5.486925
-14765.403191	5411.336667	1161.928711	70.833595
-14765.403191	5411.336667	1160.800781	2.278753
-14765.403191	5411.336667	1159.671875	-44.384357
-14765.403191	5411.336667	1158.541992	51.912502
-14765.403191	5411.336667	1157.413086	92.894516
-14765.403191	5411.336667	1156.283203	104.259270
-14765.403191	5411.336667	1155.154297	76.007469
-14765.403191	5411.336667	1154.023438	-20.361643
-14765.403191	5411.336667	1152.893555	-16.196911
-14765.403191	5411.336667	1151.763672	201.223419
-14765.403191	5411.336667	1150.632813	69.685432
-14765.403191	5411.336667	1149.501953	127.772133
-14765.403191	5411.336667	1148.370117	273.513702
-14765.403191	5411.336667	1147.239258	249.865448
-14765.403191	5411.336667	1146.107422	319.785126
-14765.403191	5411.336667	1144.975586	267.396912
-14765.403191	5411.336667	1143.843750	219.885391
-14765.403191	5411.336667	1142.710938	262.389984
-14765.403191	5411.336667	1141.578125	144.299622
-14765.403191	5411.336667	1140.445313	193.196396
-14765.403191	5411.336667	1139.312500	168.077423
-14765.403191	5411.336667	1138.178711	136.821213
-14765.403191	5411.336667	1137.045898	42.652306
-14765.403191	5411.336667	1135.912109	-14.496536
-14765.403191	5411.336667	1134.777344	-21.458363
-14765.403191	5411.336667	1133.643555	-56.727177
-14765.403191	5411.336667	1132.508789	-66.195610
-14765.403191	5411.336667	1131.374023	62.236565
-14765.403191	5411.336667	1130.239258	140.801849
-14765.403191	5411.336667	1129.104492	-26.070942
-14765.403191	5411.336667	1127.968750	-41.826805
-14765.403191	5411.336667	1126.833008	-99.323364
-14765.403191	5411.336667	1125.697266	-8.922816
-14765.403191	5411.336667	1124.560547	-18.149338
-14765.403191	5411.336667	1123.424805	-170.191605
-14765.403191	5411.336667	1122.288086	-54.866642
-14765.403191	5411.336667	1121.151367	56.854828
-14765.403191	5411.336667	1120.013672	-3.069051
-14765.403191	5411.336667	1118.876953	52.291477
-14765.403191	5411.336667	1117.739258	-84.351555
-14765.403191	5411.336667	1116.601563	136.675812
-14765.403191	5411.336667	1115.462891	62.502491
-14765.403191	5411.336667	1114.324219	245.946075
-14765.403191	5411.336667	1113.186523	256.586975
-14765.403191	5411.336667	1112.046875	223.553680
-14765.403191	5411.336667	1110.908203	305.179901
-14765.403191	5411.336667	1109.769531	214.646317
-14765.403191	5411.336667	1108.629883	206.909790
-14765.403191	5411.336667	1107.490234	220.485367
-14765.403191	5411.336667	1106.349609	200.191223
-14765.403191	5411.336667	1105.209961	213.635651
-14765.403191	5411.336667	1104.069336	177.298553
-14765.403191	5411.336667	1102.928711	176.230270
-14765.403191	5411.336667	1101.787109	14.985182
-14765.403191	5411.336667	1100.646484	361.172852
-14765.403191	5411.336667	1099.504883	441.372498
-14765.403191	5411.336667	1098.363281	364.555573
-14765.403191	5411.336667	1097.221680	263.761261
-14765.403191	5411.336667	1096.079102	178.583939
-14765.403191	5411.336667	1094.936523	138.458923
-14765.403191	5411.336667	1093.793945	357.477264
-14765.403191	5411.336667	1092.651367	269.201660
-14765.403191	5411.336667	1091.507813	243.023209
-14765.403191	5411.336667	1090.364258	7.025804
-14765.403191	5411.336667	1089.220703	191.767319
-14765.403191	5411.336667	1088.077148	264.899353
-14765.403191	5411.336667	1086.933594	76.300056
-14765.403191	5411.336667	1085.789063	342.640656
-14765.403191	5411.336667	1084.644531	160.815796
-14765.403191	5411.336667	1083.499023	160.190979
-14765.403191	5411.336667	1082.354492	168.377716
-14765.403191	5411.336667	1081.208984	317.722931
-14765.403191	5411.336667	1080.063477	207.846039
-14765.403191	5411.336667	1078.917969	479.208221
-14765.403191	5411.336667	1077.771484	331.520569
-14765.403191	5411.336667	1076.625977	299.979828
-14765.403191	5411.336667	1075.479492	295.276489
-14765.403191	5411.336667	1074.332031	351.209503
-14765.403191	5411.336667	1073.185547	374.678986
-14765.403191	5411.336667	1072.038086	311.258057
-14765.403191	5411.336667	1070.890625	218.714706
-14765.403191	5411.336667	1069.743164	309.436981
-14765.403191	5411.336667	1068.594727	130.105469
-14765.403191	5411.336667	1067.447266	237.070724
-14765.403191	5411.336667	1066.298828	116.867531
-14765.403191	5411.336667	1065.149414	183.599625
-14765.403191	5411.336667	1064.000977	137.857925
-14765.403191	5411.336667	1062.851563	35.185856
-14765.403191	5411.336667	1061.702148	298.586090
-14765.403191	5411.336667	1060.552734	153.863632
-14765.403191	5411.336667	1059.402344	369.169647
-14765.403191	5411.336667	1058.252930	415.402924
-14765.403191	5411.336667	1057.102539	220.642792
-14765.403191	5411.336667	1055.951172	194.206924
-14765.403191	5411.336667	1054.800781	291.724670
-14765.403191	5411.336667	1053.649414	159.166916
-14765.403191	5411.336667	1052.498047	116.730827
-14765.403191	5411.336667	1051.346680	162.637451
-14765.403191	5411.336667	1050.194336	11.960656
-14765.403191	5411.336667	1049.042969	179.685532
-14765.403191	5411.336667	1047.890625	60.810055
-14765.403191	5411.336667	1046.738281	113.566704
-14765.403191	5411.336667	1045.584961	17.562483
-14765.403191	5411.336667	1044.431641	283.351196
-14765.403191	5411.336667	1043.278320	154.484970
-14765.403191	5411.336667	1042.125000	36.759068
-14765.403191	5411.336667	1040.971680	154.584976
-14765.403191	5411.336667	1039.817383	17.027641
-14765.403191	5411.336667	1038.663086	114.869484
-14765.403191	5411.336667	1037.508789	237.250519
-14765.403191	5411.336667	1036.353516	239.770798
-14765.403191	5411.336667	1035.198242	238.471588
-14765.403191	5411.336667	1034.042969	76.052490
-14765.403191	5411.336667	1032.887695	284.736511
-14765.403191	5411.336667	1031.732422	338.326782
-14765.403191	5411.336667	1030.576172	309.252380
-14765.403191	5411.336667	1029.419922	193.321243
-14765.403191	5411.336667	1028.263672	236.994720
-14765.403191	5411.336667	1027.106445	229.265320
-14765.403191	5411.336667	1025.949219	384.719391
-14765.403191	5411.336667	1024.792969	196.722595
-14765.403191	5411.336667	1023.634766	386.979218
-14765.403191	5411.336667	1022.477539	168.238892
-14765.403191	5411.336667	1021.319336	157.696136
-14765.403191	5411.336667	1020.161133	210.570206
-14765.403191	5411.336667	1019.002930	150.314575
-14765.403191	5411.336667	1017.843750	146.036942
-14765.403191	5411.336667	1016.684570	208.107925
-14765.403191	5411.336667	1015.525391	108.075783
-14765.403191	5411.336667	1014.366211	174.069794
-14765.403191	5411.336667	1013.207031	-84.416473
-14765.403191	5411.336667	1012.046875	20.850576
-14765.403191	5411.336667	1010.886719	-61.093327
-14765.403191	5411.336667	1009.726563	-122.693588
-14765.403191	5411.336667	1008.565430	-55.145836
-14765.403191	5411.336667	1007.404297	79.510986
-14765.403191	5411.336667	1006.243164	91.854912
-14765.403191	5411.336667	1005.082031	211.150009
-14765.403191	5411.336667	1003.920898	106.683807
-14765.403191	5411.336667	1002.758789	-105.017220
-14765.403191	5411.336667	1001.596680	173.274155
-14765.403191	5411.336667	1000.433594	178.851990
-14765.403191	5411.336667	999.271484	-139.988800
-14765.403191	5411.336667	998.108398	-55.532581
-14765.403191	5411.336667	996.945313	-50.156582
-14765.403191	5411.336667	995.782227	112.818298
-14765.403191	5411.336667	994.618164	-32.316833
-14765.403191	5411.336667	993.454102	-13.305414
-14765.403191	5411.336667	992.290039	-91.121651
-14765.403191	5411.336667	991.125977	40.040512
-14765.403191	5411.336667	989.960938	27.699711
-14765.403191	5411.336667	988.796875	187.568909
-14765.403191	5411.336667	987.630859	248.959030
-14765.403191	5411.336667	986.465820	129.479858
-14765.403191	5411.336667	985.300781	233.156876
-14765.403191	5411.336667	984.134766	224.828979
-14765.403191	5411.336667	982.968750	170.815262
-14765.403191	5411.336667	981.801758	167.066971
-14765.403191	5411.336667	980.635742	195.837112
-14765.403191	5411.336667	979.468750	326.772858
-14765.403191	5411.336667	978.301758	230.914032
-14765.403191	5411.336667	977.133789	236.580963
-14765.403191	5411.336667	975.966797	257.985657
-14765.403191	5411.336667	974.798828	226.845642
-14765.403191	5411.336667	973.630859	102.143044
-14765.403191	5411.336667	972.461914	84.708977
-14765.403191	5411.336667	971.293945	101.539627
-14765.403191	5411.336667	970.125000	64.042908
-14765.403191	5411.336667	968.956055	131.766403
-14765.403191	5411.336667	967.786133	-18.974409
-14765.403191	5411.336667	966.617188	23.113522
-14765.403191	5411.336667	965.447266	-31.718151
-14765.403191	5411.336667	964.276367	53.615917
-14765.403191	5411.336667	963.106445	-252.941345
-14765.403191	5411.336667	961.935547	-132.870697
-14765.403191	5411.336667	960.764648	128.941849
-14765.403191	5411.336667	959.593750	221.606033
-14765.403191	5411.336667	958.422852	-153.494003
-14765.403191	5411.336667	957.250977	-108.233673
-14765.403191	5411.336667	956.079102	-223.245132
-14765.403191	5411.336667	954.907227	-112.241898
-14765.403191	5411.336667	953.734375	-181.859619
-14765.403191	5411.336667	952.562500	55.809830
-14765.403191	5411.336667	951.389648	-20.952986
-14765.403191	5411.336667	950.215820	9.385984
-14765.403191	5411.336667	949.042969	104.475075
-14765.403191	5411.336667	947.869141	-153.062836
-14765.403191	5411.336667	946.695313	98.203491
-14765.403191	5411.336667	945.521484	173.889648
-14765.403191	5411.336667	944.346680	13.731087
-14765.403191	5411.336667	943.172852	-31.067318
-14765.403191	5411.336667	941.998047	-205.055481
-14765.403191	5411.336667	940.822266	0.068708
-14765.403191	5411.336667	939.647461	62.946583
-14765.403191	5411.336667	938.471680	58.733353
-14765.403191	5411.336667	937.295898	75.552567
-14765.403191	5411.336667	936.119141	-114.516525
-14765.403191	5411.336667	934.943359	-11.326807
-14765.403191	5411.336667	933.766602	-2.448603
-14765.403191	5411.336667	932.589844	-41.836536
-14765.403191	5411.336667	931.413086	29.103428
-14765.403191	5411.336667	930.235352	91.808983
-14765.403191	5411.336667	929.057617	33.562748
-14765.403191	5411.336667	927.879883	99.015404
-14765.403191	5411.336667	926.702148	70.397682
-14765.403191	5411.336667	925.523438	-33.422024
-14765.403191	5411.336667	924.344727	115.261696
-14765.403191	5411.336667	923.166016	-98.611450
-14765.403191	5411.336667	921.987305	-127.145683
-14765.403191	5411.336667	920.807617	214.787170
-14765.403191	5411.336667	919.627930	214.799667
-14765.403191	5411.336667	919.497070	41.299683
-14765.403191	5411.336667	918.331055	61.091766
-14765.403191	5411.336667	917.165039	5.774176
-14765.403191	5411.336667	915.999023	-1.226109
-14765.403191	5411.336667	914.833008	-150.334656
-14765.403191	5411.336667	913.666016	-17.849005
-14765.403191	5411.336667	912.499023	-22.109837
-14765.403191	5411.336667	911.332031	-104.072998
-14765.403191	5411.336667	910.165039	146.270493
-14765.403191	5411.336667	908.997070	-107.111244
-14765.403191	5411.336667	907.830078	-12.182168
-14765.403191	5411.336667	906.661133	-29.742397
-14765.403191	5411.336667	905.493164	3.590581
-14765.403191	5411.336667	904.325195	-72.818642
-14765.403191	5411.336667	903.156250	193.375046
-14765.403191	5411.336667	901.987305	74.184311
-14765.403191	5411.336667	900.818359	5.887630
-14765.403191	5411.336667	899.648438	234.515701
-14765.403191	5411.336667	898.478516	94.052795
-14765.403191	5411.336667	897.308594	135.462936
-14765.403191	5411.336667	896.138672	182.221832
-14765.403191	5411.336667	894.968750	228.980972
-14765.403191	5411.336667	893.797852	382.613892
-14765.403191	5411.336667	892.626953	418.667267
-14765.403191	5411.336667	891.456055	235.723206
-14765.403191	5411.336667	890.284180	357.277374
-14765.403191	5411.336667	889.113281	358.666931
-14765.403191	5411.336667	887.941406	370.753204
-14765.403191	5411.336667	886.768555	356.169067
-14765.403191	5411.336667	885.596680	368.290710
-14765.403191	5411.336667	884.423828	409.771454
-14765.403191	5411.336667	883.250977	325.907806
-14765.403191	5411.336667	882.078125	156.775009
-14765.403191	5411.336667	880.905273	414.268646
-14765.403191	5411.336667	879.731445	445.126587
-14765.403191	5411.336667	878.557617	417.367920
-14765.403191	5411.336667	877.383789	413.618622
-14765.403191	5411.336667	876.209961	234.090668
-14765.403191	5411.336667	875.035156	251.728043
-14765.403191	5411.336667	873.860352	269.378815
-14765.403191	5411.336667	872.685547	55.446312
-14765.403191	5411.336667	871.510742	-107.809708
-14765.403191	5411.336667	870.334961	13.744272
-14765.403191	5411.336667	869.159180	-69.581886
-14765.403191	5411.336667	867.983398	-123.593864
-14765.403191	5411.336667	866.807617	19.225893
-14765.403191	5411.336667	865.630859	-56.010551
-14765.403191	5411.336667	864.454102	17.665751
-14765.403191	5411.336667	863.277344	-102.677864
-14765.403191	5411.336667	862.100586	125.132385
-14765.403191	5411.336667	860.922852	-96.091209
-14765.403191	5411.336667	859.745117	-19.727446
-14765.403191	5411.336667	858.567383	-49.594761
-14765.403191	5411.336667	857.389648	-92.703003
-14765.403191	5411.336667	856.210938	26.145914
-14765.403191	5411.336667	855.032227	41.466637
-14765.403191	5411.336667	853.853516	-216.491425
-14765.403191	5411.336667	852.674805	69.495750
-14765.403191	5411.336667	851.495117	-50.404499
-14765.403191	5411.336667	850.315430	-32.348015
-14765.403191	5411.336667	849.135742	22.837917
-14765.403191	5411.336667	847.956055	-33.304852
-14765.403191	5411.336667	846.775391	-113.254921
-14765.403191	5411.336667	845.595703	18.807753
-14765.403191	5411.336667	844.415039	-71.676422
-14765.403191	5411.336667	843.233398	-69.408737
-14765.403191	5411.336667	842.052734	-125.377380
-14765.403191	5411.336667	840.871094	157.554916
-14765.403191	5411.336667	839.689453	138.656876
-14765.403191	5411.336667	838.506836	421.457306
-14765.403191	5411.336667	837.325195	627.433167
-14765.403191	5411.336667	836.142578	611.150085
-14765.403191	5411.336667	834.959961	449.439636
-14765.403191	5411.336667	833.777344	393.575043
-14765.403191	5411.336667	832.593750	313.960632
-14765.403191	5411.336667	831.410156	131.320541
-14765.403191	5411.336667	830.226563	117.886925
-14765.403191	5411.336667	829.042969	-48.752586
-14765.403191	5411.336667	827.858398	207.308289
-14765.403191	5411.336667	826.673828	77.724266
-14765.403191	5411.336667	825.489258	-99.315475
-14765.403191	5411.336667	824.304688	14.100876
-14765.403191	5411.336667	823.120117	90.538445
-14765.403191	5411.336667	821.934570	-118.010521
-14765.403191	5411.336667	820.749023	156.308792
-14765.403191	5411.336667	819.562500	79.739616
-14765.403191	5411.336667	818.376953	-75.894936
-14765.403191	5411.336667	817.190430	-102.264328
-14765.403191	5411.336667	816.003906	-46.896648
-14765.403191	5411.336667	814.817383	-31.068609
-14765.403191	5411.336667	813.629883	37.462055
-14765.403191	5411.336667	812.442383	213.982635
-14765.403191	5411.336667	811.254883	169.210541
-14765.403191	5411.336667	810.067383	229.794785
-14765.403191	5411.336667	808.878906	256.142700
-14765.403191	5411.336667	807.690430	421.990723
-14765.403191	5411.336667	806.501953	193.049362
-14765.403191	5411.336667	805.313477	172.062378
-14765.403191	5411.336667	804.124023	164.246643
-14765.403191	5411.336667	802.934570	393.136383
-14765.403191	5411.336667	801.745117	238.052475
-14765.403191	5411.336667	800.555664	193.451477
-14765.403191	5411.336667	799.365234	335.485840
-14765.403191	5411.336667	798.175781	325.059326
-14765.403191	5411.336667	796.985352	225.320938
-14765.403191	5411.336667	795.793945	109.871834
-14765.403191	5411.336667	794.603516	162.546341
-14765.403191	5411.336667	793.412109	149.566772
-14765.403191	5411.336667	792.220703	65.722130
-14765.403191	5411.336667	791.028320	63.277126
-14765.403191	5411.336667	789.836914	79.203743
-14765.403191	5411.336667	788.644531	289.258484
-14765.403191	5411.336667	787.452148	320.876740
-14765.403191	5411.336667	786.258789	273.817444
-14765.403191	5411.336667	785.066406	266.104187
-14765.403191	5411.336667	783.873047	140.442734
-14765.403191	5411.336667	782.679688	148.488190
-14765.403191	5411.336667	781.485352	507.628296
-14765.403191	5411.336667	780.291992	518.213806
-14765.403191	5411.336667	779.097656	300.940735
-14765.403191	5411.336667	777.903320	468.674042
-14765.403191	5411.336667	776.708008	534.237976
-14765.403191	5411.336667	775.512695	591.919495
-14765.403191	5411.336667	774.318359	565.832581
-14765.403191	5411.336667	773.122070	466.499939
-14765.403191	5411.336667	771.926758	573.847900
-14765.403191	5411.336667	770.730469	469.315460
-14765.403191	5411.336667	769.534180	299.453217
-14765.403191	5411.336667	768.337891	445.966583
-14765.403191	5411.336667	767.141602	558.435059
-14765.403191	5411.336667	765.944336	516.681702
-14765.403191	5411.336667	764.747070	848.525757
-14765.403191	5411.336667	763.549805	947.758423
-14765.403191	5411.336667	762.351563	1073.055542
-14765.403191	5411.336667	761.154297	879.762878
-14765.403191	5411.336667	759.956055	1007.611389
-14765.403191	5411.336667	758.757813	1182.372314
-14765.403191	5411.336667	757.558594	1158.746582
-14765.403191	5411.336667	756.359375	1043.814209
-14765.403191	5411.336667	755.160156	1200.164307
-14765.403191	5411.336667	753.960938	1301.674927
-14765.403191	5411.336667	752.761719	1327.524414
-14765.403191	5411.336667	751.561523	1238.660400
-14765.403191	5411.336667	750.361328	1386.962891
-14765.403191	5411.336667	749.160156	1287.669678
-14765.403191	5411.336667	747.959961	1303.015625
-14765.403191	5411.336667	746.758789	1412.093628
-14765.403191	5411.336667	745.557617	1213.858521
-14765.403191	5411.336667	744.356445	1291.631958
-14765.403191	5411.336667	743.154297	1374.559082
-14765.403191	5411.336667	741.952148	1366.354370
-14765.403191	5411.336667	740.750000	1693.742065
-14765.403191	5411.336667	739.547852	1750.455566
-14765.403191	5411.336667	738.344727	1825.327393
-14765.403191	5411.336667	737.142578	2128.943359
-14765.403191	5411.336667	735.939453	1863.125366
-14765.403191	5411.336667	734.735352	1670.162720
-14765.403191	5411.336667	733.532227	1357.728027
-14765.403191	5411.336667	732.328125	1637.704590
-14765.403191	5411.336667	731.124023	1483.787964
-14765.403191	5411.336667	729.918945	1633.727417
-14765.403191	5411.336667	728.714844	1266.927124
-14765.403191	5411.336667	727.509766	1380.450195
-14765.403191	5411.336667	726.303711	1000.821045
-14765.403191	5411.336667	725.098633	776.992920
-14765.403191	5411.336667	723.892578	750.372375
-14765.403191	5411.336667	722.686523	516.250610
-14765.403191	5411.336667	721.480469	564.824036
-14765.403191	5411.336667	720.274414	333.361542
-14765.403191	5411.336667	719.067383	607.374817
-14765.403191	5411.336667	717.860352	476.990173
-14765.403191	5411.336667	716.653320	289.625732
-14765.403191	5411.336667	715.445313	309.520813
-14765.403191	5411.336667	714.238281	124.781441
-14765.403191	5411.336667	713.030273	134.266739
-14765.403191	5411.336667	711.821289	343.030487
-14765.403191	5411.336667	710.613281	34.051121
-14765.403191	5411.336667	709.404297	146.925751
-14765.403191	5411.336667	708.195313	73.447884
-14765.403191	5411.336667	706.986328	-41.426685
-14765.403191	5411.336667	705.776367	-70.962929
-14765.403191	5411.336667	704.566406	70.101036
-14765.403191	5411.336667	703.356445	97.327423
-14765.403191	5411.336667	702.146484	134.832657
-14765.403191	5411.336667	700.935547	159.355042
-14765.403191	5411.336667	699.724609	46.910519
-14765.403191	5411.336667	698.513672	-135.268768
-14765.403191	5411.336667	697.302734	44.072269
-14765.403191	5411.336667	696.090820	70.975029
-14765.403191	5411.336667	694.878906	-155.125458
-14765.403191	5411.336667	693.666992	-148.940887
-14765.403191	5411.336667	692.455078	-83.474457
-14765.403191	5411.336667	691.242188	-20.669306
-14765.403191	5411.336667	690.029297	-141.044327
-14765.403191	5411.336667	688.816406	-83.521179
-14765.403191	5411.336667	687.602539	-111.146149
-14765.403191	5411.336667	686.389648	-30.573048
-14765.403191	5411.336667	685.175781	-9.356670
-14765.403191	5411.336667	683.960938	42.705235
-14765.403191	5411.336667	682.747070	30.295576
-14765.403191	5411.336667	681.532227	28.130283
-14765.403191	5411.336667	680.317383	-10.138728
-14765.403191	5411.336667	679.102539	44.208527
-14765.403191	5411.336667	677.886719	75.308975
-14765.403191	5411.336667	676.670898	13.708257
-14765.403191	5411.336667	675.455078	8.660540
-14765.403191	5411.336667	674.239258	116.708099
-14765.403191	5411.336667	673.022461	-42.766228
-14765.403191	5411.336667	671.805664	103.674034
-14765.403191	5411.336667	670.588867	46.941292
-14765.403191	5411.336667	669.372070	77.531937
-14765.403191	5411.336667	668.154297	208.234375
-14765.403191	5411.336667	666.936523	38.290981
-14765.403191	5411.336667	665.718750	261.253845
-14765.403191	5411.336667	664.500977	106.634972
-14765.403191	5411.336667	663.282227	85.488228
-14765.403191	5411.336667	662.063477	267.021088
-14765.403191	5411.336667	660.844727	199.518021
-14765.403191	5411.336667	659.625000	52.443897
-14765.403191	5411.336667	658.405273	241.339355
-14765.403191	5411.336667	657.185547	240.328781
-14765.403191	5411.336667	655.965820	121.313927
-14765.403191	5411.336667	654.745117	355.982056
-14765.403191	5411.336667	653.525391	162.524170
-14765.403191	5411.336667	652.303711	258.577301
-14765.403191	5411.336667	651.083008	305.844116
-14765.403191	5411.336667	649.861328	255.693573
-14765.403191	5411.336667	648.640625	313.024261
-14765.403191	5411.336667	647.417969	293.449066
-14765.403191	5411.336667	646.196289	138.158707
-14765.403191	5411.336667	644.973633	210.583206
-14765.403191	5411.336667	643.750977	190.798264
-14765.403191	5411.336667	642.528320	332.073883
-14765.403191	5411.336667	641.305664	179.131195
-14765.403191	5411.336667	640.082031	225.585571
-14765.403191	5411.336667	638.858398	274.490479
-14765.403191	5411.336667	637.634766	422.956818
-14765.403191	5411.336667	636.410156	297.885803
-14765.403191	5411.336667	635.185547	463.991394
-14765.403191	5411.336667	633.960938	331.130524
-14765.403191	5411.336667	632.736328	239.092834
-14765.403191	5411.336667	631.510742	95.946335
-14765.403191	5411.336667	630.285156	195.242172
-14765.403191	5411.336667	629.059570	355.648865
-14765.403191	5411.336667	627.833984	31.167027
-14765.403191	5411.336667	626.607422	-40.752731
-14765.403191	5411.336667	625.380859	-33.677624
-14765.403191	5411.336667	624.154297	57.441311
-14765.403191	5411.336667	622.927734	-75.886505
-14765.403191	5411.336667	621.700195	-5.370837
-14765.403191	5411.336667	620.472656	-80.211395
-14765.403191	5411.336667	619.245117	-35.382603
-14765.403191	5411.336667	618.016602	-44.153008
-14765.403191	5411.336667	616.788086	18.285261
-14765.403191	5411.336667	615.559570	70.420212
-14765.403191	5411.336667	614.331055	206.435181
-14765.403191	5411.336667	613.101563	125.991074
-14765.403191	5411.336667	611.872070	101.459564
-14765.403191	5411.336667	610.642578	-78.318260
-14765.403191	5411.336667	609.413086	11.455744
-14765.403191	5411.336667	608.182617	144.316742
-14765.403191	5411.336667	606.952148	193.138214
-14765.403191	5411.336667	605.721680	43.608467
-14765.403191	5411.336667	604.491211	-29.725775
-14765.403191	5411.336667	603.259766	1.028323
-14765.403191	5411.336667	602.028320	18.973591
-14765.403191	5411.336667	600.796875	120.612839
-14765.403191	5411.336667	599.564453	194.181503
-14765.403191	5411.336667	598.332031	29.026804
-14765.403191	5411.336667	597.099609	-4.193131
-14765.403191	5411.336667	595.867188	58.916161
-14765.403191	5411.336667	594.633789	28.041031
-14765.403191	5411.336667	593.400391	65.556404
-14765.403191	5411.336667	592.166992	-66.922516
-14765.403191	5411.336667	590.933594	104.758553
-14765.403191	5411.336667	589.699219	197.694901
-14765.403191	5411.336667	588.464844	-33.849541
-14765.403191	5411.336667	587.230469	-6.986073
-14765.403191	5411.336667	585.995117	78.018105
-14765.403191	5411.336667	584.760742	-75.143394
-14765.403191	5411.336667	583.525391	-256.192078
-14765.403191	5411.336667	582.289063	13.292356
-14765.403191	5411.336667	581.053711	-33.767033
-14765.403191	5411.336667	579.817383	-116.331390
-14765.403191	5411.336667	578.581055	-6.708351
-14765.403191	5411.336667	577.343750	-26.217306
-14765.403191	5411.336667	576.107422	-121.666443
-14765.403191	5411.336667	574.870117	-146.393936
-14765.403191	5411.336667	573.631836	-9.457476
-14765.403191	5411.336667	572.394531	86.897736
-14765.403191	5411.336667	571.156250	-13.948135
-14765.403191	5411.336667	569.917969	-89.590210
-14765.403191	5411.336667	568.679688	-6.203099
-14765.403191	5411.336667	567.440430	66.946045
-14765.403191	5411.336667	566.202148	-77.108887
-14765.403191	5411.336667	564.961914	21.060499
-14765.403191	5411.336667	563.722656	-17.150482
-14765.403191	5411.336667	562.482422	40.409851
-14765.403191	5411.336667	561.243164	229.003555
-14765.403191	5411.336667	560.001953	46.742752
-14765.403191	5411.336667	558.761719	38.419178
-14765.403191	5411.336667	557.520508	211.469131
-14765.403191	5411.336667	556.279297	76.920456
-14765.403191	5411.336667	555.038086	-128.207993
-14765.403191	5411.336667	553.795898	208.197784
-14765.403191	5411.336667	552.554688	123.817894
-14765.403191	5411.336667	551.311523	29.293276
-14765.403191	5411.336667	550.069336	42.962147
-14765.403191	5411.336667	548.826172	-16.458897
-14765.403191	5411.336667	547.583984	-18.070408
-14765.403191	5411.336667	546.339844	105.990402
-14765.403191	5411.336667	545.096680	229.913193
-14765.403191	5411.336667	543.852539	-73.787148
-14765.403191	5411.336667	542.608398	-105.939346
-14765.403191	5411.336667	541.364258	-143.197342
-14765.403191	5411.336667	540.119141	-235.822845
-14765.403191	5411.336667	538.875000	-14.446688
-14765.403191	5411.336667	537.628906	-117.299286
-14765.403191	5411.336667	536.383789	-72.024483
-14765.403191	5411.336667	535.137695	-29.378836
-14765.403191	5411.336667	533.892578	-157.528748
-14765.403191	5411.336667	532.645508	0.372661
-14765.403191	5411.336667	531.399414	-27.551031
-14765.403191	5411.336667	530.152344	-7.897748
-14765.403191	5411.336667	528.905273	71.851212
-14765.403191	5411.336667	527.658203	-101.784264
-14765.403191	5411.336667	526.410156	-137.557846
-14765.403191	5411.336667	525.163086	47.172581
-14765.403191	5411.336667	523.914063	93.891182
-14765.403191	5411.336667	522.666016	-74.950966
-14765.403191	5411.336667	521.416992	-93.526947
-14765.403191	5411.336667	520.167969	-24.532484
-14765.403191	5411.336667	518.918945	-78.339333
-14765.403191	5411.336667	517.669922	-14.559510
-14765.403191	5411.336667	516.419922	1.546883
-14765.403191	5411.336667	515.169922	77.611488
-14765.403191	5411.336667	513.919922	28.475380
-14765.403191	5411.336667	512.668945	-3.227238
-14765.403191	5411.336667	511.417969	0.004560
-14765.403191	5411.336667	510.166992	85.649513
-14765.403191	5411.336667	508.916016	-71.276558
-14765.403191	5411.336667	507.664063	-50.806759
-14765.403191	5411.336667	506.412109	4.546346
-14765.403191	5411.336667	505.160156	-27.635065
-14765.403191	5411.336667	503.907227	39.994556
-14765.403191	5411.336667	502.655273	157.454361
-14765.403191	5411.336667	501.402344	90.047523
-14765.403191	5411.336667	500.148438	227.221161
-14765.403191	5411.336667	498.895508	102.268181
-14765.403191	5411.336667	497.641602	42.133873
-14765.403191	5411.336667	496.387695	129.090149
-14765.403191	5411.336667	495.132813	258.303223
-14765.403191	5411.336667	493.878906	302.623047
-14765.403191	5411.336667	492.624023	329.378998
-14765.403191	5411.336667	491.368164	333.600037
-14765.403191	5411.336667	490.113281	295.388336
-14765.403191	5411.336667	488.857422	329.330658
-14765.403191	5411.336667	487.601563	343.248871
-14765.403191	5411.336667	486.344727	474.081970
-14765.403191	5411.336667	485.088867	462.894379
-14765.403191	5411.336667	483.832031	332.152985
-14765.403191	5411.336667	482.575195	397.945435
-14765.403191	5411.336667	481.317383	485.997406
-14765.403191	5411.336667	480.059570	282.928741
-14765.403191	5411.336667	478.801758	423.004456
-14765.403191	5411.336667	477.543945	376.474884
-14765.403191	5411.336667	476.285156	518.760559
-14765.403191	5411.336667	475.027344	464.589508
-14765.403191	5411.336667	473.767578	236.413773
-14765.403191	5411.336667	472.508789	298.869476
-14765.403191	5411.336667	471.249023	294.139526
-14765.403191	5411.336667	469.989258	306.694427
-14765.403191	5411.336667	468.729492	502.834900
-14765.403191	5411.336667	467.469727	539.958191
-14765.403191	5411.336667	466.208984	631.539368
-14765.403191	5411.336667	464.948242	504.678925
-14765.403191	5411.336667	463.686523	419.919891
-14765.403191	5411.336667	462.425781	513.635681
-14765.403191	5411.336667	461.164063	354.326752
-14765.403191	5411.336667	459.901367	579.138733
-14765.403191	5411.336667	458.639648	761.629761
-14765.403191	5411.336667	457.376953	636.710693
-14765.403191	5411.336667	456.114258	643.009277
-14765.403191	5411.336667	454.851563	418.883820
-14765.403191	5411.336667	453.587891	667.613464
-14765.403191	5411.336667	452.324219	648.778992
-14765.403191	5411.336667	451.060547	605.082214
-14765.403191	5411.336667	449.796875	637.980774
-14765.403191	5411.336667	448.532227	623.722595
-14765.403191	5411.336667	447.267578	532.670715
-14765.403191	5411.336667	446.002930	839.622192
-14765.403191	5411.336667	444.737305	829.859619
-14765.403191	5411.336667	443.471680	879.279968
-14765.403191	5411.336667	442.206055	1024.905518
-14765.403191	5411.336667	440.940430	997.387573
-14765.403191	5411.336667	439.673828	1001.826965
-14765.403191	5411.336667	438.407227	1220.952637
-14765.403191	5411.336667	437.140625	1217.625366
-14765.403191	5411.336667	435.873047	1068.490234
-14765.403191	5411.336667	434.605469	1005.628601
-14765.403191	5411.336667	433.337891	893.279602
-14765.403191	5411.336667	432.070313	778.339600
-14765.403191	5411.336667	430.801758	848.223999
-14765.403191	5411.336667	429.533203	821.733765
-14765.403191	5411.336667	428.264648	765.486450
-14765.403191	5411.336667	426.996094	701.676453
-14765.403191	5411.336667	425.726563	622.897644
-14765.403191	5411.336667	424.457031	758.281067
-14765.403191	5411.336667	423.186523	590.428833
-14765.403191	5411.336667	421.916992	488.938721
-14765.403191	5411.336667	420.646484	786.094971
-14765.403191	5411.336667	419.375977	689.068420
-14765.403191	5411.336667	418.104492	744.411926
-14765.403191	5411.336667	416.833008	548.534546
-14765.403191	5411.336667	415.561523	527.145569
-14765.403191	5411.336667	414.290039	451.409241
-14765.403191	5411.336667	413.017578	495.909058
-14765.403191	5411.336667	411.746094	633.552551
-14765.403191	5411.336667	410.472656	335.815887
-14765.403191	5411.336667	409.200195	526.919922
-14765.403191	5411.336667	407.926758	673.413574
-14765.403191	5411.336667	406.653320	387.272064
-14765.403191	5411.336667	405.379883	339.137390
-14765.403191	5411.336667	404.105469	462.542114
-14765.403191	5411.336667	402.831055	340.118561
-14765.403191	5411.336667	401.556641	460.357605
-14765.403191	5411.336667	400.282227	484.515625
-14765.403191	5411.336667	399.006836	412.627869
-14765.403191	5411.336667	397.731445	391.907654
-14765.403191	5411.336667	396.456055	277.652405
-14765.403191	5411.336667	395.179688	288.057861
-14765.403191	5411.336667	393.903320	249.047195
-14765.403191	5411.336667	392.626953	197.395477
-14765.403191	5411.336667	391.350586	13.062066
-14765.403191	5411.336667	390.073242	97.766632
-14765.403191	5411.336667	388.795898	365.638306
-14765.403191	5411.336667	387.518555	390.574951
-14765.403191	5411.336667	386.240234	113.957283
-14765.403191	5411.336667	384.961914	358.197632
-14765.403191	5411.336667	383.683594	335.166473
-14765.403191	5411.336667	382.405273	282.282745
-14765.403191	5411.336667	381.125977	123.719231
-14765.403191	5411.336667	379.846680	177.393112
-14765.403191	5411.336667	378.567383	125.379478
-14765.403191	5411.336667	377.287109	21.472733
-14765.403191	5411.336667	376.006836	325.058868
-14765.403191	5411.336667	374.726563	-2.329210
-14765.403191	5411.336667	373.446289	-15.143368
-14765.403191	5411.336667	372.165039	100.796028
-14765.403191	5411.336667	370.883789	20.733500
-14765.403191	5411.336667	369.602539	118.202248
-14765.403191	5411.336667	368.320313	29.459188
-14765.403191	5411.336667	367.039063	113.284172
-14765.403191	5411.336667	365.755859	-1.279346
-14765.403191	5411.336667	364.473633	132.216217
-14765.403191	5411.336667	363.190430	-13.079852
-14765.403191	5411.336667	361.907227	194.330322
-14765.403191	5411.336667	360.624023	208.318512
-14765.403191	5411.336667	359.340820	119.135910
-14765.403191	5411.336667	358.056641	192.307327
-14765.403191	5411.336667	356.772461	-15.499090
-14765.403191	5411.336667	355.487305	250.636520
-14765.403191	5411.336667	354.202148	75.120773
-14765.403191	5411.336667	352.916992	239.454193
-14765.403191	5411.336667	351.631836	178.881882
-14765.403191	5411.336667	350.346680	307.082947
-14765.403191	5411.336667	349.060547	-49.841640
-14765.403191	5411.336667	347.774414	154.040863
-14765.403191	5411.336667	346.487305	123.322746
-14765.403191	5411.336667	345.200195	-22.732851
-14765.403191	5411.336667	343.913086	160.619553
-14765.403191	5411.336667	342.625977	9.875810
-14765.403191	5411.336667	341.338867	-10.837979
-14765.403191	5411.336667	340.050781	54.605972
-14765.403191	5411.336667	338.762695	-99.756660
-14765.403191	5411.336667	337.473633	-68.484955
-14765.403191	5411.336667	336.184570	-169.607224
-14765.403191	5411.336667	334.895508	-92.501701
-14765.403191	5411.336667	333.606445	-329.755310
-14765.403191	5411.336667	332.317383	-143.913696
-14765.403191	5411.336667	331.027344	-318.534851
-14765.403191	5411.336667	329.736328	-143.126236
-14765.403191	5411.336667	328.446289	-58.961174
-14765.403191	5411.336667	327.155273	-126.703987
-14765.403191	5411.336667	325.864258	92.256226
-14765.403191	5411.336667	324.573242	23.652508
-14765.403191	5411.336667	323.281250	74.399368
-14765.403191	5411.336667	321.989258	321.906738
-14765.403191	5411.336667	320.697266	-105.381950
-14765.403191	5411.336667	319.405273	390.124451
-14765.403191	5411.336667	318.112305	532.657959
-14765.403191	5411.336667	316.819336	228.129181
-14765.403191	5411.336667	315.526367	415.124756
-14765.403191	5411.336667	314.232422	413.784607
-14765.403191	5411.336667	312.938477	627.947693
-14765.403191	5411.336667	311.644531	337.213531
-14765.403191	5411.336667	310.349609	310.168610
-14765.403191	5411.336667	309.054688	563.571533
-14765.403191	5411.336667	307.759766	314.650787
-14765.403191	5411.336667	306.464844	541.638611
-14765.403191	5411.336667	305.168945	498.109924
-14765.403191	5411.336667	303.873047	688.716553
-14765.403191	5411.336667	302.577148	734.388916
-14765.403191	5411.336667	301.281250	823.347534
-14765.403191	5411.336667	299.984375	468.182892
