#X		#Y		#Wave		#Intensity
10533.394149	5264.418333	1999.946289	115.037086
10533.394149	5264.418333	1998.981445	111.762497
10533.394149	5264.418333	1998.017578	82.508957
10533.394149	5264.418333	1997.052734	48.362106
10533.394149	5264.418333	1996.088867	-121.991302
10533.394149	5264.418333	1995.124023	-79.194794
10533.394149	5264.418333	1994.159180	-41.320549
10533.394149	5264.418333	1993.193359	-55.417439
10533.394149	5264.418333	1992.228516	-7.570407
10533.394149	5264.418333	1991.262695	-33.960983
10533.394149	5264.418333	1990.296875	-35.553452
10533.394149	5264.418333	1989.331055	84.140106
10533.394149	5264.418333	1988.365234	20.750250
10533.394149	5264.418333	1987.398438	-57.423740
10533.394149	5264.418333	1986.432617	-26.720917
10533.394149	5264.418333	1985.465820	46.034832
10533.394149	5264.418333	1984.499023	-66.617332
10533.394149	5264.418333	1983.532227	-3.710723
10533.394149	5264.418333	1982.565430	-17.409460
10533.394149	5264.418333	1981.597656	102.342995
10533.394149	5264.418333	1980.629883	41.741608
10533.394149	5264.418333	1979.662109	-38.573933
10533.394149	5264.418333	1978.694336	36.732399
10533.394149	5264.418333	1977.726563	-18.823648
10533.394149	5264.418333	1976.758789	167.569122
10533.394149	5264.418333	1975.790039	87.363579
10533.394149	5264.418333	1974.821289	66.424690
10533.394149	5264.418333	1973.852539	-8.768278
10533.394149	5264.418333	1972.883789	39.411430
10533.394149	5264.418333	1971.915039	-72.716515
10533.394149	5264.418333	1970.945313	64.246292
10533.394149	5264.418333	1969.975586	-37.963013
10533.394149	5264.418333	1969.005859	52.129612
10533.394149	5264.418333	1968.036133	75.658409
10533.394149	5264.418333	1967.066406	-46.183754
10533.394149	5264.418333	1966.096680	29.099239
10533.394149	5264.418333	1965.125977	74.803978
10533.394149	5264.418333	1964.155273	9.681860
10533.394149	5264.418333	1963.184570	8.601160
10533.394149	5264.418333	1962.213867	-61.402344
10533.394149	5264.418333	1961.242188	55.669224
10533.394149	5264.418333	1960.271484	79.191223
10533.394149	5264.418333	1959.299805	-8.005741
10533.394149	5264.418333	1958.328125	118.829384
10533.394149	5264.418333	1957.356445	-51.961826
10533.394149	5264.418333	1956.384766	249.409470
10533.394149	5264.418333	1955.412109	24.567295
10533.394149	5264.418333	1954.439453	114.422440
10533.394149	5264.418333	1953.467773	-70.998993
10533.394149	5264.418333	1952.495117	139.226028
10533.394149	5264.418333	1951.521484	238.821503
10533.394149	5264.418333	1950.548828	70.656731
10533.394149	5264.418333	1949.575195	-38.515644
10533.394149	5264.418333	1948.601563	-110.826637
10533.394149	5264.418333	1947.627930	-16.195206
10533.394149	5264.418333	1946.654297	66.121338
10533.394149	5264.418333	1945.680664	118.952599
10533.394149	5264.418333	1944.706055	-117.742783
10533.394149	5264.418333	1943.732422	55.277756
10533.394149	5264.418333	1942.757813	130.125778
10533.394149	5264.418333	1941.783203	43.103069
10533.394149	5264.418333	1940.807617	-63.509953
10533.394149	5264.418333	1939.833008	-15.675151
10533.394149	5264.418333	1938.857422	22.327417
10533.394149	5264.418333	1937.881836	106.858231
10533.394149	5264.418333	1936.906250	-9.532243
10533.394149	5264.418333	1935.930664	-59.761284
10533.394149	5264.418333	1934.955078	107.960381
10533.394149	5264.418333	1933.978516	-3.505736
10533.394149	5264.418333	1933.001953	169.012497
10533.394149	5264.418333	1932.025391	52.654968
10533.394149	5264.418333	1931.048828	163.897049
10533.394149	5264.418333	1930.072266	123.399185
10533.394149	5264.418333	1929.094727	107.362717
10533.394149	5264.418333	1928.118164	59.525452
10533.394149	5264.418333	1927.140625	-139.908905
10533.394149	5264.418333	1926.163086	-4.357877
10533.394149	5264.418333	1925.184570	43.134262
10533.394149	5264.418333	1924.207031	132.138489
10533.394149	5264.418333	1923.228516	-116.086388
10533.394149	5264.418333	1922.250000	173.200394
10533.394149	5264.418333	1921.271484	-116.491493
10533.394149	5264.418333	1920.292969	23.697218
10533.394149	5264.418333	1919.314453	-51.035809
10533.394149	5264.418333	1918.334961	228.197266
10533.394149	5264.418333	1917.355469	-44.266479
10533.394149	5264.418333	1916.375977	44.498188
10533.394149	5264.418333	1915.396484	-40.004879
10533.394149	5264.418333	1914.416992	7.227208
10533.394149	5264.418333	1913.436523	93.446014
10533.394149	5264.418333	1912.457031	11.372404
10533.394149	5264.418333	1911.476563	14.638460
10533.394149	5264.418333	1910.496094	59.324104
10533.394149	5264.418333	1909.515625	-64.174194
10533.394149	5264.418333	1908.534180	9.714935
10533.394149	5264.418333	1907.552734	-157.609207
10533.394149	5264.418333	1906.572266	-5.822890
10533.394149	5264.418333	1905.590820	184.852783
10533.394149	5264.418333	1904.608398	73.539368
10533.394149	5264.418333	1903.626953	91.266174
10533.394149	5264.418333	1902.644531	-29.755339
10533.394149	5264.418333	1901.663086	-87.480675
10533.394149	5264.418333	1900.680664	-21.124691
10533.394149	5264.418333	1899.698242	-64.267883
10533.394149	5264.418333	1898.714844	-56.339962
10533.394149	5264.418333	1897.732422	75.576752
10533.394149	5264.418333	1896.749023	139.358124
10533.394149	5264.418333	1895.765625	23.235756
10533.394149	5264.418333	1894.782227	89.402084
10533.394149	5264.418333	1893.798828	-4.831277
10533.394149	5264.418333	1892.814453	32.133221
10533.394149	5264.418333	1891.831055	-6.223535
10533.394149	5264.418333	1890.846680	232.247589
10533.394149	5264.418333	1889.862305	-34.382832
10533.394149	5264.418333	1888.877930	-135.864700
10533.394149	5264.418333	1887.892578	68.473198
10533.394149	5264.418333	1886.908203	110.144142
10533.394149	5264.418333	1885.922852	71.723900
10533.394149	5264.418333	1884.937500	-51.592361
10533.394149	5264.418333	1883.952148	-41.494484
10533.394149	5264.418333	1882.965820	21.926985
10533.394149	5264.418333	1881.980469	80.463303
10533.394149	5264.418333	1880.994141	61.400547
10533.394149	5264.418333	1880.007813	-35.215446
10533.394149	5264.418333	1879.021484	-3.397259
10533.394149	5264.418333	1878.035156	79.265862
10533.394149	5264.418333	1877.047852	-58.516411
10533.394149	5264.418333	1876.061523	55.577625
10533.394149	5264.418333	1875.074219	9.824127
10533.394149	5264.418333	1874.086914	46.374977
10533.394149	5264.418333	1873.098633	-21.169573
10533.394149	5264.418333	1872.111328	17.765697
10533.394149	5264.418333	1871.123047	73.606750
10533.394149	5264.418333	1870.135742	-37.482758
10533.394149	5264.418333	1869.147461	32.831287
10533.394149	5264.418333	1868.158203	-29.879257
10533.394149	5264.418333	1867.169922	-3.132793
10533.394149	5264.418333	1866.180664	-36.835026
10533.394149	5264.418333	1865.192383	-99.534576
10533.394149	5264.418333	1864.203125	76.966316
10533.394149	5264.418333	1863.213867	84.295738
10533.394149	5264.418333	1862.223633	-55.716682
10533.394149	5264.418333	1861.234375	24.051407
10533.394149	5264.418333	1860.244141	-74.879074
10533.394149	5264.418333	1859.253906	-55.508415
10533.394149	5264.418333	1858.263672	-48.223698
10533.394149	5264.418333	1857.273438	4.891690
10533.394149	5264.418333	1856.282227	72.448540
10533.394149	5264.418333	1855.291992	31.430191
10533.394149	5264.418333	1854.300781	28.999014
10533.394149	5264.418333	1853.309570	113.355965
10533.394149	5264.418333	1852.317383	28.924292
10533.394149	5264.418333	1851.326172	9.589258
10533.394149	5264.418333	1850.333984	45.672825
10533.394149	5264.418333	1849.342773	-0.182376
10533.394149	5264.418333	1848.350586	21.414415
10533.394149	5264.418333	1847.357422	108.016983
10533.394149	5264.418333	1846.365234	64.549751
10533.394149	5264.418333	1845.372070	83.680763
10533.394149	5264.418333	1844.379883	-84.951157
10533.394149	5264.418333	1843.386719	-17.689255
10533.394149	5264.418333	1842.393555	-39.489208
10533.394149	5264.418333	1841.399414	198.518402
10533.394149	5264.418333	1840.406250	217.553497
10533.394149	5264.418333	1839.412109	130.761551
10533.394149	5264.418333	1838.417969	111.312401
10533.394149	5264.418333	1837.423828	-54.773857
10533.394149	5264.418333	1836.429688	72.405701
10533.394149	5264.418333	1835.434570	76.976273
10533.394149	5264.418333	1834.440430	69.524605
10533.394149	5264.418333	1833.445313	-74.851822
10533.394149	5264.418333	1832.450195	-48.670616
10533.394149	5264.418333	1831.454102	-137.765121
10533.394149	5264.418333	1830.458984	-25.176956
10533.394149	5264.418333	1829.462891	39.352921
10533.394149	5264.418333	1828.466797	161.443619
10533.394149	5264.418333	1827.470703	110.728531
10533.394149	5264.418333	1826.474609	45.629574
10533.394149	5264.418333	1825.478516	-36.242825
10533.394149	5264.418333	1824.481445	30.578222
10533.394149	5264.418333	1823.484375	18.247517
10533.394149	5264.418333	1822.487305	49.059547
10533.394149	5264.418333	1821.490234	173.318085
10533.394149	5264.418333	1820.493164	96.244370
10533.394149	5264.418333	1819.495117	-33.516521
10533.394149	5264.418333	1818.498047	49.941704
10533.394149	5264.418333	1817.500000	47.144962
10533.394149	5264.418333	1816.500977	27.578621
10533.394149	5264.418333	1815.502930	139.676376
10533.394149	5264.418333	1814.504883	-40.276112
10533.394149	5264.418333	1813.505859	52.629349
10533.394149	5264.418333	1812.506836	104.817642
10533.394149	5264.418333	1811.507813	32.589581
10533.394149	5264.418333	1810.508789	-42.011341
10533.394149	5264.418333	1809.508789	29.267267
10533.394149	5264.418333	1808.508789	243.954315
10533.394149	5264.418333	1807.508789	56.985371
10533.394149	5264.418333	1806.508789	54.094841
10533.394149	5264.418333	1805.508789	82.258820
10533.394149	5264.418333	1804.508789	-59.209675
10533.394149	5264.418333	1803.507813	54.931435
10533.394149	5264.418333	1802.506836	-74.556984
10533.394149	5264.418333	1801.505859	22.813866
10533.394149	5264.418333	1800.504883	-56.506790
10533.394149	5264.418333	1799.502930	105.245064
10533.394149	5264.418333	1798.501953	9.218186
10533.394149	5264.418333	1797.500000	-77.239105
10533.394149	5264.418333	1796.498047	-44.406914
10533.394149	5264.418333	1795.496094	160.114166
10533.394149	5264.418333	1794.493164	95.109612
10533.394149	5264.418333	1793.491211	-93.842575
10533.394149	5264.418333	1792.488281	15.204476
10533.394149	5264.418333	1791.485352	-233.255875
10533.394149	5264.418333	1790.482422	-9.875969
10533.394149	5264.418333	1789.478516	56.187702
10533.394149	5264.418333	1788.475586	-61.171352
10533.394149	5264.418333	1787.471680	23.909683
10533.394149	5264.418333	1786.467773	-38.659313
10533.394149	5264.418333	1785.463867	86.834053
10533.394149	5264.418333	1784.459961	-16.198116
10533.394149	5264.418333	1783.455078	-50.198009
10533.394149	5264.418333	1782.450195	46.650536
10533.394149	5264.418333	1781.445313	60.204918
10533.394149	5264.418333	1780.440430	45.208778
10533.394149	5264.418333	1779.435547	53.985821
10533.394149	5264.418333	1778.429688	10.451248
10533.394149	5264.418333	1777.424805	-21.190744
10533.394149	5264.418333	1776.418945	70.735954
10533.394149	5264.418333	1775.413086	103.223328
10533.394149	5264.418333	1774.406250	66.801277
10533.394149	5264.418333	1773.400391	177.631577
10533.394149	5264.418333	1772.393555	141.191559
10533.394149	5264.418333	1771.386719	45.405327
10533.394149	5264.418333	1770.379883	25.601486
10533.394149	5264.418333	1769.373047	-15.562286
10533.394149	5264.418333	1768.365234	71.403336
10533.394149	5264.418333	1767.358398	18.367241
10533.394149	5264.418333	1766.350586	48.352058
10533.394149	5264.418333	1765.342773	0.063208
10533.394149	5264.418333	1764.334961	-83.780106
10533.394149	5264.418333	1763.326172	-39.599731
10533.394149	5264.418333	1762.318359	32.995750
10533.394149	5264.418333	1761.309570	79.488358
10533.394149	5264.418333	1760.300781	61.988342
10533.394149	5264.418333	1759.291016	75.275475
10533.394149	5264.418333	1758.282227	-18.017067
10533.394149	5264.418333	1757.272461	37.880272
10533.394149	5264.418333	1756.262695	-86.165405
10533.394149	5264.418333	1755.252930	-23.195150
10533.394149	5264.418333	1754.243164	-177.964386
10533.394149	5264.418333	1753.233398	-81.897476
10533.394149	5264.418333	1752.222656	16.486473
10533.394149	5264.418333	1751.211914	1.302653
10533.394149	5264.418333	1750.201172	-153.394791
10533.394149	5264.418333	1749.190430	-26.713797
10533.394149	5264.418333	1748.179688	80.999374
10533.394149	5264.418333	1747.167969	148.484848
10533.394149	5264.418333	1746.156250	-13.253453
10533.394149	5264.418333	1745.144531	-115.882103
10533.394149	5264.418333	1744.132813	121.625229
10533.394149	5264.418333	1743.121094	-25.877506
10533.394149	5264.418333	1742.108398	62.758945
10533.394149	5264.418333	1741.095703	75.815392
10533.394149	5264.418333	1740.083008	34.574497
10533.394149	5264.418333	1739.070313	28.732992
10533.394149	5264.418333	1738.057617	-3.067576
10533.394149	5264.418333	1737.043945	134.958237
10533.394149	5264.418333	1736.030273	103.125946
10533.394149	5264.418333	1735.016602	-103.182663
10533.394149	5264.418333	1734.002930	-2.967145
10533.394149	5264.418333	1732.989258	240.970688
10533.394149	5264.418333	1731.974609	-54.825951
10533.394149	5264.418333	1730.959961	-119.632813
10533.394149	5264.418333	1729.945313	29.930433
10533.394149	5264.418333	1728.930664	23.987759
10533.394149	5264.418333	1727.916016	-26.702093
10533.394149	5264.418333	1726.900391	-37.364517
10533.394149	5264.418333	1725.885742	-161.012253
10533.394149	5264.418333	1724.870117	-94.008644
10533.394149	5264.418333	1723.853516	52.952873
10533.394149	5264.418333	1722.837891	101.048088
10533.394149	5264.418333	1721.822266	-48.450836
10533.394149	5264.418333	1720.805664	60.758961
10533.394149	5264.418333	1719.789063	19.447746
10533.394149	5264.418333	1718.772461	107.424072
10533.394149	5264.418333	1717.754883	-25.561457
10533.394149	5264.418333	1716.738281	27.120682
10533.394149	5264.418333	1715.720703	2.243204
10533.394149	5264.418333	1714.703125	-1.497301
10533.394149	5264.418333	1713.685547	41.718464
10533.394149	5264.418333	1712.667969	56.731281
10533.394149	5264.418333	1711.649414	125.715034
10533.394149	5264.418333	1710.630859	-16.569677
10533.394149	5264.418333	1709.612305	94.615875
10533.394149	5264.418333	1708.593750	-5.403136
10533.394149	5264.418333	1707.575195	-91.322060
10533.394149	5264.418333	1706.555664	-66.997337
10533.394149	5264.418333	1705.536133	-42.694679
10533.394149	5264.418333	1704.516602	-114.530327
10533.394149	5264.418333	1703.497070	33.972263
10533.394149	5264.418333	1702.477539	18.366770
10533.394149	5264.418333	1701.457031	44.925617
10533.394149	5264.418333	1700.437500	-26.921030
10533.394149	5264.418333	1699.416992	-7.414438
10533.394149	5264.418333	1698.395508	-30.079561
10533.394149	5264.418333	1697.375000	50.264812
10533.394149	5264.418333	1696.354492	15.871073
10533.394149	5264.418333	1695.333008	-13.843395
10533.394149	5264.418333	1694.311523	-109.074348
10533.394149	5264.418333	1693.290039	-49.883327
10533.394149	5264.418333	1692.267578	-58.558540
10533.394149	5264.418333	1691.246094	-71.917656
10533.394149	5264.418333	1690.223633	71.359886
10533.394149	5264.418333	1689.201172	-12.174050
10533.394149	5264.418333	1688.178711	28.178764
10533.394149	5264.418333	1687.155273	42.797562
10533.394149	5264.418333	1686.132813	-52.401821
10533.394149	5264.418333	1685.109375	4.244834
10533.394149	5264.418333	1684.085938	14.150773
10533.394149	5264.418333	1683.062500	-92.703041
10533.394149	5264.418333	1682.039063	206.659470
10533.394149	5264.418333	1681.014648	48.433880
10533.394149	5264.418333	1679.990234	27.934374
10533.394149	5264.418333	1678.965820	16.762033
10533.394149	5264.418333	1677.941406	119.879761
10533.394149	5264.418333	1676.916992	-21.933126
10533.394149	5264.418333	1675.891602	64.801613
10533.394149	5264.418333	1674.866211	149.159454
10533.394149	5264.418333	1673.840820	93.622353
10533.394149	5264.418333	1672.815430	-24.826277
10533.394149	5264.418333	1671.790039	203.916626
10533.394149	5264.418333	1670.763672	41.204739
10533.394149	5264.418333	1669.737305	-16.651037
10533.394149	5264.418333	1668.710938	-72.168739
10533.394149	5264.418333	1667.684570	81.853310
10533.394149	5264.418333	1666.658203	33.295536
10533.394149	5264.418333	1665.630859	-31.548971
10533.394149	5264.418333	1664.603516	-10.290642
10533.394149	5264.418333	1663.576172	110.978767
10533.394149	5264.418333	1662.548828	20.534191
10533.394149	5264.418333	1661.520508	9.174086
10533.394149	5264.418333	1660.493164	14.083417
10533.394149	5264.418333	1659.464844	195.639786
10533.394149	5264.418333	1658.436523	30.825609
10533.394149	5264.418333	1657.408203	142.575012
10533.394149	5264.418333	1656.378906	89.320198
10533.394149	5264.418333	1655.350586	354.291168
10533.394149	5264.418333	1654.321289	410.138855
10533.394149	5264.418333	1653.291992	82.850166
10533.394149	5264.418333	1652.261719	212.985657
10533.394149	5264.418333	1651.232422	122.573265
10533.394149	5264.418333	1650.202148	238.703827
10533.394149	5264.418333	1649.171875	303.737274
10533.394149	5264.418333	1648.141602	415.124908
10533.394149	5264.418333	1647.111328	329.331116
10533.394149	5264.418333	1646.080078	250.511658
10533.394149	5264.418333	1645.049805	236.625275
10533.394149	5264.418333	1644.018555	227.365219
10533.394149	5264.418333	1642.987305	377.993378
10533.394149	5264.418333	1641.955078	236.620575
10533.394149	5264.418333	1640.923828	167.104050
10533.394149	5264.418333	1639.891602	194.871872
10533.394149	5264.418333	1638.859375	384.705994
10533.394149	5264.418333	1637.827148	382.302277
10533.394149	5264.418333	1636.794922	261.841553
10533.394149	5264.418333	1635.761719	220.096130
10533.394149	5264.418333	1634.729492	280.164642
10533.394149	5264.418333	1633.696289	472.054169
10533.394149	5264.418333	1632.662109	423.318451
10533.394149	5264.418333	1631.628906	358.407745
10533.394149	5264.418333	1630.594727	390.610321
10533.394149	5264.418333	1629.561523	512.942810
10533.394149	5264.418333	1628.527344	417.974243
10533.394149	5264.418333	1627.493164	387.729828
10533.394149	5264.418333	1626.458008	375.965332
10533.394149	5264.418333	1625.423828	378.056854
10533.394149	5264.418333	1624.388672	442.484924
10533.394149	5264.418333	1623.353516	366.040497
10533.394149	5264.418333	1622.318359	393.492737
10533.394149	5264.418333	1621.282227	395.534821
10533.394149	5264.418333	1620.247070	446.026855
10533.394149	5264.418333	1619.210938	524.171021
10533.394149	5264.418333	1618.174805	498.480408
10533.394149	5264.418333	1617.137695	505.073059
10533.394149	5264.418333	1616.101563	520.880371
10533.394149	5264.418333	1615.064453	522.838379
10533.394149	5264.418333	1614.027344	584.711731
10533.394149	5264.418333	1612.990234	688.029846
10533.394149	5264.418333	1611.953125	540.177673
10533.394149	5264.418333	1610.916016	606.593323
10533.394149	5264.418333	1609.877930	640.730713
10533.394149	5264.418333	1608.839844	776.158203
10533.394149	5264.418333	1607.801758	941.452637
10533.394149	5264.418333	1606.763672	841.987183
10533.394149	5264.418333	1605.724609	813.886658
10533.394149	5264.418333	1604.685547	916.931885
10533.394149	5264.418333	1603.646484	886.513672
10533.394149	5264.418333	1602.607422	952.693115
10533.394149	5264.418333	1601.568359	1062.529663
10533.394149	5264.418333	1600.528320	859.656677
10533.394149	5264.418333	1599.489258	1015.425354
10533.394149	5264.418333	1598.449219	911.443909
10533.394149	5264.418333	1597.408203	853.446411
10533.394149	5264.418333	1596.368164	944.783508
10533.394149	5264.418333	1595.327148	962.582458
10533.394149	5264.418333	1594.287109	833.411621
10533.394149	5264.418333	1593.246094	812.185425
10533.394149	5264.418333	1592.204102	696.849915
10533.394149	5264.418333	1591.163086	808.753662
10533.394149	5264.418333	1590.121094	743.932739
10533.394149	5264.418333	1589.079102	764.010803
10533.394149	5264.418333	1588.037109	616.646667
10533.394149	5264.418333	1586.995117	806.424133
10533.394149	5264.418333	1585.953125	638.467834
10533.394149	5264.418333	1584.910156	640.194580
10533.394149	5264.418333	1583.867188	607.540527
10533.394149	5264.418333	1582.824219	405.338379
10533.394149	5264.418333	1581.781250	491.861847
10533.394149	5264.418333	1580.737305	569.183899
10533.394149	5264.418333	1579.693359	646.473206
10533.394149	5264.418333	1578.649414	513.093750
10533.394149	5264.418333	1577.605469	592.648193
10533.394149	5264.418333	1576.561523	717.942566
10533.394149	5264.418333	1575.516602	664.704529
10533.394149	5264.418333	1574.472656	593.187683
10533.394149	5264.418333	1573.427734	501.108246
10533.394149	5264.418333	1572.381836	543.984436
10533.394149	5264.418333	1571.336914	506.822205
10533.394149	5264.418333	1570.291016	371.375854
10533.394149	5264.418333	1569.246094	313.691864
10533.394149	5264.418333	1568.200195	443.401001
10533.394149	5264.418333	1567.153320	504.517578
10533.394149	5264.418333	1566.107422	556.477844
10533.394149	5264.418333	1565.060547	555.889954
10533.394149	5264.418333	1564.013672	436.574493
10533.394149	5264.418333	1562.966797	538.738220
10533.394149	5264.418333	1561.919922	533.592773
10533.394149	5264.418333	1560.872070	503.346466
10533.394149	5264.418333	1559.825195	516.464783
10533.394149	5264.418333	1558.777344	588.883179
10533.394149	5264.418333	1557.729492	604.261414
10533.394149	5264.418333	1556.680664	562.630188
10533.394149	5264.418333	1555.632813	514.182373
10533.394149	5264.418333	1554.583984	452.078094
10533.394149	5264.418333	1553.535156	337.589996
10533.394149	5264.418333	1552.486328	555.784729
10533.394149	5264.418333	1551.436523	557.496643
10533.394149	5264.418333	1550.387695	584.267212
10533.394149	5264.418333	1549.337891	647.459839
10533.394149	5264.418333	1548.288086	528.509583
10533.394149	5264.418333	1547.238281	612.182434
10533.394149	5264.418333	1546.187500	711.753662
10533.394149	5264.418333	1545.136719	718.008484
10533.394149	5264.418333	1544.086914	696.973022
10533.394149	5264.418333	1543.035156	616.813416
10533.394149	5264.418333	1541.984375	604.910339
10533.394149	5264.418333	1540.933594	765.795959
10533.394149	5264.418333	1539.881836	560.678223
10533.394149	5264.418333	1538.830078	607.895203
10533.394149	5264.418333	1537.778320	716.445068
10533.394149	5264.418333	1536.725586	650.044678
10533.394149	5264.418333	1535.673828	674.526917
10533.394149	5264.418333	1534.621094	610.447144
10533.394149	5264.418333	1533.568359	412.456238
10533.394149	5264.418333	1532.515625	627.656067
10533.394149	5264.418333	1531.461914	572.723511
10533.394149	5264.418333	1530.409180	461.102509
10533.394149	5264.418333	1529.355469	487.907257
10533.394149	5264.418333	1528.301758	623.576172
10533.394149	5264.418333	1527.247070	550.582520
10533.394149	5264.418333	1526.193359	590.987000
10533.394149	5264.418333	1525.138672	511.249451
10533.394149	5264.418333	1524.083984	576.592041
10533.394149	5264.418333	1523.029297	458.392456
10533.394149	5264.418333	1521.974609	390.088501
10533.394149	5264.418333	1520.918945	570.956177
10533.394149	5264.418333	1519.863281	663.451965
10533.394149	5264.418333	1518.807617	334.822693
10533.394149	5264.418333	1517.751953	436.407043
10533.394149	5264.418333	1516.696289	313.918640
10533.394149	5264.418333	1515.639648	374.762482
10533.394149	5264.418333	1514.583008	403.924774
10533.394149	5264.418333	1513.526367	433.089386
10533.394149	5264.418333	1512.469727	369.543152
10533.394149	5264.418333	1511.412109	301.511536
10533.394149	5264.418333	1510.355469	430.179260
10533.394149	5264.418333	1509.297852	330.552612
10533.394149	5264.418333	1508.240234	481.785065
10533.394149	5264.418333	1507.181641	425.137268
10533.394149	5264.418333	1506.124023	212.686493
10533.394149	5264.418333	1505.065430	133.564514
10533.394149	5264.418333	1504.006836	203.498581
10533.394149	5264.418333	1502.948242	244.077332
10533.394149	5264.418333	1501.888672	266.599030
10533.394149	5264.418333	1500.830078	345.540710
10533.394149	5264.418333	1499.770508	239.480621
10533.394149	5264.418333	1498.710938	178.589249
10533.394149	5264.418333	1497.650391	264.313873
10533.394149	5264.418333	1496.590820	52.420914
10533.394149	5264.418333	1495.530273	232.846176
10533.394149	5264.418333	1494.469727	68.406090
10533.394149	5264.418333	1493.409180	102.333824
10533.394149	5264.418333	1492.348633	70.936768
10533.394149	5264.418333	1491.287109	107.139366
10533.394149	5264.418333	1490.225586	-3.025246
10533.394149	5264.418333	1489.164063	-18.566080
10533.394149	5264.418333	1488.102539	73.967796
10533.394149	5264.418333	1487.041016	42.705067
10533.394149	5264.418333	1485.978516	-87.530815
10533.394149	5264.418333	1484.916016	-109.688744
10533.394149	5264.418333	1483.853516	66.070404
10533.394149	5264.418333	1482.791016	-79.766304
10533.394149	5264.418333	1481.727539	8.291173
10533.394149	5264.418333	1480.664063	8.691324
10533.394149	5264.418333	1479.600586	-62.802910
10533.394149	5264.418333	1478.537109	-3.938359
10533.394149	5264.418333	1477.473633	-196.642990
10533.394149	5264.418333	1476.409180	138.471771
10533.394149	5264.418333	1475.344727	163.677536
10533.394149	5264.418333	1474.280273	72.172310
10533.394149	5264.418333	1473.215820	9.883077
10533.394149	5264.418333	1472.151367	-32.114235
10533.394149	5264.418333	1471.085938	19.980694
10533.394149	5264.418333	1470.020508	20.677629
10533.394149	5264.418333	1468.955078	43.726315
10533.394149	5264.418333	1467.888672	4.288961
10533.394149	5264.418333	1466.823242	-17.490850
10533.394149	5264.418333	1465.756836	101.921051
10533.394149	5264.418333	1464.690430	13.144651
10533.394149	5264.418333	1463.624023	-15.475099
10533.394149	5264.418333	1462.556641	39.346199
10533.394149	5264.418333	1461.490234	62.458897
10533.394149	5264.418333	1460.422852	61.454540
10533.394149	5264.418333	1459.355469	40.024269
10533.394149	5264.418333	1458.287109	96.373482
10533.394149	5264.418333	1457.219727	56.669685
10533.394149	5264.418333	1456.151367	10.935791
10533.394149	5264.418333	1455.083008	139.178741
10533.394149	5264.418333	1454.014648	9.174133
10533.394149	5264.418333	1452.945313	55.146530
10533.394149	5264.418333	1451.876953	-15.648450
10533.394149	5264.418333	1450.807617	135.221542
10533.394149	5264.418333	1449.738281	149.426376
10533.394149	5264.418333	1448.668945	37.433540
10533.394149	5264.418333	1447.598633	-5.762736
10533.394149	5264.418333	1446.528320	61.677750
10533.394149	5264.418333	1445.458008	-19.363462
10533.394149	5264.418333	1444.387695	64.833054
10533.394149	5264.418333	1443.317383	-25.164652
10533.394149	5264.418333	1442.246094	113.788666
10533.394149	5264.418333	1441.174805	56.127293
10533.394149	5264.418333	1440.103516	17.998381
10533.394149	5264.418333	1439.032227	157.631104
10533.394149	5264.418333	1437.960938	30.583761
10533.394149	5264.418333	1436.888672	-7.701419
10533.394149	5264.418333	1435.816406	46.753159
10533.394149	5264.418333	1434.744141	137.391022
10533.394149	5264.418333	1433.670898	15.858104
10533.394149	5264.418333	1432.598633	-34.167713
10533.394149	5264.418333	1431.525391	56.259129
10533.394149	5264.418333	1430.452148	-105.370277
10533.394149	5264.418333	1429.378906	-59.428825
10533.394149	5264.418333	1428.304688	9.025958
10533.394149	5264.418333	1427.231445	-33.971931
10533.394149	5264.418333	1426.157227	-159.868240
10533.394149	5264.418333	1425.083008	52.870926
10533.394149	5264.418333	1424.007813	31.849781
10533.394149	5264.418333	1422.933594	-141.759766
10533.394149	5264.418333	1421.858398	-68.013077
10533.394149	5264.418333	1420.783203	-130.569748
10533.394149	5264.418333	1419.708008	-47.644512
10533.394149	5264.418333	1418.631836	-79.715027
10533.394149	5264.418333	1417.555664	-56.556721
10533.394149	5264.418333	1416.479492	-178.226608
10533.394149	5264.418333	1415.403320	-98.466759
10533.394149	5264.418333	1414.327148	-42.066116
10533.394149	5264.418333	1413.250000	-19.545174
10533.394149	5264.418333	1412.173828	-9.886020
10533.394149	5264.418333	1411.096680	38.964027
10533.394149	5264.418333	1410.018555	59.943161
10533.394149	5264.418333	1408.941406	113.560295
10533.394149	5264.418333	1407.863281	-90.129745
10533.394149	5264.418333	1406.785156	20.032795
10533.394149	5264.418333	1405.707031	63.384441
10533.394149	5264.418333	1404.628906	-19.054220
10533.394149	5264.418333	1403.549805	10.714179
10533.394149	5264.418333	1402.470703	-5.563350
10533.394149	5264.418333	1401.391602	79.517082
10533.394149	5264.418333	1400.312500	-17.306175
10533.394149	5264.418333	1399.233398	178.467438
10533.394149	5264.418333	1398.153320	26.793467
10533.394149	5264.418333	1397.073242	85.229263
10533.394149	5264.418333	1395.993164	96.491692
10533.394149	5264.418333	1394.913086	78.744392
10533.394149	5264.418333	1393.832031	186.112930
10533.394149	5264.418333	1392.750977	102.280998
10533.394149	5264.418333	1391.669922	42.330673
10533.394149	5264.418333	1390.588867	30.621382
10533.394149	5264.418333	1389.506836	81.494148
10533.394149	5264.418333	1388.425781	-6.832530
10533.394149	5264.418333	1387.343750	138.862946
10533.394149	5264.418333	1386.261719	19.223978
10533.394149	5264.418333	1385.178711	128.627869
10533.394149	5264.418333	1384.096680	173.841660
10533.394149	5264.418333	1383.013672	137.621368
10533.394149	5264.418333	1381.930664	42.442310
10533.394149	5264.418333	1380.846680	-21.163321
10533.394149	5264.418333	1379.763672	61.323166
10533.394149	5264.418333	1378.679688	-71.646614
10533.394149	5264.418333	1377.595703	3.789210
10533.394149	5264.418333	1376.511719	-36.281960
10533.394149	5264.418333	1375.427734	36.048084
10533.394149	5264.418333	1374.342773	-69.725868
10533.394149	5264.418333	1373.257813	45.216385
10533.394149	5264.418333	1372.172852	156.707855
10533.394149	5264.418333	1371.087891	64.745094
10533.394149	5264.418333	1370.001953	14.490517
10533.394149	5264.418333	1368.916992	-20.640472
10533.394149	5264.418333	1367.831055	-14.324489
10533.394149	5264.418333	1366.744141	-14.398857
10533.394149	5264.418333	1365.658203	30.639505
10533.394149	5264.418333	1364.571289	109.377853
10533.394149	5264.418333	1363.484375	73.611145
10533.394149	5264.418333	1362.397461	95.124001
10533.394149	5264.418333	1361.310547	134.676163
10533.394149	5264.418333	1360.222656	83.688583
10533.394149	5264.418333	1359.135742	40.543816
10533.394149	5264.418333	1358.047852	89.646400
10533.394149	5264.418333	1356.958984	116.778114
10533.394149	5264.418333	1355.871094	209.716782
10533.394149	5264.418333	1354.782227	163.039001
10533.394149	5264.418333	1353.693359	84.182976
10533.394149	5264.418333	1352.604492	242.931808
10533.394149	5264.418333	1351.515625	115.600388
10533.394149	5264.418333	1350.425781	119.269135
10533.394149	5264.418333	1349.335938	7.434680
10533.394149	5264.418333	1348.246094	142.743408
10533.394149	5264.418333	1347.156250	1.497492
10533.394149	5264.418333	1346.066406	83.937065
10533.394149	5264.418333	1344.975586	143.958145
10533.394149	5264.418333	1343.884766	-2.573684
10533.394149	5264.418333	1342.793945	148.939606
10533.394149	5264.418333	1341.702148	79.358986
10533.394149	5264.418333	1340.611328	150.386551
10533.394149	5264.418333	1339.519531	100.414787
10533.394149	5264.418333	1338.427734	96.735809
10533.394149	5264.418333	1337.334961	168.795670
10533.394149	5264.418333	1336.243164	290.557922
10533.394149	5264.418333	1335.150391	-1.325949
10533.394149	5264.418333	1334.057617	231.409698
10533.394149	5264.418333	1332.964844	243.388763
10533.394149	5264.418333	1331.871094	232.866974
10533.394149	5264.418333	1330.778320	-14.363819
10533.394149	5264.418333	1329.684570	48.456581
10533.394149	5264.418333	1328.590820	81.852898
10533.394149	5264.418333	1327.496094	-45.233440
10533.394149	5264.418333	1326.402344	-6.604652
10533.394149	5264.418333	1325.307617	103.022194
10533.394149	5264.418333	1324.212891	3.605763
10533.394149	5264.418333	1323.117188	-15.815733
10533.394149	5264.418333	1322.022461	6.739406
10533.394149	5264.418333	1320.926758	-54.255707
10533.394149	5264.418333	1319.831055	48.681370
10533.394149	5264.418333	1318.735352	117.186691
10533.394149	5264.418333	1317.638672	39.264450
10533.394149	5264.418333	1316.542969	-146.949219
10533.394149	5264.418333	1315.446289	-21.045336
10533.394149	5264.418333	1314.349609	-10.773582
10533.394149	5264.418333	1313.251953	-73.024673
10533.394149	5264.418333	1312.155273	-11.598758
10533.394149	5264.418333	1311.057617	-174.820526
10533.394149	5264.418333	1309.959961	-50.473961
10533.394149	5264.418333	1308.862305	-31.626150
10533.394149	5264.418333	1307.763672	-41.548550
10533.394149	5264.418333	1306.665039	-0.885097
10533.394149	5264.418333	1305.566406	-133.529556
10533.394149	5264.418333	1304.467773	94.430458
10533.394149	5264.418333	1303.369141	-77.935448
10533.394149	5264.418333	1302.269531	-68.131004
10533.394149	5264.418333	1301.169922	-200.987335
10533.394149	5264.418333	1300.070313	-80.659454
10533.394149	5264.418333	1298.970703	-133.522568
10533.394149	5264.418333	1297.870117	-40.777107
10533.394149	5264.418333	1296.769531	-56.467686
10533.394149	5264.418333	1295.668945	-4.533010
10533.394149	5264.418333	1294.568359	30.175116
10533.394149	5264.418333	1293.466797	-44.397629
10533.394149	5264.418333	1292.366211	-186.116928
10533.394149	5264.418333	1291.264648	57.725254
10533.394149	5264.418333	1290.162109	171.734695
10533.394149	5264.418333	1289.060547	52.510384
10533.394149	5264.418333	1287.958008	-43.434807
10533.394149	5264.418333	1286.855469	137.950912
10533.394149	5264.418333	1285.752930	152.378235
10533.394149	5264.418333	1284.650391	143.030975
10533.394149	5264.418333	1283.546875	69.637718
10533.394149	5264.418333	1282.444336	-14.125682
10533.394149	5264.418333	1281.339844	154.283112
10533.394149	5264.418333	1280.236328	161.429611
10533.394149	5264.418333	1279.132813	90.471642
10533.394149	5264.418333	1278.028320	132.674042
10533.394149	5264.418333	1276.923828	310.105438
10533.394149	5264.418333	1275.819336	210.115189
10533.394149	5264.418333	1274.713867	295.423279
10533.394149	5264.418333	1273.608398	260.322357
10533.394149	5264.418333	1272.503906	132.828674
10533.394149	5264.418333	1271.397461	147.946152
10533.394149	5264.418333	1270.291992	136.371445
10533.394149	5264.418333	1269.185547	149.204636
10533.394149	5264.418333	1268.080078	124.381180
10533.394149	5264.418333	1266.972656	68.533646
10533.394149	5264.418333	1265.866211	72.164604
10533.394149	5264.418333	1264.759766	93.565453
10533.394149	5264.418333	1263.652344	10.144363
10533.394149	5264.418333	1262.544922	13.259694
10533.394149	5264.418333	1261.436523	-31.927902
10533.394149	5264.418333	1260.329102	2.069929
10533.394149	5264.418333	1259.220703	-28.505754
10533.394149	5264.418333	1258.112305	23.146675
10533.394149	5264.418333	1257.003906	-11.282171
10533.394149	5264.418333	1255.895508	-177.763794
10533.394149	5264.418333	1254.786133	-26.531481
10533.394149	5264.418333	1253.676758	-159.117661
10533.394149	5264.418333	1252.567383	-194.842010
10533.394149	5264.418333	1251.458008	-112.689186
10533.394149	5264.418333	1250.347656	-47.698574
10533.394149	5264.418333	1249.237305	81.666153
10533.394149	5264.418333	1248.126953	-17.081167
10533.394149	5264.418333	1247.016602	111.557198
10533.394149	5264.418333	1245.905273	83.891548
10533.394149	5264.418333	1244.793945	43.910774
10533.394149	5264.418333	1243.682617	-14.104686
10533.394149	5264.418333	1242.571289	109.176872
10533.394149	5264.418333	1241.459961	178.842529
10533.394149	5264.418333	1240.347656	147.951675
10533.394149	5264.418333	1239.235352	185.687454
10533.394149	5264.418333	1238.123047	165.867416
10533.394149	5264.418333	1237.009766	142.311737
10533.394149	5264.418333	1235.897461	195.732086
10533.394149	5264.418333	1234.784180	213.737457
10533.394149	5264.418333	1233.670898	152.417648
10533.394149	5264.418333	1232.556641	100.171486
10533.394149	5264.418333	1231.443359	47.484493
10533.394149	5264.418333	1230.329102	112.867584
10533.394149	5264.418333	1229.214844	121.502296
10533.394149	5264.418333	1228.099609	128.589767
10533.394149	5264.418333	1226.985352	230.278503
10533.394149	5264.418333	1225.870117	202.937897
10533.394149	5264.418333	1224.754883	129.634720
10533.394149	5264.418333	1223.639648	265.797333
10533.394149	5264.418333	1222.523438	205.670837
10533.394149	5264.418333	1221.408203	263.495941
10533.394149	5264.418333	1220.291992	312.638245
10533.394149	5264.418333	1219.174805	430.297638
10533.394149	5264.418333	1218.058594	383.335327
10533.394149	5264.418333	1216.941406	272.174133
10533.394149	5264.418333	1215.824219	266.687286
10533.394149	5264.418333	1214.707031	238.421402
10533.394149	5264.418333	1213.589844	216.812149
10533.394149	5264.418333	1212.471680	231.128159
10533.394149	5264.418333	1211.353516	209.348679
10533.394149	5264.418333	1210.235352	190.872772
10533.394149	5264.418333	1209.117188	138.168365
10533.394149	5264.418333	1207.998047	235.663788
10533.394149	5264.418333	1206.878906	125.594620
10533.394149	5264.418333	1205.759766	54.543499
10533.394149	5264.418333	1204.640625	184.302094
10533.394149	5264.418333	1203.520508	88.196228
10533.394149	5264.418333	1202.401367	109.085449
10533.394149	5264.418333	1201.281250	89.814140
10533.394149	5264.418333	1200.160156	91.233543
10533.394149	5264.418333	1199.040039	104.657761
10533.394149	5264.418333	1197.918945	113.745171
10533.394149	5264.418333	1196.797852	-5.553884
10533.394149	5264.418333	1195.676758	161.756851
10533.394149	5264.418333	1194.555664	182.938263
10533.394149	5264.418333	1193.433594	0.486631
10533.394149	5264.418333	1192.311523	133.698486
10533.394149	5264.418333	1191.189453	228.830811
10533.394149	5264.418333	1190.066406	35.022488
10533.394149	5264.418333	1188.944336	61.321938
10533.394149	5264.418333	1187.821289	-55.739357
10533.394149	5264.418333	1186.698242	93.697128
10533.394149	5264.418333	1185.574219	65.626228
10533.394149	5264.418333	1184.451172	120.623222
10533.394149	5264.418333	1183.327148	87.157104
10533.394149	5264.418333	1182.203125	45.499004
10533.394149	5264.418333	1181.078125	9.568552
10533.394149	5264.418333	1179.954102	47.609013
10533.394149	5264.418333	1178.829102	-74.711899
10533.394149	5264.418333	1177.704102	-31.912590
10533.394149	5264.418333	1176.579102	-52.039284
10533.394149	5264.418333	1175.453125	-73.908180
10533.394149	5264.418333	1174.327148	-12.169523
10533.394149	5264.418333	1173.201172	125.063576
10533.394149	5264.418333	1172.075195	-57.088089
10533.394149	5264.418333	1170.949219	-23.661942
10533.394149	5264.418333	1169.822266	-6.156317
10533.394149	5264.418333	1168.695313	25.426018
10533.394149	5264.418333	1167.568359	113.825966
10533.394149	5264.418333	1166.440430	-83.775116
10533.394149	5264.418333	1165.313477	-23.650990
10533.394149	5264.418333	1164.185547	1.719053
10533.394149	5264.418333	1163.057617	-6.110112
10533.394149	5264.418333	1161.928711	125.997925
10533.394149	5264.418333	1160.800781	160.350998
10533.394149	5264.418333	1159.671875	132.990311
10533.394149	5264.418333	1158.541992	118.332024
10533.394149	5264.418333	1157.413086	205.349075
10533.394149	5264.418333	1156.283203	122.913681
10533.394149	5264.418333	1155.154297	319.124725
10533.394149	5264.418333	1154.023438	192.619049
10533.394149	5264.418333	1152.893555	284.999969
10533.394149	5264.418333	1151.763672	217.853638
10533.394149	5264.418333	1150.632813	275.618164
10533.394149	5264.418333	1149.501953	168.230820
10533.394149	5264.418333	1148.370117	301.376343
10533.394149	5264.418333	1147.239258	199.903259
10533.394149	5264.418333	1146.107422	216.136795
10533.394149	5264.418333	1144.975586	203.304794
10533.394149	5264.418333	1143.843750	100.392876
10533.394149	5264.418333	1142.710938	140.759018
10533.394149	5264.418333	1141.578125	99.725357
10533.394149	5264.418333	1140.445313	44.630508
10533.394149	5264.418333	1139.312500	48.802357
10533.394149	5264.418333	1138.178711	126.257080
10533.394149	5264.418333	1137.045898	47.423000
10533.394149	5264.418333	1135.912109	8.002639
10533.394149	5264.418333	1134.777344	51.430786
10533.394149	5264.418333	1133.643555	72.387299
10533.394149	5264.418333	1132.508789	28.198187
10533.394149	5264.418333	1131.374023	-46.563335
10533.394149	5264.418333	1130.239258	-97.148468
10533.394149	5264.418333	1129.104492	-45.126778
10533.394149	5264.418333	1127.968750	69.020782
10533.394149	5264.418333	1126.833008	62.590145
10533.394149	5264.418333	1125.697266	52.037148
10533.394149	5264.418333	1124.560547	-10.140683
10533.394149	5264.418333	1123.424805	-49.430256
10533.394149	5264.418333	1122.288086	39.542110
10533.394149	5264.418333	1121.151367	-29.747894
10533.394149	5264.418333	1120.013672	-56.893116
10533.394149	5264.418333	1118.876953	18.263702
10533.394149	5264.418333	1117.739258	0.728954
10533.394149	5264.418333	1116.601563	-70.005981
10533.394149	5264.418333	1115.462891	17.952835
10533.394149	5264.418333	1114.324219	0.308726
10533.394149	5264.418333	1113.186523	72.411568
10533.394149	5264.418333	1112.046875	60.227135
10533.394149	5264.418333	1110.908203	87.895752
10533.394149	5264.418333	1109.769531	-123.313179
10533.394149	5264.418333	1108.629883	4.646063
10533.394149	5264.418333	1107.490234	-85.119278
10533.394149	5264.418333	1106.349609	131.580536
10533.394149	5264.418333	1105.209961	81.512505
10533.394149	5264.418333	1104.069336	124.155884
10533.394149	5264.418333	1102.928711	154.714645
10533.394149	5264.418333	1101.787109	-68.052162
10533.394149	5264.418333	1100.646484	-25.993626
10533.394149	5264.418333	1099.504883	-108.692131
10533.394149	5264.418333	1098.363281	25.366455
10533.394149	5264.418333	1097.221680	26.034534
10533.394149	5264.418333	1096.079102	88.721466
10533.394149	5264.418333	1094.936523	-80.470680
10533.394149	5264.418333	1093.793945	-10.996112
10533.394149	5264.418333	1092.651367	-46.924782
10533.394149	5264.418333	1091.507813	60.235626
10533.394149	5264.418333	1090.364258	9.954457
10533.394149	5264.418333	1089.220703	55.504063
10533.394149	5264.418333	1088.077148	-1.632745
10533.394149	5264.418333	1086.933594	-26.347672
10533.394149	5264.418333	1085.789063	26.477024
10533.394149	5264.418333	1084.644531	-59.542732
10533.394149	5264.418333	1083.499023	-83.879066
10533.394149	5264.418333	1082.354492	158.518936
10533.394149	5264.418333	1081.208984	30.908739
10533.394149	5264.418333	1080.063477	95.342407
10533.394149	5264.418333	1078.917969	150.442413
10533.394149	5264.418333	1077.771484	-54.466560
10533.394149	5264.418333	1076.625977	-18.737217
10533.394149	5264.418333	1075.479492	65.121651
10533.394149	5264.418333	1074.332031	70.130447
10533.394149	5264.418333	1073.185547	129.427795
10533.394149	5264.418333	1072.038086	154.938889
10533.394149	5264.418333	1070.890625	39.447384
10533.394149	5264.418333	1069.743164	86.821411
10533.394149	5264.418333	1068.594727	-31.490936
10533.394149	5264.418333	1067.447266	95.290276
10533.394149	5264.418333	1066.298828	-18.189205
10533.394149	5264.418333	1065.149414	68.784409
10533.394149	5264.418333	1064.000977	7.217719
10533.394149	5264.418333	1062.851563	-10.833945
10533.394149	5264.418333	1061.702148	77.702789
10533.394149	5264.418333	1060.552734	50.355743
10533.394149	5264.418333	1059.402344	69.708649
10533.394149	5264.418333	1058.252930	-101.775146
10533.394149	5264.418333	1057.102539	117.099655
10533.394149	5264.418333	1055.951172	150.830566
10533.394149	5264.418333	1054.800781	27.126654
10533.394149	5264.418333	1053.649414	-26.934557
10533.394149	5264.418333	1052.498047	-36.606659
10533.394149	5264.418333	1051.346680	68.029793
10533.394149	5264.418333	1050.194336	-15.924982
10533.394149	5264.418333	1049.042969	144.177261
10533.394149	5264.418333	1047.890625	6.530083
10533.394149	5264.418333	1046.738281	185.429321
10533.394149	5264.418333	1045.584961	121.174362
10533.394149	5264.418333	1044.431641	28.801294
10533.394149	5264.418333	1043.278320	73.331169
10533.394149	5264.418333	1042.125000	18.438826
10533.394149	5264.418333	1040.971680	-38.180367
10533.394149	5264.418333	1039.817383	194.688919
10533.394149	5264.418333	1038.663086	74.620972
10533.394149	5264.418333	1037.508789	-39.427109
10533.394149	5264.418333	1036.353516	33.073921
10533.394149	5264.418333	1035.198242	36.630066
10533.394149	5264.418333	1034.042969	161.142273
10533.394149	5264.418333	1032.887695	214.688736
10533.394149	5264.418333	1031.732422	-35.890617
10533.394149	5264.418333	1030.576172	231.075974
10533.394149	5264.418333	1029.419922	198.738647
10533.394149	5264.418333	1028.263672	104.705887
10533.394149	5264.418333	1027.106445	220.127945
10533.394149	5264.418333	1025.949219	237.088593
10533.394149	5264.418333	1024.792969	128.262070
10533.394149	5264.418333	1023.634766	39.980137
10533.394149	5264.418333	1022.477539	9.489344
10533.394149	5264.418333	1021.319336	24.661259
10533.394149	5264.418333	1020.161133	5.013868
10533.394149	5264.418333	1019.002930	-49.090412
10533.394149	5264.418333	1017.843750	33.764656
10533.394149	5264.418333	1016.684570	69.564407
10533.394149	5264.418333	1015.525391	-12.498171
10533.394149	5264.418333	1014.366211	93.442284
10533.394149	5264.418333	1013.207031	146.735504
10533.394149	5264.418333	1012.046875	-62.730152
10533.394149	5264.418333	1010.886719	-99.706093
10533.394149	5264.418333	1009.726563	-74.236122
10533.394149	5264.418333	1008.565430	1.160849
10533.394149	5264.418333	1007.404297	39.567947
10533.394149	5264.418333	1006.243164	186.859833
10533.394149	5264.418333	1005.082031	125.793480
10533.394149	5264.418333	1003.920898	251.082932
10533.394149	5264.418333	1002.758789	198.028030
10533.394149	5264.418333	1001.596680	34.463467
10533.394149	5264.418333	1000.433594	115.986954
10533.394149	5264.418333	999.271484	161.218491
10533.394149	5264.418333	998.108398	134.468063
10533.394149	5264.418333	996.945313	71.832123
10533.394149	5264.418333	995.782227	247.362137
10533.394149	5264.418333	994.618164	224.803665
10533.394149	5264.418333	993.454102	190.821625
10533.394149	5264.418333	992.290039	201.388321
10533.394149	5264.418333	991.125977	299.546448
10533.394149	5264.418333	989.960938	276.815948
10533.394149	5264.418333	988.796875	345.194031
10533.394149	5264.418333	987.630859	282.239258
10533.394149	5264.418333	986.465820	347.898346
10533.394149	5264.418333	985.300781	448.640442
10533.394149	5264.418333	984.134766	389.835602
10533.394149	5264.418333	982.968750	280.938354
10533.394149	5264.418333	981.801758	267.498383
10533.394149	5264.418333	980.635742	112.154739
10533.394149	5264.418333	979.468750	132.595886
10533.394149	5264.418333	978.301758	28.252048
10533.394149	5264.418333	977.133789	-7.147943
10533.394149	5264.418333	975.966797	131.236710
10533.394149	5264.418333	974.798828	209.622223
10533.394149	5264.418333	973.630859	99.560463
10533.394149	5264.418333	972.461914	7.065373
10533.394149	5264.418333	971.293945	180.884094
10533.394149	5264.418333	970.125000	61.505722
10533.394149	5264.418333	968.956055	60.287827
10533.394149	5264.418333	967.786133	106.935722
10533.394149	5264.418333	966.617188	-3.285291
10533.394149	5264.418333	965.447266	101.445831
10533.394149	5264.418333	964.276367	-89.505486
10533.394149	5264.418333	963.106445	11.880515
10533.394149	5264.418333	961.935547	95.451683
10533.394149	5264.418333	960.764648	30.035873
10533.394149	5264.418333	959.593750	-98.434555
10533.394149	5264.418333	958.422852	-20.811924
10533.394149	5264.418333	957.250977	-30.421265
10533.394149	5264.418333	956.079102	-139.358505
10533.394149	5264.418333	954.907227	-14.118047
10533.394149	5264.418333	953.734375	96.998978
10533.394149	5264.418333	952.562500	-50.429901
10533.394149	5264.418333	951.389648	-4.831391
10533.394149	5264.418333	950.215820	-3.314172
10533.394149	5264.418333	949.042969	141.087509
10533.394149	5264.418333	947.869141	39.071918
10533.394149	5264.418333	946.695313	111.716522
10533.394149	5264.418333	945.521484	-33.691345
10533.394149	5264.418333	944.346680	-147.648666
10533.394149	5264.418333	943.172852	-86.825340
10533.394149	5264.418333	941.998047	-76.603279
10533.394149	5264.418333	940.822266	-61.293301
10533.394149	5264.418333	939.647461	-103.701027
10533.394149	5264.418333	938.471680	-71.553604
10533.394149	5264.418333	937.295898	-84.965881
10533.394149	5264.418333	936.119141	64.340027
10533.394149	5264.418333	934.943359	-25.940010
10533.394149	5264.418333	933.766602	104.273964
10533.394149	5264.418333	932.589844	-127.334068
10533.394149	5264.418333	931.413086	189.627243
10533.394149	5264.418333	930.235352	135.381058
10533.394149	5264.418333	929.057617	172.082077
10533.394149	5264.418333	927.879883	36.411186
10533.394149	5264.418333	926.702148	135.311966
10533.394149	5264.418333	925.523438	140.891373
10533.394149	5264.418333	924.344727	-25.793562
10533.394149	5264.418333	923.166016	-15.425708
10533.394149	5264.418333	921.987305	59.511257
10533.394149	5264.418333	920.807617	-20.995863
10533.394149	5264.418333	919.627930	-18.915386
10533.394149	5264.418333	919.497070	54.141541
10533.394149	5264.418333	918.331055	-45.481663
10533.394149	5264.418333	917.165039	29.371424
10533.394149	5264.418333	915.999023	156.751770
10533.394149	5264.418333	914.833008	57.162025
10533.394149	5264.418333	913.666016	62.689053
10533.394149	5264.418333	912.499023	-141.898163
10533.394149	5264.418333	911.332031	-124.400192
10533.394149	5264.418333	910.165039	-13.830544
10533.394149	5264.418333	908.997070	84.763382
10533.394149	5264.418333	907.830078	61.645439
10533.394149	5264.418333	906.661133	81.472786
10533.394149	5264.418333	905.493164	1.132092
10533.394149	5264.418333	904.325195	-2.880616
10533.394149	5264.418333	903.156250	50.319355
10533.394149	5264.418333	901.987305	-108.611809
10533.394149	5264.418333	900.818359	56.578026
10533.394149	5264.418333	899.648438	0.150983
10533.394149	5264.418333	898.478516	-70.543396
10533.394149	5264.418333	897.308594	63.584404
10533.394149	5264.418333	896.138672	2.430549
10533.394149	5264.418333	894.968750	-3.949135
10533.394149	5264.418333	893.797852	-31.741751
10533.394149	5264.418333	892.626953	-140.420517
10533.394149	5264.418333	891.456055	15.002486
10533.394149	5264.418333	890.284180	160.851898
10533.394149	5264.418333	889.113281	128.298752
10533.394149	5264.418333	887.941406	24.439875
10533.394149	5264.418333	886.768555	172.582535
10533.394149	5264.418333	885.596680	-50.061695
10533.394149	5264.418333	884.423828	181.199692
10533.394149	5264.418333	883.250977	115.433495
10533.394149	5264.418333	882.078125	23.571457
10533.394149	5264.418333	880.905273	195.321243
10533.394149	5264.418333	879.731445	262.547943
10533.394149	5264.418333	878.557617	130.372574
10533.394149	5264.418333	877.383789	17.239042
10533.394149	5264.418333	876.209961	48.881855
10533.394149	5264.418333	875.035156	125.586540
10533.394149	5264.418333	873.860352	29.136135
10533.394149	5264.418333	872.685547	34.686993
10533.394149	5264.418333	871.510742	165.882263
10533.394149	5264.418333	870.334961	43.424488
10533.394149	5264.418333	869.159180	146.137680
10533.394149	5264.418333	867.983398	66.386665
10533.394149	5264.418333	866.807617	62.470352
10533.394149	5264.418333	865.630859	13.565871
10533.394149	5264.418333	864.454102	-18.740574
10533.394149	5264.418333	863.277344	-8.419621
10533.394149	5264.418333	862.100586	122.605942
10533.394149	5264.418333	860.922852	9.858442
10533.394149	5264.418333	859.745117	53.302971
10533.394149	5264.418333	858.567383	122.752563
10533.394149	5264.418333	857.389648	-15.924577
10533.394149	5264.418333	856.210938	72.435974
10533.394149	5264.418333	855.032227	40.209419
10533.394149	5264.418333	853.853516	-20.359577
10533.394149	5264.418333	852.674805	89.227051
10533.394149	5264.418333	851.495117	-51.636787
10533.394149	5264.418333	850.315430	-95.600334
10533.394149	5264.418333	849.135742	-2.579589
10533.394149	5264.418333	847.956055	36.106110
10533.394149	5264.418333	846.775391	62.981041
10533.394149	5264.418333	845.595703	52.087959
10533.394149	5264.418333	844.415039	64.800598
10533.394149	5264.418333	843.233398	46.847961
10533.394149	5264.418333	842.052734	137.396301
10533.394149	5264.418333	840.871094	13.334500
10533.394149	5264.418333	839.689453	143.941956
10533.394149	5264.418333	838.506836	74.153069
10533.394149	5264.418333	837.325195	-21.526585
10533.394149	5264.418333	836.142578	-20.561636
10533.394149	5264.418333	834.959961	39.297489
10533.394149	5264.418333	833.777344	54.389107
10533.394149	5264.418333	832.593750	69.481125
10533.394149	5264.418333	831.410156	-82.572914
10533.394149	5264.418333	830.226563	-178.071899
10533.394149	5264.418333	829.042969	-19.386047
10533.394149	5264.418333	827.858398	7.490343
10533.394149	5264.418333	826.673828	-59.727890
10533.394149	5264.418333	825.489258	-110.452950
10533.394149	5264.418333	824.304688	-121.182510
10533.394149	5264.418333	823.120117	-80.187172
10533.394149	5264.418333	821.934570	-41.554047
10533.394149	5264.418333	820.749023	-0.583470
10533.394149	5264.418333	819.562500	0.437256
10533.394149	5264.418333	818.376953	-45.516766
10533.394149	5264.418333	817.190430	-84.402351
10533.394149	5264.418333	816.003906	-132.660004
10533.394149	5264.418333	814.817383	-47.096031
10533.394149	5264.418333	813.629883	22.008598
10533.394149	5264.418333	812.442383	13.657197
10533.394149	5264.418333	811.254883	101.492668
10533.394149	5264.418333	810.067383	20.424498
10533.394149	5264.418333	808.878906	-201.301453
10533.394149	5264.418333	807.690430	-101.745842
10533.394149	5264.418333	806.501953	-91.299995
10533.394149	5264.418333	805.313477	-83.200920
10533.394149	5264.418333	804.124023	-37.614395
10533.394149	5264.418333	802.934570	3.269477
10533.394149	5264.418333	801.745117	58.189251
10533.394149	5264.418333	800.555664	7.717462
10533.394149	5264.418333	799.365234	-12.297050
10533.394149	5264.418333	798.175781	12.165117
10533.394149	5264.418333	796.985352	-19.542866
10533.394149	5264.418333	795.793945	47.027000
10533.394149	5264.418333	794.603516	27.019098
10533.394149	5264.418333	793.412109	-70.153366
10533.394149	5264.418333	792.220703	-45.704460
10533.394149	5264.418333	791.028320	74.579353
10533.394149	5264.418333	789.836914	24.195950
10533.394149	5264.418333	788.644531	1.873458
10533.394149	5264.418333	787.452148	94.031563
10533.394149	5264.418333	786.258789	153.451172
10533.394149	5264.418333	785.066406	16.681404
10533.394149	5264.418333	783.873047	41.064617
10533.394149	5264.418333	782.679688	39.757298
10533.394149	5264.418333	781.485352	152.803970
10533.394149	5264.418333	780.291992	11.468634
10533.394149	5264.418333	779.097656	194.449524
10533.394149	5264.418333	777.903320	-61.127636
10533.394149	5264.418333	776.708008	89.138573
10533.394149	5264.418333	775.512695	104.118507
10533.394149	5264.418333	774.318359	58.481346
10533.394149	5264.418333	773.122070	203.952011
10533.394149	5264.418333	771.926758	174.611496
10533.394149	5264.418333	770.730469	243.113525
10533.394149	5264.418333	769.534180	211.435349
10533.394149	5264.418333	768.337891	79.639610
10533.394149	5264.418333	767.141602	383.220032
10533.394149	5264.418333	765.944336	409.696625
10533.394149	5264.418333	764.747070	606.024658
10533.394149	5264.418333	763.549805	492.835114
10533.394149	5264.418333	762.351563	528.550232
10533.394149	5264.418333	761.154297	652.609436
10533.394149	5264.418333	759.956055	760.332703
10533.394149	5264.418333	758.757813	628.568970
10533.394149	5264.418333	757.558594	448.043640
10533.394149	5264.418333	756.359375	400.027954
10533.394149	5264.418333	755.160156	424.036133
10533.394149	5264.418333	753.960938	269.178589
10533.394149	5264.418333	752.761719	355.876282
10533.394149	5264.418333	751.561523	368.232452
10533.394149	5264.418333	750.361328	368.963715
10533.394149	5264.418333	749.160156	409.133301
10533.394149	5264.418333	747.959961	372.701752
10533.394149	5264.418333	746.758789	250.441452
10533.394149	5264.418333	745.557617	151.408859
10533.394149	5264.418333	744.356445	281.958954
10533.394149	5264.418333	743.154297	375.346313
10533.394149	5264.418333	741.952148	382.918854
10533.394149	5264.418333	740.750000	323.267487
10533.394149	5264.418333	739.547852	254.355530
10533.394149	5264.418333	738.344727	305.904755
10533.394149	5264.418333	737.142578	167.510681
10533.394149	5264.418333	735.939453	478.339935
10533.394149	5264.418333	734.735352	393.172241
10533.394149	5264.418333	733.532227	296.445496
10533.394149	5264.418333	732.328125	352.458557
10533.394149	5264.418333	731.124023	223.349518
10533.394149	5264.418333	729.918945	309.379547
10533.394149	5264.418333	728.714844	314.411987
10533.394149	5264.418333	727.509766	377.219635
10533.394149	5264.418333	726.303711	225.006973
10533.394149	5264.418333	725.098633	91.320557
10533.394149	5264.418333	723.892578	246.483810
10533.394149	5264.418333	722.686523	112.798584
10533.394149	5264.418333	721.480469	96.930832
10533.394149	5264.418333	720.274414	111.061172
10533.394149	5264.418333	719.067383	23.579931
10533.394149	5264.418333	717.860352	150.763138
10533.394149	5264.418333	716.653320	190.174210
10533.394149	5264.418333	715.445313	134.946075
10533.394149	5264.418333	714.238281	-12.556441
10533.394149	5264.418333	713.030273	-86.229103
10533.394149	5264.418333	711.821289	213.625229
10533.394149	5264.418333	710.613281	96.074158
10533.394149	5264.418333	709.404297	116.826271
10533.394149	5264.418333	708.195313	241.228577
10533.394149	5264.418333	706.986328	72.965088
10533.394149	5264.418333	705.776367	3.780819
10533.394149	5264.418333	704.566406	47.429111
10533.394149	5264.418333	703.356445	183.116928
10533.394149	5264.418333	702.146484	249.656693
10533.394149	5264.418333	700.935547	184.954941
10533.394149	5264.418333	699.724609	74.226532
10533.394149	5264.418333	698.513672	-13.489535
10533.394149	5264.418333	697.302734	202.381866
10533.394149	5264.418333	696.090820	-16.467707
10533.394149	5264.418333	694.878906	-26.060570
10533.394149	5264.418333	693.666992	-33.390438
10533.394149	5264.418333	692.455078	39.671535
10533.394149	5264.418333	691.242188	11.572630
10533.394149	5264.418333	690.029297	47.759907
10533.394149	5264.418333	688.816406	8.104892
10533.394149	5264.418333	687.602539	14.344806
10533.394149	5264.418333	686.389648	133.021103
10533.394149	5264.418333	685.175781	-133.970337
10533.394149	5264.418333	683.960938	101.624222
10533.394149	5264.418333	682.747070	4.427512
10533.394149	5264.418333	681.532227	209.985580
10533.394149	5264.418333	680.317383	76.024582
10533.394149	5264.418333	679.102539	61.292042
10533.394149	5264.418333	677.886719	78.609383
10533.394149	5264.418333	676.670898	-7.255619
10533.394149	5264.418333	675.455078	44.340565
10533.394149	5264.418333	674.239258	17.980911
10533.394149	5264.418333	673.022461	51.129772
10533.394149	5264.418333	671.805664	141.458405
10533.394149	5264.418333	670.588867	188.201675
10533.394149	5264.418333	669.372070	170.787796
10533.394149	5264.418333	668.154297	-70.926483
10533.394149	5264.418333	666.936523	119.810875
10533.394149	5264.418333	665.718750	159.449097
10533.394149	5264.418333	664.500977	112.116089
10533.394149	5264.418333	663.282227	96.758354
10533.394149	5264.418333	662.063477	188.790192
10533.394149	5264.418333	660.844727	182.455276
10533.394149	5264.418333	659.625000	201.201416
10533.394149	5264.418333	658.405273	85.100327
10533.394149	5264.418333	657.185547	14.671549
10533.394149	5264.418333	655.965820	199.967880
10533.394149	5264.418333	654.745117	129.429642
10533.394149	5264.418333	653.525391	218.641632
10533.394149	5264.418333	652.303711	65.858215
10533.394149	5264.418333	651.083008	81.917923
10533.394149	5264.418333	649.861328	-11.581529
10533.394149	5264.418333	648.640625	91.031441
10533.394149	5264.418333	647.417969	236.861771
10533.394149	5264.418333	646.196289	195.640182
10533.394149	5264.418333	644.973633	6.228675
10533.394149	5264.418333	643.750977	124.457382
10533.394149	5264.418333	642.528320	156.002701
10533.394149	5264.418333	641.305664	139.640167
10533.394149	5264.418333	640.082031	111.835007
10533.394149	5264.418333	638.858398	77.148071
10533.394149	5264.418333	637.634766	119.805580
10533.394149	5264.418333	636.410156	46.315151
10533.394149	5264.418333	635.185547	134.337875
10533.394149	5264.418333	633.960938	42.547775
10533.394149	5264.418333	632.736328	55.351784
10533.394149	5264.418333	631.510742	159.037628
10533.394149	5264.418333	630.285156	-5.644016
10533.394149	5264.418333	629.059570	116.062462
10533.394149	5264.418333	627.833984	14.955153
10533.394149	5264.418333	626.607422	61.497883
10533.394149	5264.418333	625.380859	126.126152
10533.394149	5264.418333	624.154297	124.801659
10533.394149	5264.418333	622.927734	43.943634
10533.394149	5264.418333	621.700195	-57.379768
10533.394149	5264.418333	620.472656	29.642693
10533.394149	5264.418333	619.245117	-130.765030
10533.394149	5264.418333	618.016602	-0.799565
10533.394149	5264.418333	616.788086	-31.991261
10533.394149	5264.418333	615.559570	127.239822
10533.394149	5264.418333	614.331055	18.815428
10533.394149	5264.418333	613.101563	-112.301071
10533.394149	5264.418333	611.872070	-30.412226
10533.394149	5264.418333	610.642578	-66.442940
10533.394149	5264.418333	609.413086	80.953400
10533.394149	5264.418333	608.182617	-5.050042
10533.394149	5264.418333	606.952148	35.709770
10533.394149	5264.418333	605.721680	-54.914173
10533.394149	5264.418333	604.491211	12.858866
10533.394149	5264.418333	603.259766	30.749744
10533.394149	5264.418333	602.028320	-37.404896
10533.394149	5264.418333	600.796875	9.752389
10533.394149	5264.418333	599.564453	-24.590874
10533.394149	5264.418333	598.332031	11.096498
10533.394149	5264.418333	597.099609	-186.120010
10533.394149	5264.418333	595.867188	-42.078209
10533.394149	5264.418333	594.633789	-94.739670
10533.394149	5264.418333	593.400391	-63.868332
10533.394149	5264.418333	592.166992	43.707291
10533.394149	5264.418333	590.933594	-18.180149
10533.394149	5264.418333	589.699219	12.442690
10533.394149	5264.418333	588.464844	-54.068733
10533.394149	5264.418333	587.230469	152.419052
10533.394149	5264.418333	585.995117	18.082388
10533.394149	5264.418333	584.760742	28.093992
10533.394149	5264.418333	583.525391	121.466515
10533.394149	5264.418333	582.289063	32.103840
10533.394149	5264.418333	581.053711	165.872375
10533.394149	5264.418333	579.817383	132.742050
10533.394149	5264.418333	578.581055	113.076157
10533.394149	5264.418333	577.343750	111.368660
10533.394149	5264.418333	576.107422	21.761860
10533.394149	5264.418333	574.870117	130.273148
10533.394149	5264.418333	573.631836	51.813820
10533.394149	5264.418333	572.394531	-15.421225
10533.394149	5264.418333	571.156250	54.568539
10533.394149	5264.418333	569.917969	77.216713
10533.394149	5264.418333	568.679688	207.756104
10533.394149	5264.418333	567.440430	30.078337
10533.394149	5264.418333	566.202148	68.258247
10533.394149	5264.418333	564.961914	124.331123
10533.394149	5264.418333	563.722656	0.527676
10533.394149	5264.418333	562.482422	189.030472
10533.394149	5264.418333	561.243164	132.531494
10533.394149	5264.418333	560.001953	-4.870543
10533.394149	5264.418333	558.761719	66.557190
10533.394149	5264.418333	557.520508	-30.487947
10533.394149	5264.418333	556.279297	-109.597061
10533.394149	5264.418333	555.038086	-141.608963
10533.394149	5264.418333	553.795898	-45.790627
10533.394149	5264.418333	552.554688	-93.626060
10533.394149	5264.418333	551.311523	-9.197134
10533.394149	5264.418333	550.069336	-41.449646
10533.394149	5264.418333	548.826172	83.162819
10533.394149	5264.418333	547.583984	-209.187103
10533.394149	5264.418333	546.339844	27.320110
10533.394149	5264.418333	545.096680	19.492630
10533.394149	5264.418333	543.852539	34.003532
10533.394149	5264.418333	542.608398	32.776981
10533.394149	5264.418333	541.364258	67.316078
10533.394149	5264.418333	540.119141	-12.372071
10533.394149	5264.418333	538.875000	1.912189
10533.394149	5264.418333	537.628906	136.941681
10533.394149	5264.418333	536.383789	52.655392
10533.394149	5264.418333	535.137695	44.383129
10533.394149	5264.418333	533.892578	-6.413384
10533.394149	5264.418333	532.645508	3.106103
10533.394149	5264.418333	531.399414	75.154526
10533.394149	5264.418333	530.152344	-4.825812
10533.394149	5264.418333	528.905273	11.239692
10533.394149	5264.418333	527.658203	-46.454872
10533.394149	5264.418333	526.410156	5.239850
10533.394149	5264.418333	525.163086	34.545406
10533.394149	5264.418333	523.914063	-103.622971
10533.394149	5264.418333	522.666016	-69.940727
10533.394149	5264.418333	521.416992	-272.819061
10533.394149	5264.418333	520.167969	-199.058563
10533.394149	5264.418333	518.918945	19.586134
10533.394149	5264.418333	517.669922	-62.909611
10533.394149	5264.418333	516.419922	-212.292664
10533.394149	5264.418333	515.169922	-98.666771
10533.394149	5264.418333	513.919922	41.608974
10533.394149	5264.418333	512.668945	16.925783
10533.394149	5264.418333	511.417969	-130.285324
10533.394149	5264.418333	510.166992	-1.350253
10533.394149	5264.418333	508.916016	-63.970428
10533.394149	5264.418333	507.664063	-53.154175
10533.394149	5264.418333	506.412109	-129.167633
10533.394149	5264.418333	505.160156	-40.543301
10533.394149	5264.418333	503.907227	-89.910690
10533.394149	5264.418333	502.655273	16.389273
10533.394149	5264.418333	501.402344	-17.472534
10533.394149	5264.418333	500.148438	46.451275
10533.394149	5264.418333	498.895508	-0.802195
10533.394149	5264.418333	497.641602	-10.299541
10533.394149	5264.418333	496.387695	-48.703293
10533.394149	5264.418333	495.132813	57.240582
10533.394149	5264.418333	493.878906	149.791946
10533.394149	5264.418333	492.624023	164.564651
10533.394149	5264.418333	491.368164	26.142694
10533.394149	5264.418333	490.113281	96.357285
10533.394149	5264.418333	488.857422	84.417305
10533.394149	5264.418333	487.601563	87.982491
10533.394149	5264.418333	486.344727	189.091278
10533.394149	5264.418333	485.088867	137.149139
10533.394149	5264.418333	483.832031	76.329559
10533.394149	5264.418333	482.575195	126.323486
10533.394149	5264.418333	481.317383	-14.292735
10533.394149	5264.418333	480.059570	77.733826
10533.394149	5264.418333	478.801758	114.324860
10533.394149	5264.418333	477.543945	184.091461
10533.394149	5264.418333	476.285156	94.398346
10533.394149	5264.418333	475.027344	84.408318
10533.394149	5264.418333	473.767578	125.283287
10533.394149	5264.418333	472.508789	199.309845
10533.394149	5264.418333	471.249023	109.588509
10533.394149	5264.418333	469.989258	287.472137
10533.394149	5264.418333	468.729492	164.557404
10533.394149	5264.418333	467.469727	256.094208
10533.394149	5264.418333	466.208984	254.738281
10533.394149	5264.418333	464.948242	169.394577
10533.394149	5264.418333	463.686523	28.828568
10533.394149	5264.418333	462.425781	129.045654
10533.394149	5264.418333	461.164063	63.576382
10533.394149	5264.418333	459.901367	192.378281
10533.394149	5264.418333	458.639648	60.655888
10533.394149	5264.418333	457.376953	116.527832
10533.394149	5264.418333	456.114258	242.948563
10533.394149	5264.418333	454.851563	292.084381
10533.394149	5264.418333	453.587891	133.866592
10533.394149	5264.418333	452.324219	240.264618
10533.394149	5264.418333	451.060547	55.613979
10533.394149	5264.418333	449.796875	82.581642
10533.394149	5264.418333	448.532227	155.769409
10533.394149	5264.418333	447.267578	-35.457050
10533.394149	5264.418333	446.002930	130.157349
10533.394149	5264.418333	444.737305	110.692604
10533.394149	5264.418333	443.471680	157.242661
10533.394149	5264.418333	442.206055	128.899246
10533.394149	5264.418333	440.940430	362.388794
10533.394149	5264.418333	439.673828	241.519760
10533.394149	5264.418333	438.407227	160.250549
10533.394149	5264.418333	437.140625	85.567017
10533.394149	5264.418333	435.873047	8.661003
10533.394149	5264.418333	434.605469	239.477005
10533.394149	5264.418333	433.337891	83.350609
10533.394149	5264.418333	432.070313	30.503534
10533.394149	5264.418333	430.801758	157.744171
10533.394149	5264.418333	429.533203	60.852112
10533.394149	5264.418333	428.264648	25.419773
10533.394149	5264.418333	426.996094	143.605347
10533.394149	5264.418333	425.726563	147.531952
10533.394149	5264.418333	424.457031	223.796646
10533.394149	5264.418333	423.186523	113.465492
10533.394149	5264.418333	421.916992	275.089447
10533.394149	5264.418333	420.646484	83.492607
10533.394149	5264.418333	419.375977	154.983047
10533.394149	5264.418333	418.104492	123.320763
10533.394149	5264.418333	416.833008	282.234070
10533.394149	5264.418333	415.561523	162.720108
10533.394149	5264.418333	414.290039	152.679169
10533.394149	5264.418333	413.017578	17.691023
10533.394149	5264.418333	411.746094	-51.657463
10533.394149	5264.418333	410.472656	21.178688
10533.394149	5264.418333	409.200195	155.147614
10533.394149	5264.418333	407.926758	269.225830
10533.394149	5264.418333	406.653320	0.272625
10533.394149	5264.418333	405.379883	100.932030
10533.394149	5264.418333	404.105469	-1.977030
10533.394149	5264.418333	402.831055	-67.830002
10533.394149	5264.418333	401.556641	209.351471
10533.394149	5264.418333	400.282227	210.894135
10533.394149	5264.418333	399.006836	-12.786813
10533.394149	5264.418333	397.731445	219.977142
10533.394149	5264.418333	396.456055	212.221497
10533.394149	5264.418333	395.179688	191.160095
10533.394149	5264.418333	393.903320	21.460609
10533.394149	5264.418333	392.626953	163.711487
10533.394149	5264.418333	391.350586	-21.621630
10533.394149	5264.418333	390.073242	91.750015
10533.394149	5264.418333	388.795898	-56.895035
10533.394149	5264.418333	387.518555	-66.171089
10533.394149	5264.418333	386.240234	137.932816
10533.394149	5264.418333	384.961914	49.607487
10533.394149	5264.418333	383.683594	32.949619
10533.394149	5264.418333	382.405273	29.078575
10533.394149	5264.418333	381.125977	116.377235
10533.394149	5264.418333	379.846680	111.857735
10533.394149	5264.418333	378.567383	63.468033
10533.394149	5264.418333	377.287109	6.039968
10533.394149	5264.418333	376.006836	37.513561
10533.394149	5264.418333	374.726563	70.783989
10533.394149	5264.418333	373.446289	171.098114
10533.394149	5264.418333	372.165039	25.201738
10533.394149	5264.418333	370.883789	189.903122
10533.394149	5264.418333	369.602539	78.023712
10533.394149	5264.418333	368.320313	120.059128
10533.394149	5264.418333	367.039063	-94.770927
10533.394149	5264.418333	365.755859	20.218269
10533.394149	5264.418333	364.473633	-39.072140
10533.394149	5264.418333	363.190430	-61.933376
10533.394149	5264.418333	361.907227	177.402191
10533.394149	5264.418333	360.624023	181.673996
10533.394149	5264.418333	359.340820	87.737747
10533.394149	5264.418333	358.056641	147.303268
10533.394149	5264.418333	356.772461	121.656990
10533.394149	5264.418333	355.487305	82.384331
10533.394149	5264.418333	354.202148	-57.237690
10533.394149	5264.418333	352.916992	-102.063293
10533.394149	5264.418333	351.631836	30.183176
10533.394149	5264.418333	350.346680	38.173855
10533.394149	5264.418333	349.060547	12.933975
10533.394149	5264.418333	347.774414	10.797511
10533.394149	5264.418333	346.487305	-89.560669
10533.394149	5264.418333	345.200195	6.355947
10533.394149	5264.418333	343.913086	200.992645
10533.394149	5264.418333	342.625977	52.803421
10533.394149	5264.418333	341.338867	83.398445
10533.394149	5264.418333	340.050781	-211.383469
10533.394149	5264.418333	338.762695	87.769684
10533.394149	5264.418333	337.473633	-44.429939
10533.394149	5264.418333	336.184570	4.045537
10533.394149	5264.418333	334.895508	19.091259
10533.394149	5264.418333	333.606445	-48.994942
10533.394149	5264.418333	332.317383	-27.369003
10533.394149	5264.418333	331.027344	-153.726227
10533.394149	5264.418333	329.736328	-4.782061
10533.394149	5264.418333	328.446289	-83.690453
10533.394149	5264.418333	327.155273	-168.088562
10533.394149	5264.418333	325.864258	20.391024
10533.394149	5264.418333	324.573242	-64.287865
10533.394149	5264.418333	323.281250	2.899244
10533.394149	5264.418333	321.989258	-136.122223
10533.394149	5264.418333	320.697266	-11.247169
10533.394149	5264.418333	319.405273	82.007668
10533.394149	5264.418333	318.112305	27.214188
10533.394149	5264.418333	316.819336	-87.196548
10533.394149	5264.418333	315.526367	89.896858
10533.394149	5264.418333	314.232422	43.497936
10533.394149	5264.418333	312.938477	36.440750
10533.394149	5264.418333	311.644531	-101.406853
10533.394149	5264.418333	310.349609	-79.498840
10533.394149	5264.418333	309.054688	59.026047
10533.394149	5264.418333	307.759766	107.522186
10533.394149	5264.418333	306.464844	3.629193
10533.394149	5264.418333	305.168945	-65.572998
10533.394149	5264.418333	303.873047	226.675690
10533.394149	5264.418333	302.577148	241.716049
10533.394149	5264.418333	301.281250	353.593964
10533.394149	5264.418333	299.984375	373.070923
