#X		#Y		#Wave		#Intensity
10116.741489	4159.358333	1999.946289	107.989433
10116.741489	4159.358333	1998.981445	-57.821899
10116.741489	4159.358333	1998.017578	-8.854028
10116.741489	4159.358333	1997.052734	-51.652100
10116.741489	4159.358333	1996.088867	39.302845
10116.741489	4159.358333	1995.124023	33.559116
10116.741489	4159.358333	1994.159180	-41.583920
10116.741489	4159.358333	1993.193359	39.255180
10116.741489	4159.358333	1992.228516	139.821274
10116.741489	4159.358333	1991.262695	52.174305
10116.741489	4159.358333	1990.296875	-10.737806
10116.741489	4159.358333	1989.331055	57.474129
10116.741489	4159.358333	1988.365234	56.344784
10116.741489	4159.358333	1987.398438	139.273209
10116.741489	4159.358333	1986.432617	130.627167
10116.741489	4159.358333	1985.465820	163.978622
10116.741489	4159.358333	1984.499023	24.229176
10116.741489	4159.358333	1983.532227	-21.581285
10116.741489	4159.358333	1982.565430	117.931351
10116.741489	4159.358333	1981.597656	116.523651
10116.741489	4159.358333	1980.629883	-67.719635
10116.741489	4159.358333	1979.662109	24.696836
10116.741489	4159.358333	1978.694336	-3.952296
10116.741489	4159.358333	1977.726563	-35.089703
10116.741489	4159.358333	1976.758789	-132.892471
10116.741489	4159.358333	1975.790039	67.942497
10116.741489	4159.358333	1974.821289	-111.327660
10116.741489	4159.358333	1973.852539	5.495402
10116.741489	4159.358333	1972.883789	90.184189
10116.741489	4159.358333	1971.915039	9.583956
10116.741489	4159.358333	1970.945313	-41.420902
10116.741489	4159.358333	1969.975586	16.043474
10116.741489	4159.358333	1969.005859	46.353024
10116.741489	4159.358333	1968.036133	128.382690
10116.741489	4159.358333	1967.066406	67.457573
10116.741489	4159.358333	1966.096680	105.074165
10116.741489	4159.358333	1965.125977	-76.545975
10116.741489	4159.358333	1964.155273	-93.126190
10116.741489	4159.358333	1963.184570	104.483749
10116.741489	4159.358333	1962.213867	100.153770
10116.741489	4159.358333	1961.242188	34.282047
10116.741489	4159.358333	1960.271484	-112.780487
10116.741489	4159.358333	1959.299805	121.534164
10116.741489	4159.358333	1958.328125	-13.216119
10116.741489	4159.358333	1957.356445	110.300407
10116.741489	4159.358333	1956.384766	86.229431
10116.741489	4159.358333	1955.412109	94.115425
10116.741489	4159.358333	1954.439453	109.362923
10116.741489	4159.358333	1953.467773	-62.171848
10116.741489	4159.358333	1952.495117	21.879597
10116.741489	4159.358333	1951.521484	110.804436
10116.741489	4159.358333	1950.548828	57.235355
10116.741489	4159.358333	1949.575195	160.840561
10116.741489	4159.358333	1948.601563	-0.760143
10116.741489	4159.358333	1947.627930	9.526049
10116.741489	4159.358333	1946.654297	-24.373621
10116.741489	4159.358333	1945.680664	84.057434
10116.741489	4159.358333	1944.706055	35.426430
10116.741489	4159.358333	1943.732422	87.381622
10116.741489	4159.358333	1942.757813	232.506088
10116.741489	4159.358333	1941.783203	129.921509
10116.741489	4159.358333	1940.807617	7.759439
10116.741489	4159.358333	1939.833008	-40.825546
10116.741489	4159.358333	1938.857422	-42.832481
10116.741489	4159.358333	1937.881836	-103.644615
10116.741489	4159.358333	1936.906250	-29.699593
10116.741489	4159.358333	1935.930664	14.825665
10116.741489	4159.358333	1934.955078	74.027176
10116.741489	4159.358333	1933.978516	59.755150
10116.741489	4159.358333	1933.001953	-3.469426
10116.741489	4159.358333	1932.025391	26.333212
10116.741489	4159.358333	1931.048828	-46.648197
10116.741489	4159.358333	1930.072266	-104.921700
10116.741489	4159.358333	1929.094727	49.635315
10116.741489	4159.358333	1928.118164	-50.206539
10116.741489	4159.358333	1927.140625	-8.191548
10116.741489	4159.358333	1926.163086	-2.860344
10116.741489	4159.358333	1925.184570	-73.302261
10116.741489	4159.358333	1924.207031	-11.749191
10116.741489	4159.358333	1923.228516	79.102898
10116.741489	4159.358333	1922.250000	52.664970
10116.741489	4159.358333	1921.271484	143.476746
10116.741489	4159.358333	1920.292969	87.739029
10116.741489	4159.358333	1919.314453	5.168753
10116.741489	4159.358333	1918.334961	-43.193573
10116.741489	4159.358333	1917.355469	-81.772003
10116.741489	4159.358333	1916.375977	26.076626
10116.741489	4159.358333	1915.396484	14.343131
10116.741489	4159.358333	1914.416992	-14.456291
10116.741489	4159.358333	1913.436523	20.165619
10116.741489	4159.358333	1912.457031	30.396673
10116.741489	4159.358333	1911.476563	67.443237
10116.741489	4159.358333	1910.496094	48.419247
10116.741489	4159.358333	1909.515625	58.649940
10116.741489	4159.358333	1908.534180	-11.524899
10116.741489	4159.358333	1907.552734	13.336756
10116.741489	4159.358333	1906.572266	152.667145
10116.741489	4159.358333	1905.590820	97.137466
10116.741489	4159.358333	1904.608398	-89.842079
10116.741489	4159.358333	1903.626953	-113.652695
10116.741489	4159.358333	1902.644531	-8.461038
10116.741489	4159.358333	1901.663086	94.263771
10116.741489	4159.358333	1900.680664	-97.424706
10116.741489	4159.358333	1899.698242	95.284119
10116.741489	4159.358333	1898.714844	-45.254372
10116.741489	4159.358333	1897.732422	76.867599
10116.741489	4159.358333	1896.749023	11.755356
10116.741489	4159.358333	1895.765625	22.020229
10116.741489	4159.358333	1894.782227	-171.847122
10116.741489	4159.358333	1893.798828	-61.926823
10116.741489	4159.358333	1892.814453	23.662855
10116.741489	4159.358333	1891.831055	-24.358381
10116.741489	4159.358333	1890.846680	73.341385
10116.741489	4159.358333	1889.862305	64.181030
10116.741489	4159.358333	1888.877930	161.834305
10116.741489	4159.358333	1887.892578	-99.737473
10116.741489	4159.358333	1886.908203	36.740520
10116.741489	4159.358333	1885.922852	-3.932010
10116.741489	4159.358333	1884.937500	20.904495
10116.741489	4159.358333	1883.952148	57.860283
10116.741489	4159.358333	1882.965820	-43.403126
10116.741489	4159.358333	1881.980469	-57.352673
10116.741489	4159.358333	1880.994141	69.284508
10116.741489	4159.358333	1880.007813	-41.609886
10116.741489	4159.358333	1879.021484	-84.619484
10116.741489	4159.358333	1878.035156	27.424051
10116.741489	4159.358333	1877.047852	-49.487202
10116.741489	4159.358333	1876.061523	69.776443
10116.741489	4159.358333	1875.074219	75.206131
10116.741489	4159.358333	1874.086914	-21.029865
10116.741489	4159.358333	1873.098633	-68.826172
10116.741489	4159.358333	1872.111328	106.010338
10116.741489	4159.358333	1871.123047	24.341417
10116.741489	4159.358333	1870.135742	39.456867
10116.741489	4159.358333	1869.147461	-8.310369
10116.741489	4159.358333	1868.158203	-5.284173
10116.741489	4159.358333	1867.169922	14.664106
10116.741489	4159.358333	1866.180664	-88.660904
10116.741489	4159.358333	1865.192383	-15.539738
10116.741489	4159.358333	1864.203125	26.144239
10116.741489	4159.358333	1863.213867	84.721870
10116.741489	4159.358333	1862.223633	-18.539871
10116.741489	4159.358333	1861.234375	90.732277
10116.741489	4159.358333	1860.244141	-19.735184
10116.741489	4159.358333	1859.253906	123.287506
10116.741489	4159.358333	1858.263672	-6.453255
10116.741489	4159.358333	1857.273438	15.866591
10116.741489	4159.358333	1856.282227	71.950043
10116.741489	4159.358333	1855.291992	38.768021
10116.741489	4159.358333	1854.300781	-32.988640
10116.741489	4159.358333	1853.309570	-37.209324
10116.741489	4159.358333	1852.317383	11.601938
10116.741489	4159.358333	1851.326172	7.370162
10116.741489	4159.358333	1850.333984	-13.731395
10116.741489	4159.358333	1849.342773	83.228149
10116.741489	4159.358333	1848.350586	30.800468
10116.741489	4159.358333	1847.357422	81.948753
10116.741489	4159.358333	1846.365234	-1.767690
10116.741489	4159.358333	1845.372070	10.841962
10116.741489	4159.358333	1844.379883	23.443962
10116.741489	4159.358333	1843.386719	31.223743
10116.741489	4159.358333	1842.393555	0.499453
10116.741489	4159.358333	1841.399414	-83.142639
10116.741489	4159.358333	1840.406250	-99.410759
10116.741489	4159.358333	1839.412109	-0.249881
10116.741489	4159.358333	1838.417969	60.399864
10116.741489	4159.358333	1837.423828	8.042207
10116.741489	4159.358333	1836.429688	-10.653111
10116.741489	4159.358333	1835.434570	69.172623
10116.741489	4159.358333	1834.440430	74.487495
10116.741489	4159.358333	1833.445313	-25.895685
10116.741489	4159.358333	1832.450195	-22.978559
10116.741489	4159.358333	1831.454102	32.755772
10116.741489	4159.358333	1830.458984	-96.388138
10116.741489	4159.358333	1829.462891	57.735977
10116.741489	4159.358333	1828.466797	180.598679
10116.741489	4159.358333	1827.470703	-42.092697
10116.741489	4159.358333	1826.474609	68.735428
10116.741489	4159.358333	1825.478516	-14.756474
10116.741489	4159.358333	1824.481445	148.764877
10116.741489	4159.358333	1823.484375	74.864777
10116.741489	4159.358333	1822.487305	-109.279678
10116.741489	4159.358333	1821.490234	154.802536
10116.741489	4159.358333	1820.493164	143.220657
10116.741489	4159.358333	1819.495117	64.554482
10116.741489	4159.358333	1818.498047	0.282569
10116.741489	4159.358333	1817.500000	34.212669
10116.741489	4159.358333	1816.500977	106.429565
10116.741489	4159.358333	1815.502930	137.916245
10116.741489	4159.358333	1814.504883	42.530354
10116.741489	4159.358333	1813.505859	97.928352
10116.741489	4159.358333	1812.506836	76.736183
10116.741489	4159.358333	1811.507813	127.304787
10116.741489	4159.358333	1810.508789	-3.918726
10116.741489	4159.358333	1809.508789	8.368074
10116.741489	4159.358333	1808.508789	70.845863
10116.741489	4159.358333	1807.508789	56.801620
10116.741489	4159.358333	1806.508789	61.871429
10116.741489	4159.358333	1805.508789	-47.760262
10116.741489	4159.358333	1804.508789	-2.080899
10116.741489	4159.358333	1803.507813	0.577625
10116.741489	4159.358333	1802.506836	113.073784
10116.741489	4159.358333	1801.505859	39.286858
10116.741489	4159.358333	1800.504883	-10.611903
10116.741489	4159.358333	1799.502930	13.483079
10116.741489	4159.358333	1798.501953	23.242126
10116.741489	4159.358333	1797.500000	-31.430145
10116.741489	4159.358333	1796.498047	71.337509
10116.741489	4159.358333	1795.496094	-42.967228
10116.741489	4159.358333	1794.493164	31.127380
10116.741489	4159.358333	1793.491211	131.407013
10116.741489	4159.358333	1792.488281	98.159477
10116.741489	4159.358333	1791.485352	64.913330
10116.741489	4159.358333	1790.482422	191.301758
10116.741489	4159.358333	1789.478516	136.586014
10116.741489	4159.358333	1788.475586	-96.746460
10116.741489	4159.358333	1787.471680	62.901161
10116.741489	4159.358333	1786.467773	-20.364899
10116.741489	4159.358333	1785.463867	77.294632
10116.741489	4159.358333	1784.459961	113.027618
10116.741489	4159.358333	1783.455078	70.211464
10116.741489	4159.358333	1782.450195	60.704899
10116.741489	4159.358333	1781.445313	-91.522911
10116.741489	4159.358333	1780.440430	120.141228
10116.741489	4159.358333	1779.435547	122.480942
10116.741489	4159.358333	1778.429688	117.673393
10116.741489	4159.358333	1777.424805	134.247314
10116.741489	4159.358333	1776.418945	110.403328
10116.741489	4159.358333	1775.413086	-44.115982
10116.741489	4159.358333	1774.406250	-44.191086
10116.741489	4159.358333	1773.400391	110.092598
10116.741489	4159.358333	1772.393555	-44.379364
10116.741489	4159.358333	1771.386719	-30.250036
10116.741489	4159.358333	1770.379883	12.343320
10116.741489	4159.358333	1769.373047	45.414326
10116.741489	4159.358333	1768.365234	-120.846756
10116.741489	4159.358333	1767.358398	-75.928993
10116.741489	4159.358333	1766.350586	144.467606
10116.741489	4159.358333	1765.342773	-31.243793
10116.741489	4159.358333	1764.334961	46.781017
10116.741489	4159.358333	1763.326172	138.983215
10116.741489	4159.358333	1762.318359	79.459831
10116.741489	4159.358333	1761.309570	-22.707544
10116.741489	4159.358333	1760.300781	55.199036
10116.741489	4159.358333	1759.291016	-49.323132
10116.741489	4159.358333	1758.282227	7.217603
10116.741489	4159.358333	1757.272461	87.397881
10116.741489	4159.358333	1756.262695	115.454262
10116.741489	4159.358333	1755.252930	167.153809
10116.741489	4159.358333	1754.243164	22.411556
10116.741489	4159.358333	1753.233398	74.080521
10116.741489	4159.358333	1752.222656	106.790749
10116.741489	4159.358333	1751.211914	113.459030
10116.741489	4159.358333	1750.201172	-28.856518
10116.741489	4159.358333	1749.190430	-22.193499
10116.741489	4159.358333	1748.179688	-10.819486
10116.741489	4159.358333	1747.167969	38.345707
10116.741489	4159.358333	1746.156250	7.143761
10116.741489	4159.358333	1745.144531	53.895977
10116.741489	4159.358333	1744.132813	-69.437675
10116.741489	4159.358333	1743.121094	-36.885487
10116.741489	4159.358333	1742.108398	-23.249168
10116.741489	4159.358333	1741.095703	70.624557
10116.741489	4159.358333	1740.083008	110.167366
10116.741489	4159.358333	1739.070313	55.296757
10116.741489	4159.358333	1738.057617	45.256901
10116.741489	4159.358333	1737.043945	-30.839401
10116.741489	4159.358333	1736.030273	-121.069756
10116.741489	4159.358333	1735.016602	-86.315956
10116.741489	4159.358333	1734.002930	-37.445644
10116.741489	4159.358333	1732.989258	-115.880653
10116.741489	4159.358333	1731.974609	8.353588
10116.741489	4159.358333	1730.959961	2.946146
10116.741489	4159.358333	1729.945313	-122.606346
10116.741489	4159.358333	1728.930664	-36.165169
10116.741489	4159.358333	1727.916016	12.554891
10116.741489	4159.358333	1726.900391	-44.699192
10116.741489	4159.358333	1725.885742	-7.792308
10116.741489	4159.358333	1724.870117	179.696198
10116.741489	4159.358333	1723.853516	68.284393
10116.741489	4159.358333	1722.837891	-76.029709
10116.741489	4159.358333	1721.822266	47.820656
10116.741489	4159.358333	1720.805664	122.226463
10116.741489	4159.358333	1719.789063	-5.600112
10116.741489	4159.358333	1718.772461	47.605652
10116.741489	4159.358333	1717.754883	-51.984547
10116.741489	4159.358333	1716.738281	74.023911
10116.741489	4159.358333	1715.720703	61.362995
10116.741489	4159.358333	1714.703125	74.530617
10116.741489	4159.358333	1713.685547	-83.749527
10116.741489	4159.358333	1712.667969	-11.887486
10116.741489	4159.358333	1711.649414	-111.431847
10116.741489	4159.358333	1710.630859	-37.272354
10116.741489	4159.358333	1709.612305	27.459736
10116.741489	4159.358333	1708.593750	101.538445
10116.741489	4159.358333	1707.575195	-110.593262
10116.741489	4159.358333	1706.555664	-212.433716
10116.741489	4159.358333	1705.536133	-35.221218
10116.741489	4159.358333	1704.516602	-24.534781
10116.741489	4159.358333	1703.497070	9.573949
10116.741489	4159.358333	1702.477539	92.869720
10116.741489	4159.358333	1701.457031	33.197918
10116.741489	4159.358333	1700.437500	-80.337479
10116.741489	4159.358333	1699.416992	47.388760
10116.741489	4159.358333	1698.395508	55.629635
10116.741489	4159.358333	1697.375000	-43.835018
10116.741489	4159.358333	1696.354492	11.214194
10116.741489	4159.358333	1695.333008	-36.743118
10116.741489	4159.358333	1694.311523	-61.295231
10116.741489	4159.358333	1693.290039	-83.509407
10116.741489	4159.358333	1692.267578	60.334660
10116.741489	4159.358333	1691.246094	105.899254
10116.741489	4159.358333	1690.223633	50.898788
10116.741489	4159.358333	1689.201172	96.424248
10116.741489	4159.358333	1688.178711	4.031904
10116.741489	4159.358333	1687.155273	-62.634621
10116.741489	4159.358333	1686.132813	17.898565
10116.741489	4159.358333	1685.109375	149.775009
10116.741489	4159.358333	1684.085938	-0.982635
10116.741489	4159.358333	1683.062500	-37.283398
10116.741489	4159.358333	1682.039063	-169.290710
10116.741489	4159.358333	1681.014648	128.189758
10116.741489	4159.358333	1679.990234	-20.154707
10116.741489	4159.358333	1678.965820	20.526609
10116.741489	4159.358333	1677.941406	105.503387
10116.741489	4159.358333	1676.916992	-63.768185
10116.741489	4159.358333	1675.891602	-25.463394
10116.741489	4159.358333	1674.866211	10.486890
10116.741489	4159.358333	1673.840820	48.745899
10116.741489	4159.358333	1672.815430	-71.483574
10116.741489	4159.358333	1671.790039	-49.550011
10116.741489	4159.358333	1670.763672	-46.271324
10116.741489	4159.358333	1669.737305	19.881632
10116.741489	4159.358333	1668.710938	106.958321
10116.741489	4159.358333	1667.684570	47.321701
10116.741489	4159.358333	1666.658203	48.220455
10116.741489	4159.358333	1665.630859	35.145252
10116.741489	4159.358333	1664.603516	24.394800
10116.741489	4159.358333	1663.576172	-102.674789
10116.741489	4159.358333	1662.548828	-6.418335
10116.741489	4159.358333	1661.520508	-19.503389
10116.741489	4159.358333	1660.493164	11.587281
10116.741489	4159.358333	1659.464844	-92.166168
10116.741489	4159.358333	1658.436523	31.874353
10116.741489	4159.358333	1657.408203	-88.120567
10116.741489	4159.358333	1656.378906	158.984711
10116.741489	4159.358333	1655.350586	-60.877491
10116.741489	4159.358333	1654.321289	44.456543
10116.741489	4159.358333	1653.291992	66.158134
10116.741489	4159.358333	1652.261719	64.629532
10116.741489	4159.358333	1651.232422	65.419777
10116.741489	4159.358333	1650.202148	126.535332
10116.741489	4159.358333	1649.171875	29.859461
10116.741489	4159.358333	1648.141602	-31.989996
10116.741489	4159.358333	1647.111328	-40.479656
10116.741489	4159.358333	1646.080078	-55.928978
10116.741489	4159.358333	1645.049805	127.995316
10116.741489	4159.358333	1644.018555	117.146820
10116.741489	4159.358333	1642.987305	55.317017
10116.741489	4159.358333	1641.955078	148.736740
10116.741489	4159.358333	1640.923828	40.588886
10116.741489	4159.358333	1639.891602	205.764648
10116.741489	4159.358333	1638.859375	132.371902
10116.741489	4159.358333	1637.827148	146.978226
10116.741489	4159.358333	1636.794922	80.563782
10116.741489	4159.358333	1635.761719	326.586914
10116.741489	4159.358333	1634.729492	-5.923711
10116.741489	4159.358333	1633.696289	71.145203
10116.741489	4159.358333	1632.662109	83.418839
10116.741489	4159.358333	1631.628906	116.500549
10116.741489	4159.358333	1630.594727	57.087151
10116.741489	4159.358333	1629.561523	23.124275
10116.741489	4159.358333	1628.527344	58.502098
10116.741489	4159.358333	1627.493164	153.941330
10116.741489	4159.358333	1626.458008	249.339310
10116.741489	4159.358333	1625.423828	243.075256
10116.741489	4159.358333	1624.388672	204.480255
10116.741489	4159.358333	1623.353516	348.296509
10116.741489	4159.358333	1622.318359	312.004211
10116.741489	4159.358333	1621.282227	379.579254
10116.741489	4159.358333	1620.247070	271.763214
10116.741489	4159.358333	1619.210938	316.249939
10116.741489	4159.358333	1618.174805	349.187439
10116.741489	4159.358333	1617.137695	303.701508
10116.741489	4159.358333	1616.101563	212.123550
10116.741489	4159.358333	1615.064453	231.230469
10116.741489	4159.358333	1614.027344	294.121399
10116.741489	4159.358333	1612.990234	329.337982
10116.741489	4159.358333	1611.953125	302.336975
10116.741489	4159.358333	1610.916016	332.934479
10116.741489	4159.358333	1609.877930	345.095734
10116.741489	4159.358333	1608.839844	124.698112
10116.741489	4159.358333	1607.801758	157.617828
10116.741489	4159.358333	1606.763672	268.783234
10116.741489	4159.358333	1605.724609	338.483856
10116.741489	4159.358333	1604.685547	56.146847
10116.741489	4159.358333	1603.646484	231.681107
10116.741489	4159.358333	1602.607422	349.653687
10116.741489	4159.358333	1601.568359	249.141953
10116.741489	4159.358333	1600.528320	355.575012
10116.741489	4159.358333	1599.489258	321.764557
10116.741489	4159.358333	1598.449219	127.105339
10116.741489	4159.358333	1597.408203	176.069199
10116.741489	4159.358333	1596.368164	195.157776
10116.741489	4159.358333	1595.327148	83.329262
10116.741489	4159.358333	1594.287109	90.956360
10116.741489	4159.358333	1593.246094	169.752686
10116.741489	4159.358333	1592.204102	67.187668
10116.741489	4159.358333	1591.163086	150.557770
10116.741489	4159.358333	1590.121094	123.764656
10116.741489	4159.358333	1589.079102	252.979568
10116.741489	4159.358333	1588.037109	168.849182
10116.741489	4159.358333	1586.995117	9.084609
10116.741489	4159.358333	1585.953125	129.093719
10116.741489	4159.358333	1584.910156	207.799393
10116.741489	4159.358333	1583.867188	201.685364
10116.741489	4159.358333	1582.824219	291.816254
10116.741489	4159.358333	1581.781250	134.504227
10116.741489	4159.358333	1580.737305	256.689789
10116.741489	4159.358333	1579.693359	92.588051
10116.741489	4159.358333	1578.649414	265.117676
10116.741489	4159.358333	1577.605469	307.110321
10116.741489	4159.358333	1576.561523	159.138000
10116.741489	4159.358333	1575.516602	301.827698
10116.741489	4159.358333	1574.472656	87.585503
10116.741489	4159.358333	1573.427734	58.703442
10116.741489	4159.358333	1572.381836	178.482483
10116.741489	4159.358333	1571.336914	76.446327
10116.741489	4159.358333	1570.291016	-30.115892
10116.741489	4159.358333	1569.246094	160.488922
10116.741489	4159.358333	1568.200195	193.357559
10116.741489	4159.358333	1567.153320	73.152313
10116.741489	4159.358333	1566.107422	83.202454
10116.741489	4159.358333	1565.060547	20.177084
10116.741489	4159.358333	1564.013672	137.563187
10116.741489	4159.358333	1562.966797	177.297424
10116.741489	4159.358333	1561.919922	143.990799
10116.741489	4159.358333	1560.872070	83.322220
10116.741489	4159.358333	1559.825195	191.517807
10116.741489	4159.358333	1558.777344	-78.968040
10116.741489	4159.358333	1557.729492	172.911118
10116.741489	4159.358333	1556.680664	80.402641
10116.741489	4159.358333	1555.632813	247.825287
10116.741489	4159.358333	1554.583984	73.308838
10116.741489	4159.358333	1553.535156	211.063293
10116.741489	4159.358333	1552.486328	61.706448
10116.741489	4159.358333	1551.436523	176.650742
10116.741489	4159.358333	1550.387695	207.299301
10116.741489	4159.358333	1549.337891	37.571571
10116.741489	4159.358333	1548.288086	75.086647
10116.741489	4159.358333	1547.238281	210.470154
10116.741489	4159.358333	1546.187500	90.939743
10116.741489	4159.358333	1545.136719	205.812729
10116.741489	4159.358333	1544.086914	102.280884
10116.741489	4159.358333	1543.035156	248.969131
10116.741489	4159.358333	1541.984375	281.922729
10116.741489	4159.358333	1540.933594	294.415955
10116.741489	4159.358333	1539.881836	163.720306
10116.741489	4159.358333	1538.830078	305.787720
10116.741489	4159.358333	1537.778320	334.210663
10116.741489	4159.358333	1536.725586	346.732697
10116.741489	4159.358333	1535.673828	372.892365
10116.741489	4159.358333	1534.621094	462.632904
10116.741489	4159.358333	1533.568359	470.622986
10116.741489	4159.358333	1532.515625	399.180634
10116.741489	4159.358333	1531.461914	454.862488
10116.741489	4159.358333	1530.409180	612.639587
10116.741489	4159.358333	1529.355469	543.520630
10116.741489	4159.358333	1528.301758	460.835480
10116.741489	4159.358333	1527.247070	409.941589
10116.741489	4159.358333	1526.193359	465.638947
10116.741489	4159.358333	1525.138672	154.127319
10116.741489	4159.358333	1524.083984	164.556778
10116.741489	4159.358333	1523.029297	199.920547
10116.741489	4159.358333	1521.974609	90.305191
10116.741489	4159.358333	1520.918945	157.406677
10116.741489	4159.358333	1519.863281	170.150848
10116.741489	4159.358333	1518.807617	187.433777
10116.741489	4159.358333	1517.751953	120.974335
10116.741489	4159.358333	1516.696289	56.820465
10116.741489	4159.358333	1515.639648	117.151131
10116.741489	4159.358333	1514.583008	238.553207
10116.741489	4159.358333	1513.526367	47.803162
10116.741489	4159.358333	1512.469727	19.957726
10116.741489	4159.358333	1511.412109	-25.949102
10116.741489	4159.358333	1510.355469	38.940250
10116.741489	4159.358333	1509.297852	29.240099
10116.741489	4159.358333	1508.240234	-5.293834
10116.741489	4159.358333	1507.181641	21.195759
10116.741489	4159.358333	1506.124023	104.158104
10116.741489	4159.358333	1505.065430	78.711060
10116.741489	4159.358333	1504.006836	125.538017
10116.741489	4159.358333	1502.948242	-60.134388
10116.741489	4159.358333	1501.888672	13.816361
10116.741489	4159.358333	1500.830078	137.395966
10116.741489	4159.358333	1499.770508	-30.070534
10116.741489	4159.358333	1498.710938	-53.102959
10116.741489	4159.358333	1497.650391	-60.325314
10116.741489	4159.358333	1496.590820	-69.779900
10116.741489	4159.358333	1495.530273	17.712475
10116.741489	4159.358333	1494.469727	-36.793396
10116.741489	4159.358333	1493.409180	-46.195393
10116.741489	4159.358333	1492.348633	2.996775
10116.741489	4159.358333	1491.287109	20.652859
10116.741489	4159.358333	1490.225586	51.831974
10116.741489	4159.358333	1489.164063	28.981936
10116.741489	4159.358333	1488.102539	15.163342
10116.741489	4159.358333	1487.041016	21.623320
10116.741489	4159.358333	1485.978516	-75.406487
10116.741489	4159.358333	1484.916016	-95.874382
10116.741489	4159.358333	1483.853516	-42.125046
10116.741489	4159.358333	1482.791016	-15.343969
10116.741489	4159.358333	1481.727539	-80.737923
10116.741489	4159.358333	1480.664063	-87.632729
10116.741489	4159.358333	1479.600586	22.338840
10116.741489	4159.358333	1478.537109	64.900467
10116.741489	4159.358333	1477.473633	-126.142151
10116.741489	4159.358333	1476.409180	-76.812592
10116.741489	4159.358333	1475.344727	51.080803
10116.741489	4159.358333	1474.280273	-146.489273
10116.741489	4159.358333	1473.215820	-23.089684
10116.741489	4159.358333	1472.151367	-184.584656
10116.741489	4159.358333	1471.085938	-121.726189
10116.741489	4159.358333	1470.020508	-11.757790
10116.741489	4159.358333	1468.955078	-0.476798
10116.741489	4159.358333	1467.888672	-2.881262
10116.741489	4159.358333	1466.823242	-101.165901
10116.741489	4159.358333	1465.756836	29.018381
10116.741489	4159.358333	1464.690430	107.568123
10116.741489	4159.358333	1463.624023	152.353470
10116.741489	4159.358333	1462.556641	-8.643579
10116.741489	4159.358333	1461.490234	94.234612
10116.741489	4159.358333	1460.422852	81.188393
10116.741489	4159.358333	1459.355469	16.443785
10116.741489	4159.358333	1458.287109	-88.009315
10116.741489	4159.358333	1457.219727	50.709717
10116.741489	4159.358333	1456.151367	118.116798
10116.741489	4159.358333	1455.083008	166.932983
10116.741489	4159.358333	1454.014648	234.801361
10116.741489	4159.358333	1452.945313	206.923813
10116.741489	4159.358333	1451.876953	204.804794
10116.741489	4159.358333	1450.807617	241.363220
10116.741489	4159.358333	1449.738281	172.033936
10116.741489	4159.358333	1448.668945	118.869682
10116.741489	4159.358333	1447.598633	119.098793
10116.741489	4159.358333	1446.528320	41.602325
10116.741489	4159.358333	1445.458008	135.895905
10116.741489	4159.358333	1444.387695	115.805679
10116.741489	4159.358333	1443.317383	100.598259
10116.741489	4159.358333	1442.246094	214.149048
10116.741489	4159.358333	1441.174805	99.389282
10116.741489	4159.358333	1440.103516	143.994736
10116.741489	4159.358333	1439.032227	183.162674
10116.741489	4159.358333	1437.960938	100.406723
10116.741489	4159.358333	1436.888672	81.388039
10116.741489	4159.358333	1435.816406	16.054373
10116.741489	4159.358333	1434.744141	-72.099190
10116.741489	4159.358333	1433.670898	143.310715
10116.741489	4159.358333	1432.598633	23.032455
10116.741489	4159.358333	1431.525391	184.236588
10116.741489	4159.358333	1430.452148	32.038261
10116.741489	4159.358333	1429.378906	-3.839427
10116.741489	4159.358333	1428.304688	-35.072601
10116.741489	4159.358333	1427.231445	-30.148430
10116.741489	4159.358333	1426.157227	-19.182310
10116.741489	4159.358333	1425.083008	-63.868290
10116.741489	4159.358333	1424.007813	51.224987
10116.741489	4159.358333	1422.933594	23.400242
10116.741489	4159.358333	1421.858398	81.210190
10116.741489	4159.358333	1420.783203	-79.501221
10116.741489	4159.358333	1419.708008	-53.988422
10116.741489	4159.358333	1418.631836	-14.353656
10116.741489	4159.358333	1417.555664	-65.276955
10116.741489	4159.358333	1416.479492	28.461853
10116.741489	4159.358333	1415.403320	4.205494
10116.741489	4159.358333	1414.327148	-35.204769
10116.741489	4159.358333	1413.250000	4.019036
10116.741489	4159.358333	1412.173828	-61.723091
10116.741489	4159.358333	1411.096680	53.449062
10116.741489	4159.358333	1410.018555	-61.464504
10116.741489	4159.358333	1408.941406	-15.077091
10116.741489	4159.358333	1407.863281	65.211838
10116.741489	4159.358333	1406.785156	-19.236929
10116.741489	4159.358333	1405.707031	66.648331
10116.741489	4159.358333	1404.628906	72.528206
10116.741489	4159.358333	1403.549805	42.843155
10116.741489	4159.358333	1402.470703	146.089645
10116.741489	4159.358333	1401.391602	150.805695
10116.741489	4159.358333	1400.312500	79.883835
10116.741489	4159.358333	1399.233398	180.973404
10116.741489	4159.358333	1398.153320	31.026653
10116.741489	4159.358333	1397.073242	154.391541
10116.741489	4159.358333	1395.993164	133.302353
10116.741489	4159.358333	1394.913086	165.389877
10116.741489	4159.358333	1393.832031	147.197784
10116.741489	4159.358333	1392.750977	4.498695
10116.741489	4159.358333	1391.669922	132.091385
10116.741489	4159.358333	1390.588867	-42.885052
10116.741489	4159.358333	1389.506836	83.221474
10116.741489	4159.358333	1388.425781	135.125595
10116.741489	4159.358333	1387.343750	109.165306
10116.741489	4159.358333	1386.261719	62.846050
10116.741489	4159.358333	1385.178711	115.251648
10116.741489	4159.358333	1384.096680	5.910068
10116.741489	4159.358333	1383.013672	24.290766
10116.741489	4159.358333	1381.930664	77.274132
10116.741489	4159.358333	1380.846680	-22.667776
10116.741489	4159.358333	1379.763672	7.462107
10116.741489	4159.358333	1378.679688	89.957108
10116.741489	4159.358333	1377.595703	-50.693581
10116.741489	4159.358333	1376.511719	20.542686
10116.741489	4159.358333	1375.427734	177.477341
10116.741489	4159.358333	1374.342773	149.550781
10116.741489	4159.358333	1373.257813	91.065132
10116.741489	4159.358333	1372.172852	1.154096
10116.741489	4159.358333	1371.087891	128.995316
10116.741489	4159.358333	1370.001953	121.418915
10116.741489	4159.358333	1368.916992	221.301010
10116.741489	4159.358333	1367.831055	180.545120
10116.741489	4159.358333	1366.744141	98.905556
10116.741489	4159.358333	1365.658203	226.472260
10116.741489	4159.358333	1364.571289	120.439804
10116.741489	4159.358333	1363.484375	57.252277
10116.741489	4159.358333	1362.397461	196.282135
10116.741489	4159.358333	1361.310547	235.424774
10116.741489	4159.358333	1360.222656	212.741898
10116.741489	4159.358333	1359.135742	178.242157
10116.741489	4159.358333	1358.047852	59.223862
10116.741489	4159.358333	1356.958984	41.027756
10116.741489	4159.358333	1355.871094	121.305008
10116.741489	4159.358333	1354.782227	170.503403
10116.741489	4159.358333	1353.693359	254.073212
10116.741489	4159.358333	1352.604492	150.072449
10116.741489	4159.358333	1351.515625	150.739273
10116.741489	4159.358333	1350.425781	104.147697
10116.741489	4159.358333	1349.335938	175.595612
10116.741489	4159.358333	1348.246094	290.090729
10116.741489	4159.358333	1347.156250	316.902435
10116.741489	4159.358333	1346.066406	347.381714
10116.741489	4159.358333	1344.975586	401.308228
10116.741489	4159.358333	1343.884766	429.990509
10116.741489	4159.358333	1342.793945	495.164795
10116.741489	4159.358333	1341.702148	675.532593
10116.741489	4159.358333	1340.611328	507.449768
10116.741489	4159.358333	1339.519531	447.759033
10116.741489	4159.358333	1338.427734	440.193665
10116.741489	4159.358333	1337.334961	264.450867
10116.741489	4159.358333	1336.243164	186.499161
10116.741489	4159.358333	1335.150391	282.864929
10116.741489	4159.358333	1334.057617	113.276047
10116.741489	4159.358333	1332.964844	124.802208
10116.741489	4159.358333	1331.871094	40.511780
10116.741489	4159.358333	1330.778320	114.261848
10116.741489	4159.358333	1329.684570	-7.292674
10116.741489	4159.358333	1328.590820	57.724937
10116.741489	4159.358333	1327.496094	71.309364
10116.741489	4159.358333	1326.402344	-24.121880
10116.741489	4159.358333	1325.307617	121.825981
10116.741489	4159.358333	1324.212891	7.398266
10116.741489	4159.358333	1323.117188	69.697121
10116.741489	4159.358333	1322.022461	40.011551
10116.741489	4159.358333	1320.926758	-45.364162
10116.741489	4159.358333	1319.831055	59.367001
10116.741489	4159.358333	1318.735352	57.833344
10116.741489	4159.358333	1317.638672	57.013042
10116.741489	4159.358333	1316.542969	108.107109
10116.741489	4159.358333	1315.446289	118.322517
10116.741489	4159.358333	1314.349609	42.659363
10116.741489	4159.358333	1313.251953	154.843430
10116.741489	4159.358333	1312.155273	163.426224
10116.741489	4159.358333	1311.057617	72.693413
10116.741489	4159.358333	1309.959961	66.048874
10116.741489	4159.358333	1308.862305	45.216587
10116.741489	4159.358333	1307.763672	161.437042
10116.741489	4159.358333	1306.665039	126.980766
10116.741489	4159.358333	1305.566406	106.889633
10116.741489	4159.358333	1304.467773	74.853455
10116.741489	4159.358333	1303.369141	41.260296
10116.741489	4159.358333	1302.269531	141.272568
10116.741489	4159.358333	1301.169922	43.446857
10116.741489	4159.358333	1300.070313	105.356308
10116.741489	4159.358333	1298.970703	26.998341
10116.741489	4159.358333	1297.870117	81.726807
10116.741489	4159.358333	1296.769531	122.407364
10116.741489	4159.358333	1295.668945	0.416353
10116.741489	4159.358333	1294.568359	47.453842
10116.741489	4159.358333	1293.466797	-143.143372
10116.741489	4159.358333	1292.366211	-5.771904
10116.741489	4159.358333	1291.264648	27.296667
10116.741489	4159.358333	1290.162109	67.215073
10116.741489	4159.358333	1289.060547	-61.241959
10116.741489	4159.358333	1287.958008	-33.583763
10116.741489	4159.358333	1286.855469	-100.155212
10116.741489	4159.358333	1285.752930	-57.586811
10116.741489	4159.358333	1284.650391	70.592522
10116.741489	4159.358333	1283.546875	15.178628
10116.741489	4159.358333	1282.444336	62.300644
10116.741489	4159.358333	1281.339844	35.773144
10116.741489	4159.358333	1280.236328	1.323298
10116.741489	4159.358333	1279.132813	40.897846
10116.741489	4159.358333	1278.028320	-67.893364
10116.741489	4159.358333	1276.923828	-21.876226
10116.741489	4159.358333	1275.819336	34.752354
10116.741489	4159.358333	1274.713867	5.529984
10116.741489	4159.358333	1273.608398	-52.374626
10116.741489	4159.358333	1272.503906	28.908857
10116.741489	4159.358333	1271.397461	-33.901470
10116.741489	4159.358333	1270.291992	21.680641
10116.741489	4159.358333	1269.185547	7.294551
10116.741489	4159.358333	1268.080078	-41.044567
10116.741489	4159.358333	1266.972656	-68.589729
10116.741489	4159.358333	1265.866211	21.831274
10116.741489	4159.358333	1264.759766	-51.722908
10116.741489	4159.358333	1263.652344	-67.161377
10116.741489	4159.358333	1262.544922	-159.886780
10116.741489	4159.358333	1261.436523	-74.972771
10116.741489	4159.358333	1260.329102	-116.978455
10116.741489	4159.358333	1259.220703	-148.904510
10116.741489	4159.358333	1258.112305	-117.903130
10116.741489	4159.358333	1257.003906	-123.996872
10116.741489	4159.358333	1255.895508	-235.064774
10116.741489	4159.358333	1254.786133	-153.537872
10116.741489	4159.358333	1253.676758	-116.992661
10116.741489	4159.358333	1252.567383	-64.492752
10116.741489	4159.358333	1251.458008	-152.486008
10116.741489	4159.358333	1250.347656	-78.366333
10116.741489	4159.358333	1249.237305	-59.637512
10116.741489	4159.358333	1248.126953	0.701814
10116.741489	4159.358333	1247.016602	-76.034019
10116.741489	4159.358333	1245.905273	-134.899048
10116.741489	4159.358333	1244.793945	-73.312119
10116.741489	4159.358333	1243.682617	-88.487206
10116.741489	4159.358333	1242.571289	-82.343361
10116.741489	4159.358333	1241.459961	-112.073578
10116.741489	4159.358333	1240.347656	-33.489674
10116.741489	4159.358333	1239.235352	-29.335220
10116.741489	4159.358333	1238.123047	-21.027807
10116.741489	4159.358333	1237.009766	-92.130226
10116.741489	4159.358333	1235.897461	34.572624
10116.741489	4159.358333	1234.784180	68.691116
10116.741489	4159.358333	1233.670898	40.068581
10116.741489	4159.358333	1232.556641	16.102692
10116.741489	4159.358333	1231.443359	-34.732685
10116.741489	4159.358333	1230.329102	-55.246098
10116.741489	4159.358333	1229.214844	113.774918
10116.741489	4159.358333	1228.099609	-4.069805
10116.741489	4159.358333	1226.985352	-1.169210
10116.741489	4159.358333	1225.870117	45.031944
10116.741489	4159.358333	1224.754883	25.673359
10116.741489	4159.358333	1223.639648	55.849171
10116.741489	4159.358333	1222.523438	82.157272
10116.741489	4159.358333	1221.408203	50.382042
10116.741489	4159.358333	1220.291992	50.048473
10116.741489	4159.358333	1219.174805	173.550018
10116.741489	4159.358333	1218.058594	148.046051
10116.741489	4159.358333	1216.941406	116.086472
10116.741489	4159.358333	1215.824219	82.488220
10116.741489	4159.358333	1214.707031	232.093002
10116.741489	4159.358333	1213.589844	97.655106
10116.741489	4159.358333	1212.471680	146.002914
10116.741489	4159.358333	1211.353516	48.537342
10116.741489	4159.358333	1210.235352	99.742188
10116.741489	4159.358333	1209.117188	54.066074
10116.741489	4159.358333	1207.998047	54.621578
10116.741489	4159.358333	1206.878906	219.146042
10116.741489	4159.358333	1205.759766	43.096397
10116.741489	4159.358333	1204.640625	12.223040
10116.741489	4159.358333	1203.520508	57.315304
10116.741489	4159.358333	1202.401367	135.883606
10116.741489	4159.358333	1201.281250	15.462257
10116.741489	4159.358333	1200.160156	61.366615
10116.741489	4159.358333	1199.040039	37.702297
10116.741489	4159.358333	1197.918945	85.061256
10116.741489	4159.358333	1196.797852	181.047043
10116.741489	4159.358333	1195.676758	-22.688580
10116.741489	4159.358333	1194.555664	-12.050971
10116.741489	4159.358333	1193.433594	105.220406
10116.741489	4159.358333	1192.311523	-17.265533
10116.741489	4159.358333	1191.189453	31.421307
10116.741489	4159.358333	1190.066406	2.805132
10116.741489	4159.358333	1188.944336	-30.002569
10116.741489	4159.358333	1187.821289	84.899246
10116.741489	4159.358333	1186.698242	122.792831
10116.741489	4159.358333	1185.574219	21.342064
10116.741489	4159.358333	1184.451172	168.646698
10116.741489	4159.358333	1183.327148	134.368530
10116.741489	4159.358333	1182.203125	108.843048
10116.741489	4159.358333	1181.078125	132.055878
10116.741489	4159.358333	1179.954102	58.790905
10116.741489	4159.358333	1178.829102	137.440353
10116.741489	4159.358333	1177.704102	85.927635
10116.741489	4159.358333	1176.579102	18.551479
10116.741489	4159.358333	1175.453125	116.635910
10116.741489	4159.358333	1174.327148	125.911942
10116.741489	4159.358333	1173.201172	79.791611
10116.741489	4159.358333	1172.075195	23.326099
10116.741489	4159.358333	1170.949219	41.338100
10116.741489	4159.358333	1169.822266	56.871841
10116.741489	4159.358333	1168.695313	37.910290
10116.741489	4159.358333	1167.568359	-40.012444
10116.741489	4159.358333	1166.440430	109.865150
10116.741489	4159.358333	1165.313477	54.466621
10116.741489	4159.358333	1164.185547	138.155884
10116.741489	4159.358333	1163.057617	44.950085
10116.741489	4159.358333	1161.928711	29.850489
10116.741489	4159.358333	1160.800781	-37.287697
10116.741489	4159.358333	1159.671875	-59.927242
10116.741489	4159.358333	1158.541992	-93.075539
10116.741489	4159.358333	1157.413086	-68.650307
10116.741489	4159.358333	1156.283203	-44.861404
10116.741489	4159.358333	1155.154297	-22.569410
10116.741489	4159.358333	1154.023438	-53.889126
10116.741489	4159.358333	1152.893555	162.612000
10116.741489	4159.358333	1151.763672	110.947411
10116.741489	4159.358333	1150.632813	-24.991997
10116.741489	4159.358333	1149.501953	51.281670
10116.741489	4159.358333	1148.370117	24.298943
10116.741489	4159.358333	1147.239258	166.606491
10116.741489	4159.358333	1146.107422	254.092117
10116.741489	4159.358333	1144.975586	152.914597
10116.741489	4159.358333	1143.843750	180.386871
10116.741489	4159.358333	1142.710938	127.942322
10116.741489	4159.358333	1141.578125	196.699692
10116.741489	4159.358333	1140.445313	104.842552
10116.741489	4159.358333	1139.312500	59.173084
10116.741489	4159.358333	1138.178711	75.372192
10116.741489	4159.358333	1137.045898	76.042755
10116.741489	4159.358333	1135.912109	2.522218
10116.741489	4159.358333	1134.777344	74.205055
10116.741489	4159.358333	1133.643555	-25.670572
10116.741489	4159.358333	1132.508789	104.131195
10116.741489	4159.358333	1131.374023	-9.161460
10116.741489	4159.358333	1130.239258	71.863533
10116.741489	4159.358333	1129.104492	131.799881
10116.741489	4159.358333	1127.968750	43.555996
10116.741489	4159.358333	1126.833008	-25.139425
10116.741489	4159.358333	1125.697266	93.171097
10116.741489	4159.358333	1124.560547	-67.328644
10116.741489	4159.358333	1123.424805	-107.323265
10116.741489	4159.358333	1122.288086	-34.362118
10116.741489	4159.358333	1121.151367	77.440735
10116.741489	4159.358333	1120.013672	62.691448
10116.741489	4159.358333	1118.876953	34.731300
10116.741489	4159.358333	1117.739258	-46.156067
10116.741489	4159.358333	1116.601563	71.514908
10116.741489	4159.358333	1115.462891	2.341094
10116.741489	4159.358333	1114.324219	79.532181
10116.741489	4159.358333	1113.186523	90.109894
10116.741489	4159.358333	1112.046875	50.103649
10116.741489	4159.358333	1110.908203	129.641190
10116.741489	4159.358333	1109.769531	81.260284
10116.741489	4159.358333	1108.629883	70.829773
10116.741489	4159.358333	1107.490234	50.736115
10116.741489	4159.358333	1106.349609	97.327141
10116.741489	4159.358333	1105.209961	-6.422975
10116.741489	4159.358333	1104.069336	73.402145
10116.741489	4159.358333	1102.928711	56.206089
10116.741489	4159.358333	1101.787109	109.575432
10116.741489	4159.358333	1100.646484	62.980965
10116.741489	4159.358333	1099.504883	124.454758
10116.741489	4159.358333	1098.363281	118.116722
10116.741489	4159.358333	1097.221680	-23.527306
10116.741489	4159.358333	1096.079102	134.421234
10116.741489	4159.358333	1094.936523	132.212646
10116.741489	4159.358333	1093.793945	77.426018
10116.741489	4159.358333	1092.651367	4.602314
10116.741489	4159.358333	1091.507813	-40.015167
10116.741489	4159.358333	1090.364258	22.254553
10116.741489	4159.358333	1089.220703	-33.948906
10116.741489	4159.358333	1088.077148	52.762623
10116.741489	4159.358333	1086.933594	77.968704
10116.741489	4159.358333	1085.789063	-117.262688
10116.741489	4159.358333	1084.644531	68.786560
10116.741489	4159.358333	1083.499023	22.368002
10116.741489	4159.358333	1082.354492	-87.065979
10116.741489	4159.358333	1081.208984	-19.404821
10116.741489	4159.358333	1080.063477	89.590111
10116.741489	4159.358333	1078.917969	-12.937650
10116.741489	4159.358333	1077.771484	130.507095
10116.741489	4159.358333	1076.625977	26.457335
10116.741489	4159.358333	1075.479492	-72.344086
10116.741489	4159.358333	1074.332031	20.796650
10116.741489	4159.358333	1073.185547	-65.833527
10116.741489	4159.358333	1072.038086	-20.503031
10116.741489	4159.358333	1070.890625	49.792927
10116.741489	4159.358333	1069.743164	39.567024
10116.741489	4159.358333	1068.594727	0.216278
10116.741489	4159.358333	1067.447266	94.996422
10116.741489	4159.358333	1066.298828	19.172188
10116.741489	4159.358333	1065.149414	28.084381
10116.741489	4159.358333	1064.000977	-43.335953
10116.741489	4159.358333	1062.851563	-37.787476
10116.741489	4159.358333	1061.702148	140.604767
10116.741489	4159.358333	1060.552734	73.928635
10116.741489	4159.358333	1059.402344	-17.556082
10116.741489	4159.358333	1058.252930	-26.125807
10116.741489	4159.358333	1057.102539	-81.108154
10116.741489	4159.358333	1055.951172	-16.612516
10116.741489	4159.358333	1054.800781	59.761951
10116.741489	4159.358333	1053.649414	-26.519905
10116.741489	4159.358333	1052.498047	-64.108490
10116.741489	4159.358333	1051.346680	86.833588
10116.741489	4159.358333	1050.194336	18.946444
10116.741489	4159.358333	1049.042969	61.622189
10116.741489	4159.358333	1047.890625	106.955986
10116.741489	4159.358333	1046.738281	218.535751
10116.741489	4159.358333	1045.584961	-87.755775
10116.741489	4159.358333	1044.431641	48.052650
10116.741489	4159.358333	1043.278320	85.423409
10116.741489	4159.358333	1042.125000	67.686089
10116.741489	4159.358333	1040.971680	142.138519
10116.741489	4159.358333	1039.817383	36.000393
10116.741489	4159.358333	1038.663086	-85.321045
10116.741489	4159.358333	1037.508789	-22.489847
10116.741489	4159.358333	1036.353516	-11.519773
10116.741489	4159.358333	1035.198242	40.992073
10116.741489	4159.358333	1034.042969	-9.635955
10116.741489	4159.358333	1032.887695	11.075144
10116.741489	4159.358333	1031.732422	160.575073
10116.741489	4159.358333	1030.576172	62.009724
10116.741489	4159.358333	1029.419922	-47.192104
10116.741489	4159.358333	1028.263672	49.641457
10116.741489	4159.358333	1027.106445	128.973679
10116.741489	4159.358333	1025.949219	-26.726116
10116.741489	4159.358333	1024.792969	-47.470978
10116.741489	4159.358333	1023.634766	53.133736
10116.741489	4159.358333	1022.477539	101.782730
10116.741489	4159.358333	1021.319336	-28.492521
10116.741489	4159.358333	1020.161133	42.703125
10116.741489	4159.358333	1019.002930	55.279339
10116.741489	4159.358333	1017.843750	-31.258669
10116.741489	4159.358333	1016.684570	-106.326279
10116.741489	4159.358333	1015.525391	-32.391273
10116.741489	4159.358333	1014.366211	-40.458046
10116.741489	4159.358333	1013.207031	27.166759
10116.741489	4159.358333	1012.046875	97.291077
10116.741489	4159.358333	1010.886719	-67.389137
10116.741489	4159.358333	1009.726563	70.660782
10116.741489	4159.358333	1008.565430	53.280987
10116.741489	4159.358333	1007.404297	77.862274
10116.741489	4159.358333	1006.243164	112.429535
10116.741489	4159.358333	1005.082031	63.157101
10116.741489	4159.358333	1003.920898	-57.227993
10116.741489	4159.358333	1002.758789	-52.489136
10116.741489	4159.358333	1001.596680	-9.707674
10116.741489	4159.358333	1000.433594	-20.395550
10116.741489	4159.358333	999.271484	10.822186
10116.741489	4159.358333	998.108398	-62.164291
10116.741489	4159.358333	996.945313	-55.389435
10116.741489	4159.358333	995.782227	85.957306
10116.741489	4159.358333	994.618164	87.161819
10116.741489	4159.358333	993.454102	22.192593
10116.741489	4159.358333	992.290039	42.872871
10116.741489	4159.358333	991.125977	78.793465
10116.741489	4159.358333	989.960938	83.340347
10116.741489	4159.358333	988.796875	10.500367
10116.741489	4159.358333	987.630859	-52.090088
10116.741489	4159.358333	986.465820	-44.182644
10116.741489	4159.358333	985.300781	80.601326
10116.741489	4159.358333	984.134766	30.357725
10116.741489	4159.358333	982.968750	87.321205
10116.741489	4159.358333	981.801758	-15.748288
10116.741489	4159.358333	980.635742	68.997498
10116.741489	4159.358333	979.468750	-18.568022
10116.741489	4159.358333	978.301758	147.316681
10116.741489	4159.358333	977.133789	-28.146578
10116.741489	4159.358333	975.966797	-111.330208
10116.741489	4159.358333	974.798828	-30.995108
10116.741489	4159.358333	973.630859	-85.041847
10116.741489	4159.358333	972.461914	-116.659729
10116.741489	4159.358333	971.293945	-17.832958
10116.741489	4159.358333	970.125000	-144.863968
10116.741489	4159.358333	968.956055	-18.419920
10116.741489	4159.358333	967.786133	73.911430
10116.741489	4159.358333	966.617188	83.135674
10116.741489	4159.358333	965.447266	13.592410
10116.741489	4159.358333	964.276367	196.515991
10116.741489	4159.358333	963.106445	142.462830
10116.741489	4159.358333	961.935547	-55.104969
10116.741489	4159.358333	960.764648	31.757811
10116.741489	4159.358333	959.593750	9.895391
10116.741489	4159.358333	958.422852	4.927883
10116.741489	4159.358333	957.250977	152.905655
10116.741489	4159.358333	956.079102	98.980461
10116.741489	4159.358333	954.907227	2.398389
10116.741489	4159.358333	953.734375	-16.840992
10116.741489	4159.358333	952.562500	-36.739788
10116.741489	4159.358333	951.389648	-118.513199
10116.741489	4159.358333	950.215820	17.979853
10116.741489	4159.358333	949.042969	-1.487312
10116.741489	4159.358333	947.869141	13.591747
10116.741489	4159.358333	946.695313	33.271656
10116.741489	4159.358333	945.521484	-8.205904
10116.741489	4159.358333	944.346680	-50.696865
10116.741489	4159.358333	943.172852	-67.379036
10116.741489	4159.358333	941.998047	46.599182
10116.741489	4159.358333	940.822266	-25.106474
10116.741489	4159.358333	939.647461	-62.247513
10116.741489	4159.358333	938.471680	-4.923043
10116.741489	4159.358333	937.295898	-12.264443
10116.741489	4159.358333	936.119141	45.040279
10116.741489	4159.358333	934.943359	114.486725
10116.741489	4159.358333	933.766602	65.141273
10116.741489	4159.358333	932.589844	-21.451172
10116.741489	4159.358333	931.413086	-78.270111
10116.741489	4159.358333	930.235352	-68.194008
10116.741489	4159.358333	929.057617	-73.037804
10116.741489	4159.358333	927.879883	97.952888
10116.741489	4159.358333	926.702148	-70.266388
10116.741489	4159.358333	925.523438	23.932232
10116.741489	4159.358333	924.344727	-3.181207
10116.741489	4159.358333	923.166016	-57.491001
10116.741489	4159.358333	921.987305	46.534573
10116.741489	4159.358333	920.807617	56.530670
10116.741489	4159.358333	919.627930	57.615021
10116.741489	4159.358333	919.497070	-64.425034
10116.741489	4159.358333	918.331055	34.578110
10116.741489	4159.358333	917.165039	71.736015
10116.741489	4159.358333	915.999023	59.443695
10116.741489	4159.358333	914.833008	32.324654
10116.741489	4159.358333	913.666016	44.737659
10116.741489	4159.358333	912.499023	-61.417313
10116.741489	4159.358333	911.332031	143.612656
10116.741489	4159.358333	910.165039	-95.854607
10116.741489	4159.358333	908.997070	-34.081432
10116.741489	4159.358333	907.830078	72.081322
10116.741489	4159.358333	906.661133	57.292908
10116.741489	4159.358333	905.493164	-75.909676
10116.741489	4159.358333	904.325195	81.972923
10116.741489	4159.358333	903.156250	-61.056057
10116.741489	4159.358333	901.987305	-21.592678
10116.741489	4159.358333	900.818359	163.277100
10116.741489	4159.358333	899.648438	69.587738
10116.741489	4159.358333	898.478516	27.671898
10116.741489	4159.358333	897.308594	-70.891830
10116.741489	4159.358333	896.138672	-65.980415
10116.741489	4159.358333	894.968750	-110.325829
10116.741489	4159.358333	893.797852	-100.497147
10116.741489	4159.358333	892.626953	-127.600632
10116.741489	4159.358333	891.456055	-34.116310
10116.741489	4159.358333	890.284180	120.833511
10116.741489	4159.358333	889.113281	29.723845
10116.741489	4159.358333	887.941406	-31.842260
10116.741489	4159.358333	886.768555	66.437393
10116.741489	4159.358333	885.596680	-56.584702
10116.741489	4159.358333	884.423828	19.525026
10116.741489	4159.358333	883.250977	-83.791801
10116.741489	4159.358333	882.078125	46.329521
10116.741489	4159.358333	880.905273	-12.750673
10116.741489	4159.358333	879.731445	-106.194801
10116.741489	4159.358333	878.557617	-57.197449
10116.741489	4159.358333	877.383789	89.967911
10116.741489	4159.358333	876.209961	21.081522
10116.741489	4159.358333	875.035156	-3.614268
10116.741489	4159.358333	873.860352	-18.493227
10116.741489	4159.358333	872.685547	-232.055389
10116.741489	4159.358333	871.510742	-1.661617
10116.741489	4159.358333	870.334961	0.609114
10116.741489	4159.358333	869.159180	20.030521
10116.741489	4159.358333	867.983398	-4.678675
10116.741489	4159.358333	866.807617	12.270064
10116.741489	4159.358333	865.630859	36.554585
10116.741489	4159.358333	864.454102	-95.936630
10116.741489	4159.358333	863.277344	60.582027
10116.741489	4159.358333	862.100586	6.471859
10116.741489	4159.358333	860.922852	111.485870
10116.741489	4159.358333	859.745117	-47.863396
10116.741489	4159.358333	858.567383	8.165714
10116.741489	4159.358333	857.389648	-63.044502
10116.741489	4159.358333	856.210938	-68.196144
10116.741489	4159.358333	855.032227	75.811241
10116.741489	4159.358333	853.853516	141.517166
10116.741489	4159.358333	852.674805	9.197972
10116.741489	4159.358333	851.495117	96.868813
10116.741489	4159.358333	850.315430	-32.959187
10116.741489	4159.358333	849.135742	137.723694
10116.741489	4159.358333	847.956055	105.616661
10116.741489	4159.358333	846.775391	75.956017
10116.741489	4159.358333	845.595703	29.209919
10116.741489	4159.358333	844.415039	11.765116
10116.741489	4159.358333	843.233398	35.804169
10116.741489	4159.358333	842.052734	308.684906
10116.741489	4159.358333	840.871094	157.006454
10116.741489	4159.358333	839.689453	-1.934875
10116.741489	4159.358333	838.506836	43.998093
10116.741489	4159.358333	837.325195	121.594879
10116.741489	4159.358333	836.142578	133.344193
10116.741489	4159.358333	834.959961	81.723061
10116.741489	4159.358333	833.777344	171.419922
10116.741489	4159.358333	832.593750	124.666611
10116.741489	4159.358333	831.410156	-70.629143
10116.741489	4159.358333	830.226563	45.799706
10116.741489	4159.358333	829.042969	-47.177250
10116.741489	4159.358333	827.858398	-28.169989
10116.741489	4159.358333	826.673828	-14.046648
10116.741489	4159.358333	825.489258	99.806015
10116.741489	4159.358333	824.304688	65.233185
10116.741489	4159.358333	823.120117	-3.378953
10116.741489	4159.358333	821.934570	-67.109650
10116.741489	4159.358333	820.749023	-57.899757
10116.741489	4159.358333	819.562500	-60.854427
10116.741489	4159.358333	818.376953	16.365429
10116.741489	4159.358333	817.190430	-10.914814
10116.741489	4159.358333	816.003906	-9.047600
10116.741489	4159.358333	814.817383	-21.760504
10116.741489	4159.358333	813.629883	-10.199727
10116.741489	4159.358333	812.442383	-76.326088
10116.741489	4159.358333	811.254883	-74.485329
10116.741489	4159.358333	810.067383	21.969486
10116.741489	4159.358333	808.878906	18.918985
10116.741489	4159.358333	807.690430	-15.668911
10116.741489	4159.358333	806.501953	41.888866
10116.741489	4159.358333	805.313477	48.502930
10116.741489	4159.358333	804.124023	89.037758
10116.741489	4159.358333	802.934570	61.694702
10116.741489	4159.358333	801.745117	150.645111
10116.741489	4159.358333	800.555664	-19.632517
10116.741489	4159.358333	799.365234	6.312186
10116.741489	4159.358333	798.175781	-33.137474
10116.741489	4159.358333	796.985352	31.511095
10116.741489	4159.358333	795.793945	84.021515
10116.741489	4159.358333	794.603516	-13.524147
10116.741489	4159.358333	793.412109	58.307583
10116.741489	4159.358333	792.220703	-7.769171
10116.741489	4159.358333	791.028320	-27.882208
10116.741489	4159.358333	789.836914	-43.162270
10116.741489	4159.358333	788.644531	11.654124
10116.741489	4159.358333	787.452148	10.851930
10116.741489	4159.358333	786.258789	68.029396
10116.741489	4159.358333	785.066406	62.363464
10116.741489	4159.358333	783.873047	18.045769
10116.741489	4159.358333	782.679688	53.421856
10116.741489	4159.358333	781.485352	207.070404
10116.741489	4159.358333	780.291992	150.649384
10116.741489	4159.358333	779.097656	33.910427
10116.741489	4159.358333	777.903320	49.909065
10116.741489	4159.358333	776.708008	87.600914
10116.741489	4159.358333	775.512695	-55.613758
10116.741489	4159.358333	774.318359	187.016449
10116.741489	4159.358333	773.122070	17.300741
10116.741489	4159.358333	771.926758	26.001638
10116.741489	4159.358333	770.730469	251.563034
10116.741489	4159.358333	769.534180	-55.418930
10116.741489	4159.358333	768.337891	-13.019481
10116.741489	4159.358333	767.141602	222.008911
10116.741489	4159.358333	765.944336	64.470436
10116.741489	4159.358333	764.747070	27.346981
10116.741489	4159.358333	763.549805	257.373383
10116.741489	4159.358333	762.351563	150.422668
10116.741489	4159.358333	761.154297	171.008041
10116.741489	4159.358333	759.956055	117.012222
10116.741489	4159.358333	758.757813	43.789223
10116.741489	4159.358333	757.558594	95.605087
10116.741489	4159.358333	756.359375	19.991089
10116.741489	4159.358333	755.160156	23.703083
10116.741489	4159.358333	753.960938	39.415859
10116.741489	4159.358333	752.761719	98.350601
10116.741489	4159.358333	751.561523	104.411957
10116.741489	4159.358333	750.361328	60.033119
10116.741489	4159.358333	749.160156	128.495193
10116.741489	4159.358333	747.959961	206.518173
10116.741489	4159.358333	746.758789	51.724808
10116.741489	4159.358333	745.557617	124.909653
10116.741489	4159.358333	744.356445	198.052689
10116.741489	4159.358333	743.154297	148.844162
10116.741489	4159.358333	741.952148	123.622597
10116.741489	4159.358333	740.750000	194.287415
10116.741489	4159.358333	739.547852	15.654044
10116.741489	4159.358333	738.344727	-64.671783
10116.741489	4159.358333	737.142578	87.407532
10116.741489	4159.358333	735.939453	19.053160
10116.741489	4159.358333	734.735352	51.292912
10116.741489	4159.358333	733.532227	188.852371
10116.741489	4159.358333	732.328125	-15.956471
10116.741489	4159.358333	731.124023	109.570259
10116.741489	4159.358333	729.918945	22.082191
10116.741489	4159.358333	728.714844	104.465622
10116.741489	4159.358333	727.509766	-88.242912
10116.741489	4159.358333	726.303711	51.494190
10116.741489	4159.358333	725.098633	38.156528
10116.741489	4159.358333	723.892578	-34.942532
10116.741489	4159.358333	722.686523	23.411186
10116.741489	4159.358333	721.480469	21.998463
10116.741489	4159.358333	720.274414	42.073219
10116.741489	4159.358333	719.067383	-31.011869
10116.741489	4159.358333	717.860352	134.691803
10116.741489	4159.358333	716.653320	-81.637512
10116.741489	4159.358333	715.445313	-95.018761
10116.741489	4159.358333	714.238281	-29.661100
10116.741489	4159.358333	713.030273	14.186166
10116.741489	4159.358333	711.821289	-8.782630
10116.741489	4159.358333	710.613281	-65.138908
10116.741489	4159.358333	709.404297	62.100399
10116.741489	4159.358333	708.195313	17.648144
10116.741489	4159.358333	706.986328	37.549271
10116.741489	4159.358333	705.776367	2.628544
10116.741489	4159.358333	704.566406	72.527550
10116.741489	4159.358333	703.356445	23.300520
10116.741489	4159.358333	702.146484	-25.916773
10116.741489	4159.358333	700.935547	34.386932
10116.741489	4159.358333	699.724609	-5.314712
10116.741489	4159.358333	698.513672	-11.695005
10116.741489	4159.358333	697.302734	0.949213
10116.741489	4159.358333	696.090820	70.665794
10116.741489	4159.358333	694.878906	21.431364
10116.741489	4159.358333	693.666992	-51.570442
10116.741489	4159.358333	692.455078	-15.201400
10116.741489	4159.358333	691.242188	56.791393
10116.741489	4159.358333	690.029297	59.832848
10116.741489	4159.358333	688.816406	-3.657563
10116.741489	4159.358333	687.602539	84.879684
10116.741489	4159.358333	686.389648	-4.733392
10116.741489	4159.358333	685.175781	17.267698
10116.741489	4159.358333	683.960938	77.227226
10116.741489	4159.358333	682.747070	-81.183632
10116.741489	4159.358333	681.532227	109.248322
10116.741489	4159.358333	680.317383	86.090645
10116.741489	4159.358333	679.102539	164.915649
10116.741489	4159.358333	677.886719	170.189056
10116.741489	4159.358333	676.670898	149.371536
10116.741489	4159.358333	675.455078	116.700920
10116.741489	4159.358333	674.239258	-15.493609
10116.741489	4159.358333	673.022461	-95.521271
10116.741489	4159.358333	671.805664	6.865251
10116.741489	4159.358333	670.588867	57.097176
10116.741489	4159.358333	669.372070	45.737556
10116.741489	4159.358333	668.154297	8.332628
10116.741489	4159.358333	666.936523	-7.766254
10116.741489	4159.358333	665.718750	28.188049
10116.741489	4159.358333	664.500977	-4.488467
10116.741489	4159.358333	663.282227	66.907631
10116.741489	4159.358333	662.063477	-79.289856
10116.741489	4159.358333	660.844727	81.912331
10116.741489	4159.358333	659.625000	61.030090
10116.741489	4159.358333	658.405273	-2.391300
10116.741489	4159.358333	657.185547	-9.090050
10116.741489	4159.358333	655.965820	19.638029
10116.741489	4159.358333	654.745117	15.279041
10116.741489	4159.358333	653.525391	81.750664
10116.741489	4159.358333	652.303711	49.032524
10116.741489	4159.358333	651.083008	42.282379
10116.741489	4159.358333	649.861328	44.964512
10116.741489	4159.358333	648.640625	116.054283
10116.741489	4159.358333	647.417969	85.678200
10116.741489	4159.358333	646.196289	-22.514177
10116.741489	4159.358333	644.973633	-102.378441
10116.741489	4159.358333	643.750977	22.862209
10116.741489	4159.358333	642.528320	-12.216928
10116.741489	4159.358333	641.305664	9.260213
10116.741489	4159.358333	640.082031	68.410538
10116.741489	4159.358333	638.858398	-2.010603
10116.741489	4159.358333	637.634766	-206.630066
10116.741489	4159.358333	636.410156	92.635345
10116.741489	4159.358333	635.185547	5.751941
10116.741489	4159.358333	633.960938	-31.683989
10116.741489	4159.358333	632.736328	-19.704565
10116.741489	4159.358333	631.510742	41.658642
10116.741489	4159.358333	630.285156	41.842667
10116.741489	4159.358333	629.059570	-110.812538
10116.741489	4159.358333	627.833984	18.679949
10116.741489	4159.358333	626.607422	-173.875519
10116.741489	4159.358333	625.380859	11.953714
10116.741489	4159.358333	624.154297	-70.117874
10116.741489	4159.358333	622.927734	56.877586
10116.741489	4159.358333	621.700195	59.353325
10116.741489	4159.358333	620.472656	104.080894
10116.741489	4159.358333	619.245117	-6.136368
10116.741489	4159.358333	618.016602	40.918449
10116.741489	4159.358333	616.788086	29.290363
10116.741489	4159.358333	615.559570	55.192863
10116.741489	4159.358333	614.331055	71.697342
10116.741489	4159.358333	613.101563	-31.396275
10116.741489	4159.358333	611.872070	-106.320801
10116.741489	4159.358333	610.642578	-66.374458
10116.741489	4159.358333	609.413086	93.056633
10116.741489	4159.358333	608.182617	-52.149021
10116.741489	4159.358333	606.952148	-152.794998
10116.741489	4159.358333	605.721680	15.902008
10116.741489	4159.358333	604.491211	18.289776
10116.741489	4159.358333	603.259766	55.782440
10116.741489	4159.358333	602.028320	-26.101305
10116.741489	4159.358333	600.796875	-35.421402
10116.741489	4159.358333	599.564453	-61.118706
10116.741489	4159.358333	598.332031	-49.389355
10116.741489	4159.358333	597.099609	20.787273
10116.741489	4159.358333	595.867188	30.147127
10116.741489	4159.358333	594.633789	13.786940
10116.741489	4159.358333	593.400391	-103.053871
10116.741489	4159.358333	592.166992	-44.626167
10116.741489	4159.358333	590.933594	20.780113
10116.741489	4159.358333	589.699219	25.435524
10116.741489	4159.358333	588.464844	-114.674416
10116.741489	4159.358333	587.230469	-53.976845
10116.741489	4159.358333	585.995117	-81.995659
10116.741489	4159.358333	584.760742	13.661480
10116.741489	4159.358333	583.525391	34.622459
10116.741489	4159.358333	582.289063	13.587567
10116.741489	4159.358333	581.053711	-16.767641
10116.741489	4159.358333	579.817383	15.831671
10116.741489	4159.358333	578.581055	55.406193
10116.741489	4159.358333	577.343750	46.022335
10116.741489	4159.358333	576.107422	57.609570
10116.741489	4159.358333	574.870117	27.259123
10116.741489	4159.358333	573.631836	13.219616
10116.741489	4159.358333	572.394531	92.318466
10116.741489	4159.358333	571.156250	10.757736
10116.741489	4159.358333	569.917969	-28.878422
10116.741489	4159.358333	568.679688	36.208420
10116.741489	4159.358333	567.440430	-8.075020
10116.741489	4159.358333	566.202148	24.412653
10116.741489	4159.358333	564.961914	-68.688164
10116.741489	4159.358333	563.722656	-3.658336
10116.741489	4159.358333	562.482422	0.905805
10116.741489	4159.358333	561.243164	86.803368
10116.741489	4159.358333	560.001953	47.197189
10116.741489	4159.358333	558.761719	2.961182
10116.741489	4159.358333	557.520508	65.570786
10116.741489	4159.358333	556.279297	35.276161
10116.741489	4159.358333	555.038086	72.313690
10116.741489	4159.358333	553.795898	-43.847439
10116.741489	4159.358333	552.554688	-43.939392
10116.741489	4159.358333	551.311523	85.879837
10116.741489	4159.358333	550.069336	108.950462
10116.741489	4159.358333	548.826172	-21.040688
10116.741489	4159.358333	547.583984	-167.205170
10116.741489	4159.358333	546.339844	85.372223
10116.741489	4159.358333	545.096680	-25.995152
10116.741489	4159.358333	543.852539	54.987427
10116.741489	4159.358333	542.608398	-42.430889
10116.741489	4159.358333	541.364258	24.621981
10116.741489	4159.358333	540.119141	68.489677
10116.741489	4159.358333	538.875000	49.834545
10116.741489	4159.358333	537.628906	33.498032
10116.741489	4159.358333	536.383789	-82.332024
10116.741489	4159.358333	535.137695	-36.172474
10116.741489	4159.358333	533.892578	-64.047997
10116.741489	4159.358333	532.645508	28.333019
10116.741489	4159.358333	531.399414	-89.715630
10116.741489	4159.358333	530.152344	-80.584831
10116.741489	4159.358333	528.905273	-27.551369
10116.741489	4159.358333	527.658203	2.352971
10116.741489	4159.358333	526.410156	-150.247467
10116.741489	4159.358333	525.163086	-113.404282
10116.741489	4159.358333	523.914063	-97.362511
10116.741489	4159.358333	522.666016	-65.168747
10116.741489	4159.358333	521.416992	36.248466
10116.741489	4159.358333	520.167969	-51.595703
10116.741489	4159.358333	518.918945	-65.580261
10116.741489	4159.358333	517.669922	5.780533
10116.741489	4159.358333	516.419922	7.925897
10116.741489	4159.358333	515.169922	118.428101
10116.741489	4159.358333	513.919922	-47.724209
10116.741489	4159.358333	512.668945	37.386177
10116.741489	4159.358333	511.417969	7.254367
10116.741489	4159.358333	510.166992	-20.563641
10116.741489	4159.358333	508.916016	39.142929
10116.741489	4159.358333	507.664063	6.716547
10116.741489	4159.358333	506.412109	-159.218811
10116.741489	4159.358333	505.160156	-113.342529
10116.741489	4159.358333	503.907227	-51.382980
10116.741489	4159.358333	502.655273	19.748785
10116.741489	4159.358333	501.402344	-14.959462
10116.741489	4159.358333	500.148438	46.924171
10116.741489	4159.358333	498.895508	81.188324
10116.741489	4159.358333	497.641602	-31.679277
10116.741489	4159.358333	496.387695	-4.318881
10116.741489	4159.358333	495.132813	-41.310509
10116.741489	4159.358333	493.878906	-78.290840
10116.741489	4159.358333	492.624023	-32.584225
10116.741489	4159.358333	491.368164	42.944752
10116.741489	4159.358333	490.113281	42.679432
10116.741489	4159.358333	488.857422	63.061993
10116.741489	4159.358333	487.601563	-22.125505
10116.741489	4159.358333	486.344727	57.893242
10116.741489	4159.358333	485.088867	-2.042385
10116.741489	4159.358333	483.832031	-25.271553
10116.741489	4159.358333	482.575195	-4.938985
10116.741489	4159.358333	481.317383	33.711029
10116.741489	4159.358333	480.059570	-21.623966
10116.741489	4159.358333	478.801758	129.261154
10116.741489	4159.358333	477.543945	-1.684830
10116.741489	4159.358333	476.285156	87.271721
10116.741489	4159.358333	475.027344	-6.996606
10116.741489	4159.358333	473.767578	-21.116590
10116.741489	4159.358333	472.508789	49.439880
10116.741489	4159.358333	471.249023	-1.324374
10116.741489	4159.358333	469.989258	126.362350
10116.741489	4159.358333	468.729492	-13.626974
10116.741489	4159.358333	467.469727	24.794477
10116.741489	4159.358333	466.208984	51.751263
10116.741489	4159.358333	464.948242	101.538002
10116.741489	4159.358333	463.686523	-120.661720
10116.741489	4159.358333	462.425781	93.609184
10116.741489	4159.358333	461.164063	40.507523
10116.741489	4159.358333	459.901367	-1.172518
10116.741489	4159.358333	458.639648	21.078917
10116.741489	4159.358333	457.376953	15.905305
10116.741489	4159.358333	456.114258	17.559723
10116.741489	4159.358333	454.851563	35.163963
10116.741489	4159.358333	453.587891	36.767551
10116.741489	4159.358333	452.324219	115.894043
10116.741489	4159.358333	451.060547	128.832672
10116.741489	4159.358333	449.796875	57.386280
10116.741489	4159.358333	448.532227	31.530020
10116.741489	4159.358333	447.267578	-5.736480
10116.741489	4159.358333	446.002930	7.108325
10116.741489	4159.358333	444.737305	-84.864365
10116.741489	4159.358333	443.471680	19.026716
10116.741489	4159.358333	442.206055	193.424622
10116.741489	4159.358333	440.940430	140.076889
10116.741489	4159.358333	439.673828	107.200020
10116.741489	4159.358333	438.407227	42.447945
10116.741489	4159.358333	437.140625	0.437740
10116.741489	4159.358333	435.873047	78.950714
10116.741489	4159.358333	434.605469	34.601215
10116.741489	4159.358333	433.337891	131.183990
10116.741489	4159.358333	432.070313	70.852654
10116.741489	4159.358333	430.801758	128.671478
10116.741489	4159.358333	429.533203	91.000427
10116.741489	4159.358333	428.264648	253.190308
10116.741489	4159.358333	426.996094	101.871635
10116.741489	4159.358333	425.726563	191.239822
10116.741489	4159.358333	424.457031	33.093811
10116.741489	4159.358333	423.186523	90.565857
10116.741489	4159.358333	421.916992	111.661163
10116.741489	4159.358333	420.646484	196.210480
10116.741489	4159.358333	419.375977	22.115791
10116.741489	4159.358333	418.104492	61.186344
10116.741489	4159.358333	416.833008	23.103933
10116.741489	4159.358333	415.561523	-46.752155
10116.741489	4159.358333	414.290039	105.434853
10116.741489	4159.358333	413.017578	194.055908
10116.741489	4159.358333	411.746094	167.058990
10116.741489	4159.358333	410.472656	63.007729
10116.741489	4159.358333	409.200195	60.821400
10116.741489	4159.358333	407.926758	58.563934
10116.741489	4159.358333	406.653320	67.552460
10116.741489	4159.358333	405.379883	60.626465
10116.741489	4159.358333	404.105469	64.936058
10116.741489	4159.358333	402.831055	84.999100
10116.741489	4159.358333	401.556641	48.446468
10116.741489	4159.358333	400.282227	131.642883
10116.741489	4159.358333	399.006836	33.905537
10116.741489	4159.358333	397.731445	112.379341
10116.741489	4159.358333	396.456055	9.998232
10116.741489	4159.358333	395.179688	2.433586
10116.741489	4159.358333	393.903320	132.530579
10116.741489	4159.358333	392.626953	178.942734
10116.741489	4159.358333	391.350586	-4.997235
10116.741489	4159.358333	390.073242	-82.893295
10116.741489	4159.358333	388.795898	48.972862
10116.741489	4159.358333	387.518555	58.868389
10116.741489	4159.358333	386.240234	32.565899
10116.741489	4159.358333	384.961914	-68.240601
10116.741489	4159.358333	383.683594	-45.129818
10116.741489	4159.358333	382.405273	20.679392
10116.741489	4159.358333	381.125977	27.753551
10116.741489	4159.358333	379.846680	27.947453
10116.741489	4159.358333	378.567383	97.840424
10116.741489	4159.358333	377.287109	-1.312463
10116.741489	4159.358333	376.006836	-17.251017
10116.741489	4159.358333	374.726563	-67.075745
10116.741489	4159.358333	373.446289	-54.002922
10116.741489	4159.358333	372.165039	1.670178
10116.741489	4159.358333	370.883789	-12.551445
10116.741489	4159.358333	369.602539	2.325742
10116.741489	4159.358333	368.320313	-39.164959
10116.741489	4159.358333	367.039063	-42.567863
10116.741489	4159.358333	365.755859	-32.647926
10116.741489	4159.358333	364.473633	-54.340015
10116.741489	4159.358333	363.190430	103.525856
10116.741489	4159.358333	361.907227	110.682121
10116.741489	4159.358333	360.624023	5.395867
10116.741489	4159.358333	359.340820	25.703169
10116.741489	4159.358333	358.056641	54.799007
10116.741489	4159.358333	356.772461	56.776920
10116.741489	4159.358333	355.487305	-28.930704
10116.741489	4159.358333	354.202148	-96.842010
10116.741489	4159.358333	352.916992	-50.545250
10116.741489	4159.358333	351.631836	-4.462205
10116.741489	4159.358333	350.346680	43.644928
10116.741489	4159.358333	349.060547	-36.217285
10116.741489	4159.358333	347.774414	-100.566109
10116.741489	4159.358333	346.487305	-32.940334
10116.741489	4159.358333	345.200195	65.795769
10116.741489	4159.358333	343.913086	79.183899
10116.741489	4159.358333	342.625977	-113.608337
10116.741489	4159.358333	341.338867	-17.827459
10116.741489	4159.358333	340.050781	-105.813721
10116.741489	4159.358333	338.762695	74.458275
10116.741489	4159.358333	337.473633	100.072075
10116.741489	4159.358333	336.184570	40.453663
10116.741489	4159.358333	334.895508	-37.275658
10116.741489	4159.358333	333.606445	114.997536
10116.741489	4159.358333	332.317383	99.339714
10116.741489	4159.358333	331.027344	49.900040
10116.741489	4159.358333	329.736328	-10.968646
10116.741489	4159.358333	328.446289	3.852399
10116.741489	4159.358333	327.155273	-70.935555
10116.741489	4159.358333	325.864258	-94.636536
10116.741489	4159.358333	324.573242	-15.958439
10116.741489	4159.358333	323.281250	-82.658134
10116.741489	4159.358333	321.989258	-107.248230
10116.741489	4159.358333	320.697266	-65.228363
10116.741489	4159.358333	319.405273	65.650307
10116.741489	4159.358333	318.112305	40.084248
10116.741489	4159.358333	316.819336	-10.316010
10116.741489	4159.358333	315.526367	1.365607
10116.741489	4159.358333	314.232422	-51.918587
10116.741489	4159.358333	312.938477	-3.065889
10116.741489	4159.358333	311.644531	-45.891438
10116.741489	4159.358333	310.349609	73.458389
10116.741489	4159.358333	309.054688	192.390015
10116.741489	4159.358333	307.759766	188.497223
10116.741489	4159.358333	306.464844	173.102249
10116.741489	4159.358333	305.168945	170.660736
10116.741489	4159.358333	303.873047	145.587189
10116.741489	4159.358333	302.577148	182.382736
10116.741489	4159.358333	301.281250	189.855591
10116.741489	4159.358333	299.984375	281.352417
