#X		#Y		#Wave		#Intensity
-15373.153191	5437.476667	1999.946289	57.638592
-15373.153191	5437.476667	1998.981445	0.559335
-15373.153191	5437.476667	1998.017578	-7.291214
-15373.153191	5437.476667	1997.052734	-29.924166
-15373.153191	5437.476667	1996.088867	-20.253439
-15373.153191	5437.476667	1995.124023	9.310382
-15373.153191	5437.476667	1994.159180	53.803165
-15373.153191	5437.476667	1993.193359	-30.411524
-15373.153191	5437.476667	1992.228516	-40.243229
-15373.153191	5437.476667	1991.262695	-20.295349
-15373.153191	5437.476667	1990.296875	64.063751
-15373.153191	5437.476667	1989.331055	-39.595844
-15373.153191	5437.476667	1988.365234	64.664871
-15373.153191	5437.476667	1987.398438	27.960358
-15373.153191	5437.476667	1986.432617	45.742962
-15373.153191	5437.476667	1985.465820	105.613708
-15373.153191	5437.476667	1984.499023	86.414467
-15373.153191	5437.476667	1983.532227	-46.416077
-15373.153191	5437.476667	1982.565430	-38.280251
-15373.153191	5437.476667	1981.597656	29.205505
-15373.153191	5437.476667	1980.629883	-68.790398
-15373.153191	5437.476667	1979.662109	33.360554
-15373.153191	5437.476667	1978.694336	133.054977
-15373.153191	5437.476667	1977.726563	22.902645
-15373.153191	5437.476667	1976.758789	9.109809
-15373.153191	5437.476667	1975.790039	42.259739
-15373.153191	5437.476667	1974.821289	-1.051806
-15373.153191	5437.476667	1973.852539	-7.296966
-15373.153191	5437.476667	1972.883789	18.569000
-15373.153191	5437.476667	1971.915039	-22.120813
-15373.153191	5437.476667	1970.945313	-13.441959
-15373.153191	5437.476667	1969.975586	-2.262881
-15373.153191	5437.476667	1969.005859	68.104820
-15373.153191	5437.476667	1968.036133	7.871545
-15373.153191	5437.476667	1967.066406	41.323402
-15373.153191	5437.476667	1966.096680	45.234810
-15373.153191	5437.476667	1965.125977	-44.416683
-15373.153191	5437.476667	1964.155273	18.672766
-15373.153191	5437.476667	1963.184570	52.223938
-15373.153191	5437.476667	1962.213867	-39.750374
-15373.153191	5437.476667	1961.242188	-28.294872
-15373.153191	5437.476667	1960.271484	69.307953
-15373.153191	5437.476667	1959.299805	129.996246
-15373.153191	5437.476667	1958.328125	35.720760
-15373.153191	5437.476667	1957.356445	-73.251671
-15373.153191	5437.476667	1956.384766	-51.841232
-15373.153191	5437.476667	1955.412109	-27.958796
-15373.153191	5437.476667	1954.439453	57.384239
-15373.153191	5437.476667	1953.467773	-44.053318
-15373.153191	5437.476667	1952.495117	19.186905
-15373.153191	5437.476667	1951.521484	38.203457
-15373.153191	5437.476667	1950.548828	3.195777
-15373.153191	5437.476667	1949.575195	46.798691
-15373.153191	5437.476667	1948.601563	-0.441344
-15373.153191	5437.476667	1947.627930	-20.646709
-15373.153191	5437.476667	1946.654297	74.521400
-15373.153191	5437.476667	1945.680664	-24.185577
-15373.153191	5437.476667	1944.706055	-22.254547
-15373.153191	5437.476667	1943.732422	48.369564
-15373.153191	5437.476667	1942.757813	30.689829
-15373.153191	5437.476667	1941.783203	74.327438
-15373.153191	5437.476667	1940.807617	66.476028
-15373.153191	5437.476667	1939.833008	65.990211
-15373.153191	5437.476667	1938.857422	136.581451
-15373.153191	5437.476667	1937.881836	87.095589
-15373.153191	5437.476667	1936.906250	120.926270
-15373.153191	5437.476667	1935.930664	91.069977
-15373.153191	5437.476667	1934.955078	51.435543
-15373.153191	5437.476667	1933.978516	80.375694
-15373.153191	5437.476667	1933.001953	87.279007
-15373.153191	5437.476667	1932.025391	13.418636
-15373.153191	5437.476667	1931.048828	8.105316
-15373.153191	5437.476667	1930.072266	10.136875
-15373.153191	5437.476667	1929.094727	-9.843832
-15373.153191	5437.476667	1928.118164	36.217056
-15373.153191	5437.476667	1927.140625	-17.988699
-15373.153191	5437.476667	1926.163086	50.062313
-15373.153191	5437.476667	1925.184570	-33.454277
-15373.153191	5437.476667	1924.207031	61.457813
-15373.153191	5437.476667	1923.228516	-24.472250
-15373.153191	5437.476667	1922.250000	2.002141
-15373.153191	5437.476667	1921.271484	-57.018833
-15373.153191	5437.476667	1920.292969	30.499590
-15373.153191	5437.476667	1919.314453	-26.065771
-15373.153191	5437.476667	1918.334961	5.266697
-15373.153191	5437.476667	1917.355469	-2.464355
-15373.153191	5437.476667	1916.375977	104.492188
-15373.153191	5437.476667	1915.396484	62.584476
-15373.153191	5437.476667	1914.416992	88.988205
-15373.153191	5437.476667	1913.436523	-8.999783
-15373.153191	5437.476667	1912.457031	-26.489738
-15373.153191	5437.476667	1911.476563	-31.788046
-15373.153191	5437.476667	1910.496094	50.658684
-15373.153191	5437.476667	1909.515625	25.843338
-15373.153191	5437.476667	1908.534180	61.945095
-15373.153191	5437.476667	1907.552734	-40.826851
-15373.153191	5437.476667	1906.572266	2.570212
-15373.153191	5437.476667	1905.590820	-63.636414
-15373.153191	5437.476667	1904.608398	-32.436481
-15373.153191	5437.476667	1903.626953	-10.991100
-15373.153191	5437.476667	1902.644531	15.307157
-15373.153191	5437.476667	1901.663086	-4.643941
-15373.153191	5437.476667	1900.680664	41.093098
-15373.153191	5437.476667	1899.698242	30.860382
-15373.153191	5437.476667	1898.714844	32.783894
-15373.153191	5437.476667	1897.732422	10.384534
-15373.153191	5437.476667	1896.749023	124.124672
-15373.153191	5437.476667	1895.765625	-0.384001
-15373.153191	5437.476667	1894.782227	-42.229290
-15373.153191	5437.476667	1893.798828	44.706810
-15373.153191	5437.476667	1892.814453	107.309547
-15373.153191	5437.476667	1891.831055	21.724726
-15373.153191	5437.476667	1890.846680	-5.556545
-15373.153191	5437.476667	1889.862305	37.571899
-15373.153191	5437.476667	1888.877930	-40.695484
-15373.153191	5437.476667	1887.892578	-21.864082
-15373.153191	5437.476667	1886.908203	33.348972
-15373.153191	5437.476667	1885.922852	-32.770580
-15373.153191	5437.476667	1884.937500	5.425972
-15373.153191	5437.476667	1883.952148	58.149960
-15373.153191	5437.476667	1882.965820	-66.158218
-15373.153191	5437.476667	1881.980469	-59.520279
-15373.153191	5437.476667	1880.994141	-55.318504
-15373.153191	5437.476667	1880.007813	-7.508121
-15373.153191	5437.476667	1879.021484	-95.406586
-15373.153191	5437.476667	1878.035156	22.623972
-15373.153191	5437.476667	1877.047852	77.628899
-15373.153191	5437.476667	1876.061523	-56.274944
-15373.153191	5437.476667	1875.074219	32.598663
-15373.153191	5437.476667	1874.086914	97.222809
-15373.153191	5437.476667	1873.098633	86.787590
-15373.153191	5437.476667	1872.111328	18.273241
-15373.153191	5437.476667	1871.123047	24.770466
-15373.153191	5437.476667	1870.135742	16.742456
-15373.153191	5437.476667	1869.147461	11.125092
-15373.153191	5437.476667	1868.158203	22.424412
-15373.153191	5437.476667	1867.169922	62.718182
-15373.153191	5437.476667	1866.180664	81.233246
-15373.153191	5437.476667	1865.192383	164.977356
-15373.153191	5437.476667	1864.203125	74.721741
-15373.153191	5437.476667	1863.213867	-30.004204
-15373.153191	5437.476667	1862.223633	17.453163
-15373.153191	5437.476667	1861.234375	16.588501
-15373.153191	5437.476667	1860.244141	-34.986446
-15373.153191	5437.476667	1859.253906	34.137394
-15373.153191	5437.476667	1858.263672	-70.536560
-15373.153191	5437.476667	1857.273438	-15.930922
-15373.153191	5437.476667	1856.282227	50.705322
-15373.153191	5437.476667	1855.291992	25.650654
-15373.153191	5437.476667	1854.300781	-59.694469
-15373.153191	5437.476667	1853.309570	35.813229
-15373.153191	5437.476667	1852.317383	5.920828
-15373.153191	5437.476667	1851.326172	-21.560387
-15373.153191	5437.476667	1850.333984	136.506302
-15373.153191	5437.476667	1849.342773	29.483232
-15373.153191	5437.476667	1848.350586	33.294937
-15373.153191	5437.476667	1847.357422	46.727287
-15373.153191	5437.476667	1846.365234	69.776253
-15373.153191	5437.476667	1845.372070	162.621414
-15373.153191	5437.476667	1844.379883	101.373039
-15373.153191	5437.476667	1843.386719	85.860832
-15373.153191	5437.476667	1842.393555	10.191328
-15373.153191	5437.476667	1841.399414	-29.376282
-15373.153191	5437.476667	1840.406250	65.752243
-15373.153191	5437.476667	1839.412109	79.072296
-15373.153191	5437.476667	1838.417969	73.142372
-15373.153191	5437.476667	1837.423828	-24.142000
-15373.153191	5437.476667	1836.429688	25.206276
-15373.153191	5437.476667	1835.434570	112.971962
-15373.153191	5437.476667	1834.440430	75.765556
-15373.153191	5437.476667	1833.445313	26.551796
-15373.153191	5437.476667	1832.450195	-80.291656
-15373.153191	5437.476667	1831.454102	-16.626070
-15373.153191	5437.476667	1830.458984	13.396184
-15373.153191	5437.476667	1829.462891	84.199989
-15373.153191	5437.476667	1828.466797	145.367630
-15373.153191	5437.476667	1827.470703	4.959205
-15373.153191	5437.476667	1826.474609	56.502579
-15373.153191	5437.476667	1825.478516	-7.107677
-15373.153191	5437.476667	1824.481445	-27.541487
-15373.153191	5437.476667	1823.484375	57.512489
-15373.153191	5437.476667	1822.487305	-25.269686
-15373.153191	5437.476667	1821.490234	47.748505
-15373.153191	5437.476667	1820.493164	144.690384
-15373.153191	5437.476667	1819.495117	88.260262
-15373.153191	5437.476667	1818.498047	-6.482093
-15373.153191	5437.476667	1817.500000	-0.617878
-15373.153191	5437.476667	1816.500977	7.627577
-15373.153191	5437.476667	1815.502930	8.679096
-15373.153191	5437.476667	1814.504883	-11.820563
-15373.153191	5437.476667	1813.505859	-8.393233
-15373.153191	5437.476667	1812.506836	-83.931084
-15373.153191	5437.476667	1811.507813	-37.453598
-15373.153191	5437.476667	1810.508789	104.661575
-15373.153191	5437.476667	1809.508789	-30.664320
-15373.153191	5437.476667	1808.508789	15.746416
-15373.153191	5437.476667	1807.508789	69.300804
-15373.153191	5437.476667	1806.508789	51.130718
-15373.153191	5437.476667	1805.508789	-48.281132
-15373.153191	5437.476667	1804.508789	7.615102
-15373.153191	5437.476667	1803.507813	3.767953
-15373.153191	5437.476667	1802.506836	90.657417
-15373.153191	5437.476667	1801.505859	7.987386
-15373.153191	5437.476667	1800.504883	13.662447
-15373.153191	5437.476667	1799.502930	-9.315188
-15373.153191	5437.476667	1798.501953	44.066277
-15373.153191	5437.476667	1797.500000	16.301455
-15373.153191	5437.476667	1796.498047	103.032745
-15373.153191	5437.476667	1795.496094	53.784836
-15373.153191	5437.476667	1794.493164	-24.067533
-15373.153191	5437.476667	1793.491211	-11.308387
-15373.153191	5437.476667	1792.488281	-39.083820
-15373.153191	5437.476667	1791.485352	30.847235
-15373.153191	5437.476667	1790.482422	41.177689
-15373.153191	5437.476667	1789.478516	-39.027588
-15373.153191	5437.476667	1788.475586	-23.942667
-15373.153191	5437.476667	1787.471680	-8.873647
-15373.153191	5437.476667	1786.467773	13.323174
-15373.153191	5437.476667	1785.463867	-33.527462
-15373.153191	5437.476667	1784.459961	-8.972398
-15373.153191	5437.476667	1783.455078	48.875458
-15373.153191	5437.476667	1782.450195	63.870522
-15373.153191	5437.476667	1781.445313	-13.911973
-15373.153191	5437.476667	1780.440430	34.364922
-15373.153191	5437.476667	1779.435547	-38.644707
-15373.153191	5437.476667	1778.429688	33.371719
-15373.153191	5437.476667	1777.424805	26.920723
-15373.153191	5437.476667	1776.418945	41.849102
-15373.153191	5437.476667	1775.413086	-5.008685
-15373.153191	5437.476667	1774.406250	50.282955
-15373.153191	5437.476667	1773.400391	-10.825544
-15373.153191	5437.476667	1772.393555	20.683935
-15373.153191	5437.476667	1771.386719	14.188606
-15373.153191	5437.476667	1770.379883	29.049095
-15373.153191	5437.476667	1769.373047	60.507374
-15373.153191	5437.476667	1768.365234	-59.907505
-15373.153191	5437.476667	1767.358398	49.822117
-15373.153191	5437.476667	1766.350586	45.655186
-15373.153191	5437.476667	1765.342773	46.223835
-15373.153191	5437.476667	1764.334961	13.591578
-15373.153191	5437.476667	1763.326172	-30.890072
-15373.153191	5437.476667	1762.318359	81.056145
-15373.153191	5437.476667	1761.309570	5.758233
-15373.153191	5437.476667	1760.300781	3.921367
-15373.153191	5437.476667	1759.291016	35.236389
-15373.153191	5437.476667	1758.282227	-11.617036
-15373.153191	5437.476667	1757.272461	95.439278
-15373.153191	5437.476667	1756.262695	98.286797
-15373.153191	5437.476667	1755.252930	32.487316
-15373.153191	5437.476667	1754.243164	139.449066
-15373.153191	5437.476667	1753.233398	97.309517
-15373.153191	5437.476667	1752.222656	93.023628
-15373.153191	5437.476667	1751.211914	60.351067
-15373.153191	5437.476667	1750.201172	41.870232
-15373.153191	5437.476667	1749.190430	35.208588
-15373.153191	5437.476667	1748.179688	-11.640682
-15373.153191	5437.476667	1747.167969	36.046627
-15373.153191	5437.476667	1746.156250	-58.057911
-15373.153191	5437.476667	1745.144531	6.139969
-15373.153191	5437.476667	1744.132813	-28.892918
-15373.153191	5437.476667	1743.121094	14.006291
-15373.153191	5437.476667	1742.108398	-75.334236
-15373.153191	5437.476667	1741.095703	57.239048
-15373.153191	5437.476667	1740.083008	-69.852936
-15373.153191	5437.476667	1739.070313	-36.450748
-15373.153191	5437.476667	1738.057617	34.677078
-15373.153191	5437.476667	1737.043945	-49.906464
-15373.153191	5437.476667	1736.030273	-70.792908
-15373.153191	5437.476667	1735.016602	33.284618
-15373.153191	5437.476667	1734.002930	71.308540
-15373.153191	5437.476667	1732.989258	36.245686
-15373.153191	5437.476667	1731.974609	-34.160084
-15373.153191	5437.476667	1730.959961	1.473607
-15373.153191	5437.476667	1729.945313	32.374321
-15373.153191	5437.476667	1728.930664	-78.050949
-15373.153191	5437.476667	1727.916016	-18.906425
-15373.153191	5437.476667	1726.900391	11.955283
-15373.153191	5437.476667	1725.885742	63.982841
-15373.153191	5437.476667	1724.870117	66.561592
-15373.153191	5437.476667	1723.853516	36.190067
-15373.153191	5437.476667	1722.837891	95.215164
-15373.153191	5437.476667	1721.822266	15.444663
-15373.153191	5437.476667	1720.805664	-76.062454
-15373.153191	5437.476667	1719.789063	72.265465
-15373.153191	5437.476667	1718.772461	46.583961
-15373.153191	5437.476667	1717.754883	-68.402992
-15373.153191	5437.476667	1716.738281	23.421850
-15373.153191	5437.476667	1715.720703	25.930765
-15373.153191	5437.476667	1714.703125	-65.521591
-15373.153191	5437.476667	1713.685547	5.090188
-15373.153191	5437.476667	1712.667969	-11.205559
-15373.153191	5437.476667	1711.649414	-15.766906
-15373.153191	5437.476667	1710.630859	7.829673
-15373.153191	5437.476667	1709.612305	12.637175
-15373.153191	5437.476667	1708.593750	-36.525291
-15373.153191	5437.476667	1707.575195	57.408455
-15373.153191	5437.476667	1706.555664	19.965319
-15373.153191	5437.476667	1705.536133	31.768808
-15373.153191	5437.476667	1704.516602	-22.080469
-15373.153191	5437.476667	1703.497070	-38.415016
-15373.153191	5437.476667	1702.477539	3.834278
-15373.153191	5437.476667	1701.457031	-33.602589
-15373.153191	5437.476667	1700.437500	-24.180431
-15373.153191	5437.476667	1699.416992	34.411789
-15373.153191	5437.476667	1698.395508	62.531502
-15373.153191	5437.476667	1697.375000	-80.270218
-15373.153191	5437.476667	1696.354492	-33.426949
-15373.153191	5437.476667	1695.333008	-56.818848
-15373.153191	5437.476667	1694.311523	-10.014711
-15373.153191	5437.476667	1693.290039	48.460583
-15373.153191	5437.476667	1692.267578	-26.413759
-15373.153191	5437.476667	1691.246094	-42.803371
-15373.153191	5437.476667	1690.223633	-12.435407
-15373.153191	5437.476667	1689.201172	-21.825411
-15373.153191	5437.476667	1688.178711	104.333527
-15373.153191	5437.476667	1687.155273	69.204903
-15373.153191	5437.476667	1686.132813	160.239853
-15373.153191	5437.476667	1685.109375	3.639638
-15373.153191	5437.476667	1684.085938	17.570374
-15373.153191	5437.476667	1683.062500	43.162704
-15373.153191	5437.476667	1682.039063	-26.972990
-15373.153191	5437.476667	1681.014648	-20.069969
-15373.153191	5437.476667	1679.990234	-3.842933
-15373.153191	5437.476667	1678.965820	49.700085
-15373.153191	5437.476667	1677.941406	119.543251
-15373.153191	5437.476667	1676.916992	12.107720
-15373.153191	5437.476667	1675.891602	42.275944
-15373.153191	5437.476667	1674.866211	84.081787
-15373.153191	5437.476667	1673.840820	-4.661498
-15373.153191	5437.476667	1672.815430	109.364731
-15373.153191	5437.476667	1671.790039	1.997411
-15373.153191	5437.476667	1670.763672	150.904358
-15373.153191	5437.476667	1669.737305	106.438072
-15373.153191	5437.476667	1668.710938	15.410358
-15373.153191	5437.476667	1667.684570	-12.729786
-15373.153191	5437.476667	1666.658203	115.088234
-15373.153191	5437.476667	1665.630859	79.942360
-15373.153191	5437.476667	1664.603516	121.586975
-15373.153191	5437.476667	1663.576172	116.681786
-15373.153191	5437.476667	1662.548828	95.490746
-15373.153191	5437.476667	1661.520508	174.292709
-15373.153191	5437.476667	1660.493164	83.335724
-15373.153191	5437.476667	1659.464844	50.518532
-15373.153191	5437.476667	1658.436523	68.837250
-15373.153191	5437.476667	1657.408203	61.582207
-15373.153191	5437.476667	1656.378906	140.279053
-15373.153191	5437.476667	1655.350586	44.735954
-15373.153191	5437.476667	1654.321289	16.567671
-15373.153191	5437.476667	1653.291992	127.713707
-15373.153191	5437.476667	1652.261719	120.417473
-15373.153191	5437.476667	1651.232422	115.440804
-15373.153191	5437.476667	1650.202148	-28.771759
-15373.153191	5437.476667	1649.171875	161.150955
-15373.153191	5437.476667	1648.141602	146.869644
-15373.153191	5437.476667	1647.111328	79.247383
-15373.153191	5437.476667	1646.080078	113.665733
-15373.153191	5437.476667	1645.049805	159.657608
-15373.153191	5437.476667	1644.018555	-9.931405
-15373.153191	5437.476667	1642.987305	63.860493
-15373.153191	5437.476667	1641.955078	100.545464
-15373.153191	5437.476667	1640.923828	70.035103
-15373.153191	5437.476667	1639.891602	213.228455
-15373.153191	5437.476667	1638.859375	122.489922
-15373.153191	5437.476667	1637.827148	89.658165
-15373.153191	5437.476667	1636.794922	114.699547
-15373.153191	5437.476667	1635.761719	111.952881
-15373.153191	5437.476667	1634.729492	197.126450
-15373.153191	5437.476667	1633.696289	168.907074
-15373.153191	5437.476667	1632.662109	126.813858
-15373.153191	5437.476667	1631.628906	91.670830
-15373.153191	5437.476667	1630.594727	105.084961
-15373.153191	5437.476667	1629.561523	180.901062
-15373.153191	5437.476667	1628.527344	154.993439
-15373.153191	5437.476667	1627.493164	175.302933
-15373.153191	5437.476667	1626.458008	147.083633
-15373.153191	5437.476667	1625.423828	197.402527
-15373.153191	5437.476667	1624.388672	169.179550
-15373.153191	5437.476667	1623.353516	157.123886
-15373.153191	5437.476667	1622.318359	91.975609
-15373.153191	5437.476667	1621.282227	181.476044
-15373.153191	5437.476667	1620.247070	240.941528
-15373.153191	5437.476667	1619.210938	215.017273
-15373.153191	5437.476667	1618.174805	126.820724
-15373.153191	5437.476667	1617.137695	137.814880
-15373.153191	5437.476667	1616.101563	222.583679
-15373.153191	5437.476667	1615.064453	261.208344
-15373.153191	5437.476667	1614.027344	203.012650
-15373.153191	5437.476667	1612.990234	195.530334
-15373.153191	5437.476667	1611.953125	344.710205
-15373.153191	5437.476667	1610.916016	249.664139
-15373.153191	5437.476667	1609.877930	189.193054
-15373.153191	5437.476667	1608.839844	184.002258
-15373.153191	5437.476667	1607.801758	250.173904
-15373.153191	5437.476667	1606.763672	173.614288
-15373.153191	5437.476667	1605.724609	196.029327
-15373.153191	5437.476667	1604.685547	225.334106
-15373.153191	5437.476667	1603.646484	335.133453
-15373.153191	5437.476667	1602.607422	313.795349
-15373.153191	5437.476667	1601.568359	198.186569
-15373.153191	5437.476667	1600.528320	275.728363
-15373.153191	5437.476667	1599.489258	300.373413
-15373.153191	5437.476667	1598.449219	334.195068
-15373.153191	5437.476667	1597.408203	324.343567
-15373.153191	5437.476667	1596.368164	325.980560
-15373.153191	5437.476667	1595.327148	316.128113
-15373.153191	5437.476667	1594.287109	340.722168
-15373.153191	5437.476667	1593.246094	330.864288
-15373.153191	5437.476667	1592.204102	279.688629
-15373.153191	5437.476667	1591.163086	258.365906
-15373.153191	5437.476667	1590.121094	294.407990
-15373.153191	5437.476667	1589.079102	296.023132
-15373.153191	5437.476667	1588.037109	359.561096
-15373.153191	5437.476667	1586.995117	283.191864
-15373.153191	5437.476667	1585.953125	369.629150
-15373.153191	5437.476667	1584.910156	254.313004
-15373.153191	5437.476667	1583.867188	262.795013
-15373.153191	5437.476667	1582.824219	259.815002
-15373.153191	5437.476667	1581.781250	298.069611
-15373.153191	5437.476667	1580.737305	279.044525
-15373.153191	5437.476667	1579.693359	285.214722
-15373.153191	5437.476667	1578.649414	270.774841
-15373.153191	5437.476667	1577.605469	341.034546
-15373.153191	5437.476667	1576.561523	372.358734
-15373.153191	5437.476667	1575.516602	268.663910
-15373.153191	5437.476667	1574.472656	343.453705
-15373.153191	5437.476667	1573.427734	324.431976
-15373.153191	5437.476667	1572.381836	175.064667
-15373.153191	5437.476667	1571.336914	165.226440
-15373.153191	5437.476667	1570.291016	310.832611
-15373.153191	5437.476667	1569.246094	319.253723
-15373.153191	5437.476667	1568.200195	419.069885
-15373.153191	5437.476667	1567.153320	258.400330
-15373.153191	5437.476667	1566.107422	214.286972
-15373.153191	5437.476667	1565.060547	293.507477
-15373.153191	5437.476667	1564.013672	322.464996
-15373.153191	5437.476667	1562.966797	308.037872
-15373.153191	5437.476667	1561.919922	257.098206
-15373.153191	5437.476667	1560.872070	400.138123
-15373.153191	5437.476667	1559.825195	203.187469
-15373.153191	5437.476667	1558.777344	364.429688
-15373.153191	5437.476667	1557.729492	324.919861
-15373.153191	5437.476667	1556.680664	123.535767
-15373.153191	5437.476667	1555.632813	255.064133
-15373.153191	5437.476667	1554.583984	304.487244
-15373.153191	5437.476667	1553.535156	274.135071
-15373.153191	5437.476667	1552.486328	353.154663
-15373.153191	5437.476667	1551.436523	277.246582
-15373.153191	5437.476667	1550.387695	292.468292
-15373.153191	5437.476667	1549.337891	287.190338
-15373.153191	5437.476667	1548.288086	284.192291
-15373.153191	5437.476667	1547.238281	262.987762
-15373.153191	5437.476667	1546.187500	191.727219
-15373.153191	5437.476667	1545.136719	352.564575
-15373.153191	5437.476667	1544.086914	233.550507
-15373.153191	5437.476667	1543.035156	257.860443
-15373.153191	5437.476667	1541.984375	273.069641
-15373.153191	5437.476667	1540.933594	311.008545
-15373.153191	5437.476667	1539.881836	355.751556
-15373.153191	5437.476667	1538.830078	273.219360
-15373.153191	5437.476667	1537.778320	288.419952
-15373.153191	5437.476667	1536.725586	219.565872
-15373.153191	5437.476667	1535.673828	296.097076
-15373.153191	5437.476667	1534.621094	249.981079
-15373.153191	5437.476667	1533.568359	222.048019
-15373.153191	5437.476667	1532.515625	350.745270
-15373.153191	5437.476667	1531.461914	232.033005
-15373.153191	5437.476667	1530.409180	222.280334
-15373.153191	5437.476667	1529.355469	255.633514
-15373.153191	5437.476667	1528.301758	211.864563
-15373.153191	5437.476667	1527.247070	211.198059
-15373.153191	5437.476667	1526.193359	283.085388
-15373.153191	5437.476667	1525.138672	171.345886
-15373.153191	5437.476667	1524.083984	213.757462
-15373.153191	5437.476667	1523.029297	285.610992
-15373.153191	5437.476667	1521.974609	194.337509
-15373.153191	5437.476667	1520.918945	100.837151
-15373.153191	5437.476667	1519.863281	179.474670
-15373.153191	5437.476667	1518.807617	86.023148
-15373.153191	5437.476667	1517.751953	74.100624
-15373.153191	5437.476667	1516.696289	53.135193
-15373.153191	5437.476667	1515.639648	41.231354
-15373.153191	5437.476667	1514.583008	51.959427
-15373.153191	5437.476667	1513.526367	123.755074
-15373.153191	5437.476667	1512.469727	71.156746
-15373.153191	5437.476667	1511.412109	203.971603
-15373.153191	5437.476667	1510.355469	103.920906
-15373.153191	5437.476667	1509.297852	19.733112
-15373.153191	5437.476667	1508.240234	96.008774
-15373.153191	5437.476667	1507.181641	104.486710
-15373.153191	5437.476667	1506.124023	99.417679
-15373.153191	5437.476667	1505.065430	76.289703
-15373.153191	5437.476667	1504.006836	89.300484
-15373.153191	5437.476667	1502.948242	25.565622
-15373.153191	5437.476667	1501.888672	70.187744
-15373.153191	5437.476667	1500.830078	146.389694
-15373.153191	5437.476667	1499.770508	73.675934
-15373.153191	5437.476667	1498.710938	122.793198
-15373.153191	5437.476667	1497.650391	111.010643
-15373.153191	5437.476667	1496.590820	40.622833
-15373.153191	5437.476667	1495.530273	-4.936263
-15373.153191	5437.476667	1494.469727	53.199436
-15373.153191	5437.476667	1493.409180	190.182648
-15373.153191	5437.476667	1492.348633	4.971236
-15373.153191	5437.476667	1491.287109	47.324902
-15373.153191	5437.476667	1490.225586	-29.680101
-15373.153191	5437.476667	1489.164063	8.177052
-15373.153191	5437.476667	1488.102539	14.513423
-15373.153191	5437.476667	1487.041016	29.857693
-15373.153191	5437.476667	1485.978516	-65.052383
-15373.153191	5437.476667	1484.916016	49.316437
-15373.153191	5437.476667	1483.853516	163.618576
-15373.153191	5437.476667	1482.791016	68.765762
-15373.153191	5437.476667	1481.727539	-10.299124
-15373.153191	5437.476667	1480.664063	-21.892979
-15373.153191	5437.476667	1479.600586	-24.470030
-15373.153191	5437.476667	1478.537109	80.786247
-15373.153191	5437.476667	1477.473633	-2.640885
-15373.153191	5437.476667	1476.409180	50.945641
-15373.153191	5437.476667	1475.344727	55.118294
-15373.153191	5437.476667	1474.280273	-5.839367
-15373.153191	5437.476667	1473.215820	14.136494
-15373.153191	5437.476667	1472.151367	25.070644
-15373.153191	5437.476667	1471.085938	-60.366169
-15373.153191	5437.476667	1470.020508	11.146272
-15373.153191	5437.476667	1468.955078	107.294846
-15373.153191	5437.476667	1467.888672	118.254478
-15373.153191	5437.476667	1466.823242	-11.979856
-15373.153191	5437.476667	1465.756836	54.990173
-15373.153191	5437.476667	1464.690430	-79.508926
-15373.153191	5437.476667	1463.624023	59.161396
-15373.153191	5437.476667	1462.556641	52.229568
-15373.153191	5437.476667	1461.490234	-50.755829
-15373.153191	5437.476667	1460.422852	-17.115843
-15373.153191	5437.476667	1459.355469	-97.948822
-15373.153191	5437.476667	1458.287109	29.386564
-15373.153191	5437.476667	1457.219727	-50.941090
-15373.153191	5437.476667	1456.151367	66.896675
-15373.153191	5437.476667	1455.083008	-102.325005
-15373.153191	5437.476667	1454.014648	-20.032784
-15373.153191	5437.476667	1452.945313	-105.037186
-15373.153191	5437.476667	1451.876953	-44.618702
-15373.153191	5437.476667	1450.807617	-13.633581
-15373.153191	5437.476667	1449.738281	8.376848
-15373.153191	5437.476667	1448.668945	32.741787
-15373.153191	5437.476667	1447.598633	-20.317253
-15373.153191	5437.476667	1446.528320	48.528240
-15373.153191	5437.476667	1445.458008	-15.229701
-15373.153191	5437.476667	1444.387695	68.440025
-15373.153191	5437.476667	1443.317383	2.618572
-15373.153191	5437.476667	1442.246094	-48.838459
-15373.153191	5437.476667	1441.174805	59.948399
-15373.153191	5437.476667	1440.103516	11.031726
-15373.153191	5437.476667	1439.032227	89.284904
-15373.153191	5437.476667	1437.960938	17.384535
-15373.153191	5437.476667	1436.888672	47.756111
-15373.153191	5437.476667	1435.816406	102.633034
-15373.153191	5437.476667	1434.744141	16.698246
-15373.153191	5437.476667	1433.670898	23.221521
-15373.153191	5437.476667	1432.598633	62.770519
-15373.153191	5437.476667	1431.525391	39.020691
-15373.153191	5437.476667	1430.452148	26.239059
-15373.153191	5437.476667	1429.378906	-1.771077
-15373.153191	5437.476667	1428.304688	6.512803
-15373.153191	5437.476667	1427.231445	-44.423080
-15373.153191	5437.476667	1426.157227	-93.136299
-15373.153191	5437.476667	1425.083008	33.924030
-15373.153191	5437.476667	1424.007813	-104.007851
-15373.153191	5437.476667	1422.933594	-33.897507
-15373.153191	5437.476667	1421.858398	-61.765770
-15373.153191	5437.476667	1420.783203	22.973824
-15373.153191	5437.476667	1419.708008	-36.932076
-15373.153191	5437.476667	1418.631836	12.482285
-15373.153191	5437.476667	1417.555664	-51.343647
-15373.153191	5437.476667	1416.479492	-33.655659
-15373.153191	5437.476667	1415.403320	-3.934395
-15373.153191	5437.476667	1414.327148	70.986229
-15373.153191	5437.476667	1413.250000	-4.697748
-15373.153191	5437.476667	1412.173828	32.508759
-15373.153191	5437.476667	1411.096680	-43.564228
-15373.153191	5437.476667	1410.018555	-18.375101
-15373.153191	5437.476667	1408.941406	7.509852
-15373.153191	5437.476667	1407.863281	-47.256748
-15373.153191	5437.476667	1406.785156	24.841284
-15373.153191	5437.476667	1405.707031	41.258598
-15373.153191	5437.476667	1404.628906	26.689093
-15373.153191	5437.476667	1403.549805	-54.137611
-15373.153191	5437.476667	1402.470703	66.006760
-15373.153191	5437.476667	1401.391602	90.120560
-15373.153191	5437.476667	1400.312500	-29.894070
-15373.153191	5437.476667	1399.233398	10.933376
-15373.153191	5437.476667	1398.153320	-27.421806
-15373.153191	5437.476667	1397.073242	69.569611
-15373.153191	5437.476667	1395.993164	105.164253
-15373.153191	5437.476667	1394.913086	36.364120
-15373.153191	5437.476667	1393.832031	20.905796
-15373.153191	5437.476667	1392.750977	57.644852
-15373.153191	5437.476667	1391.669922	40.893093
-15373.153191	5437.476667	1390.588867	-73.106773
-15373.153191	5437.476667	1389.506836	2.677316
-15373.153191	5437.476667	1388.425781	94.155251
-15373.153191	5437.476667	1387.343750	24.002678
-15373.153191	5437.476667	1386.261719	50.768185
-15373.153191	5437.476667	1385.178711	47.889153
-15373.153191	5437.476667	1384.096680	75.998497
-15373.153191	5437.476667	1383.013672	-55.869381
-15373.153191	5437.476667	1381.930664	55.714905
-15373.153191	5437.476667	1380.846680	29.283514
-15373.153191	5437.476667	1379.763672	30.050524
-15373.153191	5437.476667	1378.679688	8.988704
-15373.153191	5437.476667	1377.595703	19.954603
-15373.153191	5437.476667	1376.511719	-4.871095
-15373.153191	5437.476667	1375.427734	83.029938
-15373.153191	5437.476667	1374.342773	93.777115
-15373.153191	5437.476667	1373.257813	108.864120
-15373.153191	5437.476667	1372.172852	147.375198
-15373.153191	5437.476667	1371.087891	165.002731
-15373.153191	5437.476667	1370.001953	117.222420
-15373.153191	5437.476667	1368.916992	53.233810
-15373.153191	5437.476667	1367.831055	77.638420
-15373.153191	5437.476667	1366.744141	51.468765
-15373.153191	5437.476667	1365.658203	147.050293
-15373.153191	5437.476667	1364.571289	66.446281
-15373.153191	5437.476667	1363.484375	160.593109
-15373.153191	5437.476667	1362.397461	-57.817818
-15373.153191	5437.476667	1361.310547	66.557991
-15373.153191	5437.476667	1360.222656	54.838192
-15373.153191	5437.476667	1359.135742	-9.366583
-15373.153191	5437.476667	1358.047852	-29.506306
-15373.153191	5437.476667	1356.958984	-5.728396
-15373.153191	5437.476667	1355.871094	5.777637
-15373.153191	5437.476667	1354.782227	95.658836
-15373.153191	5437.476667	1353.693359	120.006218
-15373.153191	5437.476667	1352.604492	31.364689
-15373.153191	5437.476667	1351.515625	-76.960098
-15373.153191	5437.476667	1350.425781	-25.024912
-15373.153191	5437.476667	1349.335938	41.680622
-15373.153191	5437.476667	1348.246094	112.276360
-15373.153191	5437.476667	1347.156250	79.137772
-15373.153191	5437.476667	1346.066406	23.321470
-15373.153191	5437.476667	1344.975586	10.037847
-15373.153191	5437.476667	1343.884766	0.552080
-15373.153191	5437.476667	1342.793945	55.987434
-15373.153191	5437.476667	1341.702148	120.074844
-15373.153191	5437.476667	1340.611328	53.395092
-15373.153191	5437.476667	1339.519531	50.030212
-15373.153191	5437.476667	1338.427734	41.524345
-15373.153191	5437.476667	1337.334961	50.096283
-15373.153191	5437.476667	1336.243164	98.016365
-15373.153191	5437.476667	1335.150391	71.425583
-15373.153191	5437.476667	1334.057617	107.443703
-15373.153191	5437.476667	1332.964844	63.211063
-15373.153191	5437.476667	1331.871094	115.054184
-15373.153191	5437.476667	1330.778320	117.667320
-15373.153191	5437.476667	1329.684570	134.511917
-15373.153191	5437.476667	1328.590820	64.096825
-15373.153191	5437.476667	1327.496094	-24.278484
-15373.153191	5437.476667	1326.402344	44.638454
-15373.153191	5437.476667	1325.307617	56.735977
-15373.153191	5437.476667	1324.212891	100.312889
-15373.153191	5437.476667	1323.117188	56.995148
-15373.153191	5437.476667	1322.022461	50.013107
-15373.153191	5437.476667	1320.926758	-57.943745
-15373.153191	5437.476667	1319.831055	103.249733
-15373.153191	5437.476667	1318.735352	-55.661880
-15373.153191	5437.476667	1317.638672	62.056568
-15373.153191	5437.476667	1316.542969	-20.869120
-15373.153191	5437.476667	1315.446289	23.869337
-15373.153191	5437.476667	1314.349609	-1.121550
-15373.153191	5437.476667	1313.251953	63.473267
-15373.153191	5437.476667	1312.155273	21.972477
-15373.153191	5437.476667	1311.057617	24.991121
-15373.153191	5437.476667	1309.959961	-40.406593
-15373.153191	5437.476667	1308.862305	-118.272499
-15373.153191	5437.476667	1307.763672	-11.093722
-15373.153191	5437.476667	1306.665039	-37.361530
-15373.153191	5437.476667	1305.566406	-2.447576
-15373.153191	5437.476667	1304.467773	-11.438857
-15373.153191	5437.476667	1303.369141	29.409178
-15373.153191	5437.476667	1302.269531	-28.148836
-15373.153191	5437.476667	1301.169922	-73.479729
-15373.153191	5437.476667	1300.070313	58.200596
-15373.153191	5437.476667	1298.970703	-30.182657
-15373.153191	5437.476667	1297.870117	13.130085
-15373.153191	5437.476667	1296.769531	-37.286419
-15373.153191	5437.476667	1295.668945	46.814075
-15373.153191	5437.476667	1294.568359	66.870934
-15373.153191	5437.476667	1293.466797	-21.222193
-15373.153191	5437.476667	1292.366211	-42.531677
-15373.153191	5437.476667	1291.264648	-39.970310
-15373.153191	5437.476667	1290.162109	39.157169
-15373.153191	5437.476667	1289.060547	6.723994
-15373.153191	5437.476667	1287.958008	29.742262
-15373.153191	5437.476667	1286.855469	36.315891
-15373.153191	5437.476667	1285.752930	29.356401
-15373.153191	5437.476667	1284.650391	37.969402
-15373.153191	5437.476667	1283.546875	47.697830
-15373.153191	5437.476667	1282.444336	105.545120
-15373.153191	5437.476667	1281.339844	88.156189
-15373.153191	5437.476667	1280.236328	27.607344
-15373.153191	5437.476667	1279.132813	117.081665
-15373.153191	5437.476667	1278.028320	11.041819
-15373.153191	5437.476667	1276.923828	40.205612
-15373.153191	5437.476667	1275.819336	59.406185
-15373.153191	5437.476667	1274.713867	42.826454
-15373.153191	5437.476667	1273.608398	85.039162
-15373.153191	5437.476667	1272.503906	37.955872
-15373.153191	5437.476667	1271.397461	100.896622
-15373.153191	5437.476667	1270.291992	36.984493
-15373.153191	5437.476667	1269.185547	161.522293
-15373.153191	5437.476667	1268.080078	80.056801
-15373.153191	5437.476667	1266.972656	87.300552
-15373.153191	5437.476667	1265.866211	55.783707
-15373.153191	5437.476667	1264.759766	113.516151
-15373.153191	5437.476667	1263.652344	-4.542731
-15373.153191	5437.476667	1262.544922	49.934807
-15373.153191	5437.476667	1261.436523	34.591770
-15373.153191	5437.476667	1260.329102	17.352968
-15373.153191	5437.476667	1259.220703	-84.948097
-15373.153191	5437.476667	1258.112305	-46.443928
-15373.153191	5437.476667	1257.003906	-75.835594
-15373.153191	5437.476667	1255.895508	-72.108566
-15373.153191	5437.476667	1254.786133	-111.865631
-15373.153191	5437.476667	1253.676758	3.889805
-15373.153191	5437.476667	1252.567383	-101.493034
-15373.153191	5437.476667	1251.458008	-23.329941
-15373.153191	5437.476667	1250.347656	-73.671913
-15373.153191	5437.476667	1249.237305	-112.901070
-15373.153191	5437.476667	1248.126953	-97.360313
-15373.153191	5437.476667	1247.016602	-75.412575
-15373.153191	5437.476667	1245.905273	4.321128
-15373.153191	5437.476667	1244.793945	-60.743027
-15373.153191	5437.476667	1243.682617	-38.411819
-15373.153191	5437.476667	1242.571289	24.025795
-15373.153191	5437.476667	1241.459961	-38.087547
-15373.153191	5437.476667	1240.347656	10.349832
-15373.153191	5437.476667	1239.235352	15.287018
-15373.153191	5437.476667	1238.123047	94.226807
-15373.153191	5437.476667	1237.009766	17.546276
-15373.153191	5437.476667	1235.897461	68.243530
-15373.153191	5437.476667	1234.784180	-10.332627
-15373.153191	5437.476667	1233.670898	54.319096
-15373.153191	5437.476667	1232.556641	-27.138783
-15373.153191	5437.476667	1231.443359	37.064224
-15373.153191	5437.476667	1230.329102	75.816780
-15373.153191	5437.476667	1229.214844	58.054226
-15373.153191	5437.476667	1228.099609	107.305321
-15373.153191	5437.476667	1226.985352	16.637608
-15373.153191	5437.476667	1225.870117	81.313103
-15373.153191	5437.476667	1224.754883	93.730965
-15373.153191	5437.476667	1223.639648	105.667435
-15373.153191	5437.476667	1222.523438	83.822685
-15373.153191	5437.476667	1221.408203	121.747078
-15373.153191	5437.476667	1220.291992	120.395836
-15373.153191	5437.476667	1219.174805	101.430939
-15373.153191	5437.476667	1218.058594	153.653198
-15373.153191	5437.476667	1216.941406	152.582306
-15373.153191	5437.476667	1215.824219	167.988235
-15373.153191	5437.476667	1214.707031	121.248520
-15373.153191	5437.476667	1213.589844	137.795868
-15373.153191	5437.476667	1212.471680	70.591011
-15373.153191	5437.476667	1211.353516	57.005699
-15373.153191	5437.476667	1210.235352	51.342026
-15373.153191	5437.476667	1209.117188	96.816147
-15373.153191	5437.476667	1207.998047	121.312401
-15373.153191	5437.476667	1206.878906	47.682972
-15373.153191	5437.476667	1205.759766	145.218735
-15373.153191	5437.476667	1204.640625	98.514259
-15373.153191	5437.476667	1203.520508	118.000282
-15373.153191	5437.476667	1202.401367	109.849068
-15373.153191	5437.476667	1201.281250	91.182495
-15373.153191	5437.476667	1200.160156	78.688423
-15373.153191	5437.476667	1199.040039	46.666992
-15373.153191	5437.476667	1197.918945	30.167379
-15373.153191	5437.476667	1196.797852	54.725803
-15373.153191	5437.476667	1195.676758	45.729572
-15373.153191	5437.476667	1194.555664	44.790104
-15373.153191	5437.476667	1193.433594	9.922405
-15373.153191	5437.476667	1192.311523	-52.745026
-15373.153191	5437.476667	1191.189453	-61.972836
-15373.153191	5437.476667	1190.066406	-6.673010
-15373.153191	5437.476667	1188.944336	-29.830381
-15373.153191	5437.476667	1187.821289	-45.531940
-15373.153191	5437.476667	1186.698242	-54.743206
-15373.153191	5437.476667	1185.574219	-47.565598
-15373.153191	5437.476667	1184.451172	-74.433929
-15373.153191	5437.476667	1183.327148	-9.371195
-15373.153191	5437.476667	1182.203125	53.934902
-15373.153191	5437.476667	1181.078125	-22.361677
-15373.153191	5437.476667	1179.954102	-6.082962
-15373.153191	5437.476667	1178.829102	-10.643299
-15373.153191	5437.476667	1177.704102	-32.954021
-15373.153191	5437.476667	1176.579102	-65.311668
-15373.153191	5437.476667	1175.453125	27.387205
-15373.153191	5437.476667	1174.327148	40.785446
-15373.153191	5437.476667	1173.201172	80.489120
-15373.153191	5437.476667	1172.075195	-3.569556
-15373.153191	5437.476667	1170.949219	35.600735
-15373.153191	5437.476667	1169.822266	89.480385
-15373.153191	5437.476667	1168.695313	55.845798
-15373.153191	5437.476667	1167.568359	48.120163
-15373.153191	5437.476667	1166.440430	31.269724
-15373.153191	5437.476667	1165.313477	59.182621
-15373.153191	5437.476667	1164.185547	19.309048
-15373.153191	5437.476667	1163.057617	52.886101
-15373.153191	5437.476667	1161.928711	96.967911
-15373.153191	5437.476667	1160.800781	47.013180
-15373.153191	5437.476667	1159.671875	2.198907
-15373.153191	5437.476667	1158.541992	34.885555
-15373.153191	5437.476667	1157.413086	49.255459
-15373.153191	5437.476667	1156.283203	112.818146
-15373.153191	5437.476667	1155.154297	118.006927
-15373.153191	5437.476667	1154.023438	101.060158
-15373.153191	5437.476667	1152.893555	116.992889
-15373.153191	5437.476667	1151.763672	68.919052
-15373.153191	5437.476667	1150.632813	94.640587
-15373.153191	5437.476667	1149.501953	45.539860
-15373.153191	5437.476667	1148.370117	88.496445
-15373.153191	5437.476667	1147.239258	88.926346
-15373.153191	5437.476667	1146.107422	124.473831
-15373.153191	5437.476667	1144.975586	174.189011
-15373.153191	5437.476667	1143.843750	105.205551
-15373.153191	5437.476667	1142.710938	51.569023
-15373.153191	5437.476667	1141.578125	60.377144
-15373.153191	5437.476667	1140.445313	40.968166
-15373.153191	5437.476667	1139.312500	131.573166
-15373.153191	5437.476667	1138.178711	92.766052
-15373.153191	5437.476667	1137.045898	16.867153
-15373.153191	5437.476667	1135.912109	84.331512
-15373.153191	5437.476667	1134.777344	67.316711
-15373.153191	5437.476667	1133.643555	49.194153
-15373.153191	5437.476667	1132.508789	31.623688
-15373.153191	5437.476667	1131.374023	18.170839
-15373.153191	5437.476667	1130.239258	-2.967490
-15373.153191	5437.476667	1129.104492	45.921234
-15373.153191	5437.476667	1127.968750	38.322262
-15373.153191	5437.476667	1126.833008	-11.432018
-15373.153191	5437.476667	1125.697266	-6.866138
-15373.153191	5437.476667	1124.560547	-38.669411
-15373.153191	5437.476667	1123.424805	-33.738441
-15373.153191	5437.476667	1122.288086	-21.312351
-15373.153191	5437.476667	1121.151367	38.679794
-15373.153191	5437.476667	1120.013672	76.741295
-15373.153191	5437.476667	1118.876953	5.458251
-15373.153191	5437.476667	1117.739258	-26.052042
-15373.153191	5437.476667	1116.601563	-28.579960
-15373.153191	5437.476667	1115.462891	-43.250141
-15373.153191	5437.476667	1114.324219	-18.650555
-15373.153191	5437.476667	1113.186523	-38.533226
-15373.153191	5437.476667	1112.046875	-58.328037
-15373.153191	5437.476667	1110.908203	-29.594311
-15373.153191	5437.476667	1109.769531	-17.265038
-15373.153191	5437.476667	1108.629883	-44.762482
-15373.153191	5437.476667	1107.490234	17.469700
-15373.153191	5437.476667	1106.349609	-19.513956
-15373.153191	5437.476667	1105.209961	-22.282265
-15373.153191	5437.476667	1104.069336	-28.293943
-15373.153191	5437.476667	1102.928711	-48.621769
-15373.153191	5437.476667	1101.787109	-48.412888
-15373.153191	5437.476667	1100.646484	40.735371
-15373.153191	5437.476667	1099.504883	9.995844
-15373.153191	5437.476667	1098.363281	4.575810
-15373.153191	5437.476667	1097.221680	-27.835112
-15373.153191	5437.476667	1096.079102	14.531928
-15373.153191	5437.476667	1094.936523	0.440871
-15373.153191	5437.476667	1093.793945	24.401896
-15373.153191	5437.476667	1092.651367	-13.690788
-15373.153191	5437.476667	1091.507813	-7.913070
-15373.153191	5437.476667	1090.364258	23.490961
-15373.153191	5437.476667	1089.220703	72.221924
-15373.153191	5437.476667	1088.077148	-8.693895
-15373.153191	5437.476667	1086.933594	-11.187215
-15373.153191	5437.476667	1085.789063	-17.402559
-15373.153191	5437.476667	1084.644531	11.520759
-15373.153191	5437.476667	1083.499023	-15.661400
-15373.153191	5437.476667	1082.354492	26.125231
-15373.153191	5437.476667	1081.208984	41.976421
-15373.153191	5437.476667	1080.063477	121.309769
-15373.153191	5437.476667	1078.917969	-24.680201
-15373.153191	5437.476667	1077.771484	-20.010355
-15373.153191	5437.476667	1076.625977	3.891936
-15373.153191	5437.476667	1075.479492	-39.619076
-15373.153191	5437.476667	1074.332031	-1.489989
-15373.153191	5437.476667	1073.185547	-4.473816
-15373.153191	5437.476667	1072.038086	-5.183624
-15373.153191	5437.476667	1070.890625	12.798744
-15373.153191	5437.476667	1069.743164	-16.467184
-15373.153191	5437.476667	1068.594727	34.034393
-15373.153191	5437.476667	1067.447266	6.546884
-15373.153191	5437.476667	1066.298828	-102.293571
-15373.153191	5437.476667	1065.149414	101.464622
-15373.153191	5437.476667	1064.000977	-36.042248
-15373.153191	5437.476667	1062.851563	33.071907
-15373.153191	5437.476667	1061.702148	15.404276
-15373.153191	5437.476667	1060.552734	-32.111828
-15373.153191	5437.476667	1059.402344	-2.901559
-15373.153191	5437.476667	1058.252930	69.731735
-15373.153191	5437.476667	1057.102539	21.514189
-15373.153191	5437.476667	1055.951172	-29.962944
-15373.153191	5437.476667	1054.800781	-11.457543
-15373.153191	5437.476667	1053.649414	32.195442
-15373.153191	5437.476667	1052.498047	23.282471
-15373.153191	5437.476667	1051.346680	-10.134463
-15373.153191	5437.476667	1050.194336	43.165676
-15373.153191	5437.476667	1049.042969	49.105507
-15373.153191	5437.476667	1047.890625	-17.103844
-15373.153191	5437.476667	1046.738281	70.751373
-15373.153191	5437.476667	1045.584961	-89.447906
-15373.153191	5437.476667	1044.431641	-104.775772
-15373.153191	5437.476667	1043.278320	115.410110
-15373.153191	5437.476667	1042.125000	7.738396
-15373.153191	5437.476667	1040.971680	18.334328
-15373.153191	5437.476667	1039.817383	5.423772
-15373.153191	5437.476667	1038.663086	-32.010658
-15373.153191	5437.476667	1037.508789	-111.265114
-15373.153191	5437.476667	1036.353516	12.142130
-15373.153191	5437.476667	1035.198242	-67.636620
-15373.153191	5437.476667	1034.042969	70.757034
-15373.153191	5437.476667	1032.887695	-22.640024
-15373.153191	5437.476667	1031.732422	60.727627
-15373.153191	5437.476667	1030.576172	129.866577
-15373.153191	5437.476667	1029.419922	94.576393
-15373.153191	5437.476667	1028.263672	88.515053
-15373.153191	5437.476667	1027.106445	85.661293
-15373.153191	5437.476667	1025.949219	51.343029
-15373.153191	5437.476667	1024.792969	13.740517
-15373.153191	5437.476667	1023.634766	91.636566
-15373.153191	5437.476667	1022.477539	-0.395392
-15373.153191	5437.476667	1021.319336	24.129637
-15373.153191	5437.476667	1020.161133	7.621165
-15373.153191	5437.476667	1019.002930	47.581413
-15373.153191	5437.476667	1017.843750	1.798395
-15373.153191	5437.476667	1016.684570	48.324959
-15373.153191	5437.476667	1015.525391	-52.665527
-15373.153191	5437.476667	1014.366211	25.913153
-15373.153191	5437.476667	1013.207031	54.630363
-15373.153191	5437.476667	1012.046875	46.940105
-15373.153191	5437.476667	1010.886719	14.865242
-15373.153191	5437.476667	1009.726563	17.543259
-15373.153191	5437.476667	1008.565430	38.951092
-15373.153191	5437.476667	1007.404297	29.405325
-15373.153191	5437.476667	1006.243164	-29.484625
-15373.153191	5437.476667	1005.082031	51.689976
-15373.153191	5437.476667	1003.920898	124.513885
-15373.153191	5437.476667	1002.758789	109.655663
-15373.153191	5437.476667	1001.596680	43.573292
-15373.153191	5437.476667	1000.433594	101.967545
-15373.153191	5437.476667	999.271484	20.687014
-15373.153191	5437.476667	998.108398	74.514297
-15373.153191	5437.476667	996.945313	111.697929
-15373.153191	5437.476667	995.782227	82.115181
-15373.153191	5437.476667	994.618164	99.195290
-15373.153191	5437.476667	993.454102	158.222961
-15373.153191	5437.476667	992.290039	240.468292
-15373.153191	5437.476667	991.125977	198.079514
-15373.153191	5437.476667	989.960938	297.309845
-15373.153191	5437.476667	988.796875	245.322678
-15373.153191	5437.476667	987.630859	221.471329
-15373.153191	5437.476667	986.465820	225.607437
-15373.153191	5437.476667	985.300781	279.240356
-15373.153191	5437.476667	984.134766	194.408417
-15373.153191	5437.476667	982.968750	182.805069
-15373.153191	5437.476667	981.801758	123.219650
-15373.153191	5437.476667	980.635742	-17.035671
-15373.153191	5437.476667	979.468750	52.472652
-15373.153191	5437.476667	978.301758	-13.889534
-15373.153191	5437.476667	977.133789	100.779617
-15373.153191	5437.476667	975.966797	133.025742
-15373.153191	5437.476667	974.798828	75.987167
-15373.153191	5437.476667	973.630859	14.523672
-15373.153191	5437.476667	972.461914	46.772182
-15373.153191	5437.476667	971.293945	26.949778
-15373.153191	5437.476667	970.125000	57.546059
-15373.153191	5437.476667	968.956055	69.948174
-15373.153191	5437.476667	967.786133	-36.305119
-15373.153191	5437.476667	966.617188	4.771869
-15373.153191	5437.476667	965.447266	30.590328
-15373.153191	5437.476667	964.276367	1.756521
-15373.153191	5437.476667	963.106445	74.706841
-15373.153191	5437.476667	961.935547	-7.022049
-15373.153191	5437.476667	960.764648	21.351070
-15373.153191	5437.476667	959.593750	16.191032
-15373.153191	5437.476667	958.422852	-59.122936
-15373.153191	5437.476667	957.250977	-42.643166
-15373.153191	5437.476667	956.079102	-26.238066
-15373.153191	5437.476667	954.907227	98.680824
-15373.153191	5437.476667	953.734375	-49.696899
-15373.153191	5437.476667	952.562500	16.564764
-15373.153191	5437.476667	951.389648	91.739204
-15373.153191	5437.476667	950.215820	82.544746
-15373.153191	5437.476667	949.042969	16.253122
-15373.153191	5437.476667	947.869141	46.854244
-15373.153191	5437.476667	946.695313	80.226082
-15373.153191	5437.476667	945.521484	129.707596
-15373.153191	5437.476667	944.346680	127.451469
-15373.153191	5437.476667	943.172852	96.635002
-15373.153191	5437.476667	941.998047	72.947525
-15373.153191	5437.476667	940.822266	-23.657026
-15373.153191	5437.476667	939.647461	89.671745
-15373.153191	5437.476667	938.471680	91.913208
-15373.153191	5437.476667	937.295898	68.357460
-15373.153191	5437.476667	936.119141	4.665007
-15373.153191	5437.476667	934.943359	4.621078
-15373.153191	5437.476667	933.766602	28.209894
-15373.153191	5437.476667	932.589844	11.672754
-15373.153191	5437.476667	931.413086	-2.461934
-15373.153191	5437.476667	930.235352	-4.849127
-15373.153191	5437.476667	929.057617	-2.513629
-15373.153191	5437.476667	927.879883	-21.357939
-15373.153191	5437.476667	926.702148	32.826527
-15373.153191	5437.476667	925.523438	-14.353724
-15373.153191	5437.476667	924.344727	20.975197
-15373.153191	5437.476667	923.166016	42.151024
-15373.153191	5437.476667	921.987305	84.514420
-15373.153191	5437.476667	920.807617	11.469728
-15373.153191	5437.476667	919.627930	12.011948
-15373.153191	5437.476667	919.497070	23.272167
-15373.153191	5437.476667	918.331055	35.000790
-15373.153191	5437.476667	917.165039	-14.469809
-15373.153191	5437.476667	915.999023	-33.333149
-15373.153191	5437.476667	914.833008	44.264362
-15373.153191	5437.476667	913.666016	-0.480952
-15373.153191	5437.476667	912.499023	-33.452263
-15373.153191	5437.476667	911.332031	-33.496655
-15373.153191	5437.476667	910.165039	-89.959023
-15373.153191	5437.476667	908.997070	8.712171
-15373.153191	5437.476667	907.830078	11.002718
-15373.153191	5437.476667	906.661133	-31.344076
-15373.153191	5437.476667	905.493164	-52.537178
-15373.153191	5437.476667	904.325195	78.914146
-15373.153191	5437.476667	903.156250	-22.121185
-15373.153191	5437.476667	901.987305	-10.445774
-15373.153191	5437.476667	900.818359	27.038601
-15373.153191	5437.476667	899.648438	19.925697
-15373.153191	5437.476667	898.478516	33.927326
-15373.153191	5437.476667	897.308594	-62.312153
-15373.153191	5437.476667	896.138672	-55.337101
-15373.153191	5437.476667	894.968750	45.411884
-15373.153191	5437.476667	893.797852	54.704082
-15373.153191	5437.476667	892.626953	-22.717684
-15373.153191	5437.476667	891.456055	-76.678787
-15373.153191	5437.476667	890.284180	45.071743
-15373.153191	5437.476667	889.113281	37.958195
-15373.153191	5437.476667	887.941406	9.772967
-15373.153191	5437.476667	886.768555	51.831795
-15373.153191	5437.476667	885.596680	-6.774527
-15373.153191	5437.476667	884.423828	49.310112
-15373.153191	5437.476667	883.250977	30.501869
-15373.153191	5437.476667	882.078125	98.250755
-15373.153191	5437.476667	880.905273	16.294134
-15373.153191	5437.476667	879.731445	84.017967
-15373.153191	5437.476667	878.557617	79.243202
-15373.153191	5437.476667	877.383789	11.363692
-15373.153191	5437.476667	876.209961	-2.741850
-15373.153191	5437.476667	875.035156	74.274940
-15373.153191	5437.476667	873.860352	-16.920280
-15373.153191	5437.476667	872.685547	6.354429
-15373.153191	5437.476667	871.510742	15.610349
-15373.153191	5437.476667	870.334961	20.194124
-15373.153191	5437.476667	869.159180	31.777760
-15373.153191	5437.476667	867.983398	41.023411
-15373.153191	5437.476667	866.807617	-38.387482
-15373.153191	5437.476667	865.630859	26.849487
-15373.153191	5437.476667	864.454102	54.747623
-15373.153191	5437.476667	863.277344	145.586029
-15373.153191	5437.476667	862.100586	108.179420
-15373.153191	5437.476667	860.922852	5.532647
-15373.153191	5437.476667	859.745117	-15.518232
-15373.153191	5437.476667	858.567383	58.954788
-15373.153191	5437.476667	857.389648	14.611169
-15373.153191	5437.476667	856.210938	-20.398508
-15373.153191	5437.476667	855.032227	74.985435
-15373.153191	5437.476667	853.853516	-32.180569
-15373.153191	5437.476667	852.674805	16.623024
-15373.153191	5437.476667	851.495117	18.872486
-15373.153191	5437.476667	850.315430	35.079144
-15373.153191	5437.476667	849.135742	7.089701
-15373.153191	5437.476667	847.956055	30.269651
-15373.153191	5437.476667	846.775391	-20.954062
-15373.153191	5437.476667	845.595703	11.520779
-15373.153191	5437.476667	844.415039	55.602970
-15373.153191	5437.476667	843.233398	-58.323929
-15373.153191	5437.476667	842.052734	-72.317383
-15373.153191	5437.476667	840.871094	36.786293
-15373.153191	5437.476667	839.689453	-67.776253
-15373.153191	5437.476667	838.506836	-42.290489
-15373.153191	5437.476667	837.325195	41.210766
-15373.153191	5437.476667	836.142578	29.536457
-15373.153191	5437.476667	834.959961	-5.333127
-15373.153191	5437.476667	833.777344	-91.218544
-15373.153191	5437.476667	832.593750	-17.048588
-15373.153191	5437.476667	831.410156	-86.664009
-15373.153191	5437.476667	830.226563	-21.796515
-15373.153191	5437.476667	829.042969	-21.850168
-15373.153191	5437.476667	827.858398	-5.682471
-15373.153191	5437.476667	826.673828	-42.805340
-15373.153191	5437.476667	825.489258	-15.057171
-15373.153191	5437.476667	824.304688	49.732422
-15373.153191	5437.476667	823.120117	84.397156
-15373.153191	5437.476667	821.934570	63.493099
-15373.153191	5437.476667	820.749023	-68.490219
-15373.153191	5437.476667	819.562500	28.654392
-15373.153191	5437.476667	818.376953	-22.297834
-15373.153191	5437.476667	817.190430	-47.786018
-15373.153191	5437.476667	816.003906	-13.139972
-15373.153191	5437.476667	814.817383	-33.994743
-15373.153191	5437.476667	813.629883	-3.987882
-15373.153191	5437.476667	812.442383	-59.499744
-15373.153191	5437.476667	811.254883	-1.773054
-15373.153191	5437.476667	810.067383	-64.192131
-15373.153191	5437.476667	808.878906	76.656967
-15373.153191	5437.476667	807.690430	88.138763
-15373.153191	5437.476667	806.501953	-15.814194
-15373.153191	5437.476667	805.313477	-36.631641
-15373.153191	5437.476667	804.124023	32.558372
-15373.153191	5437.476667	802.934570	80.955063
-15373.153191	5437.476667	801.745117	2.463151
-15373.153191	5437.476667	800.555664	-80.609085
-15373.153191	5437.476667	799.365234	-50.665081
-15373.153191	5437.476667	798.175781	-140.608368
-15373.153191	5437.476667	796.985352	4.574298
-15373.153191	5437.476667	795.793945	50.611107
-15373.153191	5437.476667	794.603516	9.082187
-15373.153191	5437.476667	793.412109	-4.789526
-15373.153191	5437.476667	792.220703	52.733009
-15373.153191	5437.476667	791.028320	29.647203
-15373.153191	5437.476667	789.836914	-18.751738
-15373.153191	5437.476667	788.644531	38.735676
-15373.153191	5437.476667	787.452148	6.460002
-15373.153191	5437.476667	786.258789	75.418640
-15373.153191	5437.476667	785.066406	-32.754345
-15373.153191	5437.476667	783.873047	61.476223
-15373.153191	5437.476667	782.679688	8.526074
-15373.153191	5437.476667	781.485352	75.123062
-15373.153191	5437.476667	780.291992	61.256489
-15373.153191	5437.476667	779.097656	49.691967
-15373.153191	5437.476667	777.903320	-26.190172
-15373.153191	5437.476667	776.708008	44.944847
-15373.153191	5437.476667	775.512695	8.127011
-15373.153191	5437.476667	774.318359	60.854824
-15373.153191	5437.476667	773.122070	106.673332
-15373.153191	5437.476667	771.926758	88.216454
-15373.153191	5437.476667	770.730469	49.116211
-15373.153191	5437.476667	769.534180	65.080818
-15373.153191	5437.476667	768.337891	124.609673
-15373.153191	5437.476667	767.141602	119.910393
-15373.153191	5437.476667	765.944336	103.748390
-15373.153191	5437.476667	764.747070	142.595535
-15373.153191	5437.476667	763.549805	227.251999
-15373.153191	5437.476667	762.351563	195.031006
-15373.153191	5437.476667	761.154297	139.914322
-15373.153191	5437.476667	759.956055	364.197723
-15373.153191	5437.476667	758.757813	256.402435
-15373.153191	5437.476667	757.558594	249.366074
-15373.153191	5437.476667	756.359375	217.154266
-15373.153191	5437.476667	755.160156	242.153610
-15373.153191	5437.476667	753.960938	180.208649
-15373.153191	5437.476667	752.761719	115.997238
-15373.153191	5437.476667	751.561523	97.541534
-15373.153191	5437.476667	750.361328	184.253128
-15373.153191	5437.476667	749.160156	163.495010
-15373.153191	5437.476667	747.959961	193.015106
-15373.153191	5437.476667	746.758789	128.842270
-15373.153191	5437.476667	745.557617	213.169083
-15373.153191	5437.476667	744.356445	174.129196
-15373.153191	5437.476667	743.154297	196.749603
-15373.153191	5437.476667	741.952148	141.737335
-15373.153191	5437.476667	740.750000	228.248978
-15373.153191	5437.476667	739.547852	143.575348
-15373.153191	5437.476667	738.344727	115.966095
-15373.153191	5437.476667	737.142578	209.251266
-15373.153191	5437.476667	735.939453	101.809441
-15373.153191	5437.476667	734.735352	76.485161
-15373.153191	5437.476667	733.532227	149.182709
-15373.153191	5437.476667	732.328125	119.285759
-15373.153191	5437.476667	731.124023	80.279205
-15373.153191	5437.476667	729.918945	121.014206
-15373.153191	5437.476667	728.714844	132.114807
-15373.153191	5437.476667	727.509766	106.768105
-15373.153191	5437.476667	726.303711	88.253922
-15373.153191	5437.476667	725.098633	110.709534
-15373.153191	5437.476667	723.892578	-58.012474
-15373.153191	5437.476667	722.686523	66.831848
-15373.153191	5437.476667	721.480469	23.282604
-15373.153191	5437.476667	720.274414	61.615974
-15373.153191	5437.476667	719.067383	29.435957
-15373.153191	5437.476667	717.860352	40.452614
-15373.153191	5437.476667	716.653320	-55.369644
-15373.153191	5437.476667	715.445313	-37.543301
-15373.153191	5437.476667	714.238281	12.071751
-15373.153191	5437.476667	713.030273	-58.730179
-15373.153191	5437.476667	711.821289	20.369055
-15373.153191	5437.476667	710.613281	8.605060
-15373.153191	5437.476667	709.404297	64.934692
-15373.153191	5437.476667	708.195313	50.873993
-15373.153191	5437.476667	706.986328	-24.456882
-15373.153191	5437.476667	705.776367	-2.219410
-15373.153191	5437.476667	704.566406	54.017506
-15373.153191	5437.476667	703.356445	26.316904
-15373.153191	5437.476667	702.146484	25.821171
-15373.153191	5437.476667	700.935547	-69.887077
-15373.153191	5437.476667	699.724609	56.518078
-15373.153191	5437.476667	698.513672	51.445858
-15373.153191	5437.476667	697.302734	32.770832
-15373.153191	5437.476667	696.090820	29.943254
-15373.153191	5437.476667	694.878906	133.524429
-15373.153191	5437.476667	693.666992	17.458984
-15373.153191	5437.476667	692.455078	55.334381
-15373.153191	5437.476667	691.242188	-4.123292
-15373.153191	5437.476667	690.029297	11.087991
-15373.153191	5437.476667	688.816406	39.849388
-15373.153191	5437.476667	687.602539	-1.520761
-15373.153191	5437.476667	686.389648	27.201128
-15373.153191	5437.476667	685.175781	10.685610
-15373.153191	5437.476667	683.960938	55.181484
-15373.153191	5437.476667	682.747070	101.902397
-15373.153191	5437.476667	681.532227	107.924843
-15373.153191	5437.476667	680.317383	21.326626
-15373.153191	5437.476667	679.102539	25.072657
-15373.153191	5437.476667	677.886719	53.634262
-15373.153191	5437.476667	676.670898	0.909603
-15373.153191	5437.476667	675.455078	106.157295
-15373.153191	5437.476667	674.239258	66.946747
-15373.153191	5437.476667	673.022461	-6.100372
-15373.153191	5437.476667	671.805664	-65.602928
-15373.153191	5437.476667	670.588867	-14.614565
-15373.153191	5437.476667	669.372070	27.317442
-15373.153191	5437.476667	668.154297	55.690441
-15373.153191	5437.476667	666.936523	23.193003
-15373.153191	5437.476667	665.718750	51.518326
-15373.153191	5437.476667	664.500977	68.551018
-15373.153191	5437.476667	663.282227	20.251760
-15373.153191	5437.476667	662.063477	-25.794569
-15373.153191	5437.476667	660.844727	-17.817127
-15373.153191	5437.476667	659.625000	26.144974
-15373.153191	5437.476667	658.405273	-15.431734
-15373.153191	5437.476667	657.185547	21.723845
-15373.153191	5437.476667	655.965820	72.338127
-15373.153191	5437.476667	654.745117	-52.479599
-15373.153191	5437.476667	653.525391	40.803383
-15373.153191	5437.476667	652.303711	-23.309322
-15373.153191	5437.476667	651.083008	-31.235394
-15373.153191	5437.476667	649.861328	122.582657
-15373.153191	5437.476667	648.640625	-15.692903
-15373.153191	5437.476667	647.417969	25.727718
-15373.153191	5437.476667	646.196289	49.148239
-15373.153191	5437.476667	644.973633	-30.723085
-15373.153191	5437.476667	643.750977	-7.343340
-15373.153191	5437.476667	642.528320	-4.189439
-15373.153191	5437.476667	641.305664	19.132315
-15373.153191	5437.476667	640.082031	-33.836586
-15373.153191	5437.476667	638.858398	-3.834880
-15373.153191	5437.476667	637.634766	84.422737
-15373.153191	5437.476667	636.410156	-51.526669
-15373.153191	5437.476667	635.185547	79.238136
-15373.153191	5437.476667	633.960938	37.405296
-15373.153191	5437.476667	632.736328	-60.432972
-15373.153191	5437.476667	631.510742	-61.951332
-15373.153191	5437.476667	630.285156	43.985157
-15373.153191	5437.476667	629.059570	24.491673
-15373.153191	5437.476667	627.833984	-8.444788
-15373.153191	5437.476667	626.607422	50.353844
-15373.153191	5437.476667	625.380859	21.854145
-15373.153191	5437.476667	624.154297	6.764077
-15373.153191	5437.476667	622.927734	94.525497
-15373.153191	5437.476667	621.700195	-23.465565
-15373.153191	5437.476667	620.472656	37.394764
-15373.153191	5437.476667	619.245117	-31.413563
-15373.153191	5437.476667	618.016602	-4.139565
-15373.153191	5437.476667	616.788086	-30.513048
-15373.153191	5437.476667	615.559570	97.206703
-15373.153191	5437.476667	614.331055	81.941551
-15373.153191	5437.476667	613.101563	42.101860
-15373.153191	5437.476667	611.872070	-62.471291
-15373.153191	5437.476667	610.642578	-4.123100
-15373.153191	5437.476667	609.413086	-101.995155
-15373.153191	5437.476667	608.182617	12.053566
-15373.153191	5437.476667	606.952148	54.667946
-15373.153191	5437.476667	605.721680	-16.468868
-15373.153191	5437.476667	604.491211	52.837250
-15373.153191	5437.476667	603.259766	-18.316187
-15373.153191	5437.476667	602.028320	26.403793
-15373.153191	5437.476667	600.796875	84.447929
-15373.153191	5437.476667	599.564453	-69.144402
-15373.153191	5437.476667	598.332031	-4.471077
-15373.153191	5437.476667	597.099609	-80.104523
-15373.153191	5437.476667	595.867188	13.434100
-15373.153191	5437.476667	594.633789	77.979279
-15373.153191	5437.476667	593.400391	-22.166121
-15373.153191	5437.476667	592.166992	-60.008106
-15373.153191	5437.476667	590.933594	28.907534
-15373.153191	5437.476667	589.699219	-20.092575
-15373.153191	5437.476667	588.464844	19.825291
-15373.153191	5437.476667	587.230469	93.041626
-15373.153191	5437.476667	585.995117	-7.115022
-15373.153191	5437.476667	584.760742	50.481339
-15373.153191	5437.476667	583.525391	32.512821
-15373.153191	5437.476667	582.289063	-3.235554
-15373.153191	5437.476667	581.053711	12.074222
-15373.153191	5437.476667	579.817383	-68.090897
-15373.153191	5437.476667	578.581055	55.922573
-15373.153191	5437.476667	577.343750	-8.730227
-15373.153191	5437.476667	576.107422	22.009575
-15373.153191	5437.476667	574.870117	21.665470
-15373.153191	5437.476667	573.631836	-69.609802
-15373.153191	5437.476667	572.394531	69.684624
-15373.153191	5437.476667	571.156250	82.566071
-15373.153191	5437.476667	569.917969	37.809258
-15373.153191	5437.476667	568.679688	19.636578
-15373.153191	5437.476667	567.440430	1.450413
-15373.153191	5437.476667	566.202148	85.119492
-15373.153191	5437.476667	564.961914	9.323657
-15373.153191	5437.476667	563.722656	159.321045
-15373.153191	5437.476667	562.482422	-18.295769
-15373.153191	5437.476667	561.243164	-9.997986
-15373.153191	5437.476667	560.001953	104.455360
-15373.153191	5437.476667	558.761719	101.627525
-15373.153191	5437.476667	557.520508	36.869312
-15373.153191	5437.476667	556.279297	-45.564098
-15373.153191	5437.476667	555.038086	62.098076
-15373.153191	5437.476667	553.795898	98.984207
-15373.153191	5437.476667	552.554688	-36.482407
-15373.153191	5437.476667	551.311523	-26.131100
-15373.153191	5437.476667	550.069336	-26.840204
-15373.153191	5437.476667	548.826172	1.135483
-15373.153191	5437.476667	547.583984	-4.025023
-15373.153191	5437.476667	546.339844	-48.926067
-15373.153191	5437.476667	545.096680	54.009007
-15373.153191	5437.476667	543.852539	39.968445
-15373.153191	5437.476667	542.608398	116.344322
-15373.153191	5437.476667	541.364258	-1.366931
-15373.153191	5437.476667	540.119141	50.705666
-15373.153191	5437.476667	538.875000	49.847263
-15373.153191	5437.476667	537.628906	42.361530
-15373.153191	5437.476667	536.383789	89.946465
-15373.153191	5437.476667	535.137695	-38.714924
-15373.153191	5437.476667	533.892578	-6.572513
-15373.153191	5437.476667	532.645508	-53.720665
-15373.153191	5437.476667	531.399414	11.404939
-15373.153191	5437.476667	530.152344	-7.139214
-15373.153191	5437.476667	528.905273	90.929230
-15373.153191	5437.476667	527.658203	-11.237267
-15373.153191	5437.476667	526.410156	14.189747
-15373.153191	5437.476667	525.163086	8.814472
-15373.153191	5437.476667	523.914063	56.189629
-15373.153191	5437.476667	522.666016	83.756638
-15373.153191	5437.476667	521.416992	-9.558445
-15373.153191	5437.476667	520.167969	-34.735188
-15373.153191	5437.476667	518.918945	19.165504
-15373.153191	5437.476667	517.669922	-30.177773
-15373.153191	5437.476667	516.419922	-37.793053
-15373.153191	5437.476667	515.169922	-60.777306
-15373.153191	5437.476667	513.919922	-39.865509
-15373.153191	5437.476667	512.668945	-1.417253
-15373.153191	5437.476667	511.417969	-22.220417
-15373.153191	5437.476667	510.166992	-3.541968
-15373.153191	5437.476667	508.916016	-13.381546
-15373.153191	5437.476667	507.664063	5.275752
-15373.153191	5437.476667	506.412109	-116.353554
-15373.153191	5437.476667	505.160156	-47.289371
-15373.153191	5437.476667	503.907227	12.976589
-15373.153191	5437.476667	502.655273	-75.730400
-15373.153191	5437.476667	501.402344	39.257748
-15373.153191	5437.476667	500.148438	-14.394577
-15373.153191	5437.476667	498.895508	-63.646046
-15373.153191	5437.476667	497.641602	31.560806
-15373.153191	5437.476667	496.387695	98.280853
-15373.153191	5437.476667	495.132813	-5.659782
-15373.153191	5437.476667	493.878906	-50.503498
-15373.153191	5437.476667	492.624023	9.627221
-15373.153191	5437.476667	491.368164	26.006826
-15373.153191	5437.476667	490.113281	0.854073
-15373.153191	5437.476667	488.857422	84.970032
-15373.153191	5437.476667	487.601563	59.814301
-15373.153191	5437.476667	486.344727	-67.992142
-15373.153191	5437.476667	485.088867	7.351933
-15373.153191	5437.476667	483.832031	52.096535
-15373.153191	5437.476667	482.575195	24.789335
-15373.153191	5437.476667	481.317383	-2.506580
-15373.153191	5437.476667	480.059570	20.395102
-15373.153191	5437.476667	478.801758	89.099281
-15373.153191	5437.476667	477.543945	50.908592
-15373.153191	5437.476667	476.285156	-19.972818
-15373.153191	5437.476667	475.027344	39.982437
-15373.153191	5437.476667	473.767578	-24.324179
-15373.153191	5437.476667	472.508789	42.146469
-15373.153191	5437.476667	471.249023	60.659672
-15373.153191	5437.476667	469.989258	18.179649
-15373.153191	5437.476667	468.729492	1.852906
-15373.153191	5437.476667	467.469727	127.053947
-15373.153191	5437.476667	466.208984	56.295868
-15373.153191	5437.476667	464.948242	35.624825
-15373.153191	5437.476667	463.686523	78.061440
-15373.153191	5437.476667	462.425781	-1.333739
-15373.153191	5437.476667	461.164063	54.146584
-15373.153191	5437.476667	459.901367	16.104555
-15373.153191	5437.476667	458.639648	-34.960411
-15373.153191	5437.476667	457.376953	107.433075
-15373.153191	5437.476667	456.114258	43.334137
-15373.153191	5437.476667	454.851563	46.611633
-15373.153191	5437.476667	453.587891	88.983734
-15373.153191	5437.476667	452.324219	37.960621
-15373.153191	5437.476667	451.060547	-47.777653
-15373.153191	5437.476667	449.796875	3.270455
-15373.153191	5437.476667	448.532227	121.569061
-15373.153191	5437.476667	447.267578	85.767372
-15373.153191	5437.476667	446.002930	26.118273
-15373.153191	5437.476667	444.737305	14.203447
-15373.153191	5437.476667	443.471680	30.478369
-15373.153191	5437.476667	442.206055	70.589111
-15373.153191	5437.476667	440.940430	-2.023612
-15373.153191	5437.476667	439.673828	-3.104723
-15373.153191	5437.476667	438.407227	26.138479
-15373.153191	5437.476667	437.140625	14.209797
-15373.153191	5437.476667	435.873047	26.097061
-15373.153191	5437.476667	434.605469	29.310848
-15373.153191	5437.476667	433.337891	8.703926
-15373.153191	5437.476667	432.070313	33.541122
-15373.153191	5437.476667	430.801758	99.462120
-15373.153191	5437.476667	429.533203	72.327644
-15373.153191	5437.476667	428.264648	66.817879
-15373.153191	5437.476667	426.996094	91.565575
-15373.153191	5437.476667	425.726563	-48.006416
-15373.153191	5437.476667	424.457031	-36.248268
-15373.153191	5437.476667	423.186523	18.698505
-15373.153191	5437.476667	421.916992	73.602921
-15373.153191	5437.476667	420.646484	121.979156
-15373.153191	5437.476667	419.375977	114.166527
-15373.153191	5437.476667	418.104492	-8.093295
-15373.153191	5437.476667	416.833008	18.604546
-15373.153191	5437.476667	415.561523	172.581146
-15373.153191	5437.476667	414.290039	7.148741
-15373.153191	5437.476667	413.017578	100.595978
-15373.153191	5437.476667	411.746094	103.393242
-15373.153191	5437.476667	410.472656	129.863449
-15373.153191	5437.476667	409.200195	74.369843
-15373.153191	5437.476667	407.926758	66.268356
-15373.153191	5437.476667	406.653320	79.671875
-15373.153191	5437.476667	405.379883	159.802185
-15373.153191	5437.476667	404.105469	95.542534
-15373.153191	5437.476667	402.831055	-48.414795
-15373.153191	5437.476667	401.556641	40.138504
-15373.153191	5437.476667	400.282227	-41.442387
-15373.153191	5437.476667	399.006836	-2.547494
-15373.153191	5437.476667	397.731445	-36.883965
-15373.153191	5437.476667	396.456055	10.461174
-15373.153191	5437.476667	395.179688	55.559803
-15373.153191	5437.476667	393.903320	18.861576
-15373.153191	5437.476667	392.626953	166.960510
-15373.153191	5437.476667	391.350586	162.326004
-15373.153191	5437.476667	390.073242	37.280186
-15373.153191	5437.476667	388.795898	122.715340
-15373.153191	5437.476667	387.518555	-21.785265
-15373.153191	5437.476667	386.240234	-48.229675
-15373.153191	5437.476667	384.961914	172.108658
-15373.153191	5437.476667	383.683594	-24.137587
-15373.153191	5437.476667	382.405273	-40.164227
-15373.153191	5437.476667	381.125977	55.251488
-15373.153191	5437.476667	379.846680	-33.958572
-15373.153191	5437.476667	378.567383	-86.804626
-15373.153191	5437.476667	377.287109	-71.159637
-15373.153191	5437.476667	376.006836	15.072878
-15373.153191	5437.476667	374.726563	113.979652
-15373.153191	5437.476667	373.446289	122.704628
-15373.153191	5437.476667	372.165039	47.721905
-15373.153191	5437.476667	370.883789	38.998100
-15373.153191	5437.476667	369.602539	100.765526
-15373.153191	5437.476667	368.320313	-8.930607
-15373.153191	5437.476667	367.039063	1.094480
-15373.153191	5437.476667	365.755859	-19.041857
-15373.153191	5437.476667	364.473633	84.716354
-15373.153191	5437.476667	363.190430	-47.051155
-15373.153191	5437.476667	361.907227	62.660210
-15373.153191	5437.476667	360.624023	75.898605
-15373.153191	5437.476667	359.340820	-58.579262
-15373.153191	5437.476667	358.056641	86.701149
-15373.153191	5437.476667	356.772461	45.798470
-15373.153191	5437.476667	355.487305	-33.794018
-15373.153191	5437.476667	354.202148	-11.107120
-15373.153191	5437.476667	352.916992	60.406052
-15373.153191	5437.476667	351.631836	37.684505
-15373.153191	5437.476667	350.346680	53.098179
-15373.153191	5437.476667	349.060547	-36.352795
-15373.153191	5437.476667	347.774414	-19.412008
-15373.153191	5437.476667	346.487305	5.725129
-15373.153191	5437.476667	345.200195	-101.681854
-15373.153191	5437.476667	343.913086	54.965752
-15373.153191	5437.476667	342.625977	79.047882
-15373.153191	5437.476667	341.338867	40.960819
-15373.153191	5437.476667	340.050781	100.507294
-15373.153191	5437.476667	338.762695	44.622818
-15373.153191	5437.476667	337.473633	62.887775
-15373.153191	5437.476667	336.184570	76.475716
-15373.153191	5437.476667	334.895508	96.020065
-15373.153191	5437.476667	333.606445	-18.952225
-15373.153191	5437.476667	332.317383	55.038132
-15373.153191	5437.476667	331.027344	-9.745549
-15373.153191	5437.476667	329.736328	7.952189
-15373.153191	5437.476667	328.446289	50.678158
-15373.153191	5437.476667	327.155273	54.602684
-15373.153191	5437.476667	325.864258	58.004745
-15373.153191	5437.476667	324.573242	26.871256
-15373.153191	5437.476667	323.281250	54.669769
-15373.153191	5437.476667	321.989258	-56.168015
-15373.153191	5437.476667	320.697266	57.547649
-15373.153191	5437.476667	319.405273	-113.870773
-15373.153191	5437.476667	318.112305	-88.449890
-15373.153191	5437.476667	316.819336	-36.087788
-15373.153191	5437.476667	315.526367	-5.617654
-15373.153191	5437.476667	314.232422	-103.118233
-15373.153191	5437.476667	312.938477	46.855648
-15373.153191	5437.476667	311.644531	87.923271
-15373.153191	5437.476667	310.349609	5.279722
-15373.153191	5437.476667	309.054688	-20.854605
-15373.153191	5437.476667	307.759766	9.463063
-15373.153191	5437.476667	306.464844	-3.389114
-15373.153191	5437.476667	305.168945	1.995286
-15373.153191	5437.476667	303.873047	12.897751
-15373.153191	5437.476667	302.577148	-8.813162
-15373.153191	5437.476667	301.281250	27.872765
-15373.153191	5437.476667	299.984375	33.995037
