#X		#Y		#Wave		#Intensity
-15667.186170	5055.536667	1999.946289	-29.030056
-15667.186170	5055.536667	1998.981445	-18.816935
-15667.186170	5055.536667	1998.017578	-17.391870
-15667.186170	5055.536667	1997.052734	-3.638817
-15667.186170	5055.536667	1996.088867	54.640213
-15667.186170	5055.536667	1995.124023	83.110321
-15667.186170	5055.536667	1994.159180	52.065948
-15667.186170	5055.536667	1993.193359	25.926208
-15667.186170	5055.536667	1992.228516	78.957954
-15667.186170	5055.536667	1991.262695	-43.838276
-15667.186170	5055.536667	1990.296875	6.593447
-15667.186170	5055.536667	1989.331055	-7.388265
-15667.186170	5055.536667	1988.365234	-65.955070
-15667.186170	5055.536667	1987.398438	26.328362
-15667.186170	5055.536667	1986.432617	111.099258
-15667.186170	5055.536667	1985.465820	210.619141
-15667.186170	5055.536667	1984.499023	-53.358925
-15667.186170	5055.536667	1983.532227	41.099842
-15667.186170	5055.536667	1982.565430	41.562050
-15667.186170	5055.536667	1981.597656	-101.332710
-15667.186170	5055.536667	1980.629883	-2.138288
-15667.186170	5055.536667	1979.662109	188.351578
-15667.186170	5055.536667	1978.694336	109.554573
-15667.186170	5055.536667	1977.726563	62.831242
-15667.186170	5055.536667	1976.758789	-40.700554
-15667.186170	5055.536667	1975.790039	-117.094421
-15667.186170	5055.536667	1974.821289	-10.910728
-15667.186170	5055.536667	1973.852539	-50.373898
-15667.186170	5055.536667	1972.883789	77.860497
-15667.186170	5055.536667	1971.915039	16.103661
-15667.186170	5055.536667	1970.945313	112.129852
-15667.186170	5055.536667	1969.975586	20.713911
-15667.186170	5055.536667	1969.005859	82.104042
-15667.186170	5055.536667	1968.036133	84.281868
-15667.186170	5055.536667	1967.066406	0.177723
-15667.186170	5055.536667	1966.096680	187.038834
-15667.186170	5055.536667	1965.125977	38.822777
-15667.186170	5055.536667	1964.155273	-74.905342
-15667.186170	5055.536667	1963.184570	-16.288921
-15667.186170	5055.536667	1962.213867	-58.662285
-15667.186170	5055.536667	1961.242188	-7.535837
-15667.186170	5055.536667	1960.271484	218.239044
-15667.186170	5055.536667	1959.299805	111.759537
-15667.186170	5055.536667	1958.328125	130.728683
-15667.186170	5055.536667	1957.356445	-81.523293
-15667.186170	5055.536667	1956.384766	178.366501
-15667.186170	5055.536667	1955.412109	-6.847938
-15667.186170	5055.536667	1954.439453	21.810513
-15667.186170	5055.536667	1953.467773	-101.942612
-15667.186170	5055.536667	1952.495117	177.268127
-15667.186170	5055.536667	1951.521484	-17.778990
-15667.186170	5055.536667	1950.548828	273.522919
-15667.186170	5055.536667	1949.575195	34.259953
-15667.186170	5055.536667	1948.601563	50.393333
-15667.186170	5055.536667	1947.627930	304.598419
-15667.186170	5055.536667	1946.654297	148.809860
-15667.186170	5055.536667	1945.680664	110.831421
-15667.186170	5055.536667	1944.706055	-17.939270
-15667.186170	5055.536667	1943.732422	145.204163
-15667.186170	5055.536667	1942.757813	-157.711212
-15667.186170	5055.536667	1941.783203	-97.646378
-15667.186170	5055.536667	1940.807617	97.201408
-15667.186170	5055.536667	1939.833008	-61.009094
-15667.186170	5055.536667	1938.857422	33.225960
-15667.186170	5055.536667	1937.881836	83.294815
-15667.186170	5055.536667	1936.906250	157.815170
-15667.186170	5055.536667	1935.930664	254.324142
-15667.186170	5055.536667	1934.955078	66.708450
-15667.186170	5055.536667	1933.978516	-89.035027
-15667.186170	5055.536667	1933.001953	34.315048
-15667.186170	5055.536667	1932.025391	22.984262
-15667.186170	5055.536667	1931.048828	45.891056
-15667.186170	5055.536667	1930.072266	-4.630606
-15667.186170	5055.536667	1929.094727	59.808075
-15667.186170	5055.536667	1928.118164	-51.885052
-15667.186170	5055.536667	1927.140625	-38.856232
-15667.186170	5055.536667	1926.163086	-18.520206
-15667.186170	5055.536667	1925.184570	192.436996
-15667.186170	5055.536667	1924.207031	-4.819273
-15667.186170	5055.536667	1923.228516	-92.073174
-15667.186170	5055.536667	1922.250000	-30.299427
-15667.186170	5055.536667	1921.271484	-107.787666
-15667.186170	5055.536667	1920.292969	-16.770376
-15667.186170	5055.536667	1919.314453	0.947662
-15667.186170	5055.536667	1918.334961	6.434161
-15667.186170	5055.536667	1917.355469	63.152443
-15667.186170	5055.536667	1916.375977	85.669304
-15667.186170	5055.536667	1915.396484	181.350357
-15667.186170	5055.536667	1914.416992	235.510925
-15667.186170	5055.536667	1913.436523	75.020363
-15667.186170	5055.536667	1912.457031	151.091248
-15667.186170	5055.536667	1911.476563	36.962364
-15667.186170	5055.536667	1910.496094	232.412079
-15667.186170	5055.536667	1909.515625	188.950485
-15667.186170	5055.536667	1908.534180	52.901424
-15667.186170	5055.536667	1907.552734	-97.728691
-15667.186170	5055.536667	1906.572266	19.599298
-15667.186170	5055.536667	1905.590820	-21.416550
-15667.186170	5055.536667	1904.608398	8.174236
-15667.186170	5055.536667	1903.626953	23.135235
-15667.186170	5055.536667	1902.644531	184.102875
-15667.186170	5055.536667	1901.663086	213.598114
-15667.186170	5055.536667	1900.680664	-0.218782
-15667.186170	5055.536667	1899.698242	-150.725601
-15667.186170	5055.536667	1898.714844	90.355888
-15667.186170	5055.536667	1897.732422	-111.198410
-15667.186170	5055.536667	1896.749023	39.812210
-15667.186170	5055.536667	1895.765625	74.086136
-15667.186170	5055.536667	1894.782227	113.195892
-15667.186170	5055.536667	1893.798828	38.084118
-15667.186170	5055.536667	1892.814453	-3.001802
-15667.186170	5055.536667	1891.831055	-0.364482
-15667.186170	5055.536667	1890.846680	-19.594397
-15667.186170	5055.536667	1889.862305	-46.111290
-15667.186170	5055.536667	1888.877930	46.315048
-15667.186170	5055.536667	1887.892578	-38.472858
-15667.186170	5055.536667	1886.908203	78.163361
-15667.186170	5055.536667	1885.922852	17.642874
-15667.186170	5055.536667	1884.937500	42.031803
-15667.186170	5055.536667	1883.952148	56.701935
-15667.186170	5055.536667	1882.965820	148.946884
-15667.186170	5055.536667	1881.980469	267.816223
-15667.186170	5055.536667	1880.994141	-73.887672
-15667.186170	5055.536667	1880.007813	-81.052299
-15667.186170	5055.536667	1879.021484	3.846936
-15667.186170	5055.536667	1878.035156	25.723297
-15667.186170	5055.536667	1877.047852	-12.966584
-15667.186170	5055.536667	1876.061523	79.113052
-15667.186170	5055.536667	1875.074219	25.886036
-15667.186170	5055.536667	1874.086914	166.320358
-15667.186170	5055.536667	1873.098633	113.081131
-15667.186170	5055.536667	1872.111328	207.457245
-15667.186170	5055.536667	1871.123047	35.673244
-15667.186170	5055.536667	1870.135742	156.621582
-15667.186170	5055.536667	1869.147461	74.375877
-15667.186170	5055.536667	1868.158203	-7.846472
-15667.186170	5055.536667	1867.169922	105.768875
-15667.186170	5055.536667	1866.180664	250.754974
-15667.186170	5055.536667	1865.192383	-41.710056
-15667.186170	5055.536667	1864.203125	-7.902765
-15667.186170	5055.536667	1863.213867	28.301119
-15667.186170	5055.536667	1862.223633	76.560707
-15667.186170	5055.536667	1861.234375	134.455521
-15667.186170	5055.536667	1860.244141	134.379852
-15667.186170	5055.536667	1859.253906	93.264122
-15667.186170	5055.536667	1858.263672	-160.217270
-15667.186170	5055.536667	1857.273438	-140.951462
-15667.186170	5055.536667	1856.282227	32.697182
-15667.186170	5055.536667	1855.291992	68.792580
-15667.186170	5055.536667	1854.300781	95.221619
-15667.186170	5055.536667	1853.309570	109.579765
-15667.186170	5055.536667	1852.317383	32.322437
-15667.186170	5055.536667	1851.326172	-13.577729
-15667.186170	5055.536667	1850.333984	-42.599140
-15667.186170	5055.536667	1849.342773	-107.752052
-15667.186170	5055.536667	1848.350586	-9.087649
-15667.186170	5055.536667	1847.357422	55.816460
-15667.186170	5055.536667	1846.365234	-23.782398
-15667.186170	5055.536667	1845.372070	127.758904
-15667.186170	5055.536667	1844.379883	134.818298
-15667.186170	5055.536667	1843.386719	19.135092
-15667.186170	5055.536667	1842.393555	2.140194
-15667.186170	5055.536667	1841.399414	11.608276
-15667.186170	5055.536667	1840.406250	66.767403
-15667.186170	5055.536667	1839.412109	-72.884407
-15667.186170	5055.536667	1838.417969	44.770317
-15667.186170	5055.536667	1837.423828	68.626587
-15667.186170	5055.536667	1836.429688	29.980801
-15667.186170	5055.536667	1835.434570	24.984037
-15667.186170	5055.536667	1834.440430	-109.747910
-15667.186170	5055.536667	1833.445313	-126.736122
-15667.186170	5055.536667	1832.450195	29.190569
-15667.186170	5055.536667	1831.454102	146.634399
-15667.186170	5055.536667	1830.458984	107.986565
-15667.186170	5055.536667	1829.462891	42.944691
-15667.186170	5055.536667	1828.466797	81.112091
-15667.186170	5055.536667	1827.470703	179.243134
-15667.186170	5055.536667	1826.474609	73.429085
-15667.186170	5055.536667	1825.478516	70.780785
-15667.186170	5055.536667	1824.481445	-32.586899
-15667.186170	5055.536667	1823.484375	77.457664
-15667.186170	5055.536667	1822.487305	14.867077
-15667.186170	5055.536667	1821.490234	40.969429
-15667.186170	5055.536667	1820.493164	69.452667
-15667.186170	5055.536667	1819.495117	157.811050
-15667.186170	5055.536667	1818.498047	61.698021
-15667.186170	5055.536667	1817.500000	30.273512
-15667.186170	5055.536667	1816.500977	164.064316
-15667.186170	5055.536667	1815.502930	15.321075
-15667.186170	5055.536667	1814.504883	62.890087
-15667.186170	5055.536667	1813.505859	225.298264
-15667.186170	5055.536667	1812.506836	-40.624989
-15667.186170	5055.536667	1811.507813	-57.677086
-15667.186170	5055.536667	1810.508789	18.545721
-15667.186170	5055.536667	1809.508789	-5.697738
-15667.186170	5055.536667	1808.508789	101.552330
-15667.186170	5055.536667	1807.508789	24.704546
-15667.186170	5055.536667	1806.508789	5.235905
-15667.186170	5055.536667	1805.508789	-59.630028
-15667.186170	5055.536667	1804.508789	-24.143316
-15667.186170	5055.536667	1803.507813	49.538319
-15667.186170	5055.536667	1802.506836	175.721863
-15667.186170	5055.536667	1801.505859	-10.919907
-15667.186170	5055.536667	1800.504883	31.665678
-15667.186170	5055.536667	1799.502930	-181.146408
-15667.186170	5055.536667	1798.501953	-200.599518
-15667.186170	5055.536667	1797.500000	104.409416
-15667.186170	5055.536667	1796.498047	-179.874634
-15667.186170	5055.536667	1795.496094	12.913016
-15667.186170	5055.536667	1794.493164	-20.899090
-15667.186170	5055.536667	1793.491211	35.885712
-15667.186170	5055.536667	1792.488281	47.354282
-15667.186170	5055.536667	1791.485352	-0.764957
-15667.186170	5055.536667	1790.482422	17.839436
-15667.186170	5055.536667	1789.478516	-25.508417
-15667.186170	5055.536667	1788.475586	4.987328
-15667.186170	5055.536667	1787.471680	85.468147
-15667.186170	5055.536667	1786.467773	-53.122166
-15667.186170	5055.536667	1785.463867	51.126938
-15667.186170	5055.536667	1784.459961	14.915579
-15667.186170	5055.536667	1783.455078	-40.327187
-15667.186170	5055.536667	1782.450195	-52.735676
-15667.186170	5055.536667	1781.445313	79.943443
-15667.186170	5055.536667	1780.440430	-151.283066
-15667.186170	5055.536667	1779.435547	50.299042
-15667.186170	5055.536667	1778.429688	-42.975910
-15667.186170	5055.536667	1777.424805	156.116272
-15667.186170	5055.536667	1776.418945	81.849754
-15667.186170	5055.536667	1775.413086	-151.578217
-15667.186170	5055.536667	1774.406250	-92.755730
-15667.186170	5055.536667	1773.400391	-12.588880
-15667.186170	5055.536667	1772.393555	53.290653
-15667.186170	5055.536667	1771.386719	19.426359
-15667.186170	5055.536667	1770.379883	92.377235
-15667.186170	5055.536667	1769.373047	113.082176
-15667.186170	5055.536667	1768.365234	72.078514
-15667.186170	5055.536667	1767.358398	-25.850296
-15667.186170	5055.536667	1766.350586	-12.279872
-15667.186170	5055.536667	1765.342773	226.551590
-15667.186170	5055.536667	1764.334961	83.571739
-15667.186170	5055.536667	1763.326172	68.638206
-15667.186170	5055.536667	1762.318359	-83.756500
-15667.186170	5055.536667	1761.309570	22.172760
-15667.186170	5055.536667	1760.300781	125.682961
-15667.186170	5055.536667	1759.291016	13.597507
-15667.186170	5055.536667	1758.282227	69.685844
-15667.186170	5055.536667	1757.272461	54.709606
-15667.186170	5055.536667	1756.262695	16.056173
-15667.186170	5055.536667	1755.252930	135.983276
-15667.186170	5055.536667	1754.243164	99.674446
-15667.186170	5055.536667	1753.233398	34.977749
-15667.186170	5055.536667	1752.222656	69.642807
-15667.186170	5055.536667	1751.211914	-37.617268
-15667.186170	5055.536667	1750.201172	49.047066
-15667.186170	5055.536667	1749.190430	-119.656258
-15667.186170	5055.536667	1748.179688	-120.487076
-15667.186170	5055.536667	1747.167969	183.524429
-15667.186170	5055.536667	1746.156250	128.269135
-15667.186170	5055.536667	1745.144531	-0.208107
-15667.186170	5055.536667	1744.132813	93.367561
-15667.186170	5055.536667	1743.121094	156.197739
-15667.186170	5055.536667	1742.108398	49.001675
-15667.186170	5055.536667	1741.095703	-166.748611
-15667.186170	5055.536667	1740.083008	-85.060509
-15667.186170	5055.536667	1739.070313	88.609390
-15667.186170	5055.536667	1738.057617	-86.954300
-15667.186170	5055.536667	1737.043945	13.504748
-15667.186170	5055.536667	1736.030273	17.224710
-15667.186170	5055.536667	1735.016602	-101.674347
-15667.186170	5055.536667	1734.002930	-145.104568
-15667.186170	5055.536667	1732.989258	28.305073
-15667.186170	5055.536667	1731.974609	8.405118
-15667.186170	5055.536667	1730.959961	33.265339
-15667.186170	5055.536667	1729.945313	3.925737
-15667.186170	5055.536667	1728.930664	94.695351
-15667.186170	5055.536667	1727.916016	114.778740
-15667.186170	5055.536667	1726.900391	-34.662590
-15667.186170	5055.536667	1725.885742	70.148315
-15667.186170	5055.536667	1724.870117	12.527196
-15667.186170	5055.536667	1723.853516	126.671745
-15667.186170	5055.536667	1722.837891	0.816979
-15667.186170	5055.536667	1721.822266	-7.404399
-15667.186170	5055.536667	1720.805664	-41.503777
-15667.186170	5055.536667	1719.789063	-47.389759
-15667.186170	5055.536667	1718.772461	12.530894
-15667.186170	5055.536667	1717.754883	-164.951965
-15667.186170	5055.536667	1716.738281	-46.314583
-15667.186170	5055.536667	1715.720703	-99.232620
-15667.186170	5055.536667	1714.703125	195.480118
-15667.186170	5055.536667	1713.685547	-24.222782
-15667.186170	5055.536667	1712.667969	5.023921
-15667.186170	5055.536667	1711.649414	-38.526592
-15667.186170	5055.536667	1710.630859	119.769432
-15667.186170	5055.536667	1709.612305	19.870972
-15667.186170	5055.536667	1708.593750	-58.887005
-15667.186170	5055.536667	1707.575195	-17.999613
-15667.186170	5055.536667	1706.555664	41.619289
-15667.186170	5055.536667	1705.536133	5.067626
-15667.186170	5055.536667	1704.516602	-12.728323
-15667.186170	5055.536667	1703.497070	65.567879
-15667.186170	5055.536667	1702.477539	-217.063782
-15667.186170	5055.536667	1701.457031	22.877855
-15667.186170	5055.536667	1700.437500	61.261127
-15667.186170	5055.536667	1699.416992	-85.407784
-15667.186170	5055.536667	1698.395508	-124.321281
-15667.186170	5055.536667	1697.375000	49.814854
-15667.186170	5055.536667	1696.354492	64.703407
-15667.186170	5055.536667	1695.333008	-32.760967
-15667.186170	5055.536667	1694.311523	-97.443588
-15667.186170	5055.536667	1693.290039	6.320132
-15667.186170	5055.536667	1692.267578	-121.522942
-15667.186170	5055.536667	1691.246094	-15.481188
-15667.186170	5055.536667	1690.223633	177.010956
-15667.186170	5055.536667	1689.201172	11.769892
-15667.186170	5055.536667	1688.178711	84.965584
-15667.186170	5055.536667	1687.155273	34.274830
-15667.186170	5055.536667	1686.132813	41.999435
-15667.186170	5055.536667	1685.109375	59.048622
-15667.186170	5055.536667	1684.085938	-43.021404
-15667.186170	5055.536667	1683.062500	53.398781
-15667.186170	5055.536667	1682.039063	58.727215
-15667.186170	5055.536667	1681.014648	19.693876
-15667.186170	5055.536667	1679.990234	83.338417
-15667.186170	5055.536667	1678.965820	65.288841
-15667.186170	5055.536667	1677.941406	63.562294
-15667.186170	5055.536667	1676.916992	-15.136552
-15667.186170	5055.536667	1675.891602	1.780643
-15667.186170	5055.536667	1674.866211	58.311115
-15667.186170	5055.536667	1673.840820	-43.687637
-15667.186170	5055.536667	1672.815430	15.137007
-15667.186170	5055.536667	1671.790039	-63.537621
-15667.186170	5055.536667	1670.763672	244.495926
-15667.186170	5055.536667	1669.737305	-55.475998
-15667.186170	5055.536667	1668.710938	3.257154
-15667.186170	5055.536667	1667.684570	85.237953
-15667.186170	5055.536667	1666.658203	160.192566
-15667.186170	5055.536667	1665.630859	167.615036
-15667.186170	5055.536667	1664.603516	147.102310
-15667.186170	5055.536667	1663.576172	135.891815
-15667.186170	5055.536667	1662.548828	96.764412
-15667.186170	5055.536667	1661.520508	162.282959
-15667.186170	5055.536667	1660.493164	169.644302
-15667.186170	5055.536667	1659.464844	90.981407
-15667.186170	5055.536667	1658.436523	86.709145
-15667.186170	5055.536667	1657.408203	77.781258
-15667.186170	5055.536667	1656.378906	231.466629
-15667.186170	5055.536667	1655.350586	252.689758
-15667.186170	5055.536667	1654.321289	222.801270
-15667.186170	5055.536667	1653.291992	192.914871
-15667.186170	5055.536667	1652.261719	142.134842
-15667.186170	5055.536667	1651.232422	297.931183
-15667.186170	5055.536667	1650.202148	165.914734
-15667.186170	5055.536667	1649.171875	231.143051
-15667.186170	5055.536667	1648.141602	120.048416
-15667.186170	5055.536667	1647.111328	275.688568
-15667.186170	5055.536667	1646.080078	292.135590
-15667.186170	5055.536667	1645.049805	239.022629
-15667.186170	5055.536667	1644.018555	204.461411
-15667.186170	5055.536667	1642.987305	320.532074
-15667.186170	5055.536667	1641.955078	253.512161
-15667.186170	5055.536667	1640.923828	186.512970
-15667.186170	5055.536667	1639.891602	290.912292
-15667.186170	5055.536667	1638.859375	263.277100
-15667.186170	5055.536667	1637.827148	242.590424
-15667.186170	5055.536667	1636.794922	321.433990
-15667.186170	5055.536667	1635.761719	238.242599
-15667.186170	5055.536667	1634.729492	252.256516
-15667.186170	5055.536667	1633.696289	421.246521
-15667.186170	5055.536667	1632.662109	414.384216
-15667.186170	5055.536667	1631.628906	187.841949
-15667.186170	5055.536667	1630.594727	187.949646
-15667.186170	5055.536667	1629.561523	294.383606
-15667.186170	5055.536667	1628.527344	188.149521
-15667.186170	5055.536667	1627.493164	243.693283
-15667.186170	5055.536667	1626.458008	234.521973
-15667.186170	5055.536667	1625.423828	398.580017
-15667.186170	5055.536667	1624.388672	193.083511
-15667.186170	5055.536667	1623.353516	313.204468
-15667.186170	5055.536667	1622.318359	433.273621
-15667.186170	5055.536667	1621.282227	375.578339
-15667.186170	5055.536667	1620.247070	130.999115
-15667.186170	5055.536667	1619.210938	264.858459
-15667.186170	5055.536667	1618.174805	447.098907
-15667.186170	5055.536667	1617.137695	350.221191
-15667.186170	5055.536667	1616.101563	294.881714
-15667.186170	5055.536667	1615.064453	403.228180
-15667.186170	5055.536667	1614.027344	407.813995
-15667.186170	5055.536667	1612.990234	527.610596
-15667.186170	5055.536667	1611.953125	463.047302
-15667.186170	5055.536667	1610.916016	513.677612
-15667.186170	5055.536667	1609.877930	343.196533
-15667.186170	5055.536667	1608.839844	589.537415
-15667.186170	5055.536667	1607.801758	541.113037
-15667.186170	5055.536667	1606.763672	405.243439
-15667.186170	5055.536667	1605.724609	582.382996
-15667.186170	5055.536667	1604.685547	607.603638
-15667.186170	5055.536667	1603.646484	333.774719
-15667.186170	5055.536667	1602.607422	480.922424
-15667.186170	5055.536667	1601.568359	473.952179
-15667.186170	5055.536667	1600.528320	393.415009
-15667.186170	5055.536667	1599.489258	358.881470
-15667.186170	5055.536667	1598.449219	443.856171
-15667.186170	5055.536667	1597.408203	537.985352
-15667.186170	5055.536667	1596.368164	547.086121
-15667.186170	5055.536667	1595.327148	491.873047
-15667.186170	5055.536667	1594.287109	546.905457
-15667.186170	5055.536667	1593.246094	480.236389
-15667.186170	5055.536667	1592.204102	652.308411
-15667.186170	5055.536667	1591.163086	622.365417
-15667.186170	5055.536667	1590.121094	590.138123
-15667.186170	5055.536667	1589.079102	752.916809
-15667.186170	5055.536667	1588.037109	626.644043
-15667.186170	5055.536667	1586.995117	509.596039
-15667.186170	5055.536667	1585.953125	566.838440
-15667.186170	5055.536667	1584.910156	445.265503
-15667.186170	5055.536667	1583.867188	429.164154
-15667.186170	5055.536667	1582.824219	708.653259
-15667.186170	5055.536667	1581.781250	555.060669
-15667.186170	5055.536667	1580.737305	591.634766
-15667.186170	5055.536667	1579.693359	580.109192
-15667.186170	5055.536667	1578.649414	621.251221
-15667.186170	5055.536667	1577.605469	419.739838
-15667.186170	5055.536667	1576.561523	383.092865
-15667.186170	5055.536667	1575.516602	470.024017
-15667.186170	5055.536667	1574.472656	568.368408
-15667.186170	5055.536667	1573.427734	570.610718
-15667.186170	5055.536667	1572.381836	618.591675
-15667.186170	5055.536667	1571.336914	600.257568
-15667.186170	5055.536667	1570.291016	792.240662
-15667.186170	5055.536667	1569.246094	554.484924
-15667.186170	5055.536667	1568.200195	579.606995
-15667.186170	5055.536667	1567.153320	568.169739
-15667.186170	5055.536667	1566.107422	483.654449
-15667.186170	5055.536667	1565.060547	383.191193
-15667.186170	5055.536667	1564.013672	390.088135
-15667.186170	5055.536667	1562.966797	472.322601
-15667.186170	5055.536667	1561.919922	415.309875
-15667.186170	5055.536667	1560.872070	381.144684
-15667.186170	5055.536667	1559.825195	493.017303
-15667.186170	5055.536667	1558.777344	582.042664
-15667.186170	5055.536667	1557.729492	614.028992
-15667.186170	5055.536667	1556.680664	525.163208
-15667.186170	5055.536667	1555.632813	550.328491
-15667.186170	5055.536667	1554.583984	352.128540
-15667.186170	5055.536667	1553.535156	427.468750
-15667.186170	5055.536667	1552.486328	363.812683
-15667.186170	5055.536667	1551.436523	359.415314
-15667.186170	5055.536667	1550.387695	366.420380
-15667.186170	5055.536667	1549.337891	485.003052
-15667.186170	5055.536667	1548.288086	414.599823
-15667.186170	5055.536667	1547.238281	357.893097
-15667.186170	5055.536667	1546.187500	396.794617
-15667.186170	5055.536667	1545.136719	424.317993
-15667.186170	5055.536667	1544.086914	474.592957
-15667.186170	5055.536667	1543.035156	570.342163
-15667.186170	5055.536667	1541.984375	404.578827
-15667.186170	5055.536667	1540.933594	386.664978
-15667.186170	5055.536667	1539.881836	314.218933
-15667.186170	5055.536667	1538.830078	412.252808
-15667.186170	5055.536667	1537.778320	410.292694
-15667.186170	5055.536667	1536.725586	378.814941
-15667.186170	5055.536667	1535.673828	442.755371
-15667.186170	5055.536667	1534.621094	311.403839
-15667.186170	5055.536667	1533.568359	382.171692
-15667.186170	5055.536667	1532.515625	307.660767
-15667.186170	5055.536667	1531.461914	435.165375
-15667.186170	5055.536667	1530.409180	471.882355
-15667.186170	5055.536667	1529.355469	560.773621
-15667.186170	5055.536667	1528.301758	434.186462
-15667.186170	5055.536667	1527.247070	434.647705
-15667.186170	5055.536667	1526.193359	362.580597
-15667.186170	5055.536667	1525.138672	403.891052
-15667.186170	5055.536667	1524.083984	556.248108
-15667.186170	5055.536667	1523.029297	348.305756
-15667.186170	5055.536667	1521.974609	269.588257
-15667.186170	5055.536667	1520.918945	453.643433
-15667.186170	5055.536667	1519.863281	257.221344
-15667.186170	5055.536667	1518.807617	103.912567
-15667.186170	5055.536667	1517.751953	104.604050
-15667.186170	5055.536667	1516.696289	89.473297
-15667.186170	5055.536667	1515.639648	212.388107
-15667.186170	5055.536667	1514.583008	109.055908
-15667.186170	5055.536667	1513.526367	136.966217
-15667.186170	5055.536667	1512.469727	248.554337
-15667.186170	5055.536667	1511.412109	163.423981
-15667.186170	5055.536667	1510.355469	48.966103
-15667.186170	5055.536667	1509.297852	83.730217
-15667.186170	5055.536667	1508.240234	5.527140
-15667.186170	5055.536667	1507.181641	-129.100357
-15667.186170	5055.536667	1506.124023	29.968489
-15667.186170	5055.536667	1505.065430	8.342431
-15667.186170	5055.536667	1504.006836	-26.797682
-15667.186170	5055.536667	1502.948242	-122.847122
-15667.186170	5055.536667	1501.888672	-72.143394
-15667.186170	5055.536667	1500.830078	-25.946825
-15667.186170	5055.536667	1499.770508	24.765629
-15667.186170	5055.536667	1498.710938	-98.189079
-15667.186170	5055.536667	1497.650391	22.470791
-15667.186170	5055.536667	1496.590820	-39.511391
-15667.186170	5055.536667	1495.530273	-146.528397
-15667.186170	5055.536667	1494.469727	71.052521
-15667.186170	5055.536667	1493.409180	207.456207
-15667.186170	5055.536667	1492.348633	-23.372297
-15667.186170	5055.536667	1491.287109	7.186278
-15667.186170	5055.536667	1490.225586	-18.537642
-15667.186170	5055.536667	1489.164063	12.060644
-15667.186170	5055.536667	1488.102539	-36.110939
-15667.186170	5055.536667	1487.041016	-124.746513
-15667.186170	5055.536667	1485.978516	-15.312141
-15667.186170	5055.536667	1484.916016	-103.854485
-15667.186170	5055.536667	1483.853516	-68.644829
-15667.186170	5055.536667	1482.791016	94.764297
-15667.186170	5055.536667	1481.727539	53.538288
-15667.186170	5055.536667	1480.664063	3.375472
-15667.186170	5055.536667	1479.600586	-127.639961
-15667.186170	5055.536667	1478.537109	-177.685562
-15667.186170	5055.536667	1477.473633	-7.566314
-15667.186170	5055.536667	1476.409180	34.528328
-15667.186170	5055.536667	1475.344727	-24.377762
-15667.186170	5055.536667	1474.280273	13.242944
-15667.186170	5055.536667	1473.215820	-23.215332
-15667.186170	5055.536667	1472.151367	115.512238
-15667.186170	5055.536667	1471.085938	117.185066
-15667.186170	5055.536667	1470.020508	-22.229286
-15667.186170	5055.536667	1468.955078	167.789383
-15667.186170	5055.536667	1467.888672	66.535210
-15667.186170	5055.536667	1466.823242	77.488319
-15667.186170	5055.536667	1465.756836	34.722210
-15667.186170	5055.536667	1464.690430	166.598831
-15667.186170	5055.536667	1463.624023	31.748724
-15667.186170	5055.536667	1462.556641	237.552597
-15667.186170	5055.536667	1461.490234	62.771488
-15667.186170	5055.536667	1460.422852	76.110069
-15667.186170	5055.536667	1459.355469	98.025826
-15667.186170	5055.536667	1458.287109	105.000648
-15667.186170	5055.536667	1457.219727	60.024841
-15667.186170	5055.536667	1456.151367	145.031311
-15667.186170	5055.536667	1455.083008	234.702515
-15667.186170	5055.536667	1454.014648	146.724625
-15667.186170	5055.536667	1452.945313	69.050392
-15667.186170	5055.536667	1451.876953	-1.934708
-15667.186170	5055.536667	1450.807617	110.789452
-15667.186170	5055.536667	1449.738281	150.373413
-15667.186170	5055.536667	1448.668945	194.849060
-15667.186170	5055.536667	1447.598633	127.829422
-15667.186170	5055.536667	1446.528320	68.381454
-15667.186170	5055.536667	1445.458008	158.753815
-15667.186170	5055.536667	1444.387695	117.685875
-15667.186170	5055.536667	1443.317383	94.234879
-15667.186170	5055.536667	1442.246094	128.341660
-15667.186170	5055.536667	1441.174805	133.183334
-15667.186170	5055.536667	1440.103516	124.097923
-15667.186170	5055.536667	1439.032227	193.367737
-15667.186170	5055.536667	1437.960938	226.996780
-15667.186170	5055.536667	1436.888672	295.942627
-15667.186170	5055.536667	1435.816406	59.797314
-15667.186170	5055.536667	1434.744141	300.173676
-15667.186170	5055.536667	1433.670898	236.496216
-15667.186170	5055.536667	1432.598633	94.771240
-15667.186170	5055.536667	1431.525391	-146.599121
-15667.186170	5055.536667	1430.452148	-84.135376
-15667.186170	5055.536667	1429.378906	-10.496630
-15667.186170	5055.536667	1428.304688	-51.004829
-15667.186170	5055.536667	1427.231445	-15.741890
-15667.186170	5055.536667	1426.157227	-67.989952
-15667.186170	5055.536667	1425.083008	-32.660313
-15667.186170	5055.536667	1424.007813	42.197159
-15667.186170	5055.536667	1422.933594	3.298128
-15667.186170	5055.536667	1421.858398	-66.722298
-15667.186170	5055.536667	1420.783203	-147.680847
-15667.186170	5055.536667	1419.708008	52.488468
-15667.186170	5055.536667	1418.631836	-19.121502
-15667.186170	5055.536667	1417.555664	61.430717
-15667.186170	5055.536667	1416.479492	93.398102
-15667.186170	5055.536667	1415.403320	-62.083088
-15667.186170	5055.536667	1414.327148	263.625366
-15667.186170	5055.536667	1413.250000	24.201468
-15667.186170	5055.536667	1412.173828	88.406540
-15667.186170	5055.536667	1411.096680	51.738159
-15667.186170	5055.536667	1410.018555	139.993820
-15667.186170	5055.536667	1408.941406	143.960526
-15667.186170	5055.536667	1407.863281	201.406052
-15667.186170	5055.536667	1406.785156	51.396015
-15667.186170	5055.536667	1405.707031	42.131603
-15667.186170	5055.536667	1404.628906	254.476089
-15667.186170	5055.536667	1403.549805	239.093124
-15667.186170	5055.536667	1402.470703	115.975861
-15667.186170	5055.536667	1401.391602	146.734192
-15667.186170	5055.536667	1400.312500	112.974533
-15667.186170	5055.536667	1399.233398	95.433212
-15667.186170	5055.536667	1398.153320	12.536226
-15667.186170	5055.536667	1397.073242	131.742874
-15667.186170	5055.536667	1395.993164	-27.342859
-15667.186170	5055.536667	1394.913086	41.352741
-15667.186170	5055.536667	1393.832031	26.726974
-15667.186170	5055.536667	1392.750977	-65.319595
-15667.186170	5055.536667	1391.669922	70.327271
-15667.186170	5055.536667	1390.588867	87.821815
-15667.186170	5055.536667	1389.506836	19.706991
-15667.186170	5055.536667	1388.425781	-5.936169
-15667.186170	5055.536667	1387.343750	22.167240
-15667.186170	5055.536667	1386.261719	93.200272
-15667.186170	5055.536667	1385.178711	141.714279
-15667.186170	5055.536667	1384.096680	129.561020
-15667.186170	5055.536667	1383.013672	122.415085
-15667.186170	5055.536667	1381.930664	83.981323
-15667.186170	5055.536667	1380.846680	164.173050
-15667.186170	5055.536667	1379.763672	203.635681
-15667.186170	5055.536667	1378.679688	242.951263
-15667.186170	5055.536667	1377.595703	187.788422
-15667.186170	5055.536667	1376.511719	238.394592
-15667.186170	5055.536667	1375.427734	140.741425
-15667.186170	5055.536667	1374.342773	314.851746
-15667.186170	5055.536667	1373.257813	48.965805
-15667.186170	5055.536667	1372.172852	56.577641
-15667.186170	5055.536667	1371.087891	176.831696
-15667.186170	5055.536667	1370.001953	406.608856
-15667.186170	5055.536667	1368.916992	130.720825
-15667.186170	5055.536667	1367.831055	248.926590
-15667.186170	5055.536667	1366.744141	254.691940
-15667.186170	5055.536667	1365.658203	172.384521
-15667.186170	5055.536667	1364.571289	243.386566
-15667.186170	5055.536667	1363.484375	141.283173
-15667.186170	5055.536667	1362.397461	137.875488
-15667.186170	5055.536667	1361.310547	216.381653
-15667.186170	5055.536667	1360.222656	333.133514
-15667.186170	5055.536667	1359.135742	172.833282
-15667.186170	5055.536667	1358.047852	148.852783
-15667.186170	5055.536667	1356.958984	130.084549
-15667.186170	5055.536667	1355.871094	119.103630
-15667.186170	5055.536667	1354.782227	272.078430
-15667.186170	5055.536667	1353.693359	267.429199
-15667.186170	5055.536667	1352.604492	287.118164
-15667.186170	5055.536667	1351.515625	51.408417
-15667.186170	5055.536667	1350.425781	144.012390
-15667.186170	5055.536667	1349.335938	-67.183968
-15667.186170	5055.536667	1348.246094	104.903641
-15667.186170	5055.536667	1347.156250	329.044586
-15667.186170	5055.536667	1346.066406	36.773888
-15667.186170	5055.536667	1344.975586	210.720154
-15667.186170	5055.536667	1343.884766	341.399536
-15667.186170	5055.536667	1342.793945	190.722473
-15667.186170	5055.536667	1341.702148	188.317703
-15667.186170	5055.536667	1340.611328	203.791550
-15667.186170	5055.536667	1339.519531	74.835243
-15667.186170	5055.536667	1338.427734	134.540909
-15667.186170	5055.536667	1337.334961	181.735138
-15667.186170	5055.536667	1336.243164	119.326241
-15667.186170	5055.536667	1335.150391	91.355766
-15667.186170	5055.536667	1334.057617	113.951370
-15667.186170	5055.536667	1332.964844	147.246140
-15667.186170	5055.536667	1331.871094	71.553123
-15667.186170	5055.536667	1330.778320	36.377518
-15667.186170	5055.536667	1329.684570	-9.628015
-15667.186170	5055.536667	1328.590820	94.895935
-15667.186170	5055.536667	1327.496094	91.101387
-15667.186170	5055.536667	1326.402344	129.867310
-15667.186170	5055.536667	1325.307617	102.832909
-15667.186170	5055.536667	1324.212891	200.668030
-15667.186170	5055.536667	1323.117188	197.154175
-15667.186170	5055.536667	1322.022461	131.934723
-15667.186170	5055.536667	1320.926758	123.581749
-15667.186170	5055.536667	1319.831055	-75.494835
-15667.186170	5055.536667	1318.735352	136.013351
-15667.186170	5055.536667	1317.638672	225.822998
-15667.186170	5055.536667	1316.542969	28.483458
-15667.186170	5055.536667	1315.446289	139.122696
-15667.186170	5055.536667	1314.349609	42.196411
-15667.186170	5055.536667	1313.251953	61.012691
-15667.186170	5055.536667	1312.155273	47.857983
-15667.186170	5055.536667	1311.057617	-27.678129
-15667.186170	5055.536667	1309.959961	50.052811
-15667.186170	5055.536667	1308.862305	106.418724
-15667.186170	5055.536667	1307.763672	49.122337
-15667.186170	5055.536667	1306.665039	-131.248520
-15667.186170	5055.536667	1305.566406	-20.489014
-15667.186170	5055.536667	1304.467773	-67.126762
-15667.186170	5055.536667	1303.369141	8.233011
-15667.186170	5055.536667	1302.269531	-113.688301
-15667.186170	5055.536667	1301.169922	-26.504181
-15667.186170	5055.536667	1300.070313	31.868120
-15667.186170	5055.536667	1298.970703	-121.259651
-15667.186170	5055.536667	1297.870117	-167.665527
-15667.186170	5055.536667	1296.769531	-128.104691
-15667.186170	5055.536667	1295.668945	25.576399
-15667.186170	5055.536667	1294.568359	92.631371
-15667.186170	5055.536667	1293.466797	-55.058056
-15667.186170	5055.536667	1292.366211	2.924538
-15667.186170	5055.536667	1291.264648	-98.601456
-15667.186170	5055.536667	1290.162109	137.887192
-15667.186170	5055.536667	1289.060547	6.266712
-15667.186170	5055.536667	1287.958008	-36.364559
-15667.186170	5055.536667	1286.855469	0.047547
-15667.186170	5055.536667	1285.752930	-218.896667
-15667.186170	5055.536667	1284.650391	70.572525
-15667.186170	5055.536667	1283.546875	20.606552
-15667.186170	5055.536667	1282.444336	-60.201321
-15667.186170	5055.536667	1281.339844	-113.889359
-15667.186170	5055.536667	1280.236328	-37.838337
-15667.186170	5055.536667	1279.132813	-31.540869
-15667.186170	5055.536667	1278.028320	-91.134026
-15667.186170	5055.536667	1276.923828	-8.780127
-15667.186170	5055.536667	1275.819336	-4.118147
-15667.186170	5055.536667	1274.713867	-39.134228
-15667.186170	5055.536667	1273.608398	-51.299831
-15667.186170	5055.536667	1272.503906	-46.604073
-15667.186170	5055.536667	1271.397461	-13.319606
-15667.186170	5055.536667	1270.291992	-25.314039
-15667.186170	5055.536667	1269.185547	23.695154
-15667.186170	5055.536667	1268.080078	14.858391
-15667.186170	5055.536667	1266.972656	-26.220337
-15667.186170	5055.536667	1265.866211	-8.525529
-15667.186170	5055.536667	1264.759766	5.034887
-15667.186170	5055.536667	1263.652344	-64.251648
-15667.186170	5055.536667	1262.544922	121.119797
-15667.186170	5055.536667	1261.436523	-16.590172
-15667.186170	5055.536667	1260.329102	-50.747955
-15667.186170	5055.536667	1259.220703	35.366249
-15667.186170	5055.536667	1258.112305	-30.336447
-15667.186170	5055.536667	1257.003906	-68.227951
-15667.186170	5055.536667	1255.895508	-64.668922
-15667.186170	5055.536667	1254.786133	-65.757576
-15667.186170	5055.536667	1253.676758	-93.376793
-15667.186170	5055.536667	1252.567383	10.468227
-15667.186170	5055.536667	1251.458008	-39.269234
-15667.186170	5055.536667	1250.347656	-17.758127
-15667.186170	5055.536667	1249.237305	6.144483
-15667.186170	5055.536667	1248.126953	-27.617878
-15667.186170	5055.536667	1247.016602	4.633662
-15667.186170	5055.536667	1245.905273	39.663292
-15667.186170	5055.536667	1244.793945	26.930317
-15667.186170	5055.536667	1243.682617	-121.777023
-15667.186170	5055.536667	1242.571289	-26.610418
-15667.186170	5055.536667	1241.459961	-1.834355
-15667.186170	5055.536667	1240.347656	-2.403351
-15667.186170	5055.536667	1239.235352	-79.548584
-15667.186170	5055.536667	1238.123047	-85.345093
-15667.186170	5055.536667	1237.009766	79.633003
-15667.186170	5055.536667	1235.897461	47.668224
-15667.186170	5055.536667	1234.784180	21.528677
-15667.186170	5055.536667	1233.670898	79.848381
-15667.186170	5055.536667	1232.556641	-42.827137
-15667.186170	5055.536667	1231.443359	41.773846
-15667.186170	5055.536667	1230.329102	70.492737
-15667.186170	5055.536667	1229.214844	29.275532
-15667.186170	5055.536667	1228.099609	22.804996
-15667.186170	5055.536667	1226.985352	176.686295
-15667.186170	5055.536667	1225.870117	62.622711
-15667.186170	5055.536667	1224.754883	15.764793
-15667.186170	5055.536667	1223.639648	25.179602
-15667.186170	5055.536667	1222.523438	-0.050170
-15667.186170	5055.536667	1221.408203	12.853940
-15667.186170	5055.536667	1220.291992	-57.371548
-15667.186170	5055.536667	1219.174805	84.089455
-15667.186170	5055.536667	1218.058594	36.995865
-15667.186170	5055.536667	1216.941406	55.063709
-15667.186170	5055.536667	1215.824219	47.498211
-15667.186170	5055.536667	1214.707031	3.977755
-15667.186170	5055.536667	1213.589844	3.794988
-15667.186170	5055.536667	1212.471680	-113.403885
-15667.186170	5055.536667	1211.353516	-22.942472
-15667.186170	5055.536667	1210.235352	-19.407511
-15667.186170	5055.536667	1209.117188	-21.981937
-15667.186170	5055.536667	1207.998047	-28.237324
-15667.186170	5055.536667	1206.878906	-16.538769
-15667.186170	5055.536667	1205.759766	-20.351437
-15667.186170	5055.536667	1204.640625	-53.708843
-15667.186170	5055.536667	1203.520508	28.043518
-15667.186170	5055.536667	1202.401367	58.714825
-15667.186170	5055.536667	1201.281250	-14.464199
-15667.186170	5055.536667	1200.160156	-37.783909
-15667.186170	5055.536667	1199.040039	-76.735901
-15667.186170	5055.536667	1197.918945	102.478416
-15667.186170	5055.536667	1196.797852	92.705368
-15667.186170	5055.536667	1195.676758	79.535484
-15667.186170	5055.536667	1194.555664	101.487000
-15667.186170	5055.536667	1193.433594	38.365299
-15667.186170	5055.536667	1192.311523	145.698868
-15667.186170	5055.536667	1191.189453	-2.178632
-15667.186170	5055.536667	1190.066406	90.625107
-15667.186170	5055.536667	1188.944336	152.076553
-15667.186170	5055.536667	1187.821289	112.167610
-15667.186170	5055.536667	1186.698242	142.862823
-15667.186170	5055.536667	1185.574219	98.490974
-15667.186170	5055.536667	1184.451172	126.733932
-15667.186170	5055.536667	1183.327148	48.242729
-15667.186170	5055.536667	1182.203125	36.748543
-15667.186170	5055.536667	1181.078125	62.867748
-15667.186170	5055.536667	1179.954102	107.920433
-15667.186170	5055.536667	1178.829102	70.994614
-15667.186170	5055.536667	1177.704102	131.597855
-15667.186170	5055.536667	1176.579102	24.441301
-15667.186170	5055.536667	1175.453125	135.089066
-15667.186170	5055.536667	1174.327148	26.384666
-15667.186170	5055.536667	1173.201172	149.369339
-15667.186170	5055.536667	1172.075195	164.202454
-15667.186170	5055.536667	1170.949219	119.087387
-15667.186170	5055.536667	1169.822266	64.593079
-15667.186170	5055.536667	1168.695313	83.006950
-15667.186170	5055.536667	1167.568359	156.577759
-15667.186170	5055.536667	1166.440430	183.329041
-15667.186170	5055.536667	1165.313477	107.773964
-15667.186170	5055.536667	1164.185547	144.490128
-15667.186170	5055.536667	1163.057617	23.122433
-15667.186170	5055.536667	1161.928711	57.420933
-15667.186170	5055.536667	1160.800781	-23.712444
-15667.186170	5055.536667	1159.671875	82.897980
-15667.186170	5055.536667	1158.541992	-22.926296
-15667.186170	5055.536667	1157.413086	-105.958084
-15667.186170	5055.536667	1156.283203	-82.018837
-15667.186170	5055.536667	1155.154297	-39.297810
-15667.186170	5055.536667	1154.023438	78.230423
-15667.186170	5055.536667	1152.893555	9.778229
-15667.186170	5055.536667	1151.763672	-142.448792
-15667.186170	5055.536667	1150.632813	-69.904770
-15667.186170	5055.536667	1149.501953	-15.472485
-15667.186170	5055.536667	1148.370117	-77.546516
-15667.186170	5055.536667	1147.239258	-4.114769
-15667.186170	5055.536667	1146.107422	-48.468124
-15667.186170	5055.536667	1144.975586	-77.629936
-15667.186170	5055.536667	1143.843750	-75.604332
-15667.186170	5055.536667	1142.710938	-46.858677
-15667.186170	5055.536667	1141.578125	47.495335
-15667.186170	5055.536667	1140.445313	-39.951683
-15667.186170	5055.536667	1139.312500	-99.735580
-15667.186170	5055.536667	1138.178711	-81.012741
-15667.186170	5055.536667	1137.045898	-2.384097
-15667.186170	5055.536667	1135.912109	-45.443478
-15667.186170	5055.536667	1134.777344	39.746861
-15667.186170	5055.536667	1133.643555	6.883460
-15667.186170	5055.536667	1132.508789	-37.542149
-15667.186170	5055.536667	1131.374023	19.459085
-15667.186170	5055.536667	1130.239258	33.253681
-15667.186170	5055.536667	1129.104492	139.554352
-15667.186170	5055.536667	1127.968750	171.188980
-15667.186170	5055.536667	1126.833008	62.052437
-15667.186170	5055.536667	1125.697266	182.482452
-15667.186170	5055.536667	1124.560547	117.144760
-15667.186170	5055.536667	1123.424805	162.328476
-15667.186170	5055.536667	1122.288086	71.032692
-15667.186170	5055.536667	1121.151367	82.714897
-15667.186170	5055.536667	1120.013672	98.678459
-15667.186170	5055.536667	1118.876953	122.190178
-15667.186170	5055.536667	1117.739258	149.504395
-15667.186170	5055.536667	1116.601563	44.306721
-15667.186170	5055.536667	1115.462891	80.045959
-15667.186170	5055.536667	1114.324219	144.877457
-15667.186170	5055.536667	1113.186523	138.455200
-15667.186170	5055.536667	1112.046875	214.076019
-15667.186170	5055.536667	1110.908203	119.180107
-15667.186170	5055.536667	1109.769531	198.436005
-15667.186170	5055.536667	1108.629883	211.264603
-15667.186170	5055.536667	1107.490234	208.880478
-15667.186170	5055.536667	1106.349609	106.948151
-15667.186170	5055.536667	1105.209961	205.119156
-15667.186170	5055.536667	1104.069336	217.079086
-15667.186170	5055.536667	1102.928711	206.968384
-15667.186170	5055.536667	1101.787109	420.357788
-15667.186170	5055.536667	1100.646484	450.864258
-15667.186170	5055.536667	1099.504883	319.646973
-15667.186170	5055.536667	1098.363281	405.048553
-15667.186170	5055.536667	1097.221680	517.289612
-15667.186170	5055.536667	1096.079102	617.382202
-15667.186170	5055.536667	1094.936523	588.587036
-15667.186170	5055.536667	1093.793945	563.349365
-15667.186170	5055.536667	1092.651367	450.873138
-15667.186170	5055.536667	1091.507813	616.173340
-15667.186170	5055.536667	1090.364258	400.797302
-15667.186170	5055.536667	1089.220703	403.503815
-15667.186170	5055.536667	1088.077148	315.749847
-15667.186170	5055.536667	1086.933594	355.937622
-15667.186170	5055.536667	1085.789063	320.667999
-15667.186170	5055.536667	1084.644531	211.598267
-15667.186170	5055.536667	1083.499023	267.763306
-15667.186170	5055.536667	1082.354492	363.414093
-15667.186170	5055.536667	1081.208984	216.341522
-15667.186170	5055.536667	1080.063477	208.612701
-15667.186170	5055.536667	1078.917969	306.530823
-15667.186170	5055.536667	1077.771484	198.964142
-15667.186170	5055.536667	1076.625977	129.332291
-15667.186170	5055.536667	1075.479492	267.980194
-15667.186170	5055.536667	1074.332031	283.028381
-15667.186170	5055.536667	1073.185547	217.319458
-15667.186170	5055.536667	1072.038086	342.061005
-15667.186170	5055.536667	1070.890625	398.864838
-15667.186170	5055.536667	1069.743164	323.545807
-15667.186170	5055.536667	1068.594727	287.442780
-15667.186170	5055.536667	1067.447266	337.684265
-15667.186170	5055.536667	1066.298828	267.145081
-15667.186170	5055.536667	1065.149414	380.770538
-15667.186170	5055.536667	1064.000977	266.668732
-15667.186170	5055.536667	1062.851563	257.186157
-15667.186170	5055.536667	1061.702148	240.638779
-15667.186170	5055.536667	1060.552734	348.974426
-15667.186170	5055.536667	1059.402344	400.611359
-15667.186170	5055.536667	1058.252930	382.294647
-15667.186170	5055.536667	1057.102539	222.731857
-15667.186170	5055.536667	1055.951172	317.912720
-15667.186170	5055.536667	1054.800781	516.821655
-15667.186170	5055.536667	1053.649414	148.038773
-15667.186170	5055.536667	1052.498047	288.059418
-15667.186170	5055.536667	1051.346680	247.106369
-15667.186170	5055.536667	1050.194336	255.616272
-15667.186170	5055.536667	1049.042969	363.865295
-15667.186170	5055.536667	1047.890625	224.109070
-15667.186170	5055.536667	1046.738281	419.517975
-15667.186170	5055.536667	1045.584961	515.016418
-15667.186170	5055.536667	1044.431641	307.489166
-15667.186170	5055.536667	1043.278320	362.463593
-15667.186170	5055.536667	1042.125000	383.728851
-15667.186170	5055.536667	1040.971680	443.035492
-15667.186170	5055.536667	1039.817383	401.368927
-15667.186170	5055.536667	1038.663086	380.387421
-15667.186170	5055.536667	1037.508789	279.551514
-15667.186170	5055.536667	1036.353516	231.096039
-15667.186170	5055.536667	1035.198242	295.298981
-15667.186170	5055.536667	1034.042969	402.991058
-15667.186170	5055.536667	1032.887695	245.494064
-15667.186170	5055.536667	1031.732422	281.960968
-15667.186170	5055.536667	1030.576172	314.968353
-15667.186170	5055.536667	1029.419922	340.809387
-15667.186170	5055.536667	1028.263672	285.116577
-15667.186170	5055.536667	1027.106445	387.812103
-15667.186170	5055.536667	1025.949219	253.728333
-15667.186170	5055.536667	1024.792969	284.557556
-15667.186170	5055.536667	1023.634766	131.396210
-15667.186170	5055.536667	1022.477539	353.085602
-15667.186170	5055.536667	1021.319336	91.551979
-15667.186170	5055.536667	1020.161133	170.122940
-15667.186170	5055.536667	1019.002930	110.935806
-15667.186170	5055.536667	1017.843750	104.074791
-15667.186170	5055.536667	1016.684570	57.106804
-15667.186170	5055.536667	1015.525391	87.609123
-15667.186170	5055.536667	1014.366211	96.513039
-15667.186170	5055.536667	1013.207031	38.035980
-15667.186170	5055.536667	1012.046875	36.967655
-15667.186170	5055.536667	1010.886719	141.923889
-15667.186170	5055.536667	1009.726563	131.375534
-15667.186170	5055.536667	1008.565430	165.375916
-15667.186170	5055.536667	1007.404297	-10.466380
-15667.186170	5055.536667	1006.243164	40.606106
-15667.186170	5055.536667	1005.082031	68.143341
-15667.186170	5055.536667	1003.920898	-74.507828
-15667.186170	5055.536667	1002.758789	8.825492
-15667.186170	5055.536667	1001.596680	98.547852
-15667.186170	5055.536667	1000.433594	17.281332
-15667.186170	5055.536667	999.271484	60.303745
-15667.186170	5055.536667	998.108398	193.157425
-15667.186170	5055.536667	996.945313	138.187897
-15667.186170	5055.536667	995.782227	180.655121
-15667.186170	5055.536667	994.618164	90.299774
-15667.186170	5055.536667	993.454102	1.731103
-15667.186170	5055.536667	992.290039	111.538658
-15667.186170	5055.536667	991.125977	-10.974647
-15667.186170	5055.536667	989.960938	55.627613
-15667.186170	5055.536667	988.796875	86.887199
-15667.186170	5055.536667	987.630859	166.150574
-15667.186170	5055.536667	986.465820	167.233276
-15667.186170	5055.536667	985.300781	-13.339411
-15667.186170	5055.536667	984.134766	230.311752
-15667.186170	5055.536667	982.968750	92.573509
-15667.186170	5055.536667	981.801758	-48.744251
-15667.186170	5055.536667	980.635742	39.644566
-15667.186170	5055.536667	979.468750	175.594376
-15667.186170	5055.536667	978.301758	25.489050
-15667.186170	5055.536667	977.133789	2.081788
-15667.186170	5055.536667	975.966797	-15.379288
-15667.186170	5055.536667	974.798828	34.218437
-15667.186170	5055.536667	973.630859	-11.189343
-15667.186170	5055.536667	972.461914	34.756966
-15667.186170	5055.536667	971.293945	159.558517
-15667.186170	5055.536667	970.125000	154.107132
-15667.186170	5055.536667	968.956055	13.035835
-15667.186170	5055.536667	967.786133	43.271545
-15667.186170	5055.536667	966.617188	260.591400
-15667.186170	5055.536667	965.447266	98.086838
-15667.186170	5055.536667	964.276367	-9.238050
-15667.186170	5055.536667	963.106445	-51.222279
-15667.186170	5055.536667	961.935547	-6.910699
-15667.186170	5055.536667	960.764648	71.375198
-15667.186170	5055.536667	959.593750	-26.193960
-15667.186170	5055.536667	958.422852	-23.848911
-15667.186170	5055.536667	957.250977	-71.214073
-15667.186170	5055.536667	956.079102	96.176697
-15667.186170	5055.536667	954.907227	58.779194
-15667.186170	5055.536667	953.734375	-70.824005
-15667.186170	5055.536667	952.562500	128.043411
-15667.186170	5055.536667	951.389648	183.773422
-15667.186170	5055.536667	950.215820	-49.711391
-15667.186170	5055.536667	949.042969	-98.691727
-15667.186170	5055.536667	947.869141	-17.440176
-15667.186170	5055.536667	946.695313	96.718460
-15667.186170	5055.536667	945.521484	44.065159
-15667.186170	5055.536667	944.346680	30.353352
-15667.186170	5055.536667	943.172852	8.514350
-15667.186170	5055.536667	941.998047	58.744221
-15667.186170	5055.536667	940.822266	40.904007
-15667.186170	5055.536667	939.647461	95.222908
-15667.186170	5055.536667	938.471680	-79.179207
-15667.186170	5055.536667	937.295898	59.702496
-15667.186170	5055.536667	936.119141	-3.454766
-15667.186170	5055.536667	934.943359	-128.277206
-15667.186170	5055.536667	933.766602	-32.793468
-15667.186170	5055.536667	932.589844	108.076042
-15667.186170	5055.536667	931.413086	98.603020
-15667.186170	5055.536667	930.235352	-14.030972
-15667.186170	5055.536667	929.057617	67.041763
-15667.186170	5055.536667	927.879883	65.733543
-15667.186170	5055.536667	926.702148	157.033844
-15667.186170	5055.536667	925.523438	213.327805
-15667.186170	5055.536667	924.344727	168.745850
-15667.186170	5055.536667	923.166016	48.017673
-15667.186170	5055.536667	921.987305	71.356369
-15667.186170	5055.536667	920.807617	0.068470
-15667.186170	5055.536667	919.627930	2.028030
-15667.186170	5055.536667	919.497070	52.424492
-15667.186170	5055.536667	918.331055	86.009979
-15667.186170	5055.536667	917.165039	-61.338181
-15667.186170	5055.536667	915.999023	23.635572
-15667.186170	5055.536667	914.833008	-0.344928
-15667.186170	5055.536667	913.666016	-73.627983
-15667.186170	5055.536667	912.499023	-25.686193
-15667.186170	5055.536667	911.332031	141.352203
-15667.186170	5055.536667	910.165039	22.902929
-15667.186170	5055.536667	908.997070	-74.969246
-15667.186170	5055.536667	907.830078	-53.758537
-15667.186170	5055.536667	906.661133	-18.190941
-15667.186170	5055.536667	905.493164	-91.380913
-15667.186170	5055.536667	904.325195	-29.158228
-15667.186170	5055.536667	903.156250	16.632206
-15667.186170	5055.536667	901.987305	58.301964
-15667.186170	5055.536667	900.818359	17.952778
-15667.186170	5055.536667	899.648438	-26.478531
-15667.186170	5055.536667	898.478516	-122.121796
-15667.186170	5055.536667	897.308594	-90.702927
-15667.186170	5055.536667	896.138672	6.249437
-15667.186170	5055.536667	894.968750	-32.001354
-15667.186170	5055.536667	893.797852	-57.949654
-15667.186170	5055.536667	892.626953	12.325969
-15667.186170	5055.536667	891.456055	37.546371
-15667.186170	5055.536667	890.284180	-29.323324
-15667.186170	5055.536667	889.113281	-12.287111
-15667.186170	5055.536667	887.941406	-46.391479
-15667.186170	5055.536667	886.768555	-10.948780
-15667.186170	5055.536667	885.596680	-71.616821
-15667.186170	5055.536667	884.423828	-38.225784
-15667.186170	5055.536667	883.250977	44.202862
-15667.186170	5055.536667	882.078125	-18.477230
-15667.186170	5055.536667	880.905273	-142.417786
-15667.186170	5055.536667	879.731445	3.305780
-15667.186170	5055.536667	878.557617	48.909279
-15667.186170	5055.536667	877.383789	-109.670151
-15667.186170	5055.536667	876.209961	-13.027103
-15667.186170	5055.536667	875.035156	-108.257042
-15667.186170	5055.536667	873.860352	-78.981079
-15667.186170	5055.536667	872.685547	-82.354851
-15667.186170	5055.536667	871.510742	38.689621
-15667.186170	5055.536667	870.334961	-217.554947
-15667.186170	5055.536667	869.159180	-57.789257
-15667.186170	5055.536667	867.983398	-0.002480
-15667.186170	5055.536667	866.807617	-58.396664
-15667.186170	5055.536667	865.630859	-78.050179
-15667.186170	5055.536667	864.454102	-150.655960
-15667.186170	5055.536667	863.277344	88.378860
-15667.186170	5055.536667	862.100586	-92.145828
-15667.186170	5055.536667	860.922852	-109.725403
-15667.186170	5055.536667	859.745117	-47.914139
-15667.186170	5055.536667	858.567383	-32.929249
-15667.186170	5055.536667	857.389648	10.537442
-15667.186170	5055.536667	856.210938	-98.569992
-15667.186170	5055.536667	855.032227	16.081852
-15667.186170	5055.536667	853.853516	-5.542136
-15667.186170	5055.536667	852.674805	-122.698730
-15667.186170	5055.536667	851.495117	26.452616
-15667.186170	5055.536667	850.315430	47.526531
-15667.186170	5055.536667	849.135742	-100.030174
-15667.186170	5055.536667	847.956055	32.786942
-15667.186170	5055.536667	846.775391	-21.279230
-15667.186170	5055.536667	845.595703	-40.804237
-15667.186170	5055.536667	844.415039	45.243587
-15667.186170	5055.536667	843.233398	-31.103016
-15667.186170	5055.536667	842.052734	-74.949409
-15667.186170	5055.536667	840.871094	-96.455818
-15667.186170	5055.536667	839.689453	-20.590706
-15667.186170	5055.536667	838.506836	-113.065269
-15667.186170	5055.536667	837.325195	17.521915
-15667.186170	5055.536667	836.142578	-58.697865
-15667.186170	5055.536667	834.959961	49.542259
-15667.186170	5055.536667	833.777344	-91.483315
-15667.186170	5055.536667	832.593750	18.754433
-15667.186170	5055.536667	831.410156	-14.851188
-15667.186170	5055.536667	830.226563	-117.287994
-15667.186170	5055.536667	829.042969	19.218882
-15667.186170	5055.536667	827.858398	78.758026
-15667.186170	5055.536667	826.673828	16.853582
-15667.186170	5055.536667	825.489258	25.794073
-15667.186170	5055.536667	824.304688	-44.156876
-15667.186170	5055.536667	823.120117	-99.918259
-15667.186170	5055.536667	821.934570	48.575542
-15667.186170	5055.536667	820.749023	4.957038
-15667.186170	5055.536667	819.562500	48.274269
-15667.186170	5055.536667	818.376953	109.762482
-15667.186170	5055.536667	817.190430	15.661879
-15667.186170	5055.536667	816.003906	60.980900
-15667.186170	5055.536667	814.817383	13.385479
-15667.186170	5055.536667	813.629883	74.847969
-15667.186170	5055.536667	812.442383	43.427086
-15667.186170	5055.536667	811.254883	141.193527
-15667.186170	5055.536667	810.067383	-120.259048
-15667.186170	5055.536667	808.878906	13.822455
-15667.186170	5055.536667	807.690430	-21.579931
-15667.186170	5055.536667	806.501953	-99.313980
-15667.186170	5055.536667	805.313477	-9.667900
-15667.186170	5055.536667	804.124023	-2.702075
-15667.186170	5055.536667	802.934570	52.631908
-15667.186170	5055.536667	801.745117	-2.877519
-15667.186170	5055.536667	800.555664	60.496559
-15667.186170	5055.536667	799.365234	-1.027933
-15667.186170	5055.536667	798.175781	1.911543
-15667.186170	5055.536667	796.985352	-23.332521
-15667.186170	5055.536667	795.793945	164.801239
-15667.186170	5055.536667	794.603516	10.739799
-15667.186170	5055.536667	793.412109	-44.665337
-15667.186170	5055.536667	792.220703	99.103912
-15667.186170	5055.536667	791.028320	-12.606618
-15667.186170	5055.536667	789.836914	-41.829948
-15667.186170	5055.536667	788.644531	77.728287
-15667.186170	5055.536667	787.452148	36.441132
-15667.186170	5055.536667	786.258789	117.754982
-15667.186170	5055.536667	785.066406	142.777420
-15667.186170	5055.536667	783.873047	-167.662521
-15667.186170	5055.536667	782.679688	70.288162
-15667.186170	5055.536667	781.485352	41.094376
-15667.186170	5055.536667	780.291992	92.207962
-15667.186170	5055.536667	779.097656	125.237686
-15667.186170	5055.536667	777.903320	92.033615
-15667.186170	5055.536667	776.708008	121.035744
-15667.186170	5055.536667	775.512695	53.746475
-15667.186170	5055.536667	774.318359	78.727783
-15667.186170	5055.536667	773.122070	-72.735535
-15667.186170	5055.536667	771.926758	-27.696339
-15667.186170	5055.536667	770.730469	23.335915
-15667.186170	5055.536667	769.534180	116.421234
-15667.186170	5055.536667	768.337891	15.145782
-15667.186170	5055.536667	767.141602	-44.030739
-15667.186170	5055.536667	765.944336	101.065010
-15667.186170	5055.536667	764.747070	15.862167
-15667.186170	5055.536667	763.549805	122.845322
-15667.186170	5055.536667	762.351563	53.675587
-15667.186170	5055.536667	761.154297	90.568962
-15667.186170	5055.536667	759.956055	49.429466
-15667.186170	5055.536667	758.757813	58.300018
-15667.186170	5055.536667	757.558594	29.171282
-15667.186170	5055.536667	756.359375	-81.915298
-15667.186170	5055.536667	755.160156	14.903263
-15667.186170	5055.536667	753.960938	31.742870
-15667.186170	5055.536667	752.761719	40.576359
-15667.186170	5055.536667	751.561523	159.261047
-15667.186170	5055.536667	750.361328	168.050781
-15667.186170	5055.536667	749.160156	65.019684
-15667.186170	5055.536667	747.959961	129.703156
-15667.186170	5055.536667	746.758789	122.503593
-15667.186170	5055.536667	745.557617	163.186584
-15667.186170	5055.536667	744.356445	80.156120
-15667.186170	5055.536667	743.154297	39.037483
-15667.186170	5055.536667	741.952148	19.860939
-15667.186170	5055.536667	740.750000	34.575367
-15667.186170	5055.536667	739.547852	146.943619
-15667.186170	5055.536667	738.344727	99.825790
-15667.186170	5055.536667	737.142578	62.676399
-15667.186170	5055.536667	735.939453	-24.268852
-15667.186170	5055.536667	734.735352	113.865135
-15667.186170	5055.536667	733.532227	78.692101
-15667.186170	5055.536667	732.328125	-18.192465
-15667.186170	5055.536667	731.124023	155.641663
-15667.186170	5055.536667	729.918945	80.645340
-15667.186170	5055.536667	728.714844	53.413811
-15667.186170	5055.536667	727.509766	24.191896
-15667.186170	5055.536667	726.303711	90.426949
-15667.186170	5055.536667	725.098633	47.260666
-15667.186170	5055.536667	723.892578	115.420212
-15667.186170	5055.536667	722.686523	-21.174372
-15667.186170	5055.536667	721.480469	-46.452663
-15667.186170	5055.536667	720.274414	-59.817867
-15667.186170	5055.536667	719.067383	12.213935
-15667.186170	5055.536667	717.860352	70.297691
-15667.186170	5055.536667	716.653320	-70.199783
-15667.186170	5055.536667	715.445313	37.466114
-15667.186170	5055.536667	714.238281	-158.569992
-15667.186170	5055.536667	713.030273	-45.016262
-15667.186170	5055.536667	711.821289	-46.584557
-15667.186170	5055.536667	710.613281	9.342752
-15667.186170	5055.536667	709.404297	77.124779
-15667.186170	5055.536667	708.195313	-7.793377
-15667.186170	5055.536667	706.986328	-9.450180
-15667.186170	5055.536667	705.776367	18.598064
-15667.186170	5055.536667	704.566406	24.818966
-15667.186170	5055.536667	703.356445	-83.872330
-15667.186170	5055.536667	702.146484	-133.129028
-15667.186170	5055.536667	700.935547	-22.008511
-15667.186170	5055.536667	699.724609	9.859274
-15667.186170	5055.536667	698.513672	-27.580261
-15667.186170	5055.536667	697.302734	93.269669
-15667.186170	5055.536667	696.090820	22.148508
-15667.186170	5055.536667	694.878906	-19.299221
-15667.186170	5055.536667	693.666992	-9.340502
-15667.186170	5055.536667	692.455078	44.083374
-15667.186170	5055.536667	691.242188	-25.093409
-15667.186170	5055.536667	690.029297	10.473467
-15667.186170	5055.536667	688.816406	32.166927
-15667.186170	5055.536667	687.602539	2.464065
-15667.186170	5055.536667	686.389648	-37.129993
-15667.186170	5055.536667	685.175781	59.510681
-15667.186170	5055.536667	683.960938	112.651764
-15667.186170	5055.536667	682.747070	27.577816
-15667.186170	5055.536667	681.532227	-4.208897
-15667.186170	5055.536667	680.317383	100.118553
-15667.186170	5055.536667	679.102539	125.472412
-15667.186170	5055.536667	677.886719	109.371582
-15667.186170	5055.536667	676.670898	75.501480
-15667.186170	5055.536667	675.455078	102.723083
-15667.186170	5055.536667	674.239258	116.105377
-15667.186170	5055.536667	673.022461	58.515827
-15667.186170	5055.536667	671.805664	22.587214
-15667.186170	5055.536667	670.588867	-11.388806
-15667.186170	5055.536667	669.372070	74.735870
-15667.186170	5055.536667	668.154297	38.728027
-15667.186170	5055.536667	666.936523	-137.051895
-15667.186170	5055.536667	665.718750	112.282005
-15667.186170	5055.536667	664.500977	52.575619
-15667.186170	5055.536667	663.282227	-38.613857
-15667.186170	5055.536667	662.063477	110.136162
-15667.186170	5055.536667	660.844727	199.799011
-15667.186170	5055.536667	659.625000	-76.261047
-15667.186170	5055.536667	658.405273	70.329346
-15667.186170	5055.536667	657.185547	83.199303
-15667.186170	5055.536667	655.965820	149.071686
-15667.186170	5055.536667	654.745117	118.632912
-15667.186170	5055.536667	653.525391	125.481438
-15667.186170	5055.536667	652.303711	98.912392
-15667.186170	5055.536667	651.083008	142.982147
-15667.186170	5055.536667	649.861328	82.980743
-15667.186170	5055.536667	648.640625	107.336929
-15667.186170	5055.536667	647.417969	47.290825
-15667.186170	5055.536667	646.196289	201.011505
-15667.186170	5055.536667	644.973633	113.439644
-15667.186170	5055.536667	643.750977	157.215622
-15667.186170	5055.536667	642.528320	330.296753
-15667.186170	5055.536667	641.305664	213.237991
-15667.186170	5055.536667	640.082031	109.903198
-15667.186170	5055.536667	638.858398	128.016922
-15667.186170	5055.536667	637.634766	373.255219
-15667.186170	5055.536667	636.410156	93.610313
-15667.186170	5055.536667	635.185547	46.992878
-15667.186170	5055.536667	633.960938	86.467201
-15667.186170	5055.536667	632.736328	106.316322
-15667.186170	5055.536667	631.510742	92.856567
-15667.186170	5055.536667	630.285156	112.611092
-15667.186170	5055.536667	629.059570	-14.347019
-15667.186170	5055.536667	627.833984	132.416687
-15667.186170	5055.536667	626.607422	-19.988111
-15667.186170	5055.536667	625.380859	30.870590
-15667.186170	5055.536667	624.154297	138.325211
-15667.186170	5055.536667	622.927734	24.955711
-15667.186170	5055.536667	621.700195	44.394157
-15667.186170	5055.536667	620.472656	-22.132858
-15667.186170	5055.536667	619.245117	-18.396889
-15667.186170	5055.536667	618.016602	18.472805
-15667.186170	5055.536667	616.788086	37.721512
-15667.186170	5055.536667	615.559570	8.144591
-15667.186170	5055.536667	614.331055	13.645821
-15667.186170	5055.536667	613.101563	52.252087
-15667.186170	5055.536667	611.872070	20.608757
-15667.186170	5055.536667	610.642578	-114.376465
-15667.186170	5055.536667	609.413086	85.855011
-15667.186170	5055.536667	608.182617	46.297760
-15667.186170	5055.536667	606.952148	-18.610693
-15667.186170	5055.536667	605.721680	-91.326370
-15667.186170	5055.536667	604.491211	-130.953247
-15667.186170	5055.536667	603.259766	55.219482
-15667.186170	5055.536667	602.028320	-62.365131
-15667.186170	5055.536667	600.796875	14.651879
-15667.186170	5055.536667	599.564453	83.808853
-15667.186170	5055.536667	598.332031	65.361504
-15667.186170	5055.536667	597.099609	72.159058
-15667.186170	5055.536667	595.867188	-16.360394
-15667.186170	5055.536667	594.633789	89.501556
-15667.186170	5055.536667	593.400391	47.570625
-15667.186170	5055.536667	592.166992	81.393822
-15667.186170	5055.536667	590.933594	18.026487
-15667.186170	5055.536667	589.699219	-163.835022
-15667.186170	5055.536667	588.464844	42.702549
-15667.186170	5055.536667	587.230469	-82.871826
-15667.186170	5055.536667	585.995117	-57.039589
-15667.186170	5055.536667	584.760742	178.323837
-15667.186170	5055.536667	583.525391	-108.362808
-15667.186170	5055.536667	582.289063	53.112526
-15667.186170	5055.536667	581.053711	134.965469
-15667.186170	5055.536667	579.817383	15.091175
-15667.186170	5055.536667	578.581055	-44.679253
-15667.186170	5055.536667	577.343750	54.456783
-15667.186170	5055.536667	576.107422	108.944695
-15667.186170	5055.536667	574.870117	-16.800076
-15667.186170	5055.536667	573.631836	-3.079560
-15667.186170	5055.536667	572.394531	-39.750858
-15667.186170	5055.536667	571.156250	122.962646
-15667.186170	5055.536667	569.917969	-18.325418
-15667.186170	5055.536667	568.679688	-12.516556
-15667.186170	5055.536667	567.440430	14.531013
-15667.186170	5055.536667	566.202148	-62.925686
-15667.186170	5055.536667	564.961914	-55.298019
-15667.186170	5055.536667	563.722656	10.297810
-15667.186170	5055.536667	562.482422	-65.294052
-15667.186170	5055.536667	561.243164	-28.790438
-15667.186170	5055.536667	560.001953	23.114765
-15667.186170	5055.536667	558.761719	86.554756
-15667.186170	5055.536667	557.520508	-6.521536
-15667.186170	5055.536667	556.279297	-88.006882
-15667.186170	5055.536667	555.038086	8.127983
-15667.186170	5055.536667	553.795898	-13.560821
-15667.186170	5055.536667	552.554688	22.622433
-15667.186170	5055.536667	551.311523	39.457481
-15667.186170	5055.536667	550.069336	-20.906731
-15667.186170	5055.536667	548.826172	-33.065510
-15667.186170	5055.536667	547.583984	1.027683
-15667.186170	5055.536667	546.339844	-30.475615
-15667.186170	5055.536667	545.096680	-114.033546
-15667.186170	5055.536667	543.852539	-1.040411
-15667.186170	5055.536667	542.608398	94.534225
-15667.186170	5055.536667	541.364258	-16.056665
-15667.186170	5055.536667	540.119141	6.240920
-15667.186170	5055.536667	538.875000	-131.297104
-15667.186170	5055.536667	537.628906	-20.500101
-15667.186170	5055.536667	536.383789	19.018545
-15667.186170	5055.536667	535.137695	-26.168457
-15667.186170	5055.536667	533.892578	-88.673676
-15667.186170	5055.536667	532.645508	-76.177773
-15667.186170	5055.536667	531.399414	-144.468674
-15667.186170	5055.536667	530.152344	56.378712
-15667.186170	5055.536667	528.905273	-33.106823
-15667.186170	5055.536667	527.658203	-114.891502
-15667.186170	5055.536667	526.410156	8.897347
-15667.186170	5055.536667	525.163086	25.050758
-15667.186170	5055.536667	523.914063	-89.415504
-15667.186170	5055.536667	522.666016	-188.492111
-15667.186170	5055.536667	521.416992	-64.885544
-15667.186170	5055.536667	520.167969	121.977547
-15667.186170	5055.536667	518.918945	53.552818
-15667.186170	5055.536667	517.669922	13.912135
-15667.186170	5055.536667	516.419922	60.571125
-15667.186170	5055.536667	515.169922	-84.556000
-15667.186170	5055.536667	513.919922	50.251537
-15667.186170	5055.536667	512.668945	-89.099564
-15667.186170	5055.536667	511.417969	-205.412842
-15667.186170	5055.536667	510.166992	-126.279037
-15667.186170	5055.536667	508.916016	56.236462
-15667.186170	5055.536667	507.664063	96.945572
-15667.186170	5055.536667	506.412109	-90.213036
-15667.186170	5055.536667	505.160156	-59.090397
-15667.186170	5055.536667	503.907227	-209.804840
-15667.186170	5055.536667	502.655273	-73.462395
-15667.186170	5055.536667	501.402344	-15.625473
-15667.186170	5055.536667	500.148438	-137.606094
-15667.186170	5055.536667	498.895508	-158.200729
-15667.186170	5055.536667	497.641602	-10.571454
-15667.186170	5055.536667	496.387695	-6.363596
-15667.186170	5055.536667	495.132813	1.650576
-15667.186170	5055.536667	493.878906	-68.675003
-15667.186170	5055.536667	492.624023	6.181056
-15667.186170	5055.536667	491.368164	-85.146591
-15667.186170	5055.536667	490.113281	142.401047
-15667.186170	5055.536667	488.857422	-40.558044
-15667.186170	5055.536667	487.601563	-89.857742
-15667.186170	5055.536667	486.344727	17.308622
-15667.186170	5055.536667	485.088867	153.038086
-15667.186170	5055.536667	483.832031	94.165794
-15667.186170	5055.536667	482.575195	84.888069
-15667.186170	5055.536667	481.317383	-84.530037
-15667.186170	5055.536667	480.059570	-32.792641
-15667.186170	5055.536667	478.801758	45.593582
-15667.186170	5055.536667	477.543945	21.062355
-15667.186170	5055.536667	476.285156	93.672546
-15667.186170	5055.536667	475.027344	40.564487
-15667.186170	5055.536667	473.767578	97.891563
-15667.186170	5055.536667	472.508789	126.639091
-15667.186170	5055.536667	471.249023	149.655029
-15667.186170	5055.536667	469.989258	33.760410
-15667.186170	5055.536667	468.729492	-11.707958
-15667.186170	5055.536667	467.469727	-83.788811
-15667.186170	5055.536667	466.208984	78.026108
-15667.186170	5055.536667	464.948242	62.969799
-15667.186170	5055.536667	463.686523	55.511353
-15667.186170	5055.536667	462.425781	0.546631
-15667.186170	5055.536667	461.164063	19.685886
-15667.186170	5055.536667	459.901367	-29.572794
-15667.186170	5055.536667	458.639648	76.899239
-15667.186170	5055.536667	457.376953	92.181290
-15667.186170	5055.536667	456.114258	22.029964
-15667.186170	5055.536667	454.851563	153.057404
-15667.186170	5055.536667	453.587891	84.794243
-15667.186170	5055.536667	452.324219	86.734230
-15667.186170	5055.536667	451.060547	20.385813
-15667.186170	5055.536667	449.796875	79.193893
-15667.186170	5055.536667	448.532227	60.234722
-15667.186170	5055.536667	447.267578	45.057964
-15667.186170	5055.536667	446.002930	-49.713463
-15667.186170	5055.536667	444.737305	116.968117
-15667.186170	5055.536667	443.471680	221.054535
-15667.186170	5055.536667	442.206055	130.030777
-15667.186170	5055.536667	440.940430	82.567322
-15667.186170	5055.536667	439.673828	78.631866
-15667.186170	5055.536667	438.407227	140.906448
-15667.186170	5055.536667	437.140625	256.102783
-15667.186170	5055.536667	435.873047	182.057861
-15667.186170	5055.536667	434.605469	151.510651
-15667.186170	5055.536667	433.337891	160.650116
-15667.186170	5055.536667	432.070313	86.574341
-15667.186170	5055.536667	430.801758	110.767303
-15667.186170	5055.536667	429.533203	229.387070
-15667.186170	5055.536667	428.264648	89.103188
-15667.186170	5055.536667	426.996094	75.380005
-15667.186170	5055.536667	425.726563	33.287392
-15667.186170	5055.536667	424.457031	193.168152
-15667.186170	5055.536667	423.186523	49.037640
-15667.186170	5055.536667	421.916992	76.642273
-15667.186170	5055.536667	420.646484	140.019669
-15667.186170	5055.536667	419.375977	20.339928
-15667.186170	5055.536667	418.104492	64.712471
-15667.186170	5055.536667	416.833008	33.579689
-15667.186170	5055.536667	415.561523	104.179733
-15667.186170	5055.536667	414.290039	76.672974
-15667.186170	5055.536667	413.017578	7.641214
-15667.186170	5055.536667	411.746094	77.961929
-15667.186170	5055.536667	410.472656	131.205032
-15667.186170	5055.536667	409.200195	22.399649
-15667.186170	5055.536667	407.926758	58.498867
-15667.186170	5055.536667	406.653320	175.414566
-15667.186170	5055.536667	405.379883	-1.382392
-15667.186170	5055.536667	404.105469	126.561691
-15667.186170	5055.536667	402.831055	41.785881
-15667.186170	5055.536667	401.556641	-43.074463
-15667.186170	5055.536667	400.282227	28.025522
-15667.186170	5055.536667	399.006836	40.684471
-15667.186170	5055.536667	397.731445	30.647612
-15667.186170	5055.536667	396.456055	-22.744860
-15667.186170	5055.536667	395.179688	-115.719917
-15667.186170	5055.536667	393.903320	65.389252
-15667.186170	5055.536667	392.626953	206.823608
-15667.186170	5055.536667	391.350586	45.782932
-15667.186170	5055.536667	390.073242	-0.882984
-15667.186170	5055.536667	388.795898	141.807755
-15667.186170	5055.536667	387.518555	188.563995
-15667.186170	5055.536667	386.240234	51.278408
-15667.186170	5055.536667	384.961914	39.484356
-15667.186170	5055.536667	383.683594	81.846558
-15667.186170	5055.536667	382.405273	37.740910
-15667.186170	5055.536667	381.125977	128.341156
-15667.186170	5055.536667	379.846680	33.170563
-15667.186170	5055.536667	378.567383	123.234154
-15667.186170	5055.536667	377.287109	-131.605728
-15667.186170	5055.536667	376.006836	184.468353
-15667.186170	5055.536667	374.726563	11.536330
-15667.186170	5055.536667	373.446289	-8.146387
-15667.186170	5055.536667	372.165039	-39.360065
-15667.186170	5055.536667	370.883789	-20.365189
-15667.186170	5055.536667	369.602539	-97.093719
-15667.186170	5055.536667	368.320313	-13.321712
-15667.186170	5055.536667	367.039063	-8.447728
-15667.186170	5055.536667	365.755859	9.125676
-15667.186170	5055.536667	364.473633	43.144440
-15667.186170	5055.536667	363.190430	61.802975
-15667.186170	5055.536667	361.907227	-20.814911
-15667.186170	5055.536667	360.624023	-2.967634
-15667.186170	5055.536667	359.340820	-26.633179
-15667.186170	5055.536667	358.056641	92.990883
-15667.186170	5055.536667	356.772461	-41.709091
-15667.186170	5055.536667	355.487305	-25.701159
-15667.186170	5055.536667	354.202148	47.639729
-15667.186170	5055.536667	352.916992	-23.165279
-15667.186170	5055.536667	351.631836	9.959288
-15667.186170	5055.536667	350.346680	66.767227
-15667.186170	5055.536667	349.060547	5.559536
-15667.186170	5055.536667	347.774414	12.752685
-15667.186170	5055.536667	346.487305	-88.718300
-15667.186170	5055.536667	345.200195	-105.073700
-15667.186170	5055.536667	343.913086	10.167204
-15667.186170	5055.536667	342.625977	-52.161304
-15667.186170	5055.536667	341.338867	-154.217560
-15667.186170	5055.536667	340.050781	65.018196
-15667.186170	5055.536667	338.762695	-42.152225
-15667.186170	5055.536667	337.473633	-60.735039
-15667.186170	5055.536667	336.184570	55.703461
-15667.186170	5055.536667	334.895508	-142.915894
-15667.186170	5055.536667	333.606445	-152.628799
-15667.186170	5055.536667	332.317383	-16.330318
-15667.186170	5055.536667	331.027344	-87.208893
-15667.186170	5055.536667	329.736328	-92.067352
-15667.186170	5055.536667	328.446289	-121.938637
-15667.186170	5055.536667	327.155273	-128.596710
-15667.186170	5055.536667	325.864258	-35.942223
-15667.186170	5055.536667	324.573242	16.723709
-15667.186170	5055.536667	323.281250	31.230541
-15667.186170	5055.536667	321.989258	-40.638889
-15667.186170	5055.536667	320.697266	-37.478470
-15667.186170	5055.536667	319.405273	66.597305
-15667.186170	5055.536667	318.112305	21.159872
-15667.186170	5055.536667	316.819336	91.382858
-15667.186170	5055.536667	315.526367	82.564941
-15667.186170	5055.536667	314.232422	-75.715759
-15667.186170	5055.536667	312.938477	-7.308952
-15667.186170	5055.536667	311.644531	198.704147
-15667.186170	5055.536667	310.349609	108.874344
-15667.186170	5055.536667	309.054688	-102.586853
-15667.186170	5055.536667	307.759766	132.580078
-15667.186170	5055.536667	306.464844	149.732086
-15667.186170	5055.536667	305.168945	230.145920
-15667.186170	5055.536667	303.873047	207.311096
-15667.186170	5055.536667	302.577148	205.156586
-15667.186170	5055.536667	301.281250	356.746887
-15667.186170	5055.536667	299.984375	451.176788
