#X		#Y		#Wave		#Intensity
9423.452660	5024.178333	1999.946289	12.938230
9423.452660	5024.178333	1998.981445	29.696556
9423.452660	5024.178333	1998.017578	-30.882713
9423.452660	5024.178333	1997.052734	17.592422
9423.452660	5024.178333	1996.088867	18.970251
9423.452660	5024.178333	1995.124023	-14.337469
9423.452660	5024.178333	1994.159180	-3.055812
9423.452660	5024.178333	1993.193359	35.456093
9423.452660	5024.178333	1992.228516	71.475029
9423.452660	5024.178333	1991.262695	20.838745
9423.452660	5024.178333	1990.296875	9.816316
9423.452660	5024.178333	1989.331055	-40.796467
9423.452660	5024.178333	1988.365234	-49.335896
9423.452660	5024.178333	1987.398438	63.326427
9423.452660	5024.178333	1986.432617	69.603302
9423.452660	5024.178333	1985.465820	-37.865334
9423.452660	5024.178333	1984.499023	-46.410965
9423.452660	5024.178333	1983.532227	-27.767603
9423.452660	5024.178333	1982.565430	-48.673157
9423.452660	5024.178333	1981.597656	11.961686
9423.452660	5024.178333	1980.629883	55.279545
9423.452660	5024.178333	1979.662109	54.121857
9423.452660	5024.178333	1978.694336	-13.710726
9423.452660	5024.178333	1977.726563	14.768489
9423.452660	5024.178333	1976.758789	58.046192
9423.452660	5024.178333	1975.790039	-44.307369
9423.452660	5024.178333	1974.821289	70.520599
9423.452660	5024.178333	1973.852539	15.074884
9423.452660	5024.178333	1972.883789	-8.285272
9423.452660	5024.178333	1971.915039	-41.502384
9423.452660	5024.178333	1970.945313	-62.380489
9423.452660	5024.178333	1969.975586	121.365616
9423.452660	5024.178333	1969.005859	19.124712
9423.452660	5024.178333	1968.036133	-33.792068
9423.452660	5024.178333	1967.066406	34.041157
9423.452660	5024.178333	1966.096680	-1.615748
9423.452660	5024.178333	1965.125977	-27.408377
9423.452660	5024.178333	1964.155273	104.409401
9423.452660	5024.178333	1963.184570	21.978548
9423.452660	5024.178333	1962.213867	8.503013
9423.452660	5024.178333	1961.242188	-2.506799
9423.452660	5024.178333	1960.271484	82.454941
9423.452660	5024.178333	1959.299805	68.975105
9423.452660	5024.178333	1958.328125	57.960468
9423.452660	5024.178333	1957.356445	-7.154813
9423.452660	5024.178333	1956.384766	60.532909
9423.452660	5024.178333	1955.412109	66.735207
9423.452660	5024.178333	1954.439453	90.141296
9423.452660	5024.178333	1953.467773	86.507545
9423.452660	5024.178333	1952.495117	129.559021
9423.452660	5024.178333	1951.521484	49.765499
9423.452660	5024.178333	1950.548828	43.686996
9423.452660	5024.178333	1949.575195	17.965557
9423.452660	5024.178333	1948.601563	-32.297253
9423.452660	5024.178333	1947.627930	32.832466
9423.452660	5024.178333	1946.654297	-17.412310
9423.452660	5024.178333	1945.680664	20.700905
9423.452660	5024.178333	1944.706055	-49.148312
9423.452660	5024.178333	1943.732422	13.488191
9423.452660	5024.178333	1942.757813	-36.711399
9423.452660	5024.178333	1941.783203	-3.522490
9423.452660	5024.178333	1940.807617	34.557983
9423.452660	5024.178333	1939.833008	-15.613161
9423.452660	5024.178333	1938.857422	-6.949276
9423.452660	5024.178333	1937.881836	23.764688
9423.452660	5024.178333	1936.906250	39.770477
9423.452660	5024.178333	1935.930664	-0.561012
9423.452660	5024.178333	1934.955078	49.729977
9423.452660	5024.178333	1933.978516	6.966096
9423.452660	5024.178333	1933.001953	49.896313
9423.452660	5024.178333	1932.025391	122.182045
9423.452660	5024.178333	1931.048828	-15.998460
9423.452660	5024.178333	1930.072266	-2.440566
9423.452660	5024.178333	1929.094727	30.682281
9423.452660	5024.178333	1928.118164	117.598900
9423.452660	5024.178333	1927.140625	-57.147739
9423.452660	5024.178333	1926.163086	24.867094
9423.452660	5024.178333	1925.184570	79.965805
9423.452660	5024.178333	1924.207031	91.058586
9423.452660	5024.178333	1923.228516	99.705513
9423.452660	5024.178333	1922.250000	30.178944
9423.452660	5024.178333	1921.271484	31.510885
9423.452660	5024.178333	1920.292969	79.242126
9423.452660	5024.178333	1919.314453	-21.974977
9423.452660	5024.178333	1918.334961	6.223745
9423.452660	5024.178333	1917.355469	-31.482141
9423.452660	5024.178333	1916.375977	-25.248877
9423.452660	5024.178333	1915.396484	-16.576206
9423.452660	5024.178333	1914.416992	-20.100597
9423.452660	5024.178333	1913.436523	22.714975
9423.452660	5024.178333	1912.457031	-73.467438
9423.452660	5024.178333	1911.476563	64.424019
9423.452660	5024.178333	1910.496094	-0.039771
9423.452660	5024.178333	1909.515625	69.555992
9423.452660	5024.178333	1908.534180	66.032272
9423.452660	5024.178333	1907.552734	4.046620
9423.452660	5024.178333	1906.572266	-1.894058
9423.452660	5024.178333	1905.590820	-24.876831
9423.452660	5024.178333	1904.608398	10.583410
9423.452660	5024.178333	1903.626953	33.861794
9423.452660	5024.178333	1902.644531	49.832199
9423.452660	5024.178333	1901.663086	4.966179
9423.452660	5024.178333	1900.680664	-47.180004
9423.452660	5024.178333	1899.698242	15.018941
9423.452660	5024.178333	1898.714844	-51.697308
9423.452660	5024.178333	1897.732422	46.956497
9423.452660	5024.178333	1896.749023	-2.719229
9423.452660	5024.178333	1895.765625	-6.192714
9423.452660	5024.178333	1894.782227	9.778207
9423.452660	5024.178333	1893.798828	-32.566986
9423.452660	5024.178333	1892.814453	19.845377
9423.452660	5024.178333	1891.831055	55.239227
9423.452660	5024.178333	1890.846680	22.628132
9423.452660	5024.178333	1889.862305	43.444725
9423.452660	5024.178333	1888.877930	-71.679924
9423.452660	5024.178333	1887.892578	-60.557873
9423.452660	5024.178333	1886.908203	-37.305080
9423.452660	5024.178333	1885.922852	19.905045
9423.452660	5024.178333	1884.937500	91.649635
9423.452660	5024.178333	1883.952148	90.614456
9423.452660	5024.178333	1882.965820	-87.421257
9423.452660	5024.178333	1881.980469	-8.418928
9423.452660	5024.178333	1880.994141	-111.228722
9423.452660	5024.178333	1880.007813	-5.591627
9423.452660	5024.178333	1879.021484	46.703983
9423.452660	5024.178333	1878.035156	40.843613
9423.452660	5024.178333	1877.047852	-30.406420
9423.452660	5024.178333	1876.061523	33.976795
9423.452660	5024.178333	1875.074219	13.599897
9423.452660	5024.178333	1874.086914	-50.338665
9423.452660	5024.178333	1873.098633	26.116385
9423.452660	5024.178333	1872.111328	-6.341646
9423.452660	5024.178333	1871.123047	28.952000
9423.452660	5024.178333	1870.135742	-95.406059
9423.452660	5024.178333	1869.147461	41.464020
9423.452660	5024.178333	1868.158203	9.031437
9423.452660	5024.178333	1867.169922	51.552948
9423.452660	5024.178333	1866.180664	7.047818
9423.452660	5024.178333	1865.192383	-27.772858
9423.452660	5024.178333	1864.203125	79.968346
9423.452660	5024.178333	1863.213867	-107.035538
9423.452660	5024.178333	1862.223633	-64.528183
9423.452660	5024.178333	1861.234375	-51.011894
9423.452660	5024.178333	1860.244141	10.784557
9423.452660	5024.178333	1859.253906	74.972427
9423.452660	5024.178333	1858.263672	42.602913
9423.452660	5024.178333	1857.273438	65.742615
9423.452660	5024.178333	1856.282227	-12.449074
9423.452660	5024.178333	1855.291992	111.996964
9423.452660	5024.178333	1854.300781	57.942295
9423.452660	5024.178333	1853.309570	-56.368782
9423.452660	5024.178333	1852.317383	2.928444
9423.452660	5024.178333	1851.326172	74.254745
9423.452660	5024.178333	1850.333984	-20.717020
9423.452660	5024.178333	1849.342773	-69.876389
9423.452660	5024.178333	1848.350586	-20.256083
9423.452660	5024.178333	1847.357422	5.261515
9423.452660	5024.178333	1846.365234	-41.467770
9423.452660	5024.178333	1845.372070	61.082672
9423.452660	5024.178333	1844.379883	-9.710094
9423.452660	5024.178333	1843.386719	179.431274
9423.452660	5024.178333	1842.393555	9.991534
9423.452660	5024.178333	1841.399414	54.717724
9423.452660	5024.178333	1840.406250	56.133152
9423.452660	5024.178333	1839.412109	4.642835
9423.452660	5024.178333	1838.417969	92.620209
9423.452660	5024.178333	1837.423828	17.102560
9423.452660	5024.178333	1836.429688	112.253143
9423.452660	5024.178333	1835.434570	15.131492
9423.452660	5024.178333	1834.440430	52.585129
9423.452660	5024.178333	1833.445313	-22.872286
9423.452660	5024.178333	1832.450195	31.382927
9423.452660	5024.178333	1831.454102	150.446426
9423.452660	5024.178333	1830.458984	31.797573
9423.452660	5024.178333	1829.462891	38.003246
9423.452660	5024.178333	1828.466797	-30.187876
9423.452660	5024.178333	1827.470703	43.205334
9423.452660	5024.178333	1826.474609	66.192818
9423.452660	5024.178333	1825.478516	101.162193
9423.452660	5024.178333	1824.481445	44.993778
9423.452660	5024.178333	1823.484375	-15.950217
9423.452660	5024.178333	1822.487305	114.891411
9423.452660	5024.178333	1821.490234	89.902626
9423.452660	5024.178333	1820.493164	16.998150
9423.452660	5024.178333	1819.495117	11.198179
9423.452660	5024.178333	1818.498047	19.770199
9423.452660	5024.178333	1817.500000	83.416786
9423.452660	5024.178333	1816.500977	84.783623
9423.452660	5024.178333	1815.502930	57.421150
9423.452660	5024.178333	1814.504883	13.312705
9423.452660	5024.178333	1813.505859	84.081261
9423.452660	5024.178333	1812.506836	-62.900215
9423.452660	5024.178333	1811.507813	70.044960
9423.452660	5024.178333	1810.508789	124.013397
9423.452660	5024.178333	1809.508789	20.140022
9423.452660	5024.178333	1808.508789	50.184040
9423.452660	5024.178333	1807.508789	130.409302
9423.452660	5024.178333	1806.508789	74.381393
9423.452660	5024.178333	1805.508789	39.875889
9423.452660	5024.178333	1804.508789	-13.731309
9423.452660	5024.178333	1803.507813	-5.221552
9423.452660	5024.178333	1802.506836	108.354324
9423.452660	5024.178333	1801.505859	-64.624100
9423.452660	5024.178333	1800.504883	139.623596
9423.452660	5024.178333	1799.502930	66.936928
9423.452660	5024.178333	1798.501953	120.743866
9423.452660	5024.178333	1797.500000	79.095764
9423.452660	5024.178333	1796.498047	123.330742
9423.452660	5024.178333	1795.496094	-18.473648
9423.452660	5024.178333	1794.493164	-83.927879
9423.452660	5024.178333	1793.491211	36.587715
9423.452660	5024.178333	1792.488281	11.659136
9423.452660	5024.178333	1791.485352	-3.731702
9423.452660	5024.178333	1790.482422	35.678806
9423.452660	5024.178333	1789.478516	113.183975
9423.452660	5024.178333	1788.475586	12.028512
9423.452660	5024.178333	1787.471680	22.825232
9423.452660	5024.178333	1786.467773	28.851484
9423.452660	5024.178333	1785.463867	-5.594943
9423.452660	5024.178333	1784.459961	26.604290
9423.452660	5024.178333	1783.455078	96.856735
9423.452660	5024.178333	1782.450195	105.224182
9423.452660	5024.178333	1781.445313	77.905540
9423.452660	5024.178333	1780.440430	105.288445
9423.452660	5024.178333	1779.435547	-67.065643
9423.452660	5024.178333	1778.429688	3.112855
9423.452660	5024.178333	1777.424805	39.986237
9423.452660	5024.178333	1776.418945	17.432360
9423.452660	5024.178333	1775.413086	56.653679
9423.452660	5024.178333	1774.406250	86.352631
9423.452660	5024.178333	1773.400391	-28.835325
9423.452660	5024.178333	1772.393555	93.462524
9423.452660	5024.178333	1771.386719	42.404213
9423.452660	5024.178333	1770.379883	69.687683
9423.452660	5024.178333	1769.373047	28.134649
9423.452660	5024.178333	1768.365234	64.889175
9423.452660	5024.178333	1767.358398	77.902710
9423.452660	5024.178333	1766.350586	116.993942
9423.452660	5024.178333	1765.342773	6.671284
9423.452660	5024.178333	1764.334961	29.153437
9423.452660	5024.178333	1763.326172	51.620323
9423.452660	5024.178333	1762.318359	116.732918
9423.452660	5024.178333	1761.309570	94.141411
9423.452660	5024.178333	1760.300781	31.278318
9423.452660	5024.178333	1759.291016	15.804744
9423.452660	5024.178333	1758.282227	-11.509645
9423.452660	5024.178333	1757.272461	-31.717340
9423.452660	5024.178333	1756.262695	9.625185
9423.452660	5024.178333	1755.252930	32.011047
9423.452660	5024.178333	1754.243164	139.570816
9423.452660	5024.178333	1753.233398	8.125967
9423.452660	5024.178333	1752.222656	-40.485168
9423.452660	5024.178333	1751.211914	-13.403997
9423.452660	5024.178333	1750.201172	-9.985298
9423.452660	5024.178333	1749.190430	-23.123404
9423.452660	5024.178333	1748.179688	44.101078
9423.452660	5024.178333	1747.167969	104.202705
9423.452660	5024.178333	1746.156250	60.313068
9423.452660	5024.178333	1745.144531	-42.624519
9423.452660	5024.178333	1744.132813	-15.627676
9423.452660	5024.178333	1743.121094	37.327488
9423.452660	5024.178333	1742.108398	168.166397
9423.452660	5024.178333	1741.095703	53.455227
9423.452660	5024.178333	1740.083008	89.824326
9423.452660	5024.178333	1739.070313	-8.325461
9423.452660	5024.178333	1738.057617	-21.515173
9423.452660	5024.178333	1737.043945	0.672777
9423.452660	5024.178333	1736.030273	1.620531
9423.452660	5024.178333	1735.016602	54.432304
9423.452660	5024.178333	1734.002930	-48.368980
9423.452660	5024.178333	1732.989258	70.410973
9423.452660	5024.178333	1731.974609	12.402623
9423.452660	5024.178333	1730.959961	25.089458
9423.452660	5024.178333	1729.945313	16.563738
9423.452660	5024.178333	1728.930664	81.041992
9423.452660	5024.178333	1727.916016	53.656517
9423.452660	5024.178333	1726.900391	-51.415642
9423.452660	5024.178333	1725.885742	-5.814298
9423.452660	5024.178333	1724.870117	13.874962
9423.452660	5024.178333	1723.853516	82.957764
9423.452660	5024.178333	1722.837891	-19.718126
9423.452660	5024.178333	1721.822266	32.866627
9423.452660	5024.178333	1720.805664	-46.261852
9423.452660	5024.178333	1719.789063	-33.676620
9423.452660	5024.178333	1718.772461	-86.921143
9423.452660	5024.178333	1717.754883	45.508461
9423.452660	5024.178333	1716.738281	-19.495005
9423.452660	5024.178333	1715.720703	16.535730
9423.452660	5024.178333	1714.703125	3.219787
9423.452660	5024.178333	1713.685547	-52.369358
9423.452660	5024.178333	1712.667969	51.712376
9423.452660	5024.178333	1711.649414	-125.949364
9423.452660	5024.178333	1710.630859	-99.361649
9423.452660	5024.178333	1709.612305	-4.741760
9423.452660	5024.178333	1708.593750	-100.200798
9423.452660	5024.178333	1707.575195	41.280033
9423.452660	5024.178333	1706.555664	-7.264188
9423.452660	5024.178333	1705.536133	12.200287
9423.452660	5024.178333	1704.516602	101.978386
9423.452660	5024.178333	1703.497070	-45.015591
9423.452660	5024.178333	1702.477539	2.541608
9423.452660	5024.178333	1701.457031	73.500938
9423.452660	5024.178333	1700.437500	-17.206959
9423.452660	5024.178333	1699.416992	6.871791
9423.452660	5024.178333	1698.395508	37.956898
9423.452660	5024.178333	1697.375000	64.340851
9423.452660	5024.178333	1696.354492	-52.076801
9423.452660	5024.178333	1695.333008	11.741146
9423.452660	5024.178333	1694.311523	-1.687341
9423.452660	5024.178333	1693.290039	31.668753
9423.452660	5024.178333	1692.267578	-47.265198
9423.452660	5024.178333	1691.246094	2.439867
9423.452660	5024.178333	1690.223633	-29.713951
9423.452660	5024.178333	1689.201172	120.466644
9423.452660	5024.178333	1688.178711	67.252426
9423.452660	5024.178333	1687.155273	95.832893
9423.452660	5024.178333	1686.132813	-88.200226
9423.452660	5024.178333	1685.109375	-106.332191
9423.452660	5024.178333	1684.085938	76.371796
9423.452660	5024.178333	1683.062500	41.855099
9423.452660	5024.178333	1682.039063	2.674878
9423.452660	5024.178333	1681.014648	0.843842
9423.452660	5024.178333	1679.990234	10.673282
9423.452660	5024.178333	1678.965820	88.150040
9423.452660	5024.178333	1677.941406	128.267059
9423.452660	5024.178333	1676.916992	47.088074
9423.452660	5024.178333	1675.891602	47.541553
9423.452660	5024.178333	1674.866211	33.999126
9423.452660	5024.178333	1673.840820	55.416386
9423.452660	5024.178333	1672.815430	69.826805
9423.452660	5024.178333	1671.790039	-32.272507
9423.452660	5024.178333	1670.763672	-20.197269
9423.452660	5024.178333	1669.737305	8.168817
9423.452660	5024.178333	1668.710938	87.744972
9423.452660	5024.178333	1667.684570	99.767082
9423.452660	5024.178333	1666.658203	81.517143
9423.452660	5024.178333	1665.630859	39.992912
9423.452660	5024.178333	1664.603516	124.123215
9423.452660	5024.178333	1663.576172	19.780890
9423.452660	5024.178333	1662.548828	108.519203
9423.452660	5024.178333	1661.520508	166.984070
9423.452660	5024.178333	1660.493164	37.096664
9423.452660	5024.178333	1659.464844	139.703934
9423.452660	5024.178333	1658.436523	195.782379
9423.452660	5024.178333	1657.408203	210.006363
9423.452660	5024.178333	1656.378906	168.459976
9423.452660	5024.178333	1655.350586	182.669235
9423.452660	5024.178333	1654.321289	120.229065
9423.452660	5024.178333	1653.291992	243.552765
9423.452660	5024.178333	1652.261719	88.253952
9423.452660	5024.178333	1651.232422	176.707809
9423.452660	5024.178333	1650.202148	186.222351
9423.452660	5024.178333	1649.171875	200.366180
9423.452660	5024.178333	1648.141602	172.745071
9423.452660	5024.178333	1647.111328	98.745041
9423.452660	5024.178333	1646.080078	73.457733
9423.452660	5024.178333	1645.049805	177.996414
9423.452660	5024.178333	1644.018555	229.177368
9423.452660	5024.178333	1642.987305	94.943977
9423.452660	5024.178333	1641.955078	146.106354
9423.452660	5024.178333	1640.923828	118.484360
9423.452660	5024.178333	1639.891602	90.865189
9423.452660	5024.178333	1638.859375	102.614601
9423.452660	5024.178333	1637.827148	100.462395
9423.452660	5024.178333	1636.794922	89.045845
9423.452660	5024.178333	1635.761719	121.595940
9423.452660	5024.178333	1634.729492	77.774910
9423.452660	5024.178333	1633.696289	151.941376
9423.452660	5024.178333	1632.662109	184.440140
9423.452660	5024.178333	1631.628906	223.858994
9423.452660	5024.178333	1630.594727	99.106087
9423.452660	5024.178333	1629.561523	80.726303
9423.452660	5024.178333	1628.527344	103.945641
9423.452660	5024.178333	1627.493164	154.877289
9423.452660	5024.178333	1626.458008	166.509003
9423.452660	5024.178333	1625.423828	145.796097
9423.452660	5024.178333	1624.388672	192.052704
9423.452660	5024.178333	1623.353516	118.227425
9423.452660	5024.178333	1622.318359	210.627731
9423.452660	5024.178333	1621.282227	182.973328
9423.452660	5024.178333	1620.247070	335.308411
9423.452660	5024.178333	1619.210938	240.726349
9423.452660	5024.178333	1618.174805	224.599167
9423.452660	5024.178333	1617.137695	289.185852
9423.452660	5024.178333	1616.101563	150.844604
9423.452660	5024.178333	1615.064453	247.683670
9423.452660	5024.178333	1614.027344	238.460098
9423.452660	5024.178333	1612.990234	169.322861
9423.452660	5024.178333	1611.953125	261.479340
9423.452660	5024.178333	1610.916016	185.444977
9423.452660	5024.178333	1609.877930	321.308105
9423.452660	5024.178333	1608.839844	268.305969
9423.452660	5024.178333	1607.801758	325.820038
9423.452660	5024.178333	1606.763672	240.605988
9423.452660	5024.178333	1605.724609	263.575134
9423.452660	5024.178333	1604.685547	295.733795
9423.452660	5024.178333	1603.646484	196.759293
9423.452660	5024.178333	1602.607422	254.208389
9423.452660	5024.178333	1601.568359	189.763519
9423.452660	5024.178333	1600.528320	293.160950
9423.452660	5024.178333	1599.489258	309.173035
9423.452660	5024.178333	1598.449219	274.616669
9423.452660	5024.178333	1597.408203	191.818634
9423.452660	5024.178333	1596.368164	327.280273
9423.452660	5024.178333	1595.327148	322.585144
9423.452660	5024.178333	1594.287109	294.927704
9423.452660	5024.178333	1593.246094	202.993530
9423.452660	5024.178333	1592.204102	393.418915
9423.452660	5024.178333	1591.163086	306.084686
9423.452660	5024.178333	1590.121094	374.803040
9423.452660	5024.178333	1589.079102	448.079651
9423.452660	5024.178333	1588.037109	399.765961
9423.452660	5024.178333	1586.995117	408.796082
9423.452660	5024.178333	1585.953125	523.282654
9423.452660	5024.178333	1584.910156	502.479309
9423.452660	5024.178333	1583.867188	548.142822
9423.452660	5024.178333	1582.824219	559.416199
9423.452660	5024.178333	1581.781250	589.009949
9423.452660	5024.178333	1580.737305	552.165894
9423.452660	5024.178333	1579.693359	616.092834
9423.452660	5024.178333	1578.649414	554.068726
9423.452660	5024.178333	1577.605469	487.488892
9423.452660	5024.178333	1576.561523	583.425659
9423.452660	5024.178333	1575.516602	448.215454
9423.452660	5024.178333	1574.472656	468.623810
9423.452660	5024.178333	1573.427734	566.788391
9423.452660	5024.178333	1572.381836	738.090149
9423.452660	5024.178333	1571.336914	584.658264
9423.452660	5024.178333	1570.291016	584.441162
9423.452660	5024.178333	1569.246094	677.929810
9423.452660	5024.178333	1568.200195	830.789917
9423.452660	5024.178333	1567.153320	1093.247803
9423.452660	5024.178333	1566.107422	990.140381
9423.452660	5024.178333	1565.060547	1092.603638
9423.452660	5024.178333	1564.013672	1229.274170
9423.452660	5024.178333	1562.966797	1263.164795
9423.452660	5024.178333	1561.919922	1340.405884
9423.452660	5024.178333	1560.872070	1399.359619
9423.452660	5024.178333	1559.825195	1353.344116
9423.452660	5024.178333	1558.777344	1425.957520
9423.452660	5024.178333	1557.729492	1359.427612
9423.452660	5024.178333	1556.680664	1183.477051
9423.452660	5024.178333	1555.632813	1139.817871
9423.452660	5024.178333	1554.583984	916.116577
9423.452660	5024.178333	1553.535156	872.525635
9423.452660	5024.178333	1552.486328	753.767517
9423.452660	5024.178333	1551.436523	728.447937
9423.452660	5024.178333	1550.387695	659.869080
9423.452660	5024.178333	1549.337891	516.176453
9423.452660	5024.178333	1548.288086	556.939575
9423.452660	5024.178333	1547.238281	540.785400
9423.452660	5024.178333	1546.187500	467.746490
9423.452660	5024.178333	1545.136719	590.402710
9423.452660	5024.178333	1544.086914	496.913788
9423.452660	5024.178333	1543.035156	421.653992
9423.452660	5024.178333	1541.984375	348.700958
9423.452660	5024.178333	1540.933594	368.986664
9423.452660	5024.178333	1539.881836	339.259827
9423.452660	5024.178333	1538.830078	332.271240
9423.452660	5024.178333	1537.778320	373.000214
9423.452660	5024.178333	1536.725586	327.392731
9423.452660	5024.178333	1535.673828	256.824280
9423.452660	5024.178333	1534.621094	377.022827
9423.452660	5024.178333	1533.568359	331.447693
9423.452660	5024.178333	1532.515625	263.194855
9423.452660	5024.178333	1531.461914	258.511627
9423.452660	5024.178333	1530.409180	231.145462
9423.452660	5024.178333	1529.355469	203.790985
9423.452660	5024.178333	1528.301758	215.006317
9423.452660	5024.178333	1527.247070	40.278221
9423.452660	5024.178333	1526.193359	173.951080
9423.452660	5024.178333	1525.138672	196.506165
9423.452660	5024.178333	1524.083984	316.502533
9423.452660	5024.178333	1523.029297	123.778450
9423.452660	5024.178333	1521.974609	248.279053
9423.452660	5024.178333	1520.918945	232.310226
9423.452660	5024.178333	1519.863281	139.360504
9423.452660	5024.178333	1518.807617	107.578636
9423.452660	5024.178333	1517.751953	28.278940
9423.452660	5024.178333	1516.696289	102.903893
9423.452660	5024.178333	1515.639648	136.774292
9423.452660	5024.178333	1514.583008	102.769989
9423.452660	5024.178333	1513.526367	134.373489
9423.452660	5024.178333	1512.469727	43.858810
9423.452660	5024.178333	1511.412109	18.947412
9423.452660	5024.178333	1510.355469	-42.114601
9423.452660	5024.178333	1509.297852	7.587994
9423.452660	5024.178333	1508.240234	136.358109
9423.452660	5024.178333	1507.181641	115.982628
9423.452660	5024.178333	1506.124023	-60.221809
9423.452660	5024.178333	1505.065430	0.753311
9423.452660	5024.178333	1504.006836	-21.825985
9423.452660	5024.178333	1502.948242	-17.304092
9423.452660	5024.178333	1501.888672	61.694542
9423.452660	5024.178333	1500.830078	133.899323
9423.452660	5024.178333	1499.770508	57.188934
9423.452660	5024.178333	1498.710938	12.091103
9423.452660	5024.178333	1497.650391	129.376648
9423.452660	5024.178333	1496.590820	219.568161
9423.452660	5024.178333	1495.530273	361.572662
9423.452660	5024.178333	1494.469727	420.140808
9423.452660	5024.178333	1493.409180	390.815338
9423.452660	5024.178333	1492.348633	449.366119
9423.452660	5024.178333	1491.287109	372.758179
9423.452660	5024.178333	1490.225586	426.796448
9423.452660	5024.178333	1489.164063	494.327942
9423.452660	5024.178333	1488.102539	393.014648
9423.452660	5024.178333	1487.041016	413.277557
9423.452660	5024.178333	1485.978516	467.288879
9423.452660	5024.178333	1484.916016	246.825027
9423.452660	5024.178333	1483.853516	399.828278
9423.452660	5024.178333	1482.791016	289.671448
9423.452660	5024.178333	1481.727539	247.009766
9423.452660	5024.178333	1480.664063	199.887924
9423.452660	5024.178333	1479.600586	296.606781
9423.452660	5024.178333	1478.537109	220.292603
9423.452660	5024.178333	1477.473633	285.516815
9423.452660	5024.178333	1476.409180	285.627228
9423.452660	5024.178333	1475.344727	191.437805
9423.452660	5024.178333	1474.280273	229.711304
9423.452660	5024.178333	1473.215820	335.255676
9423.452660	5024.178333	1472.151367	254.650055
9423.452660	5024.178333	1471.085938	360.152313
9423.452660	5024.178333	1470.020508	302.004761
9423.452660	5024.178333	1468.955078	180.947708
9423.452660	5024.178333	1467.888672	235.048828
9423.452660	5024.178333	1466.823242	297.813416
9423.452660	5024.178333	1465.756836	89.889153
9423.452660	5024.178333	1464.690430	69.883339
9423.452660	5024.178333	1463.624023	81.395897
9423.452660	5024.178333	1462.556641	-5.444699
9423.452660	5024.178333	1461.490234	64.159264
9423.452660	5024.178333	1460.422852	133.582352
9423.452660	5024.178333	1459.355469	77.899094
9423.452660	5024.178333	1458.287109	78.244110
9423.452660	5024.178333	1457.219727	169.993652
9423.452660	5024.178333	1456.151367	228.118286
9423.452660	5024.178333	1455.083008	99.099510
9423.452660	5024.178333	1454.014648	79.640503
9423.452660	5024.178333	1452.945313	128.723099
9423.452660	5024.178333	1451.876953	40.091351
9423.452660	5024.178333	1450.807617	185.370728
9423.452660	5024.178333	1449.738281	148.046555
9423.452660	5024.178333	1448.668945	161.363052
9423.452660	5024.178333	1447.598633	133.103333
9423.452660	5024.178333	1446.528320	200.016144
9423.452660	5024.178333	1445.458008	284.249023
9423.452660	5024.178333	1444.387695	299.917206
9423.452660	5024.178333	1443.317383	367.508362
9423.452660	5024.178333	1442.246094	362.552460
9423.452660	5024.178333	1441.174805	268.523010
9423.452660	5024.178333	1440.103516	437.177216
9423.452660	5024.178333	1439.032227	299.678406
9423.452660	5024.178333	1437.960938	426.704376
9423.452660	5024.178333	1436.888672	428.120117
9423.452660	5024.178333	1435.816406	367.912109
9423.452660	5024.178333	1434.744141	270.299591
9423.452660	5024.178333	1433.670898	386.473541
9423.452660	5024.178333	1432.598633	323.390076
9423.452660	5024.178333	1431.525391	213.527496
9423.452660	5024.178333	1430.452148	205.626114
9423.452660	5024.178333	1429.378906	182.030930
9423.452660	5024.178333	1428.304688	2.318197
9423.452660	5024.178333	1427.231445	143.236420
9423.452660	5024.178333	1426.157227	74.961761
9423.452660	5024.178333	1425.083008	68.809402
9423.452660	5024.178333	1424.007813	75.754807
9423.452660	5024.178333	1422.933594	-13.704590
9423.452660	5024.178333	1421.858398	76.183380
9423.452660	5024.178333	1420.783203	18.884741
9423.452660	5024.178333	1419.708008	107.478615
9423.452660	5024.178333	1418.631836	191.559662
9423.452660	5024.178333	1417.555664	168.032349
9423.452660	5024.178333	1416.479492	20.735073
9423.452660	5024.178333	1415.403320	43.277241
9423.452660	5024.178333	1414.327148	4.019973
9423.452660	5024.178333	1413.250000	-28.766987
9423.452660	5024.178333	1412.173828	57.201668
9423.452660	5024.178333	1411.096680	36.311604
9423.452660	5024.178333	1410.018555	-107.155136
9423.452660	5024.178333	1408.941406	18.276873
9423.452660	5024.178333	1407.863281	29.615671
9423.452660	5024.178333	1406.785156	1.035625
9423.452660	5024.178333	1405.707031	-69.893913
9423.452660	5024.178333	1404.628906	-55.630188
9423.452660	5024.178333	1403.549805	-62.979301
9423.452660	5024.178333	1402.470703	-36.380459
9423.452660	5024.178333	1401.391602	56.894875
9423.452660	5024.178333	1400.312500	-0.267792
9423.452660	5024.178333	1399.233398	-6.258817
9423.452660	5024.178333	1398.153320	90.508575
9423.452660	5024.178333	1397.073242	105.313622
9423.452660	5024.178333	1395.993164	11.667570
9423.452660	5024.178333	1394.913086	156.565796
9423.452660	5024.178333	1393.832031	183.918823
9423.452660	5024.178333	1392.750977	177.635513
9423.452660	5024.178333	1391.669922	320.401886
9423.452660	5024.178333	1390.588867	429.668182
9423.452660	5024.178333	1389.506836	393.393280
9423.452660	5024.178333	1388.425781	391.424530
9423.452660	5024.178333	1387.343750	463.304749
9423.452660	5024.178333	1386.261719	392.133179
9423.452660	5024.178333	1385.178711	295.474213
9423.452660	5024.178333	1384.096680	260.505157
9423.452660	5024.178333	1383.013672	293.880280
9423.452660	5024.178333	1381.930664	247.542007
9423.452660	5024.178333	1380.846680	196.442001
9423.452660	5024.178333	1379.763672	78.071915
9423.452660	5024.178333	1378.679688	21.059010
9423.452660	5024.178333	1377.595703	142.791931
9423.452660	5024.178333	1376.511719	106.992599
9423.452660	5024.178333	1375.427734	172.798203
9423.452660	5024.178333	1374.342773	155.467148
9423.452660	5024.178333	1373.257813	158.114807
9423.452660	5024.178333	1372.172852	-3.948262
9423.452660	5024.178333	1371.087891	48.387787
9423.452660	5024.178333	1370.001953	67.331329
9423.452660	5024.178333	1368.916992	160.620377
9423.452660	5024.178333	1367.831055	84.184631
9423.452660	5024.178333	1366.744141	105.005814
9423.452660	5024.178333	1365.658203	118.533279
9423.452660	5024.178333	1364.571289	21.074253
9423.452660	5024.178333	1363.484375	99.743774
9423.452660	5024.178333	1362.397461	140.993240
9423.452660	5024.178333	1361.310547	136.969620
9423.452660	5024.178333	1360.222656	132.515152
9423.452660	5024.178333	1359.135742	127.568817
9423.452660	5024.178333	1358.047852	117.496300
9423.452660	5024.178333	1356.958984	170.464600
9423.452660	5024.178333	1355.871094	115.255653
9423.452660	5024.178333	1354.782227	311.829926
9423.452660	5024.178333	1353.693359	260.340454
9423.452660	5024.178333	1352.604492	157.496201
9423.452660	5024.178333	1351.515625	260.124268
9423.452660	5024.178333	1350.425781	274.226685
9423.452660	5024.178333	1349.335938	289.079224
9423.452660	5024.178333	1348.246094	252.880325
9423.452660	5024.178333	1347.156250	316.941528
9423.452660	5024.178333	1346.066406	388.110870
9423.452660	5024.178333	1344.975586	387.727875
9423.452660	5024.178333	1343.884766	475.487213
9423.452660	5024.178333	1342.793945	445.500122
9423.452660	5024.178333	1341.702148	470.320496
9423.452660	5024.178333	1340.611328	307.263153
9423.452660	5024.178333	1339.519531	270.873047
9423.452660	5024.178333	1338.427734	287.337250
9423.452660	5024.178333	1337.334961	299.851990
9423.452660	5024.178333	1336.243164	126.911880
9423.452660	5024.178333	1335.150391	208.534943
9423.452660	5024.178333	1334.057617	26.838564
9423.452660	5024.178333	1332.964844	52.995083
9423.452660	5024.178333	1331.871094	131.140457
9423.452660	5024.178333	1330.778320	157.890564
9423.452660	5024.178333	1329.684570	170.795715
9423.452660	5024.178333	1328.590820	27.962776
9423.452660	5024.178333	1327.496094	84.705956
9423.452660	5024.178333	1326.402344	129.022919
9423.452660	5024.178333	1325.307617	131.791885
9423.452660	5024.178333	1324.212891	146.734207
9423.452660	5024.178333	1323.117188	180.074768
9423.452660	5024.178333	1322.022461	166.352173
9423.452660	5024.178333	1320.926758	219.506485
9423.452660	5024.178333	1319.831055	98.651817
9423.452660	5024.178333	1318.735352	159.366745
9423.452660	5024.178333	1317.638672	115.630089
9423.452660	5024.178333	1316.542969	143.344864
9423.452660	5024.178333	1315.446289	125.298149
9423.452660	5024.178333	1314.349609	131.039322
9423.452660	5024.178333	1313.251953	17.222298
9423.452660	5024.178333	1312.155273	21.510979
9423.452660	5024.178333	1311.057617	-6.335048
9423.452660	5024.178333	1309.959961	20.314835
9423.452660	5024.178333	1308.862305	-41.754768
9423.452660	5024.178333	1307.763672	25.543463
9423.452660	5024.178333	1306.665039	-27.750216
9423.452660	5024.178333	1305.566406	39.498165
9423.452660	5024.178333	1304.467773	-22.039093
9423.452660	5024.178333	1303.369141	4.027586
9423.452660	5024.178333	1302.269531	-38.940994
9423.452660	5024.178333	1301.169922	72.006752
9423.452660	5024.178333	1300.070313	-28.201763
9423.452660	5024.178333	1298.970703	26.626030
9423.452660	5024.178333	1297.870117	71.355598
9423.452660	5024.178333	1296.769531	-33.213860
9423.452660	5024.178333	1295.668945	-14.109754
9423.452660	5024.178333	1294.568359	-58.875858
9423.452660	5024.178333	1293.466797	26.871637
9423.452660	5024.178333	1292.366211	21.756502
9423.452660	5024.178333	1291.264648	-30.575628
9423.452660	5024.178333	1290.162109	-17.444141
9423.452660	5024.178333	1289.060547	0.461448
9423.452660	5024.178333	1287.958008	26.034134
9423.452660	5024.178333	1286.855469	2.866251
9423.452660	5024.178333	1285.752930	34.307819
9423.452660	5024.178333	1284.650391	110.359253
9423.452660	5024.178333	1283.546875	55.118542
9423.452660	5024.178333	1282.444336	131.768143
9423.452660	5024.178333	1281.339844	64.104141
9423.452660	5024.178333	1280.236328	75.588844
9423.452660	5024.178333	1279.132813	171.568054
9423.452660	5024.178333	1278.028320	142.701050
9423.452660	5024.178333	1276.923828	177.120148
9423.452660	5024.178333	1275.819336	174.839417
9423.452660	5024.178333	1274.713867	233.331665
9423.452660	5024.178333	1273.608398	150.945724
9423.452660	5024.178333	1272.503906	111.611671
9423.452660	5024.178333	1271.397461	123.668060
9423.452660	5024.178333	1270.291992	77.730034
9423.452660	5024.178333	1269.185547	64.850014
9423.452660	5024.178333	1268.080078	-3.726738
9423.452660	5024.178333	1266.972656	28.219479
9423.452660	5024.178333	1265.866211	-13.041710
9423.452660	5024.178333	1264.759766	50.454227
9423.452660	5024.178333	1263.652344	14.865708
9423.452660	5024.178333	1262.544922	61.879616
9423.452660	5024.178333	1261.436523	47.845783
9423.452660	5024.178333	1260.329102	-8.048501
9423.452660	5024.178333	1259.220703	82.333282
9423.452660	5024.178333	1258.112305	60.866234
9423.452660	5024.178333	1257.003906	3.434780
9423.452660	5024.178333	1255.895508	-18.442856
9423.452660	5024.178333	1254.786133	-14.664126
9423.452660	5024.178333	1253.676758	-32.729450
9423.452660	5024.178333	1252.567383	-55.749268
9423.452660	5024.178333	1251.458008	14.242637
9423.452660	5024.178333	1250.347656	-3.640423
9423.452660	5024.178333	1249.237305	-6.034390
9423.452660	5024.178333	1248.126953	-79.598534
9423.452660	5024.178333	1247.016602	-14.002134
9423.452660	5024.178333	1245.905273	-24.736843
9423.452660	5024.178333	1244.793945	-35.383446
9423.452660	5024.178333	1243.682617	58.624126
9423.452660	5024.178333	1242.571289	-24.446886
9423.452660	5024.178333	1241.459961	15.136094
9423.452660	5024.178333	1240.347656	-39.209381
9423.452660	5024.178333	1239.235352	7.116539
9423.452660	5024.178333	1238.123047	26.410635
9423.452660	5024.178333	1237.009766	-72.730812
9423.452660	5024.178333	1235.897461	-32.467190
9423.452660	5024.178333	1234.784180	-13.783574
9423.452660	5024.178333	1233.670898	-16.428532
9423.452660	5024.178333	1232.556641	90.134178
9423.452660	5024.178333	1231.443359	17.176769
9423.452660	5024.178333	1230.329102	-0.407381
9423.452660	5024.178333	1229.214844	-14.813875
9423.452660	5024.178333	1228.099609	28.616095
9423.452660	5024.178333	1226.985352	73.492851
9423.452660	5024.178333	1225.870117	49.877777
9423.452660	5024.178333	1224.754883	-8.393023
9423.452660	5024.178333	1223.639648	80.336372
9423.452660	5024.178333	1222.523438	-42.559639
9423.452660	5024.178333	1221.408203	95.471375
9423.452660	5024.178333	1220.291992	38.090187
9423.452660	5024.178333	1219.174805	-74.112961
9423.452660	5024.178333	1218.058594	-47.392296
9423.452660	5024.178333	1216.941406	-46.606560
9423.452660	5024.178333	1215.824219	49.587418
9423.452660	5024.178333	1214.707031	-79.313873
9423.452660	5024.178333	1213.589844	-93.354225
9423.452660	5024.178333	1212.471680	-4.716587
9423.452660	5024.178333	1211.353516	0.932932
9423.452660	5024.178333	1210.235352	3.386474
9423.452660	5024.178333	1209.117188	-10.943946
9423.452660	5024.178333	1207.998047	-30.716843
9423.452660	5024.178333	1206.878906	2.880172
9423.452660	5024.178333	1205.759766	25.184896
9423.452660	5024.178333	1204.640625	-67.683868
9423.452660	5024.178333	1203.520508	-27.693705
9423.452660	5024.178333	1202.401367	-21.057421
9423.452660	5024.178333	1201.281250	11.436635
9423.452660	5024.178333	1200.160156	-28.150835
9423.452660	5024.178333	1199.040039	-15.021171
9423.452660	5024.178333	1197.918945	22.993587
9423.452660	5024.178333	1196.797852	-17.151613
9423.452660	5024.178333	1195.676758	64.063156
9423.452660	5024.178333	1194.555664	66.073112
9423.452660	5024.178333	1193.433594	38.824982
9423.452660	5024.178333	1192.311523	103.411903
9423.452660	5024.178333	1191.189453	19.758823
9423.452660	5024.178333	1190.066406	55.945549
9423.452660	5024.178333	1188.944336	96.745323
9423.452660	5024.178333	1187.821289	37.724319
9423.452660	5024.178333	1186.698242	39.799397
9423.452660	5024.178333	1185.574219	116.362122
9423.452660	5024.178333	1184.451172	45.018501
9423.452660	5024.178333	1183.327148	113.525391
9423.452660	5024.178333	1182.203125	105.601402
9423.452660	5024.178333	1181.078125	85.027267
9423.452660	5024.178333	1179.954102	171.679489
9423.452660	5024.178333	1178.829102	269.615967
9423.452660	5024.178333	1177.704102	328.567535
9423.452660	5024.178333	1176.579102	293.056519
9423.452660	5024.178333	1175.453125	373.498718
9423.452660	5024.178333	1174.327148	414.232086
9423.452660	5024.178333	1173.201172	415.583954
9423.452660	5024.178333	1172.075195	298.894775
9423.452660	5024.178333	1170.949219	315.036133
9423.452660	5024.178333	1169.822266	228.872665
9423.452660	5024.178333	1168.695313	155.976303
9423.452660	5024.178333	1167.568359	213.580353
9423.452660	5024.178333	1166.440430	153.147919
9423.452660	5024.178333	1165.313477	32.908791
9423.452660	5024.178333	1164.185547	56.875702
9423.452660	5024.178333	1163.057617	-10.809888
9423.452660	5024.178333	1161.928711	-17.060104
9423.452660	5024.178333	1160.800781	-4.725482
9423.452660	5024.178333	1159.671875	-79.672684
9423.452660	5024.178333	1158.541992	-2.345640
9423.452660	5024.178333	1157.413086	-51.592434
9423.452660	5024.178333	1156.283203	-38.133244
9423.452660	5024.178333	1155.154297	7.164315
9423.452660	5024.178333	1154.023438	-26.342257
9423.452660	5024.178333	1152.893555	19.118299
9423.452660	5024.178333	1151.763672	46.775211
9423.452660	5024.178333	1150.632813	2.502965
9423.452660	5024.178333	1149.501953	20.987230
9423.452660	5024.178333	1148.370117	-27.880661
9423.452660	5024.178333	1147.239258	-39.006142
9423.452660	5024.178333	1146.107422	-26.271523
9423.452660	5024.178333	1144.975586	36.330170
9423.452660	5024.178333	1143.843750	-24.846155
9423.452660	5024.178333	1142.710938	-34.780266
9423.452660	5024.178333	1141.578125	26.127100
9423.452660	5024.178333	1140.445313	6.659323
9423.452660	5024.178333	1139.312500	-31.041817
9423.452660	5024.178333	1138.178711	8.855186
9423.452660	5024.178333	1137.045898	39.991081
9423.452660	5024.178333	1135.912109	0.855607
9423.452660	5024.178333	1134.777344	5.136438
9423.452660	5024.178333	1133.643555	-6.610137
9423.452660	5024.178333	1132.508789	19.307758
9423.452660	5024.178333	1131.374023	-11.664889
9423.452660	5024.178333	1130.239258	4.677427
9423.452660	5024.178333	1129.104492	50.795097
9423.452660	5024.178333	1127.968750	25.761808
9423.452660	5024.178333	1126.833008	2.842622
9423.452660	5024.178333	1125.697266	70.325569
9423.452660	5024.178333	1124.560547	122.433502
9423.452660	5024.178333	1123.424805	57.564301
9423.452660	5024.178333	1122.288086	-51.305031
9423.452660	5024.178333	1121.151367	-8.193832
9423.452660	5024.178333	1120.013672	61.456913
9423.452660	5024.178333	1118.876953	53.049519
9423.452660	5024.178333	1117.739258	141.154709
9423.452660	5024.178333	1116.601563	0.447258
9423.452660	5024.178333	1115.462891	133.224701
9423.452660	5024.178333	1114.324219	19.793142
9423.452660	5024.178333	1113.186523	95.088860
9423.452660	5024.178333	1112.046875	40.728428
9423.452660	5024.178333	1110.908203	114.874466
9423.452660	5024.178333	1109.769531	109.997131
9423.452660	5024.178333	1108.629883	58.801662
9423.452660	5024.178333	1107.490234	116.820755
9423.452660	5024.178333	1106.349609	44.044571
9423.452660	5024.178333	1105.209961	23.938969
9423.452660	5024.178333	1104.069336	91.164703
9423.452660	5024.178333	1102.928711	0.601917
9423.452660	5024.178333	1101.787109	33.768818
9423.452660	5024.178333	1100.646484	16.621782
9423.452660	5024.178333	1099.504883	123.690689
9423.452660	5024.178333	1098.363281	132.158661
9423.452660	5024.178333	1097.221680	109.826935
9423.452660	5024.178333	1096.079102	21.701017
9423.452660	5024.178333	1094.936523	40.620548
9423.452660	5024.178333	1093.793945	32.382618
9423.452660	5024.178333	1092.651367	39.376598
9423.452660	5024.178333	1091.507813	18.939526
9423.452660	5024.178333	1090.364258	129.729904
9423.452660	5024.178333	1089.220703	96.829254
9423.452660	5024.178333	1088.077148	46.087395
9423.452660	5024.178333	1086.933594	34.984047
9423.452660	5024.178333	1085.789063	67.133331
9423.452660	5024.178333	1084.644531	55.402020
9423.452660	5024.178333	1083.499023	-23.016905
9423.452660	5024.178333	1082.354492	-46.599064
9423.452660	5024.178333	1081.208984	10.402354
9423.452660	5024.178333	1080.063477	12.726949
9423.452660	5024.178333	1078.917969	-100.666069
9423.452660	5024.178333	1077.771484	-13.709717
9423.452660	5024.178333	1076.625977	17.626535
9423.452660	5024.178333	1075.479492	-66.952774
9423.452660	5024.178333	1074.332031	-33.476719
9423.452660	5024.178333	1073.185547	52.391155
9423.452660	5024.178333	1072.038086	91.827301
9423.452660	5024.178333	1070.890625	-19.891054
9423.452660	5024.178333	1069.743164	7.483889
9423.452660	5024.178333	1068.594727	-14.248976
9423.452660	5024.178333	1067.447266	46.660183
9423.452660	5024.178333	1066.298828	83.182457
9423.452660	5024.178333	1065.149414	95.986778
9423.452660	5024.178333	1064.000977	0.553708
9423.452660	5024.178333	1062.851563	5.472733
9423.452660	5024.178333	1061.702148	9.852913
9423.452660	5024.178333	1060.552734	-29.861420
9423.452660	5024.178333	1059.402344	-46.036919
9423.452660	5024.178333	1058.252930	197.870987
9423.452660	5024.178333	1057.102539	68.232040
9423.452660	5024.178333	1055.951172	5.402407
9423.452660	5024.178333	1054.800781	78.805855
9423.452660	5024.178333	1053.649414	-3.422296
9423.452660	5024.178333	1052.498047	89.202545
9423.452660	5024.178333	1051.346680	97.460411
9423.452660	5024.178333	1050.194336	140.680664
9423.452660	5024.178333	1049.042969	10.337893
9423.452660	5024.178333	1047.890625	80.393799
9423.452660	5024.178333	1046.738281	62.888664
9423.452660	5024.178333	1045.584961	96.939926
9423.452660	5024.178333	1044.431641	13.316869
9423.452660	5024.178333	1043.278320	162.483139
9423.452660	5024.178333	1042.125000	-3.617659
9423.452660	5024.178333	1040.971680	67.670013
9423.452660	5024.178333	1039.817383	92.434532
9423.452660	5024.178333	1038.663086	156.482803
9423.452660	5024.178333	1037.508789	100.494041
9423.452660	5024.178333	1036.353516	126.960670
9423.452660	5024.178333	1035.198242	39.190346
9423.452660	5024.178333	1034.042969	53.677227
9423.452660	5024.178333	1032.887695	105.541695
9423.452660	5024.178333	1031.732422	65.413658
9423.452660	5024.178333	1030.576172	71.176872
9423.452660	5024.178333	1029.419922	83.135849
9423.452660	5024.178333	1028.263672	67.616287
9423.452660	5024.178333	1027.106445	111.374268
9423.452660	5024.178333	1025.949219	141.846130
9423.452660	5024.178333	1024.792969	75.157974
9423.452660	5024.178333	1023.634766	93.475609
9423.452660	5024.178333	1022.477539	4.364461
9423.452660	5024.178333	1021.319336	-77.178757
9423.452660	5024.178333	1020.161133	46.287216
9423.452660	5024.178333	1019.002930	23.451864
9423.452660	5024.178333	1017.843750	-91.176086
9423.452660	5024.178333	1016.684570	61.664230
9423.452660	5024.178333	1015.525391	123.464539
9423.452660	5024.178333	1014.366211	64.735611
9423.452660	5024.178333	1013.207031	-64.514694
9423.452660	5024.178333	1012.046875	-5.264485
9423.452660	5024.178333	1010.886719	66.970749
9423.452660	5024.178333	1009.726563	56.109756
9423.452660	5024.178333	1008.565430	62.305519
9423.452660	5024.178333	1007.404297	4.508636
9423.452660	5024.178333	1006.243164	146.707916
9423.452660	5024.178333	1005.082031	-34.924984
9423.452660	5024.178333	1003.920898	41.548222
9423.452660	5024.178333	1002.758789	74.588371
9423.452660	5024.178333	1001.596680	9.289394
9423.452660	5024.178333	1000.433594	67.244934
9423.452660	5024.178333	999.271484	94.689682
9423.452660	5024.178333	998.108398	97.760864
9423.452660	5024.178333	996.945313	120.724770
9423.452660	5024.178333	995.782227	59.010880
9423.452660	5024.178333	994.618164	15.773884
9423.452660	5024.178333	993.454102	81.629204
9423.452660	5024.178333	992.290039	26.276112
9423.452660	5024.178333	991.125977	48.885303
9423.452660	5024.178333	989.960938	-112.681519
9423.452660	5024.178333	988.796875	124.788177
9423.452660	5024.178333	987.630859	-11.329107
9423.452660	5024.178333	986.465820	90.399315
9423.452660	5024.178333	985.300781	3.694506
9423.452660	5024.178333	984.134766	5.757033
9423.452660	5024.178333	982.968750	-23.478802
9423.452660	5024.178333	981.801758	28.812313
9423.452660	5024.178333	980.635742	96.159599
9423.452660	5024.178333	979.468750	111.962158
9423.452660	5024.178333	978.301758	-39.214588
9423.452660	5024.178333	977.133789	62.693672
9423.452660	5024.178333	975.966797	100.419807
9423.452660	5024.178333	974.798828	88.139496
9423.452660	5024.178333	973.630859	-15.738554
9423.452660	5024.178333	972.461914	27.082870
9423.452660	5024.178333	971.293945	-122.586693
9423.452660	5024.178333	970.125000	50.359348
9423.452660	5024.178333	968.956055	64.995468
9423.452660	5024.178333	967.786133	9.433325
9423.452660	5024.178333	966.617188	36.305237
9423.452660	5024.178333	965.447266	-16.444336
9423.452660	5024.178333	964.276367	-84.929352
9423.452660	5024.178333	963.106445	113.180260
9423.452660	5024.178333	961.935547	113.341164
9423.452660	5024.178333	960.764648	87.890549
9423.452660	5024.178333	959.593750	90.553322
9423.452660	5024.178333	958.422852	10.083703
9423.452660	5024.178333	957.250977	41.216141
9423.452660	5024.178333	956.079102	-34.563240
9423.452660	5024.178333	954.907227	-39.521465
9423.452660	5024.178333	953.734375	12.907207
9423.452660	5024.178333	952.562500	55.032627
9423.452660	5024.178333	951.389648	-50.754734
9423.452660	5024.178333	950.215820	-50.936752
9423.452660	5024.178333	949.042969	-66.076866
9423.452660	5024.178333	947.869141	51.457573
9423.452660	5024.178333	946.695313	43.518913
9423.452660	5024.178333	945.521484	95.904343
9423.452660	5024.178333	944.346680	12.920802
9423.452660	5024.178333	943.172852	30.263906
9423.452660	5024.178333	941.998047	-5.236927
9423.452660	5024.178333	940.822266	114.985748
9423.452660	5024.178333	939.647461	31.785982
9423.452660	5024.178333	938.471680	-26.273405
9423.452660	5024.178333	937.295898	-21.438936
9423.452660	5024.178333	936.119141	48.496727
9423.452660	5024.178333	934.943359	-47.225880
9423.452660	5024.178333	933.766602	42.801758
9423.452660	5024.178333	932.589844	57.498158
9423.452660	5024.178333	931.413086	132.423431
9423.452660	5024.178333	930.235352	26.598175
9423.452660	5024.178333	929.057617	-1.418491
9423.452660	5024.178333	927.879883	65.998016
9423.452660	5024.178333	926.702148	80.714203
9423.452660	5024.178333	925.523438	128.030441
9423.452660	5024.178333	924.344727	29.842049
9423.452660	5024.178333	923.166016	9.438880
9423.452660	5024.178333	921.987305	-53.583057
9423.452660	5024.178333	920.807617	-83.985901
9423.452660	5024.178333	919.627930	-83.689034
9423.452660	5024.178333	919.497070	98.732910
9423.452660	5024.178333	918.331055	146.003967
9423.452660	5024.178333	917.165039	52.934093
9423.452660	5024.178333	915.999023	20.027977
9423.452660	5024.178333	914.833008	-42.920868
9423.452660	5024.178333	913.666016	81.972878
9423.452660	5024.178333	912.499023	-31.036097
9423.452660	5024.178333	911.332031	81.289574
9423.452660	5024.178333	910.165039	48.413811
9423.452660	5024.178333	908.997070	58.089607
9423.452660	5024.178333	907.830078	95.280144
9423.452660	5024.178333	906.661133	29.909321
9423.452660	5024.178333	905.493164	19.579958
9423.452660	5024.178333	904.325195	6.755495
9423.452660	5024.178333	903.156250	81.424767
9423.452660	5024.178333	901.987305	21.111742
9423.452660	5024.178333	900.818359	143.223465
9423.452660	5024.178333	899.648438	-19.497829
9423.452660	5024.178333	898.478516	37.637371
9423.452660	5024.178333	897.308594	-30.104286
9423.452660	5024.178333	896.138672	129.371979
9423.452660	5024.178333	894.968750	124.043747
9423.452660	5024.178333	893.797852	-21.032263
9423.452660	5024.178333	892.626953	-41.294987
9423.452660	5024.178333	891.456055	98.103043
9423.452660	5024.178333	890.284180	-9.463843
9423.452660	5024.178333	889.113281	-19.737825
9423.452660	5024.178333	887.941406	77.194031
9423.452660	5024.178333	886.768555	134.208008
9423.452660	5024.178333	885.596680	-10.651979
9423.452660	5024.178333	884.423828	16.462336
9423.452660	5024.178333	883.250977	-78.490784
9423.452660	5024.178333	882.078125	55.720146
9423.452660	5024.178333	880.905273	-24.258825
9423.452660	5024.178333	879.731445	57.611679
9423.452660	5024.178333	878.557617	-27.308462
9423.452660	5024.178333	877.383789	47.067699
9423.452660	5024.178333	876.209961	-12.932153
9423.452660	5024.178333	875.035156	-0.770343
9423.452660	5024.178333	873.860352	-10.993258
9423.452660	5024.178333	872.685547	108.082733
9423.452660	5024.178333	871.510742	8.353912
9423.452660	5024.178333	870.334961	27.966846
9423.452660	5024.178333	869.159180	42.604385
9423.452660	5024.178333	867.983398	114.378380
9423.452660	5024.178333	866.807617	-22.518263
9423.452660	5024.178333	865.630859	56.694820
9423.452660	5024.178333	864.454102	153.257843
9423.452660	5024.178333	863.277344	-97.742256
9423.452660	5024.178333	862.100586	31.081278
9423.452660	5024.178333	860.922852	-26.243137
9423.452660	5024.178333	859.745117	-53.772182
9423.452660	5024.178333	858.567383	32.806183
9423.452660	5024.178333	857.389648	99.513474
9423.452660	5024.178333	856.210938	52.149590
9423.452660	5024.178333	855.032227	-44.767445
9423.452660	5024.178333	853.853516	-30.120426
9423.452660	5024.178333	852.674805	63.811378
9423.452660	5024.178333	851.495117	-85.062019
9423.452660	5024.178333	850.315430	48.476128
9423.452660	5024.178333	849.135742	-55.755329
9423.452660	5024.178333	847.956055	-21.301283
9423.452660	5024.178333	846.775391	-28.936525
9423.452660	5024.178333	845.595703	111.915428
9423.452660	5024.178333	844.415039	-61.509132
9423.452660	5024.178333	843.233398	39.719509
9423.452660	5024.178333	842.052734	88.972244
9423.452660	5024.178333	840.871094	-7.678916
9423.452660	5024.178333	839.689453	76.179497
9423.452660	5024.178333	838.506836	-37.724602
9423.452660	5024.178333	837.325195	4.102218
9423.452660	5024.178333	836.142578	-38.086147
9423.452660	5024.178333	834.959961	75.363274
9423.452660	5024.178333	833.777344	60.349171
9423.452660	5024.178333	832.593750	-73.172279
9423.452660	5024.178333	831.410156	55.035133
9423.452660	5024.178333	830.226563	54.852268
9423.452660	5024.178333	829.042969	91.686111
9423.452660	5024.178333	827.858398	15.023126
9423.452660	5024.178333	826.673828	71.588760
9423.452660	5024.178333	825.489258	39.356396
9423.452660	5024.178333	824.304688	-24.911764
9423.452660	5024.178333	823.120117	-2.874414
9423.452660	5024.178333	821.934570	137.454422
9423.452660	5024.178333	820.749023	60.894909
9423.452660	5024.178333	819.562500	-20.556721
9423.452660	5024.178333	818.376953	50.733734
9423.452660	5024.178333	817.190430	-10.976341
9423.452660	5024.178333	816.003906	1.201550
9423.452660	5024.178333	814.817383	77.375549
9423.452660	5024.178333	813.629883	-28.590183
9423.452660	5024.178333	812.442383	74.629616
9423.452660	5024.178333	811.254883	44.972668
9423.452660	5024.178333	810.067383	-24.020523
9423.452660	5024.178333	808.878906	32.423637
9423.452660	5024.178333	807.690430	-7.031226
9423.452660	5024.178333	806.501953	7.607045
9423.452660	5024.178333	805.313477	81.220016
9423.452660	5024.178333	804.124023	7.391346
9423.452660	5024.178333	802.934570	29.395477
9423.452660	5024.178333	801.745117	2.275349
9423.452660	5024.178333	800.555664	70.928879
9423.452660	5024.178333	799.365234	63.456085
9423.452660	5024.178333	798.175781	60.897312
9423.452660	5024.178333	796.985352	36.257801
9423.452660	5024.178333	795.793945	-57.062088
9423.452660	5024.178333	794.603516	102.300484
9423.452660	5024.178333	793.412109	18.819763
9423.452660	5024.178333	792.220703	8.930562
9423.452660	5024.178333	791.028320	-18.110849
9423.452660	5024.178333	789.836914	30.835697
9423.452660	5024.178333	788.644531	47.910709
9423.452660	5024.178333	787.452148	-47.709312
9423.452660	5024.178333	786.258789	-30.620142
9423.452660	5024.178333	785.066406	20.746342
9423.452660	5024.178333	783.873047	89.231827
9423.452660	5024.178333	782.679688	20.616814
9423.452660	5024.178333	781.485352	-72.439842
9423.452660	5024.178333	780.291992	-8.865152
9423.452660	5024.178333	779.097656	-84.749542
9423.452660	5024.178333	777.903320	-30.977337
9423.452660	5024.178333	776.708008	39.891342
9423.452660	5024.178333	775.512695	-38.395016
9423.452660	5024.178333	774.318359	8.006562
9423.452660	5024.178333	773.122070	7.961202
9423.452660	5024.178333	771.926758	115.417122
9423.452660	5024.178333	770.730469	188.632782
9423.452660	5024.178333	769.534180	-1.935081
9423.452660	5024.178333	768.337891	-11.739182
9423.452660	5024.178333	767.141602	56.578815
9423.452660	5024.178333	765.944336	146.835968
9423.452660	5024.178333	764.747070	129.690659
9423.452660	5024.178333	763.549805	134.510010
9423.452660	5024.178333	762.351563	51.520504
9423.452660	5024.178333	761.154297	-26.556986
9423.452660	5024.178333	759.956055	105.076775
9423.452660	5024.178333	758.757813	63.586758
9423.452660	5024.178333	757.558594	146.406708
9423.452660	5024.178333	756.359375	-82.689751
9423.452660	5024.178333	755.160156	146.291901
9423.452660	5024.178333	753.960938	14.714404
9423.452660	5024.178333	752.761719	129.133316
9423.452660	5024.178333	751.561523	56.044651
9423.452660	5024.178333	750.361328	24.365320
9423.452660	5024.178333	749.160156	75.440201
9423.452660	5024.178333	747.959961	24.305830
9423.452660	5024.178333	746.758789	-41.401897
9423.452660	5024.178333	745.557617	148.279327
9423.452660	5024.178333	744.356445	-19.550970
9423.452660	5024.178333	743.154297	33.910332
9423.452660	5024.178333	741.952148	63.043755
9423.452660	5024.178333	740.750000	97.024498
9423.452660	5024.178333	739.547852	-14.778390
9423.452660	5024.178333	738.344727	-17.230980
9423.452660	5024.178333	737.142578	14.314342
9423.452660	5024.178333	735.939453	106.545212
9423.452660	5024.178333	734.735352	14.250595
9423.452660	5024.178333	733.532227	-39.176048
9423.452660	5024.178333	732.328125	69.990021
9423.452660	5024.178333	731.124023	50.535088
9423.452660	5024.178333	729.918945	-12.570507
9423.452660	5024.178333	728.714844	1.945613
9423.452660	5024.178333	727.509766	55.244942
9423.452660	5024.178333	726.303711	84.281471
9423.452660	5024.178333	725.098633	-10.289355
9423.452660	5024.178333	723.892578	105.968842
9423.452660	5024.178333	722.686523	88.945618
9423.452660	5024.178333	721.480469	142.161362
9423.452660	5024.178333	720.274414	98.497826
9423.452660	5024.178333	719.067383	6.433610
9423.452660	5024.178333	717.860352	18.480354
9423.452660	5024.178333	716.653320	-0.938472
9423.452660	5024.178333	715.445313	95.776596
9423.452660	5024.178333	714.238281	88.438011
9423.452660	5024.178333	713.030273	90.773369
9423.452660	5024.178333	711.821289	-22.950106
9423.452660	5024.178333	710.613281	44.668415
9423.452660	5024.178333	709.404297	66.336510
9423.452660	5024.178333	708.195313	51.747448
9423.452660	5024.178333	706.986328	-124.696770
9423.452660	5024.178333	705.776367	39.484383
9423.452660	5024.178333	704.566406	27.314287
9423.452660	5024.178333	703.356445	44.116550
9423.452660	5024.178333	702.146484	12.632511
9423.452660	5024.178333	700.935547	-1.949537
9423.452660	5024.178333	699.724609	154.775620
9423.452660	5024.178333	698.513672	72.618416
9423.452660	5024.178333	697.302734	36.314072
9423.452660	5024.178333	696.090820	28.955420
9423.452660	5024.178333	694.878906	55.345139
9423.452660	5024.178333	693.666992	-2.638709
9423.452660	5024.178333	692.455078	38.194916
9423.452660	5024.178333	691.242188	81.415619
9423.452660	5024.178333	690.029297	139.065125
9423.452660	5024.178333	688.816406	78.683594
9423.452660	5024.178333	687.602539	8.691695
9423.452660	5024.178333	686.389648	92.782402
9423.452660	5024.178333	685.175781	-44.581505
9423.452660	5024.178333	683.960938	5.787836
9423.452660	5024.178333	682.747070	-54.530834
9423.452660	5024.178333	681.532227	-30.649708
9423.452660	5024.178333	680.317383	34.094311
9423.452660	5024.178333	679.102539	118.037521
9423.452660	5024.178333	677.886719	-4.773210
9423.452660	5024.178333	676.670898	-86.685524
9423.452660	5024.178333	675.455078	33.249916
9423.452660	5024.178333	674.239258	117.095993
9423.452660	5024.178333	673.022461	3.968386
9423.452660	5024.178333	671.805664	90.172554
9423.452660	5024.178333	670.588867	85.110733
9423.452660	5024.178333	669.372070	-6.359776
9423.452660	5024.178333	668.154297	-30.610619
9423.452660	5024.178333	666.936523	93.884155
9423.452660	5024.178333	665.718750	110.382736
9423.452660	5024.178333	664.500977	-2.629152
9423.452660	5024.178333	663.282227	200.876968
9423.452660	5024.178333	662.063477	37.539871
9423.452660	5024.178333	660.844727	-39.460629
9423.452660	5024.178333	659.625000	-34.971554
9423.452660	5024.178333	658.405273	38.977913
9423.452660	5024.178333	657.185547	12.296115
9423.452660	5024.178333	655.965820	-47.906216
9423.452660	5024.178333	654.745117	57.095406
9423.452660	5024.178333	653.525391	49.548470
9423.452660	5024.178333	652.303711	156.860733
9423.452660	5024.178333	651.083008	55.970440
9423.452660	5024.178333	649.861328	-1.830376
9423.452660	5024.178333	648.640625	21.694616
9423.452660	5024.178333	647.417969	76.283180
9423.452660	5024.178333	646.196289	44.781822
9423.452660	5024.178333	644.973633	3.724253
9423.452660	5024.178333	643.750977	-85.114906
9423.452660	5024.178333	642.528320	74.525490
9423.452660	5024.178333	641.305664	-14.310953
9423.452660	5024.178333	640.082031	78.364815
9423.452660	5024.178333	638.858398	34.906570
9423.452660	5024.178333	637.634766	-72.990959
9423.452660	5024.178333	636.410156	-92.555038
9423.452660	5024.178333	635.185547	69.209724
9423.452660	5024.178333	633.960938	23.363302
9423.452660	5024.178333	632.736328	80.077255
9423.452660	5024.178333	631.510742	136.756348
9423.452660	5024.178333	630.285156	31.295208
9423.452660	5024.178333	629.059570	-55.065044
9423.452660	5024.178333	627.833984	-17.489031
9423.452660	5024.178333	626.607422	-15.675760
9423.452660	5024.178333	625.380859	5.180795
9423.452660	5024.178333	624.154297	33.161377
9423.452660	5024.178333	622.927734	63.499561
9423.452660	5024.178333	621.700195	36.684788
9423.452660	5024.178333	620.472656	76.506287
9423.452660	5024.178333	619.245117	9.227900
9423.452660	5024.178333	618.016602	87.076851
9423.452660	5024.178333	616.788086	53.098736
9423.452660	5024.178333	615.559570	135.637741
9423.452660	5024.178333	614.331055	77.866676
9423.452660	5024.178333	613.101563	89.036644
9423.452660	5024.178333	611.872070	24.147392
9423.452660	5024.178333	610.642578	-78.739601
9423.452660	5024.178333	609.413086	27.433729
9423.452660	5024.178333	608.182617	128.800064
9423.452660	5024.178333	606.952148	16.423143
9423.452660	5024.178333	605.721680	6.155736
9423.452660	5024.178333	604.491211	40.973145
9423.452660	5024.178333	603.259766	16.443312
9423.452660	5024.178333	602.028320	6.145678
9423.452660	5024.178333	600.796875	69.365616
9423.452660	5024.178333	599.564453	37.694729
9423.452660	5024.178333	598.332031	-41.390778
9423.452660	5024.178333	597.099609	54.945503
9423.452660	5024.178333	595.867188	70.656433
9423.452660	5024.178333	594.633789	38.962254
9423.452660	5024.178333	593.400391	161.239120
9423.452660	5024.178333	592.166992	46.625202
9423.452660	5024.178333	590.933594	74.113174
9423.452660	5024.178333	589.699219	-61.763763
9423.452660	5024.178333	588.464844	69.847153
9423.452660	5024.178333	587.230469	49.950077
9423.452660	5024.178333	585.995117	148.335510
9423.452660	5024.178333	584.760742	36.160732
9423.452660	5024.178333	583.525391	120.293861
9423.452660	5024.178333	582.289063	-50.958237
9423.452660	5024.178333	581.053711	-23.596912
9423.452660	5024.178333	579.817383	-60.066841
9423.452660	5024.178333	578.581055	16.876434
9423.452660	5024.178333	577.343750	25.270203
9423.452660	5024.178333	576.107422	-1.777424
9423.452660	5024.178333	574.870117	-61.883064
9423.452660	5024.178333	573.631836	97.569016
9423.452660	5024.178333	572.394531	32.722622
9423.452660	5024.178333	571.156250	55.199631
9423.452660	5024.178333	569.917969	94.169144
9423.452660	5024.178333	568.679688	48.197121
9423.452660	5024.178333	567.440430	54.112057
9423.452660	5024.178333	566.202148	126.027611
9423.452660	5024.178333	564.961914	23.468449
9423.452660	5024.178333	563.722656	5.781595
9423.452660	5024.178333	562.482422	51.706474
9423.452660	5024.178333	561.243164	69.331924
9423.452660	5024.178333	560.001953	105.778214
9423.452660	5024.178333	558.761719	24.465006
9423.452660	5024.178333	557.520508	-61.534359
9423.452660	5024.178333	556.279297	14.893204
9423.452660	5024.178333	555.038086	-0.496366
9423.452660	5024.178333	553.795898	-18.244274
9423.452660	5024.178333	552.554688	-54.812565
9423.452660	5024.178333	551.311523	89.698166
9423.452660	5024.178333	550.069336	-12.732897
9423.452660	5024.178333	548.826172	63.515827
9423.452660	5024.178333	547.583984	99.768997
9423.452660	5024.178333	546.339844	107.798965
9423.452660	5024.178333	545.096680	-8.688398
9423.452660	5024.178333	543.852539	-68.770554
9423.452660	5024.178333	542.608398	-32.565491
9423.452660	5024.178333	541.364258	10.656385
9423.452660	5024.178333	540.119141	23.335741
9423.452660	5024.178333	538.875000	-50.824703
9423.452660	5024.178333	537.628906	-42.851578
9423.452660	5024.178333	536.383789	28.439680
9423.452660	5024.178333	535.137695	5.885342
9423.452660	5024.178333	533.892578	-33.080845
9423.452660	5024.178333	532.645508	47.506840
9423.452660	5024.178333	531.399414	-19.595655
9423.452660	5024.178333	530.152344	-51.533558
9423.452660	5024.178333	528.905273	0.865535
9423.452660	5024.178333	527.658203	-5.319397
9423.452660	5024.178333	526.410156	75.126419
9423.452660	5024.178333	525.163086	-1.323365
9423.452660	5024.178333	523.914063	13.531703
9423.452660	5024.178333	522.666016	49.432346
9423.452660	5024.178333	521.416992	19.799656
9423.452660	5024.178333	520.167969	-7.489806
9423.452660	5024.178333	518.918945	-37.115108
9423.452660	5024.178333	517.669922	-52.708195
9423.452660	5024.178333	516.419922	-19.214745
9423.452660	5024.178333	515.169922	-20.800156
9423.452660	5024.178333	513.919922	0.972229
9423.452660	5024.178333	512.668945	50.759262
9423.452660	5024.178333	511.417969	-46.623241
9423.452660	5024.178333	510.166992	-15.544044
9423.452660	5024.178333	508.916016	-21.838703
9423.452660	5024.178333	507.664063	-77.153854
9423.452660	5024.178333	506.412109	-123.118973
9423.452660	5024.178333	505.160156	-22.089642
9423.452660	5024.178333	503.907227	104.545792
9423.452660	5024.178333	502.655273	98.194305
9423.452660	5024.178333	501.402344	14.896925
9423.452660	5024.178333	500.148438	-38.069134
9423.452660	5024.178333	498.895508	16.186533
9423.452660	5024.178333	497.641602	51.771080
9423.452660	5024.178333	496.387695	-61.756458
9423.452660	5024.178333	495.132813	32.041451
9423.452660	5024.178333	493.878906	109.493721
9423.452660	5024.178333	492.624023	-3.992733
9423.452660	5024.178333	491.368164	-5.715663
9423.452660	5024.178333	490.113281	18.153866
9423.452660	5024.178333	488.857422	130.414581
9423.452660	5024.178333	487.601563	26.300814
9423.452660	5024.178333	486.344727	-14.985292
9423.452660	5024.178333	485.088867	-28.358440
9423.452660	5024.178333	483.832031	2.433904
9423.452660	5024.178333	482.575195	23.911732
9423.452660	5024.178333	481.317383	12.844526
9423.452660	5024.178333	480.059570	11.068925
9423.452660	5024.178333	478.801758	-48.773880
9423.452660	5024.178333	477.543945	-78.409645
9423.452660	5024.178333	476.285156	1.072437
9423.452660	5024.178333	475.027344	50.343136
9423.452660	5024.178333	473.767578	-14.119439
9423.452660	5024.178333	472.508789	14.242599
9423.452660	5024.178333	471.249023	-43.235573
9423.452660	5024.178333	469.989258	31.490179
9423.452660	5024.178333	468.729492	57.489956
9423.452660	5024.178333	467.469727	-18.518688
9423.452660	5024.178333	466.208984	56.138153
9423.452660	5024.178333	464.948242	-49.969028
9423.452660	5024.178333	463.686523	-65.691986
9423.452660	5024.178333	462.425781	110.816803
9423.452660	5024.178333	461.164063	74.216866
9423.452660	5024.178333	459.901367	176.527435
9423.452660	5024.178333	458.639648	112.145111
9423.452660	5024.178333	457.376953	-33.205460
9423.452660	5024.178333	456.114258	29.717552
9423.452660	5024.178333	454.851563	-13.790025
9423.452660	5024.178333	453.587891	-24.909878
9423.452660	5024.178333	452.324219	-3.661926
9423.452660	5024.178333	451.060547	-7.855114
9423.452660	5024.178333	449.796875	87.321228
9423.452660	5024.178333	448.532227	13.782751
9423.452660	5024.178333	447.267578	34.980701
9423.452660	5024.178333	446.002930	125.448845
9423.452660	5024.178333	444.737305	158.145508
9423.452660	5024.178333	443.471680	56.927914
9423.452660	5024.178333	442.206055	52.684261
9423.452660	5024.178333	440.940430	152.273468
9423.452660	5024.178333	439.673828	108.777069
9423.452660	5024.178333	438.407227	176.004608
9423.452660	5024.178333	437.140625	40.266121
9423.452660	5024.178333	435.873047	204.294678
9423.452660	5024.178333	434.605469	10.966453
9423.452660	5024.178333	433.337891	-7.143462
9423.452660	5024.178333	432.070313	78.426498
9423.452660	5024.178333	430.801758	-68.706177
9423.452660	5024.178333	429.533203	3.001863
9423.452660	5024.178333	428.264648	35.526020
9423.452660	5024.178333	426.996094	49.609264
9423.452660	5024.178333	425.726563	59.071121
9423.452660	5024.178333	424.457031	22.497103
9423.452660	5024.178333	423.186523	126.257690
9423.452660	5024.178333	421.916992	121.860588
9423.452660	5024.178333	420.646484	4.774027
9423.452660	5024.178333	419.375977	83.142281
9423.452660	5024.178333	418.104492	-6.332027
9423.452660	5024.178333	416.833008	28.311258
9423.452660	5024.178333	415.561523	60.626396
9423.452660	5024.178333	414.290039	63.049202
9423.452660	5024.178333	413.017578	19.522121
9423.452660	5024.178333	411.746094	-76.811951
9423.452660	5024.178333	410.472656	51.837597
9423.452660	5024.178333	409.200195	120.741997
9423.452660	5024.178333	407.926758	150.587219
9423.452660	5024.178333	406.653320	-51.300777
9423.452660	5024.178333	405.379883	22.102468
9423.452660	5024.178333	404.105469	49.587936
9423.452660	5024.178333	402.831055	106.840416
9423.452660	5024.178333	401.556641	15.058822
9423.452660	5024.178333	400.282227	24.119263
9423.452660	5024.178333	399.006836	111.042465
9423.452660	5024.178333	397.731445	49.012653
9423.452660	5024.178333	396.456055	-65.692085
9423.452660	5024.178333	395.179688	55.445614
9423.452660	5024.178333	393.903320	-6.627645
9423.452660	5024.178333	392.626953	80.049210
9423.452660	5024.178333	391.350586	40.808773
9423.452660	5024.178333	390.073242	6.121979
9423.452660	5024.178333	388.795898	131.507614
9423.452660	5024.178333	387.518555	0.700981
9423.452660	5024.178333	386.240234	2.501126
9423.452660	5024.178333	384.961914	15.685079
9423.452660	5024.178333	383.683594	95.086121
9423.452660	5024.178333	382.405273	39.614388
9423.452660	5024.178333	381.125977	93.753403
9423.452660	5024.178333	379.846680	40.489098
9423.452660	5024.178333	378.567383	67.103981
9423.452660	5024.178333	377.287109	-45.588127
9423.452660	5024.178333	376.006836	76.769951
9423.452660	5024.178333	374.726563	41.584602
9423.452660	5024.178333	373.446289	6.353681
9423.452660	5024.178333	372.165039	-76.819885
9423.452660	5024.178333	370.883789	33.787716
9423.452660	5024.178333	369.602539	66.772308
9423.452660	5024.178333	368.320313	15.342162
9423.452660	5024.178333	367.039063	111.975021
9423.452660	5024.178333	365.755859	30.791182
9423.452660	5024.178333	364.473633	15.618325
9423.452660	5024.178333	363.190430	-140.814117
9423.452660	5024.178333	361.907227	-8.127194
9423.452660	5024.178333	360.624023	15.159915
9423.452660	5024.178333	359.340820	-2.614391
9423.452660	5024.178333	358.056641	43.228519
9423.452660	5024.178333	356.772461	2.517988
9423.452660	5024.178333	355.487305	4.933064
9423.452660	5024.178333	354.202148	25.433912
9423.452660	5024.178333	352.916992	13.995729
9423.452660	5024.178333	351.631836	-11.182743
9423.452660	5024.178333	350.346680	-16.013201
9423.452660	5024.178333	349.060547	60.819775
9423.452660	5024.178333	347.774414	12.583174
9423.452660	5024.178333	346.487305	-31.218750
9423.452660	5024.178333	345.200195	45.191723
9423.452660	5024.178333	343.913086	32.917561
9423.452660	5024.178333	342.625977	-117.910049
9423.452660	5024.178333	341.338867	-19.252298
9423.452660	5024.178333	340.050781	76.945076
9423.452660	5024.178333	338.762695	45.958076
9423.452660	5024.178333	337.473633	-14.648013
9423.452660	5024.178333	336.184570	-68.586212
9423.452660	5024.178333	334.895508	24.641705
9423.452660	5024.178333	333.606445	33.827312
9423.452660	5024.178333	332.317383	-2.469857
9423.452660	5024.178333	331.027344	-2.698654
9423.452660	5024.178333	329.736328	-28.023338
9423.452660	5024.178333	328.446289	-85.214523
9423.452660	5024.178333	327.155273	38.481564
9423.452660	5024.178333	325.864258	-16.837740
9423.452660	5024.178333	324.573242	-15.782340
9423.452660	5024.178333	323.281250	-42.087158
9423.452660	5024.178333	321.989258	15.068829
9423.452660	5024.178333	320.697266	-52.370003
9423.452660	5024.178333	319.405273	-20.556818
9423.452660	5024.178333	318.112305	-104.252922
9423.452660	5024.178333	316.819336	76.185081
9423.452660	5024.178333	315.526367	-41.874435
9423.452660	5024.178333	314.232422	-8.838552
9423.452660	5024.178333	312.938477	26.174984
9423.452660	5024.178333	311.644531	20.267740
9423.452660	5024.178333	310.349609	106.606758
9423.452660	5024.178333	309.054688	52.724300
9423.452660	5024.178333	307.759766	48.199005
9423.452660	5024.178333	306.464844	81.713348
9423.452660	5024.178333	305.168945	-38.439991
9423.452660	5024.178333	303.873047	-30.360365
9423.452660	5024.178333	302.577148	6.687407
9423.452660	5024.178333	301.281250	95.210320
9423.452660	5024.178333	299.984375	165.315536
