#X		#Y		#Wave		#Intensity
-15329.368085	5239.953333	1999.946289	78.843933
-15329.368085	5239.953333	1998.981445	163.512909
-15329.368085	5239.953333	1998.017578	-90.790535
-15329.368085	5239.953333	1997.052734	86.113869
-15329.368085	5239.953333	1996.088867	215.801773
-15329.368085	5239.953333	1995.124023	18.377804
-15329.368085	5239.953333	1994.159180	6.712683
-15329.368085	5239.953333	1993.193359	108.891014
-15329.368085	5239.953333	1992.228516	-155.453598
-15329.368085	5239.953333	1991.262695	-75.688980
-15329.368085	5239.953333	1990.296875	90.606430
-15329.368085	5239.953333	1989.331055	21.710472
-15329.368085	5239.953333	1988.365234	-208.023865
-15329.368085	5239.953333	1987.398438	-59.278301
-15329.368085	5239.953333	1986.432617	39.899536
-15329.368085	5239.953333	1985.465820	129.101746
-15329.368085	5239.953333	1984.499023	213.278244
-15329.368085	5239.953333	1983.532227	-80.787590
-15329.368085	5239.953333	1982.565430	198.537186
-15329.368085	5239.953333	1981.597656	326.998993
-15329.368085	5239.953333	1980.629883	57.656166
-15329.368085	5239.953333	1979.662109	186.021347
-15329.368085	5239.953333	1978.694336	94.528069
-15329.368085	5239.953333	1977.726563	212.895966
-15329.368085	5239.953333	1976.758789	-68.705208
-15329.368085	5239.953333	1975.790039	-86.154495
-15329.368085	5239.953333	1974.821289	32.090706
-15329.368085	5239.953333	1973.852539	-66.840019
-15329.368085	5239.953333	1972.883789	196.839142
-15329.368085	5239.953333	1971.915039	117.596527
-15329.368085	5239.953333	1970.945313	6.306685
-15329.368085	5239.953333	1969.975586	-139.476166
-15329.368085	5239.953333	1969.005859	52.455498
-15329.368085	5239.953333	1968.036133	143.260284
-15329.368085	5239.953333	1967.066406	128.067490
-15329.368085	5239.953333	1966.096680	-17.695780
-15329.368085	5239.953333	1965.125977	309.471619
-15329.368085	5239.953333	1964.155273	109.526100
-15329.368085	5239.953333	1963.184570	-114.976418
-15329.368085	5239.953333	1962.213867	-105.553329
-15329.368085	5239.953333	1961.242188	255.801193
-15329.368085	5239.953333	1960.271484	132.258514
-15329.368085	5239.953333	1959.299805	77.640617
-15329.368085	5239.953333	1958.328125	91.910614
-15329.368085	5239.953333	1957.356445	116.008934
-15329.368085	5239.953333	1956.384766	41.739258
-15329.368085	5239.953333	1955.412109	55.995861
-15329.368085	5239.953333	1954.439453	11.255401
-15329.368085	5239.953333	1953.467773	10.766000
-15329.368085	5239.953333	1952.495117	103.642319
-15329.368085	5239.953333	1951.521484	186.657608
-15329.368085	5239.953333	1950.548828	78.066910
-15329.368085	5239.953333	1949.575195	6.352980
-15329.368085	5239.953333	1948.601563	-8.862210
-15329.368085	5239.953333	1947.627930	86.395630
-15329.368085	5239.953333	1946.654297	397.598816
-15329.368085	5239.953333	1945.680664	-5.374166
-15329.368085	5239.953333	1944.706055	45.681221
-15329.368085	5239.953333	1943.732422	172.764862
-15329.368085	5239.953333	1942.757813	-92.586929
-15329.368085	5239.953333	1941.783203	-171.481903
-15329.368085	5239.953333	1940.807617	2.169134
-15329.368085	5239.953333	1939.833008	21.344414
-15329.368085	5239.953333	1938.857422	104.236458
-15329.368085	5239.953333	1937.881836	145.453201
-15329.368085	5239.953333	1936.906250	-144.049927
-15329.368085	5239.953333	1935.930664	105.403168
-15329.368085	5239.953333	1934.955078	117.237602
-15329.368085	5239.953333	1933.978516	26.245554
-15329.368085	5239.953333	1933.001953	-20.640985
-15329.368085	5239.953333	1932.025391	179.692474
-15329.368085	5239.953333	1931.048828	-202.421844
-15329.368085	5239.953333	1930.072266	-75.504272
-15329.368085	5239.953333	1929.094727	48.929722
-15329.368085	5239.953333	1928.118164	75.503357
-15329.368085	5239.953333	1927.140625	177.877869
-15329.368085	5239.953333	1926.163086	57.757458
-15329.368085	5239.953333	1925.184570	-108.749367
-15329.368085	5239.953333	1924.207031	-3.920925
-15329.368085	5239.953333	1923.228516	42.238987
-15329.368085	5239.953333	1922.250000	81.064331
-15329.368085	5239.953333	1921.271484	36.843197
-15329.368085	5239.953333	1920.292969	21.954458
-15329.368085	5239.953333	1919.314453	124.275032
-15329.368085	5239.953333	1918.334961	116.720001
-15329.368085	5239.953333	1917.355469	255.614410
-15329.368085	5239.953333	1916.375977	72.369286
-15329.368085	5239.953333	1915.396484	-149.832870
-15329.368085	5239.953333	1914.416992	52.487320
-15329.368085	5239.953333	1913.436523	-33.034382
-15329.368085	5239.953333	1912.457031	52.168911
-15329.368085	5239.953333	1911.476563	-21.110624
-15329.368085	5239.953333	1910.496094	-99.228821
-15329.368085	5239.953333	1909.515625	-16.467131
-15329.368085	5239.953333	1908.534180	-4.386095
-15329.368085	5239.953333	1907.552734	58.856621
-15329.368085	5239.953333	1906.572266	80.680443
-15329.368085	5239.953333	1905.590820	238.872711
-15329.368085	5239.953333	1904.608398	-102.098083
-15329.368085	5239.953333	1903.626953	14.704759
-15329.368085	5239.953333	1902.644531	126.603752
-15329.368085	5239.953333	1901.663086	68.136101
-15329.368085	5239.953333	1900.680664	172.700516
-15329.368085	5239.953333	1899.698242	-138.711456
-15329.368085	5239.953333	1898.714844	55.848408
-15329.368085	5239.953333	1897.732422	-87.637466
-15329.368085	5239.953333	1896.749023	-46.303577
-15329.368085	5239.953333	1895.765625	92.243912
-15329.368085	5239.953333	1894.782227	126.249741
-15329.368085	5239.953333	1893.798828	-14.690797
-15329.368085	5239.953333	1892.814453	-170.149033
-15329.368085	5239.953333	1891.831055	-89.953224
-15329.368085	5239.953333	1890.846680	-21.925354
-15329.368085	5239.953333	1889.862305	65.503128
-15329.368085	5239.953333	1888.877930	33.957760
-15329.368085	5239.953333	1887.892578	26.696281
-15329.368085	5239.953333	1886.908203	97.088585
-15329.368085	5239.953333	1885.922852	38.874229
-15329.368085	5239.953333	1884.937500	-53.274792
-15329.368085	5239.953333	1883.952148	89.849060
-15329.368085	5239.953333	1882.965820	162.604080
-15329.368085	5239.953333	1881.980469	2.605241
-15329.368085	5239.953333	1880.994141	-99.164780
-15329.368085	5239.953333	1880.007813	-234.825027
-15329.368085	5239.953333	1879.021484	-128.148453
-15329.368085	5239.953333	1878.035156	-103.875832
-15329.368085	5239.953333	1877.047852	36.638237
-15329.368085	5239.953333	1876.061523	169.832886
-15329.368085	5239.953333	1875.074219	-140.081680
-15329.368085	5239.953333	1874.086914	-40.802673
-15329.368085	5239.953333	1873.098633	92.317207
-15329.368085	5239.953333	1872.111328	-9.329752
-15329.368085	5239.953333	1871.123047	-23.851772
-15329.368085	5239.953333	1870.135742	104.333878
-15329.368085	5239.953333	1869.147461	172.005676
-15329.368085	5239.953333	1868.158203	51.048790
-15329.368085	5239.953333	1867.169922	-72.288002
-15329.368085	5239.953333	1866.180664	84.781525
-15329.368085	5239.953333	1865.192383	75.042320
-15329.368085	5239.953333	1864.203125	-79.666687
-15329.368085	5239.953333	1863.213867	60.376278
-15329.368085	5239.953333	1862.223633	272.809601
-15329.368085	5239.953333	1861.234375	-34.010410
-15329.368085	5239.953333	1860.244141	50.382023
-15329.368085	5239.953333	1859.253906	88.866928
-15329.368085	5239.953333	1858.263672	18.723034
-15329.368085	5239.953333	1857.273438	218.836487
-15329.368085	5239.953333	1856.282227	148.665924
-15329.368085	5239.953333	1855.291992	-201.283813
-15329.368085	5239.953333	1854.300781	-42.284351
-15329.368085	5239.953333	1853.309570	-184.746643
-15329.368085	5239.953333	1852.317383	176.649216
-15329.368085	5239.953333	1851.326172	255.902359
-15329.368085	5239.953333	1850.333984	166.424576
-15329.368085	5239.953333	1849.342773	166.106689
-15329.368085	5239.953333	1848.350586	88.686607
-15329.368085	5239.953333	1847.357422	-41.709332
-15329.368085	5239.953333	1846.365234	-5.929470
-15329.368085	5239.953333	1845.372070	111.668297
-15329.368085	5239.953333	1844.379883	-25.941055
-15329.368085	5239.953333	1843.386719	118.044662
-15329.368085	5239.953333	1842.393555	-79.713005
-15329.368085	5239.953333	1841.399414	8.852694
-15329.368085	5239.953333	1840.406250	30.016726
-15329.368085	5239.953333	1839.412109	-25.805607
-15329.368085	5239.953333	1838.417969	122.733856
-15329.368085	5239.953333	1837.423828	-74.961136
-15329.368085	5239.953333	1836.429688	-138.018066
-15329.368085	5239.953333	1835.434570	75.258591
-15329.368085	5239.953333	1834.440430	9.740792
-15329.368085	5239.953333	1833.445313	-7.740424
-15329.368085	5239.953333	1832.450195	-70.873840
-15329.368085	5239.953333	1831.454102	74.885590
-15329.368085	5239.953333	1830.458984	90.924683
-15329.368085	5239.953333	1829.462891	13.318437
-15329.368085	5239.953333	1828.466797	26.901611
-15329.368085	5239.953333	1827.470703	54.845581
-15329.368085	5239.953333	1826.474609	1.184994
-15329.368085	5239.953333	1825.478516	189.753342
-15329.368085	5239.953333	1824.481445	40.103313
-15329.368085	5239.953333	1823.484375	12.750509
-15329.368085	5239.953333	1822.487305	14.138783
-15329.368085	5239.953333	1821.490234	-75.578049
-15329.368085	5239.953333	1820.493164	-95.807686
-15329.368085	5239.953333	1819.495117	-29.820820
-15329.368085	5239.953333	1818.498047	-18.983753
-15329.368085	5239.953333	1817.500000	-29.741720
-15329.368085	5239.953333	1816.500977	-47.716373
-15329.368085	5239.953333	1815.502930	25.248671
-15329.368085	5239.953333	1814.504883	76.607285
-15329.368085	5239.953333	1813.505859	56.116920
-15329.368085	5239.953333	1812.506836	-14.646829
-15329.368085	5239.953333	1811.507813	-42.365051
-15329.368085	5239.953333	1810.508789	-7.929769
-15329.368085	5239.953333	1809.508789	-117.020180
-15329.368085	5239.953333	1808.508789	51.214870
-15329.368085	5239.953333	1807.508789	102.222244
-15329.368085	5239.953333	1806.508789	-179.016037
-15329.368085	5239.953333	1805.508789	-20.544292
-15329.368085	5239.953333	1804.508789	101.990593
-15329.368085	5239.953333	1803.507813	50.077209
-15329.368085	5239.953333	1802.506836	-25.738697
-15329.368085	5239.953333	1801.505859	75.109901
-15329.368085	5239.953333	1800.504883	8.779864
-15329.368085	5239.953333	1799.502930	28.347528
-15329.368085	5239.953333	1798.501953	59.797825
-15329.368085	5239.953333	1797.500000	110.274940
-15329.368085	5239.953333	1796.498047	117.752655
-15329.368085	5239.953333	1795.496094	-22.678543
-15329.368085	5239.953333	1794.493164	289.931519
-15329.368085	5239.953333	1793.491211	-62.743263
-15329.368085	5239.953333	1792.488281	68.518021
-15329.368085	5239.953333	1791.485352	94.829063
-15329.368085	5239.953333	1790.482422	35.308704
-15329.368085	5239.953333	1789.478516	135.364960
-15329.368085	5239.953333	1788.475586	252.011017
-15329.368085	5239.953333	1787.471680	35.187157
-15329.368085	5239.953333	1786.467773	-31.611834
-15329.368085	5239.953333	1785.463867	-43.686989
-15329.368085	5239.953333	1784.459961	-48.666473
-15329.368085	5239.953333	1783.455078	24.826225
-15329.368085	5239.953333	1782.450195	148.200180
-15329.368085	5239.953333	1781.445313	78.815498
-15329.368085	5239.953333	1780.440430	173.496216
-15329.368085	5239.953333	1779.435547	-38.624096
-15329.368085	5239.953333	1778.429688	10.772297
-15329.368085	5239.953333	1777.424805	83.870598
-15329.368085	5239.953333	1776.418945	-125.890839
-15329.368085	5239.953333	1775.413086	11.248021
-15329.368085	5239.953333	1774.406250	29.511974
-15329.368085	5239.953333	1773.400391	21.596395
-15329.368085	5239.953333	1772.393555	122.854340
-15329.368085	5239.953333	1771.386719	5.612454
-15329.368085	5239.953333	1770.379883	149.455566
-15329.368085	5239.953333	1769.373047	8.417749
-15329.368085	5239.953333	1768.365234	128.371979
-15329.368085	5239.953333	1767.358398	63.198833
-15329.368085	5239.953333	1766.350586	2.737165
-15329.368085	5239.953333	1765.342773	46.584469
-15329.368085	5239.953333	1764.334961	-47.148991
-15329.368085	5239.953333	1763.326172	86.657631
-15329.368085	5239.953333	1762.318359	-23.742498
-15329.368085	5239.953333	1761.309570	112.272224
-15329.368085	5239.953333	1760.300781	79.978294
-15329.368085	5239.953333	1759.291016	23.952436
-15329.368085	5239.953333	1758.282227	41.312508
-15329.368085	5239.953333	1757.272461	134.376038
-15329.368085	5239.953333	1756.262695	47.437332
-15329.368085	5239.953333	1755.252930	190.059845
-15329.368085	5239.953333	1754.243164	245.018982
-15329.368085	5239.953333	1753.233398	160.314728
-15329.368085	5239.953333	1752.222656	-9.572165
-15329.368085	5239.953333	1751.211914	40.498585
-15329.368085	5239.953333	1750.201172	151.975250
-15329.368085	5239.953333	1749.190430	237.350052
-15329.368085	5239.953333	1748.179688	57.909184
-15329.368085	5239.953333	1747.167969	58.082378
-15329.368085	5239.953333	1746.156250	32.211388
-15329.368085	5239.953333	1745.144531	-201.586517
-15329.368085	5239.953333	1744.132813	18.129147
-15329.368085	5239.953333	1743.121094	88.937584
-15329.368085	5239.953333	1742.108398	1.477320
-15329.368085	5239.953333	1741.095703	57.986870
-15329.368085	5239.953333	1740.083008	-81.462364
-15329.368085	5239.953333	1739.070313	71.679543
-15329.368085	5239.953333	1738.057617	26.540638
-15329.368085	5239.953333	1737.043945	127.601044
-15329.368085	5239.953333	1736.030273	-61.496132
-15329.368085	5239.953333	1735.016602	46.509991
-15329.368085	5239.953333	1734.002930	-10.593312
-15329.368085	5239.953333	1732.989258	226.886505
-15329.368085	5239.953333	1731.974609	-110.758156
-15329.368085	5239.953333	1730.959961	-123.196388
-15329.368085	5239.953333	1729.945313	-114.482704
-15329.368085	5239.953333	1728.930664	228.600861
-15329.368085	5239.953333	1727.916016	-64.256027
-15329.368085	5239.953333	1726.900391	-53.365643
-15329.368085	5239.953333	1725.885742	-54.293293
-15329.368085	5239.953333	1724.870117	-276.488953
-15329.368085	5239.953333	1723.853516	-53.966183
-15329.368085	5239.953333	1722.837891	109.615273
-15329.368085	5239.953333	1721.822266	-49.133087
-15329.368085	5239.953333	1720.805664	-36.218082
-15329.368085	5239.953333	1719.789063	141.215195
-15329.368085	5239.953333	1718.772461	102.275414
-15329.368085	5239.953333	1717.754883	-51.863712
-15329.368085	5239.953333	1716.738281	97.125984
-15329.368085	5239.953333	1715.720703	182.572098
-15329.368085	5239.953333	1714.703125	30.707741
-15329.368085	5239.953333	1713.685547	-45.999992
-15329.368085	5239.953333	1712.667969	-176.728516
-15329.368085	5239.953333	1711.649414	11.792332
-15329.368085	5239.953333	1710.630859	24.167948
-15329.368085	5239.953333	1709.612305	-15.133564
-15329.368085	5239.953333	1708.593750	128.529739
-15329.368085	5239.953333	1707.575195	72.708977
-15329.368085	5239.953333	1706.555664	87.213211
-15329.368085	5239.953333	1705.536133	235.317032
-15329.368085	5239.953333	1704.516602	-71.478226
-15329.368085	5239.953333	1703.497070	15.567066
-15329.368085	5239.953333	1702.477539	238.451340
-15329.368085	5239.953333	1701.457031	32.436611
-15329.368085	5239.953333	1700.437500	49.000942
-15329.368085	5239.953333	1699.416992	-70.331062
-15329.368085	5239.953333	1698.395508	7.027806
-15329.368085	5239.953333	1697.375000	2.379099
-15329.368085	5239.953333	1696.354492	-39.762280
-15329.368085	5239.953333	1695.333008	-112.361061
-15329.368085	5239.953333	1694.311523	25.609787
-15329.368085	5239.953333	1693.290039	25.462229
-15329.368085	5239.953333	1692.267578	191.329086
-15329.368085	5239.953333	1691.246094	130.268280
-15329.368085	5239.953333	1690.223633	69.182686
-15329.368085	5239.953333	1689.201172	265.211853
-15329.368085	5239.953333	1688.178711	157.301590
-15329.368085	5239.953333	1687.155273	142.852127
-15329.368085	5239.953333	1686.132813	191.453979
-15329.368085	5239.953333	1685.109375	232.985321
-15329.368085	5239.953333	1684.085938	85.301720
-15329.368085	5239.953333	1683.062500	133.764999
-15329.368085	5239.953333	1682.039063	172.836594
-15329.368085	5239.953333	1681.014648	256.192993
-15329.368085	5239.953333	1679.990234	414.154724
-15329.368085	5239.953333	1678.965820	476.362976
-15329.368085	5239.953333	1677.941406	190.953018
-15329.368085	5239.953333	1676.916992	351.062103
-15329.368085	5239.953333	1675.891602	375.828461
-15329.368085	5239.953333	1674.866211	435.520142
-15329.368085	5239.953333	1673.840820	425.231415
-15329.368085	5239.953333	1672.815430	184.207962
-15329.368085	5239.953333	1671.790039	327.681763
-15329.368085	5239.953333	1670.763672	247.431610
-15329.368085	5239.953333	1669.737305	278.973724
-15329.368085	5239.953333	1668.710938	373.345764
-15329.368085	5239.953333	1667.684570	465.322723
-15329.368085	5239.953333	1666.658203	156.874893
-15329.368085	5239.953333	1665.630859	509.441132
-15329.368085	5239.953333	1664.603516	566.343445
-15329.368085	5239.953333	1663.576172	532.468201
-15329.368085	5239.953333	1662.548828	372.981964
-15329.368085	5239.953333	1661.520508	511.177979
-15329.368085	5239.953333	1660.493164	481.903198
-15329.368085	5239.953333	1659.464844	424.712250
-15329.368085	5239.953333	1658.436523	420.973206
-15329.368085	5239.953333	1657.408203	700.693542
-15329.368085	5239.953333	1656.378906	499.375366
-15329.368085	5239.953333	1655.350586	476.971313
-15329.368085	5239.953333	1654.321289	566.014404
-15329.368085	5239.953333	1653.291992	527.299500
-15329.368085	5239.953333	1652.261719	683.567078
-15329.368085	5239.953333	1651.232422	735.320618
-15329.368085	5239.953333	1650.202148	745.256165
-15329.368085	5239.953333	1649.171875	634.526062
-15329.368085	5239.953333	1648.141602	669.955200
-15329.368085	5239.953333	1647.111328	767.969055
-15329.368085	5239.953333	1646.080078	647.961304
-15329.368085	5239.953333	1645.049805	845.591797
-15329.368085	5239.953333	1644.018555	802.070129
-15329.368085	5239.953333	1642.987305	712.203125
-15329.368085	5239.953333	1641.955078	826.233948
-15329.368085	5239.953333	1640.923828	921.683105
-15329.368085	5239.953333	1639.891602	922.118347
-15329.368085	5239.953333	1638.859375	1151.778320
-15329.368085	5239.953333	1637.827148	1221.596069
-15329.368085	5239.953333	1636.794922	1052.965088
-15329.368085	5239.953333	1635.761719	870.495728
-15329.368085	5239.953333	1634.729492	1018.961365
-15329.368085	5239.953333	1633.696289	1079.446289
-15329.368085	5239.953333	1632.662109	1257.844849
-15329.368085	5239.953333	1631.628906	1258.119751
-15329.368085	5239.953333	1630.594727	1253.754028
-15329.368085	5239.953333	1629.561523	1304.867676
-15329.368085	5239.953333	1628.527344	1372.124146
-15329.368085	5239.953333	1627.493164	1413.932983
-15329.368085	5239.953333	1626.458008	1404.886963
-15329.368085	5239.953333	1625.423828	1515.955078
-15329.368085	5239.953333	1624.388672	1437.607056
-15329.368085	5239.953333	1623.353516	1361.596436
-15329.368085	5239.953333	1622.318359	1731.127075
-15329.368085	5239.953333	1621.282227	1618.149048
-15329.368085	5239.953333	1620.247070	1812.116577
-15329.368085	5239.953333	1619.210938	1625.341431
-15329.368085	5239.953333	1618.174805	1867.662109
-15329.368085	5239.953333	1617.137695	1602.533691
-15329.368085	5239.953333	1616.101563	1736.400391
-15329.368085	5239.953333	1615.064453	1662.739136
-15329.368085	5239.953333	1614.027344	2008.578857
-15329.368085	5239.953333	1612.990234	2029.377197
-15329.368085	5239.953333	1611.953125	1849.735229
-15329.368085	5239.953333	1610.916016	2248.329834
-15329.368085	5239.953333	1609.877930	2186.170410
-15329.368085	5239.953333	1608.839844	2068.781006
-15329.368085	5239.953333	1607.801758	2154.028564
-15329.368085	5239.953333	1606.763672	2474.017334
-15329.368085	5239.953333	1605.724609	2384.271484
-15329.368085	5239.953333	1604.685547	2306.072998
-15329.368085	5239.953333	1603.646484	2345.230225
-15329.368085	5239.953333	1602.607422	2421.180908
-15329.368085	5239.953333	1601.568359	2579.891846
-15329.368085	5239.953333	1600.528320	2621.298828
-15329.368085	5239.953333	1599.489258	2579.965088
-15329.368085	5239.953333	1598.449219	2591.507568
-15329.368085	5239.953333	1597.408203	2334.233398
-15329.368085	5239.953333	1596.368164	2221.803467
-15329.368085	5239.953333	1595.327148	2341.391602
-15329.368085	5239.953333	1594.287109	2077.484619
-15329.368085	5239.953333	1593.246094	1985.874268
-15329.368085	5239.953333	1592.204102	2240.909180
-15329.368085	5239.953333	1591.163086	2252.609863
-15329.368085	5239.953333	1590.121094	1931.622437
-15329.368085	5239.953333	1589.079102	1851.650635
-15329.368085	5239.953333	1588.037109	1746.501831
-15329.368085	5239.953333	1586.995117	1907.418091
-15329.368085	5239.953333	1585.953125	1965.122559
-15329.368085	5239.953333	1584.910156	1789.013428
-15329.368085	5239.953333	1583.867188	1587.788696
-15329.368085	5239.953333	1582.824219	1700.577026
-15329.368085	5239.953333	1581.781250	1428.479614
-15329.368085	5239.953333	1580.737305	1548.169067
-15329.368085	5239.953333	1579.693359	1569.369751
-15329.368085	5239.953333	1578.649414	1405.137939
-15329.368085	5239.953333	1577.605469	1371.475464
-15329.368085	5239.953333	1576.561523	1221.134644
-15329.368085	5239.953333	1575.516602	1306.557007
-15329.368085	5239.953333	1574.472656	1442.313110
-15329.368085	5239.953333	1573.427734	1175.478149
-15329.368085	5239.953333	1572.381836	1256.369263
-15329.368085	5239.953333	1571.336914	1076.621582
-15329.368085	5239.953333	1570.291016	1374.729370
-15329.368085	5239.953333	1569.246094	1293.370361
-15329.368085	5239.953333	1568.200195	1218.924805
-15329.368085	5239.953333	1567.153320	1398.125854
-15329.368085	5239.953333	1566.107422	1109.049561
-15329.368085	5239.953333	1565.060547	1174.089111
-15329.368085	5239.953333	1564.013672	1198.040405
-15329.368085	5239.953333	1562.966797	1137.556641
-15329.368085	5239.953333	1561.919922	1220.922485
-15329.368085	5239.953333	1560.872070	1192.474243
-15329.368085	5239.953333	1559.825195	1138.987671
-15329.368085	5239.953333	1558.777344	971.504700
-15329.368085	5239.953333	1557.729492	1034.464844
-15329.368085	5239.953333	1556.680664	862.582275
-15329.368085	5239.953333	1555.632813	1126.232178
-15329.368085	5239.953333	1554.583984	1075.282837
-15329.368085	5239.953333	1553.535156	1074.530151
-15329.368085	5239.953333	1552.486328	1139.892578
-15329.368085	5239.953333	1551.436523	1239.434204
-15329.368085	5239.953333	1550.387695	1097.582520
-15329.368085	5239.953333	1549.337891	914.840942
-15329.368085	5239.953333	1548.288086	930.274597
-15329.368085	5239.953333	1547.238281	861.534485
-15329.368085	5239.953333	1546.187500	1100.072510
-15329.368085	5239.953333	1545.136719	944.958557
-15329.368085	5239.953333	1544.086914	981.039368
-15329.368085	5239.953333	1543.035156	932.992493
-15329.368085	5239.953333	1541.984375	887.296875
-15329.368085	5239.953333	1540.933594	1200.863525
-15329.368085	5239.953333	1539.881836	1134.771729
-15329.368085	5239.953333	1538.830078	930.134888
-15329.368085	5239.953333	1537.778320	1216.393921
-15329.368085	5239.953333	1536.725586	1320.857788
-15329.368085	5239.953333	1535.673828	1370.834229
-15329.368085	5239.953333	1534.621094	1071.150269
-15329.368085	5239.953333	1533.568359	1239.311768
-15329.368085	5239.953333	1532.515625	1316.669922
-15329.368085	5239.953333	1531.461914	1123.994507
-15329.368085	5239.953333	1530.409180	958.683777
-15329.368085	5239.953333	1529.355469	1124.685425
-15329.368085	5239.953333	1528.301758	700.995178
-15329.368085	5239.953333	1527.247070	810.402771
-15329.368085	5239.953333	1526.193359	795.140747
-15329.368085	5239.953333	1525.138672	716.470825
-15329.368085	5239.953333	1524.083984	871.312256
-15329.368085	5239.953333	1523.029297	665.895935
-15329.368085	5239.953333	1521.974609	336.027985
-15329.368085	5239.953333	1520.918945	493.295441
-15329.368085	5239.953333	1519.863281	451.293060
-15329.368085	5239.953333	1518.807617	479.552490
-15329.368085	5239.953333	1517.751953	559.925781
-15329.368085	5239.953333	1516.696289	495.492432
-15329.368085	5239.953333	1515.639648	474.133759
-15329.368085	5239.953333	1514.583008	520.713623
-15329.368085	5239.953333	1513.526367	610.312500
-15329.368085	5239.953333	1512.469727	405.973877
-15329.368085	5239.953333	1511.412109	448.209045
-15329.368085	5239.953333	1510.355469	311.927307
-15329.368085	5239.953333	1509.297852	175.761337
-15329.368085	5239.953333	1508.240234	209.179138
-15329.368085	5239.953333	1507.181641	301.382721
-15329.368085	5239.953333	1506.124023	188.089432
-15329.368085	5239.953333	1505.065430	165.230316
-15329.368085	5239.953333	1504.006836	158.254501
-15329.368085	5239.953333	1502.948242	162.636993
-15329.368085	5239.953333	1501.888672	205.449265
-15329.368085	5239.953333	1500.830078	40.733135
-15329.368085	5239.953333	1499.770508	-4.287721
-15329.368085	5239.953333	1498.710938	29.722214
-15329.368085	5239.953333	1497.650391	181.047531
-15329.368085	5239.953333	1496.590820	-26.087856
-15329.368085	5239.953333	1495.530273	-18.931459
-15329.368085	5239.953333	1494.469727	-110.866798
-15329.368085	5239.953333	1493.409180	-195.932617
-15329.368085	5239.953333	1492.348633	-172.757507
-15329.368085	5239.953333	1491.287109	-181.054535
-15329.368085	5239.953333	1490.225586	-128.472168
-15329.368085	5239.953333	1489.164063	126.792610
-15329.368085	5239.953333	1488.102539	19.621941
-15329.368085	5239.953333	1487.041016	40.850098
-15329.368085	5239.953333	1485.978516	5.889329
-15329.368085	5239.953333	1484.916016	49.801716
-15329.368085	5239.953333	1483.853516	199.396118
-15329.368085	5239.953333	1482.791016	169.154251
-15329.368085	5239.953333	1481.727539	80.548195
-15329.368085	5239.953333	1480.664063	-59.625908
-15329.368085	5239.953333	1479.600586	155.396835
-15329.368085	5239.953333	1478.537109	78.338341
-15329.368085	5239.953333	1477.473633	214.772079
-15329.368085	5239.953333	1476.409180	95.236893
-15329.368085	5239.953333	1475.344727	85.830269
-15329.368085	5239.953333	1474.280273	141.634460
-15329.368085	5239.953333	1473.215820	94.145752
-15329.368085	5239.953333	1472.151367	208.422943
-15329.368085	5239.953333	1471.085938	212.744476
-15329.368085	5239.953333	1470.020508	138.905670
-15329.368085	5239.953333	1468.955078	309.409637
-15329.368085	5239.953333	1467.888672	273.533081
-15329.368085	5239.953333	1466.823242	305.074768
-15329.368085	5239.953333	1465.756836	285.373108
-15329.368085	5239.953333	1464.690430	175.798233
-15329.368085	5239.953333	1463.624023	306.351257
-15329.368085	5239.953333	1462.556641	297.764313
-15329.368085	5239.953333	1461.490234	166.364670
-15329.368085	5239.953333	1460.422852	202.415283
-15329.368085	5239.953333	1459.355469	569.989014
-15329.368085	5239.953333	1458.287109	371.490112
-15329.368085	5239.953333	1457.219727	377.129028
-15329.368085	5239.953333	1456.151367	464.892944
-15329.368085	5239.953333	1455.083008	189.848495
-15329.368085	5239.953333	1454.014648	302.112000
-15329.368085	5239.953333	1452.945313	301.489410
-15329.368085	5239.953333	1451.876953	347.491180
-15329.368085	5239.953333	1450.807617	410.943085
-15329.368085	5239.953333	1449.738281	140.775650
-15329.368085	5239.953333	1448.668945	30.644182
-15329.368085	5239.953333	1447.598633	66.065956
-15329.368085	5239.953333	1446.528320	35.357925
-15329.368085	5239.953333	1445.458008	314.865814
-15329.368085	5239.953333	1444.387695	375.031097
-15329.368085	5239.953333	1443.317383	185.551010
-15329.368085	5239.953333	1442.246094	325.542816
-15329.368085	5239.953333	1441.174805	358.107208
-15329.368085	5239.953333	1440.103516	109.466873
-15329.368085	5239.953333	1439.032227	461.614960
-15329.368085	5239.953333	1437.960938	406.112946
-15329.368085	5239.953333	1436.888672	558.084351
-15329.368085	5239.953333	1435.816406	534.260193
-15329.368085	5239.953333	1434.744141	444.356445
-15329.368085	5239.953333	1433.670898	438.894073
-15329.368085	5239.953333	1432.598633	370.514465
-15329.368085	5239.953333	1431.525391	464.341003
-15329.368085	5239.953333	1430.452148	454.374908
-15329.368085	5239.953333	1429.378906	316.349518
-15329.368085	5239.953333	1428.304688	445.767761
-15329.368085	5239.953333	1427.231445	465.787720
-15329.368085	5239.953333	1426.157227	416.737640
-15329.368085	5239.953333	1425.083008	292.852692
-15329.368085	5239.953333	1424.007813	12.833361
-15329.368085	5239.953333	1422.933594	401.202301
-15329.368085	5239.953333	1421.858398	332.263947
-15329.368085	5239.953333	1420.783203	364.317627
-15329.368085	5239.953333	1419.708008	241.687393
-15329.368085	5239.953333	1418.631836	308.595581
-15329.368085	5239.953333	1417.555664	435.703583
-15329.368085	5239.953333	1416.479492	237.121536
-15329.368085	5239.953333	1415.403320	584.347351
-15329.368085	5239.953333	1414.327148	467.149506
-15329.368085	5239.953333	1413.250000	453.580658
-15329.368085	5239.953333	1412.173828	658.534912
-15329.368085	5239.953333	1411.096680	525.578003
-15329.368085	5239.953333	1410.018555	461.040924
-15329.368085	5239.953333	1408.941406	528.269531
-15329.368085	5239.953333	1407.863281	475.508636
-15329.368085	5239.953333	1406.785156	374.738068
-15329.368085	5239.953333	1405.707031	552.855103
-15329.368085	5239.953333	1404.628906	419.384918
-15329.368085	5239.953333	1403.549805	474.345734
-15329.368085	5239.953333	1402.470703	609.537354
-15329.368085	5239.953333	1401.391602	534.444031
-15329.368085	5239.953333	1400.312500	439.734314
-15329.368085	5239.953333	1399.233398	506.760620
-15329.368085	5239.953333	1398.153320	635.745544
-15329.368085	5239.953333	1397.073242	639.878235
-15329.368085	5239.953333	1395.993164	482.635925
-15329.368085	5239.953333	1394.913086	458.590607
-15329.368085	5239.953333	1393.832031	397.392975
-15329.368085	5239.953333	1392.750977	310.677094
-15329.368085	5239.953333	1391.669922	517.308899
-15329.368085	5239.953333	1390.588867	443.150360
-15329.368085	5239.953333	1389.506836	587.566345
-15329.368085	5239.953333	1388.425781	514.875244
-15329.368085	5239.953333	1387.343750	354.469055
-15329.368085	5239.953333	1386.261719	700.115234
-15329.368085	5239.953333	1385.178711	479.911255
-15329.368085	5239.953333	1384.096680	661.885864
-15329.368085	5239.953333	1383.013672	368.044006
-15329.368085	5239.953333	1381.930664	602.116577
-15329.368085	5239.953333	1380.846680	547.153503
-15329.368085	5239.953333	1379.763672	597.597046
-15329.368085	5239.953333	1378.679688	586.318787
-15329.368085	5239.953333	1377.595703	751.030945
-15329.368085	5239.953333	1376.511719	706.961548
-15329.368085	5239.953333	1375.427734	753.453979
-15329.368085	5239.953333	1374.342773	825.857422
-15329.368085	5239.953333	1373.257813	557.402222
-15329.368085	5239.953333	1372.172852	685.300842
-15329.368085	5239.953333	1371.087891	532.299988
-15329.368085	5239.953333	1370.001953	607.746033
-15329.368085	5239.953333	1368.916992	673.324951
-15329.368085	5239.953333	1367.831055	599.784668
-15329.368085	5239.953333	1366.744141	694.255859
-15329.368085	5239.953333	1365.658203	652.778564
-15329.368085	5239.953333	1364.571289	516.838379
-15329.368085	5239.953333	1363.484375	601.596680
-15329.368085	5239.953333	1362.397461	595.631104
-15329.368085	5239.953333	1361.310547	340.214752
-15329.368085	5239.953333	1360.222656	351.291168
-15329.368085	5239.953333	1359.135742	343.177948
-15329.368085	5239.953333	1358.047852	375.823334
-15329.368085	5239.953333	1356.958984	430.353058
-15329.368085	5239.953333	1355.871094	438.838196
-15329.368085	5239.953333	1354.782227	558.117004
-15329.368085	5239.953333	1353.693359	624.932251
-15329.368085	5239.953333	1352.604492	578.603882
-15329.368085	5239.953333	1351.515625	425.156677
-15329.368085	5239.953333	1350.425781	474.788757
-15329.368085	5239.953333	1349.335938	451.219147
-15329.368085	5239.953333	1348.246094	406.153442
-15329.368085	5239.953333	1347.156250	373.586273
-15329.368085	5239.953333	1346.066406	489.525909
-15329.368085	5239.953333	1344.975586	499.178467
-15329.368085	5239.953333	1343.884766	351.144562
-15329.368085	5239.953333	1342.793945	372.376801
-15329.368085	5239.953333	1341.702148	406.901764
-15329.368085	5239.953333	1340.611328	357.627716
-15329.368085	5239.953333	1339.519531	242.482346
-15329.368085	5239.953333	1338.427734	220.661697
-15329.368085	5239.953333	1337.334961	291.718903
-15329.368085	5239.953333	1336.243164	176.014908
-15329.368085	5239.953333	1335.150391	415.785461
-15329.368085	5239.953333	1334.057617	372.751709
-15329.368085	5239.953333	1332.964844	248.945389
-15329.368085	5239.953333	1331.871094	454.076111
-15329.368085	5239.953333	1330.778320	304.379211
-15329.368085	5239.953333	1329.684570	390.377167
-15329.368085	5239.953333	1328.590820	464.691223
-15329.368085	5239.953333	1327.496094	421.180634
-15329.368085	5239.953333	1326.402344	426.976807
-15329.368085	5239.953333	1325.307617	495.452209
-15329.368085	5239.953333	1324.212891	445.284485
-15329.368085	5239.953333	1323.117188	470.692474
-15329.368085	5239.953333	1322.022461	447.181183
-15329.368085	5239.953333	1320.926758	598.596130
-15329.368085	5239.953333	1319.831055	564.116699
-15329.368085	5239.953333	1318.735352	718.152527
-15329.368085	5239.953333	1317.638672	669.189148
-15329.368085	5239.953333	1316.542969	614.603210
-15329.368085	5239.953333	1315.446289	635.083496
-15329.368085	5239.953333	1314.349609	731.946777
-15329.368085	5239.953333	1313.251953	659.929871
-15329.368085	5239.953333	1312.155273	501.124878
-15329.368085	5239.953333	1311.057617	723.165100
-15329.368085	5239.953333	1309.959961	586.064575
-15329.368085	5239.953333	1308.862305	591.764038
-15329.368085	5239.953333	1307.763672	513.979980
-15329.368085	5239.953333	1306.665039	487.573914
-15329.368085	5239.953333	1305.566406	482.674103
-15329.368085	5239.953333	1304.467773	352.600250
-15329.368085	5239.953333	1303.369141	282.365387
-15329.368085	5239.953333	1302.269531	335.040649
-15329.368085	5239.953333	1301.169922	280.608398
-15329.368085	5239.953333	1300.070313	265.847382
-15329.368085	5239.953333	1298.970703	206.958069
-15329.368085	5239.953333	1297.870117	261.967773
-15329.368085	5239.953333	1296.769531	158.974991
-15329.368085	5239.953333	1295.668945	98.384331
-15329.368085	5239.953333	1294.568359	17.813322
-15329.368085	5239.953333	1293.466797	99.685883
-15329.368085	5239.953333	1292.366211	-36.060589
-15329.368085	5239.953333	1291.264648	60.469280
-15329.368085	5239.953333	1290.162109	109.915573
-15329.368085	5239.953333	1289.060547	68.116844
-15329.368085	5239.953333	1287.958008	-82.147552
-15329.368085	5239.953333	1286.855469	5.579904
-15329.368085	5239.953333	1285.752930	-17.033470
-15329.368085	5239.953333	1284.650391	110.648399
-15329.368085	5239.953333	1283.546875	-104.016716
-15329.368085	5239.953333	1282.444336	13.548640
-15329.368085	5239.953333	1281.339844	-28.179466
-15329.368085	5239.953333	1280.236328	-167.506531
-15329.368085	5239.953333	1279.132813	148.660599
-15329.368085	5239.953333	1278.028320	40.970844
-15329.368085	5239.953333	1276.923828	62.624615
-15329.368085	5239.953333	1275.819336	-25.247889
-15329.368085	5239.953333	1274.713867	75.563850
-15329.368085	5239.953333	1273.608398	214.533600
-15329.368085	5239.953333	1272.503906	32.231728
-15329.368085	5239.953333	1271.397461	100.590034
-15329.368085	5239.953333	1270.291992	129.937119
-15329.368085	5239.953333	1269.185547	199.653793
-15329.368085	5239.953333	1268.080078	155.348145
-15329.368085	5239.953333	1266.972656	33.181694
-15329.368085	5239.953333	1265.866211	31.450579
-15329.368085	5239.953333	1264.759766	158.316605
-15329.368085	5239.953333	1263.652344	92.293228
-15329.368085	5239.953333	1262.544922	167.679184
-15329.368085	5239.953333	1261.436523	111.519226
-15329.368085	5239.953333	1260.329102	51.399666
-15329.368085	5239.953333	1259.220703	115.253410
-15329.368085	5239.953333	1258.112305	46.726799
-15329.368085	5239.953333	1257.003906	142.939301
-15329.368085	5239.953333	1255.895508	213.169556
-15329.368085	5239.953333	1254.786133	134.908676
-15329.368085	5239.953333	1253.676758	-62.742962
-15329.368085	5239.953333	1252.567383	197.639786
-15329.368085	5239.953333	1251.458008	168.930283
-15329.368085	5239.953333	1250.347656	167.469299
-15329.368085	5239.953333	1249.237305	133.841553
-15329.368085	5239.953333	1248.126953	195.141113
-15329.368085	5239.953333	1247.016602	105.144676
-15329.368085	5239.953333	1245.905273	104.181343
-15329.368085	5239.953333	1244.793945	190.612152
-15329.368085	5239.953333	1243.682617	63.332947
-15329.368085	5239.953333	1242.571289	237.333313
-15329.368085	5239.953333	1241.459961	9.637028
-15329.368085	5239.953333	1240.347656	256.693329
-15329.368085	5239.953333	1239.235352	249.850555
-15329.368085	5239.953333	1238.123047	200.315079
-15329.368085	5239.953333	1237.009766	48.048882
-15329.368085	5239.953333	1235.897461	-33.121929
-15329.368085	5239.953333	1234.784180	71.307304
-15329.368085	5239.953333	1233.670898	89.228821
-15329.368085	5239.953333	1232.556641	71.536240
-15329.368085	5239.953333	1231.443359	-24.984360
-15329.368085	5239.953333	1230.329102	-70.991402
-15329.368085	5239.953333	1229.214844	36.495251
-15329.368085	5239.953333	1228.099609	-44.422771
-15329.368085	5239.953333	1226.985352	8.285732
-15329.368085	5239.953333	1225.870117	-59.510307
-15329.368085	5239.953333	1224.754883	82.371399
-15329.368085	5239.953333	1223.639648	10.724181
-15329.368085	5239.953333	1222.523438	-36.787819
-15329.368085	5239.953333	1221.408203	-1.468344
-15329.368085	5239.953333	1220.291992	94.118919
-15329.368085	5239.953333	1219.174805	-56.715122
-15329.368085	5239.953333	1218.058594	64.495354
-15329.368085	5239.953333	1216.941406	-75.854378
-15329.368085	5239.953333	1215.824219	25.431683
-15329.368085	5239.953333	1214.707031	75.347076
-15329.368085	5239.953333	1213.589844	128.893173
-15329.368085	5239.953333	1212.471680	-3.238561
-15329.368085	5239.953333	1211.353516	-83.379456
-15329.368085	5239.953333	1210.235352	-104.173645
-15329.368085	5239.953333	1209.117188	37.178108
-15329.368085	5239.953333	1207.998047	-41.953087
-15329.368085	5239.953333	1206.878906	89.142517
-15329.368085	5239.953333	1205.759766	38.725101
-15329.368085	5239.953333	1204.640625	-46.757664
-15329.368085	5239.953333	1203.520508	-118.832153
-15329.368085	5239.953333	1202.401367	-41.434612
-15329.368085	5239.953333	1201.281250	-60.484428
-15329.368085	5239.953333	1200.160156	-15.053478
-15329.368085	5239.953333	1199.040039	-47.731247
-15329.368085	5239.953333	1197.918945	-100.778984
-15329.368085	5239.953333	1196.797852	-107.311028
-15329.368085	5239.953333	1195.676758	-214.378693
-15329.368085	5239.953333	1194.555664	-104.152451
-15329.368085	5239.953333	1193.433594	-185.134338
-15329.368085	5239.953333	1192.311523	-257.582214
-15329.368085	5239.953333	1191.189453	-45.648895
-15329.368085	5239.953333	1190.066406	-108.160736
-15329.368085	5239.953333	1188.944336	-32.267448
-15329.368085	5239.953333	1187.821289	-154.854553
-15329.368085	5239.953333	1186.698242	-192.468842
-15329.368085	5239.953333	1185.574219	-81.705238
-15329.368085	5239.953333	1184.451172	-105.475998
-15329.368085	5239.953333	1183.327148	-117.127716
-15329.368085	5239.953333	1182.203125	-72.207085
-15329.368085	5239.953333	1181.078125	4.204566
-15329.368085	5239.953333	1179.954102	-39.927883
-15329.368085	5239.953333	1178.829102	27.631828
-15329.368085	5239.953333	1177.704102	-129.409958
-15329.368085	5239.953333	1176.579102	-74.227554
-15329.368085	5239.953333	1175.453125	6.760720
-15329.368085	5239.953333	1174.327148	42.783737
-15329.368085	5239.953333	1173.201172	-94.552521
-15329.368085	5239.953333	1172.075195	-19.244604
-15329.368085	5239.953333	1170.949219	-62.606434
-15329.368085	5239.953333	1169.822266	-33.190231
-15329.368085	5239.953333	1168.695313	-104.287491
-15329.368085	5239.953333	1167.568359	23.289825
-15329.368085	5239.953333	1166.440430	86.677917
-15329.368085	5239.953333	1165.313477	103.521042
-15329.368085	5239.953333	1164.185547	26.069534
-15329.368085	5239.953333	1163.057617	-3.259929
-15329.368085	5239.953333	1161.928711	-48.382030
-15329.368085	5239.953333	1160.800781	-48.648369
-15329.368085	5239.953333	1159.671875	-10.410365
-15329.368085	5239.953333	1158.541992	-137.341354
-15329.368085	5239.953333	1157.413086	97.739471
-15329.368085	5239.953333	1156.283203	-62.657154
-15329.368085	5239.953333	1155.154297	-156.627640
-15329.368085	5239.953333	1154.023438	-119.573891
-15329.368085	5239.953333	1152.893555	22.667940
-15329.368085	5239.953333	1151.763672	1.532648
-15329.368085	5239.953333	1150.632813	15.703944
-15329.368085	5239.953333	1149.501953	-109.697006
-15329.368085	5239.953333	1148.370117	121.031036
-15329.368085	5239.953333	1147.239258	120.800903
-15329.368085	5239.953333	1146.107422	-29.561745
-15329.368085	5239.953333	1144.975586	35.544872
-15329.368085	5239.953333	1143.843750	70.971001
-15329.368085	5239.953333	1142.710938	129.638458
-15329.368085	5239.953333	1141.578125	182.944031
-15329.368085	5239.953333	1140.445313	-57.705364
-15329.368085	5239.953333	1139.312500	-87.066872
-15329.368085	5239.953333	1138.178711	115.426697
-15329.368085	5239.953333	1137.045898	17.027685
-15329.368085	5239.953333	1135.912109	-27.609690
-15329.368085	5239.953333	1134.777344	70.145027
-15329.368085	5239.953333	1133.643555	68.031708
-15329.368085	5239.953333	1132.508789	97.524681
-15329.368085	5239.953333	1131.374023	35.567009
-15329.368085	5239.953333	1130.239258	79.671120
-15329.368085	5239.953333	1129.104492	67.266418
-15329.368085	5239.953333	1127.968750	187.047775
-15329.368085	5239.953333	1126.833008	254.401764
-15329.368085	5239.953333	1125.697266	146.772476
-15329.368085	5239.953333	1124.560547	13.662289
-15329.368085	5239.953333	1123.424805	40.102783
-15329.368085	5239.953333	1122.288086	133.529587
-15329.368085	5239.953333	1121.151367	113.429131
-15329.368085	5239.953333	1120.013672	47.671806
-15329.368085	5239.953333	1118.876953	52.374485
-15329.368085	5239.953333	1117.739258	157.056519
-15329.368085	5239.953333	1116.601563	114.496452
-15329.368085	5239.953333	1115.462891	-8.922714
-15329.368085	5239.953333	1114.324219	-58.880341
-15329.368085	5239.953333	1113.186523	-10.842728
-15329.368085	5239.953333	1112.046875	-75.534782
-15329.368085	5239.953333	1110.908203	131.701630
-15329.368085	5239.953333	1109.769531	33.631260
-15329.368085	5239.953333	1108.629883	46.029476
-15329.368085	5239.953333	1107.490234	-29.858990
-15329.368085	5239.953333	1106.349609	137.432556
-15329.368085	5239.953333	1105.209961	69.797371
-15329.368085	5239.953333	1104.069336	99.379898
-15329.368085	5239.953333	1102.928711	264.144775
-15329.368085	5239.953333	1101.787109	242.357422
-15329.368085	5239.953333	1100.646484	30.316677
-15329.368085	5239.953333	1099.504883	27.150089
-15329.368085	5239.953333	1098.363281	-19.656996
-15329.368085	5239.953333	1097.221680	104.489059
-15329.368085	5239.953333	1096.079102	11.474539
-15329.368085	5239.953333	1094.936523	154.420670
-15329.368085	5239.953333	1093.793945	-50.335720
-15329.368085	5239.953333	1092.651367	180.553894
-15329.368085	5239.953333	1091.507813	279.928772
-15329.368085	5239.953333	1090.364258	193.841034
-15329.368085	5239.953333	1089.220703	271.129425
-15329.368085	5239.953333	1088.077148	148.495071
-15329.368085	5239.953333	1086.933594	99.353912
-15329.368085	5239.953333	1085.789063	9.885854
-15329.368085	5239.953333	1084.644531	142.379547
-15329.368085	5239.953333	1083.499023	74.078293
-15329.368085	5239.953333	1082.354492	283.251160
-15329.368085	5239.953333	1081.208984	137.287094
-15329.368085	5239.953333	1080.063477	135.926132
-15329.368085	5239.953333	1078.917969	118.451447
-15329.368085	5239.953333	1077.771484	88.199905
-15329.368085	5239.953333	1076.625977	-14.270910
-15329.368085	5239.953333	1075.479492	-55.273579
-15329.368085	5239.953333	1074.332031	70.582397
-15329.368085	5239.953333	1073.185547	11.183954
-15329.368085	5239.953333	1072.038086	-55.894993
-15329.368085	5239.953333	1070.890625	13.417959
-15329.368085	5239.953333	1069.743164	-63.688698
-15329.368085	5239.953333	1068.594727	-96.185997
-15329.368085	5239.953333	1067.447266	136.908188
-15329.368085	5239.953333	1066.298828	66.602898
-15329.368085	5239.953333	1065.149414	89.776962
-15329.368085	5239.953333	1064.000977	166.475266
-15329.368085	5239.953333	1062.851563	38.440018
-15329.368085	5239.953333	1061.702148	104.524284
-15329.368085	5239.953333	1060.552734	225.970306
-15329.368085	5239.953333	1059.402344	-12.811406
-15329.368085	5239.953333	1058.252930	146.441269
-15329.368085	5239.953333	1057.102539	-86.112854
-15329.368085	5239.953333	1055.951172	-35.659363
-15329.368085	5239.953333	1054.800781	61.972324
-15329.368085	5239.953333	1053.649414	-35.869747
-15329.368085	5239.953333	1052.498047	261.953003
-15329.368085	5239.953333	1051.346680	42.386963
-15329.368085	5239.953333	1050.194336	194.454651
-15329.368085	5239.953333	1049.042969	104.526306
-15329.368085	5239.953333	1047.890625	143.278687
-15329.368085	5239.953333	1046.738281	16.112329
-15329.368085	5239.953333	1045.584961	86.493942
-15329.368085	5239.953333	1044.431641	78.933525
-15329.368085	5239.953333	1043.278320	128.085495
-15329.368085	5239.953333	1042.125000	94.390427
-15329.368085	5239.953333	1040.971680	105.065231
-15329.368085	5239.953333	1039.817383	176.900665
-15329.368085	5239.953333	1038.663086	289.526093
-15329.368085	5239.953333	1037.508789	256.819580
-15329.368085	5239.953333	1036.353516	179.836441
-15329.368085	5239.953333	1035.198242	234.912201
-15329.368085	5239.953333	1034.042969	323.420074
-15329.368085	5239.953333	1032.887695	167.099518
-15329.368085	5239.953333	1031.732422	175.232880
-15329.368085	5239.953333	1030.576172	145.487579
-15329.368085	5239.953333	1029.419922	86.845894
-15329.368085	5239.953333	1028.263672	283.062866
-15329.368085	5239.953333	1027.106445	177.670090
-15329.368085	5239.953333	1025.949219	26.543480
-15329.368085	5239.953333	1024.792969	125.869720
-15329.368085	5239.953333	1023.634766	106.601295
-15329.368085	5239.953333	1022.477539	83.068336
-15329.368085	5239.953333	1021.319336	47.608913
-15329.368085	5239.953333	1020.161133	155.172440
-15329.368085	5239.953333	1019.002930	211.200516
-15329.368085	5239.953333	1017.843750	150.753738
-15329.368085	5239.953333	1016.684570	399.328491
-15329.368085	5239.953333	1015.525391	-97.218521
-15329.368085	5239.953333	1014.366211	-65.658592
-15329.368085	5239.953333	1013.207031	-87.768845
-15329.368085	5239.953333	1012.046875	205.995529
-15329.368085	5239.953333	1010.886719	7.674081
-15329.368085	5239.953333	1009.726563	116.526833
-15329.368085	5239.953333	1008.565430	-36.549000
-15329.368085	5239.953333	1007.404297	-50.826214
-15329.368085	5239.953333	1006.243164	50.188599
-15329.368085	5239.953333	1005.082031	71.854080
-15329.368085	5239.953333	1003.920898	52.831612
-15329.368085	5239.953333	1002.758789	110.937202
-15329.368085	5239.953333	1001.596680	195.455856
-15329.368085	5239.953333	1000.433594	74.058990
-15329.368085	5239.953333	999.271484	47.591049
-15329.368085	5239.953333	998.108398	47.516628
-15329.368085	5239.953333	996.945313	1.463670
-15329.368085	5239.953333	995.782227	32.320137
-15329.368085	5239.953333	994.618164	264.374481
-15329.368085	5239.953333	993.454102	379.393372
-15329.368085	5239.953333	992.290039	294.301971
-15329.368085	5239.953333	991.125977	194.416885
-15329.368085	5239.953333	989.960938	219.515717
-15329.368085	5239.953333	988.796875	158.022644
-15329.368085	5239.953333	987.630859	94.602745
-15329.368085	5239.953333	986.465820	229.099304
-15329.368085	5239.953333	985.300781	88.811371
-15329.368085	5239.953333	984.134766	206.864014
-15329.368085	5239.953333	982.968750	3.788922
-15329.368085	5239.953333	981.801758	271.336121
-15329.368085	5239.953333	980.635742	47.494671
-15329.368085	5239.953333	979.468750	30.920568
-15329.368085	5239.953333	978.301758	112.552849
-15329.368085	5239.953333	977.133789	-127.277527
-15329.368085	5239.953333	975.966797	200.187332
-15329.368085	5239.953333	974.798828	215.756485
-15329.368085	5239.953333	973.630859	29.961864
-15329.368085	5239.953333	972.461914	48.625530
-15329.368085	5239.953333	971.293945	17.131603
-15329.368085	5239.953333	970.125000	52.530106
-15329.368085	5239.953333	968.956055	-116.206459
-15329.368085	5239.953333	967.786133	-76.033493
-15329.368085	5239.953333	966.617188	38.148201
-15329.368085	5239.953333	965.447266	45.403072
-15329.368085	5239.953333	964.276367	67.619041
-15329.368085	5239.953333	963.106445	-61.407261
-15329.368085	5239.953333	961.935547	103.607208
-15329.368085	5239.953333	960.764648	-179.658798
-15329.368085	5239.953333	959.593750	88.611435
-15329.368085	5239.953333	958.422852	338.479767
-15329.368085	5239.953333	957.250977	75.488556
-15329.368085	5239.953333	956.079102	-102.264336
-15329.368085	5239.953333	954.907227	-40.003220
-15329.368085	5239.953333	953.734375	120.773216
-15329.368085	5239.953333	952.562500	4.993922
-15329.368085	5239.953333	951.389648	-7.808537
-15329.368085	5239.953333	950.215820	-186.032364
-15329.368085	5239.953333	949.042969	142.187103
-15329.368085	5239.953333	947.869141	-187.916565
-15329.368085	5239.953333	946.695313	18.578871
-15329.368085	5239.953333	945.521484	-5.617282
-15329.368085	5239.953333	944.346680	-75.099617
-15329.368085	5239.953333	943.172852	5.944030
-15329.368085	5239.953333	941.998047	-20.791092
-15329.368085	5239.953333	940.822266	-55.543018
-15329.368085	5239.953333	939.647461	-79.333443
-15329.368085	5239.953333	938.471680	48.281773
-15329.368085	5239.953333	937.295898	-8.407751
-15329.368085	5239.953333	936.119141	-37.881531
-15329.368085	5239.953333	934.943359	-29.640579
-15329.368085	5239.953333	933.766602	-43.015343
-15329.368085	5239.953333	932.589844	46.605160
-15329.368085	5239.953333	931.413086	35.859905
-15329.368085	5239.953333	930.235352	-140.030533
-15329.368085	5239.953333	929.057617	-131.844757
-15329.368085	5239.953333	927.879883	-47.887150
-15329.368085	5239.953333	926.702148	133.555466
-15329.368085	5239.953333	925.523438	44.195782
-15329.368085	5239.953333	924.344727	-12.648062
-15329.368085	5239.953333	923.166016	30.594545
-15329.368085	5239.953333	921.987305	16.992252
-15329.368085	5239.953333	920.807617	95.334808
-15329.368085	5239.953333	919.627930	96.976563
-15329.368085	5239.953333	919.497070	-85.795792
-15329.368085	5239.953333	918.331055	-231.930267
-15329.368085	5239.953333	917.165039	11.212132
-15329.368085	5239.953333	915.999023	-178.164246
-15329.368085	5239.953333	914.833008	-186.453644
-15329.368085	5239.953333	913.666016	-56.987541
-15329.368085	5239.953333	912.499023	231.755493
-15329.368085	5239.953333	911.332031	-35.899090
-15329.368085	5239.953333	910.165039	-41.588707
-15329.368085	5239.953333	908.997070	9.388287
-15329.368085	5239.953333	907.830078	-90.799362
-15329.368085	5239.953333	906.661133	62.657818
-15329.368085	5239.953333	905.493164	27.204775
-15329.368085	5239.953333	904.325195	24.112471
-15329.368085	5239.953333	903.156250	-46.406788
-15329.368085	5239.953333	901.987305	74.492783
-15329.368085	5239.953333	900.818359	-12.215929
-15329.368085	5239.953333	899.648438	30.444965
-15329.368085	5239.953333	898.478516	140.427719
-15329.368085	5239.953333	897.308594	204.555817
-15329.368085	5239.953333	896.138672	31.642971
-15329.368085	5239.953333	894.968750	17.648386
-15329.368085	5239.953333	893.797852	-95.961853
-15329.368085	5239.953333	892.626953	129.587799
-15329.368085	5239.953333	891.456055	-105.124283
-15329.368085	5239.953333	890.284180	128.376694
-15329.368085	5239.953333	889.113281	103.538216
-15329.368085	5239.953333	887.941406	97.521614
-15329.368085	5239.953333	886.768555	225.930557
-15329.368085	5239.953333	885.596680	246.743866
-15329.368085	5239.953333	884.423828	33.707718
-15329.368085	5239.953333	883.250977	3.467871
-15329.368085	5239.953333	882.078125	155.912216
-15329.368085	5239.953333	880.905273	7.447194
-15329.368085	5239.953333	879.731445	243.050415
-15329.368085	5239.953333	878.557617	126.819824
-15329.368085	5239.953333	877.383789	152.895233
-15329.368085	5239.953333	876.209961	15.232900
-15329.368085	5239.953333	875.035156	30.561333
-15329.368085	5239.953333	873.860352	10.995108
-15329.368085	5239.953333	872.685547	26.291225
-15329.368085	5239.953333	871.510742	79.111961
-15329.368085	5239.953333	870.334961	147.985596
-15329.368085	5239.953333	869.159180	53.306007
-15329.368085	5239.953333	867.983398	-57.426640
-15329.368085	5239.953333	866.807617	-55.590126
-15329.368085	5239.953333	865.630859	77.499039
-15329.368085	5239.953333	864.454102	79.283600
-15329.368085	5239.953333	863.277344	91.766632
-15329.368085	5239.953333	862.100586	45.333996
-15329.368085	5239.953333	860.922852	-62.654099
-15329.368085	5239.953333	859.745117	-95.677742
-15329.368085	5239.953333	858.567383	120.130386
-15329.368085	5239.953333	857.389648	-199.168091
-15329.368085	5239.953333	856.210938	-18.217905
-15329.368085	5239.953333	855.032227	31.623932
-15329.368085	5239.953333	853.853516	35.987404
-15329.368085	5239.953333	852.674805	53.702690
-15329.368085	5239.953333	851.495117	12.609375
-15329.368085	5239.953333	850.315430	54.346554
-15329.368085	5239.953333	849.135742	2.564708
-15329.368085	5239.953333	847.956055	-75.913818
-15329.368085	5239.953333	846.775391	163.371597
-15329.368085	5239.953333	845.595703	60.846611
-15329.368085	5239.953333	844.415039	51.768311
-15329.368085	5239.953333	843.233398	-72.058563
-15329.368085	5239.953333	842.052734	-73.123390
-15329.368085	5239.953333	840.871094	-106.204277
-15329.368085	5239.953333	839.689453	-101.947243
-15329.368085	5239.953333	838.506836	32.945156
-15329.368085	5239.953333	837.325195	-50.816193
-15329.368085	5239.953333	836.142578	171.940704
-15329.368085	5239.953333	834.959961	-95.692848
-15329.368085	5239.953333	833.777344	71.015587
-15329.368085	5239.953333	832.593750	69.845825
-15329.368085	5239.953333	831.410156	-56.493626
-15329.368085	5239.953333	830.226563	142.023605
-15329.368085	5239.953333	829.042969	-74.801689
-15329.368085	5239.953333	827.858398	33.133503
-15329.368085	5239.953333	826.673828	66.512291
-15329.368085	5239.953333	825.489258	46.662807
-15329.368085	5239.953333	824.304688	37.451244
-15329.368085	5239.953333	823.120117	-288.202484
-15329.368085	5239.953333	821.934570	-297.361450
-15329.368085	5239.953333	820.749023	1.803985
-15329.368085	5239.953333	819.562500	-105.757576
-15329.368085	5239.953333	818.376953	12.554569
-15329.368085	5239.953333	817.190430	117.525391
-15329.368085	5239.953333	816.003906	-24.549667
-15329.368085	5239.953333	814.817383	0.706304
-15329.368085	5239.953333	813.629883	60.453785
-15329.368085	5239.953333	812.442383	167.941360
-15329.368085	5239.953333	811.254883	97.581085
-15329.368085	5239.953333	810.067383	0.707854
-15329.368085	5239.953333	808.878906	94.847336
-15329.368085	5239.953333	807.690430	-23.222584
-15329.368085	5239.953333	806.501953	-13.984389
-15329.368085	5239.953333	805.313477	35.002266
-15329.368085	5239.953333	804.124023	-0.853219
-15329.368085	5239.953333	802.934570	-10.207499
-15329.368085	5239.953333	801.745117	-46.060665
-15329.368085	5239.953333	800.555664	106.147728
-15329.368085	5239.953333	799.365234	-96.571396
-15329.368085	5239.953333	798.175781	-29.162056
-15329.368085	5239.953333	796.985352	-184.144333
-15329.368085	5239.953333	795.793945	2.325372
-15329.368085	5239.953333	794.603516	27.302128
-15329.368085	5239.953333	793.412109	218.918121
-15329.368085	5239.953333	792.220703	151.245255
-15329.368085	5239.953333	791.028320	59.790428
-15329.368085	5239.953333	789.836914	55.604862
-15329.368085	5239.953333	788.644531	46.122410
-15329.368085	5239.953333	787.452148	-50.577194
-15329.368085	5239.953333	786.258789	233.216034
-15329.368085	5239.953333	785.066406	-51.059914
-15329.368085	5239.953333	783.873047	74.128334
-15329.368085	5239.953333	782.679688	51.384945
-15329.368085	5239.953333	781.485352	44.477470
-15329.368085	5239.953333	780.291992	53.394745
-15329.368085	5239.953333	779.097656	78.127075
-15329.368085	5239.953333	777.903320	269.048187
-15329.368085	5239.953333	776.708008	8.822083
-15329.368085	5239.953333	775.512695	83.613487
-15329.368085	5239.953333	774.318359	-55.209652
-15329.368085	5239.953333	773.122070	48.531361
-15329.368085	5239.953333	771.926758	9.894765
-15329.368085	5239.953333	770.730469	153.074783
-15329.368085	5239.953333	769.534180	143.380768
-15329.368085	5239.953333	768.337891	33.586929
-15329.368085	5239.953333	767.141602	42.324905
-15329.368085	5239.953333	765.944336	340.652100
-15329.368085	5239.953333	764.747070	196.618088
-15329.368085	5239.953333	763.549805	452.648468
-15329.368085	5239.953333	762.351563	145.486160
-15329.368085	5239.953333	761.154297	330.361511
-15329.368085	5239.953333	759.956055	399.418671
-15329.368085	5239.953333	758.757813	407.950531
-15329.368085	5239.953333	757.558594	248.206680
-15329.368085	5239.953333	756.359375	543.231018
-15329.368085	5239.953333	755.160156	183.770309
-15329.368085	5239.953333	753.960938	84.548019
-15329.368085	5239.953333	752.761719	282.176208
-15329.368085	5239.953333	751.561523	356.268738
-15329.368085	5239.953333	750.361328	188.748398
-15329.368085	5239.953333	749.160156	2.901814
-15329.368085	5239.953333	747.959961	255.421585
-15329.368085	5239.953333	746.758789	35.487698
-15329.368085	5239.953333	745.557617	245.879410
-15329.368085	5239.953333	744.356445	241.080887
-15329.368085	5239.953333	743.154297	291.334747
-15329.368085	5239.953333	741.952148	213.075592
-15329.368085	5239.953333	740.750000	315.698700
-15329.368085	5239.953333	739.547852	242.666702
-15329.368085	5239.953333	738.344727	161.781754
-15329.368085	5239.953333	737.142578	280.005249
-15329.368085	5239.953333	735.939453	151.959259
-15329.368085	5239.953333	734.735352	259.615143
-15329.368085	5239.953333	733.532227	259.866119
-15329.368085	5239.953333	732.328125	231.299881
-15329.368085	5239.953333	731.124023	202.724274
-15329.368085	5239.953333	729.918945	320.653198
-15329.368085	5239.953333	728.714844	383.578583
-15329.368085	5239.953333	727.509766	135.231613
-15329.368085	5239.953333	726.303711	224.267273
-15329.368085	5239.953333	725.098633	72.735207
-15329.368085	5239.953333	723.892578	467.496399
-15329.368085	5239.953333	722.686523	227.080399
-15329.368085	5239.953333	721.480469	289.798553
-15329.368085	5239.953333	720.274414	54.694523
-15329.368085	5239.953333	719.067383	78.199074
-15329.368085	5239.953333	717.860352	140.830170
-15329.368085	5239.953333	716.653320	67.670570
-15329.368085	5239.953333	715.445313	85.858986
-15329.368085	5239.953333	714.238281	72.701279
-15329.368085	5239.953333	713.030273	54.305145
-15329.368085	5239.953333	711.821289	-123.211548
-15329.368085	5239.953333	710.613281	-11.232249
-15329.368085	5239.953333	709.404297	-128.751938
-15329.368085	5239.953333	708.195313	-53.365734
-15329.368085	5239.953333	706.986328	118.382172
-15329.368085	5239.953333	705.776367	0.823691
-15329.368085	5239.953333	704.566406	-80.244652
-15329.368085	5239.953333	703.356445	-161.308411
-15329.368085	5239.953333	702.146484	-26.250614
-15329.368085	5239.953333	700.935547	179.008606
-15329.368085	5239.953333	699.724609	77.031502
-15329.368085	5239.953333	698.513672	141.605957
-15329.368085	5239.953333	697.302734	68.237648
-15329.368085	5239.953333	696.090820	20.879400
-15329.368085	5239.953333	694.878906	-21.288263
-15329.368085	5239.953333	693.666992	24.930763
-15329.368085	5239.953333	692.455078	-35.476398
-15329.368085	5239.953333	691.242188	135.409805
-15329.368085	5239.953333	690.029297	46.358864
-15329.368085	5239.953333	688.816406	162.540543
-15329.368085	5239.953333	687.602539	29.303038
-15329.368085	5239.953333	686.389648	103.828339
-15329.368085	5239.953333	685.175781	-102.096184
-15329.368085	5239.953333	683.960938	91.757759
-15329.368085	5239.953333	682.747070	-121.927673
-15329.368085	5239.953333	681.532227	43.244118
-15329.368085	5239.953333	680.317383	-43.302826
-15329.368085	5239.953333	679.102539	49.101284
-15329.368085	5239.953333	677.886719	-125.634972
-15329.368085	5239.953333	676.670898	2.972116
-15329.368085	5239.953333	675.455078	-31.790468
-15329.368085	5239.953333	674.239258	-66.571266
-15329.368085	5239.953333	673.022461	15.208144
-15329.368085	5239.953333	671.805664	-151.735016
-15329.368085	5239.953333	670.588867	173.384338
-15329.368085	5239.953333	669.372070	60.780941
-15329.368085	5239.953333	668.154297	-139.820358
-15329.368085	5239.953333	666.936523	32.297783
-15329.368085	5239.953333	665.718750	-10.448681
-15329.368085	5239.953333	664.500977	-94.599846
-15329.368085	5239.953333	663.282227	149.711624
-15329.368085	5239.953333	662.063477	145.650482
-15329.368085	5239.953333	660.844727	126.045784
-15329.368085	5239.953333	659.625000	-61.592606
-15329.368085	5239.953333	658.405273	125.515388
-15329.368085	5239.953333	657.185547	100.653938
-15329.368085	5239.953333	655.965820	55.104290
-15329.368085	5239.953333	654.745117	177.399658
-15329.368085	5239.953333	653.525391	82.726540
-15329.368085	5239.953333	652.303711	-125.528389
-15329.368085	5239.953333	651.083008	68.889839
-15329.368085	5239.953333	649.861328	82.565132
-15329.368085	5239.953333	648.640625	158.116837
-15329.368085	5239.953333	647.417969	63.368877
-15329.368085	5239.953333	646.196289	120.770882
-15329.368085	5239.953333	644.973633	216.783539
-15329.368085	5239.953333	643.750977	176.109222
-15329.368085	5239.953333	642.528320	150.878906
-15329.368085	5239.953333	641.305664	17.411985
-15329.368085	5239.953333	640.082031	249.753220
-15329.368085	5239.953333	638.858398	162.609009
-15329.368085	5239.953333	637.634766	98.640625
-15329.368085	5239.953333	636.410156	96.448418
-15329.368085	5239.953333	635.185547	220.337524
-15329.368085	5239.953333	633.960938	210.332550
-15329.368085	5239.953333	632.736328	146.271515
-15329.368085	5239.953333	631.510742	95.062340
-15329.368085	5239.953333	630.285156	138.991760
-15329.368085	5239.953333	629.059570	152.016037
-15329.368085	5239.953333	627.833984	82.744743
-15329.368085	5239.953333	626.607422	95.707794
-15329.368085	5239.953333	625.380859	221.687195
-15329.368085	5239.953333	624.154297	160.052322
-15329.368085	5239.953333	622.927734	193.440140
-15329.368085	5239.953333	621.700195	13.651980
-15329.368085	5239.953333	620.472656	131.710236
-15329.368085	5239.953333	619.245117	-173.820358
-15329.368085	5239.953333	618.016602	59.639805
-15329.368085	5239.953333	616.788086	-45.692448
-15329.368085	5239.953333	615.559570	185.014252
-15329.368085	5239.953333	614.331055	36.043415
-15329.368085	5239.953333	613.101563	-33.414040
-15329.368085	5239.953333	611.872070	-59.293510
-15329.368085	5239.953333	610.642578	37.828209
-15329.368085	5239.953333	609.413086	-234.099304
-15329.368085	5239.953333	608.182617	57.654869
-15329.368085	5239.953333	606.952148	-50.299629
-15329.368085	5239.953333	605.721680	-132.629395
-15329.368085	5239.953333	604.491211	245.878891
-15329.368085	5239.953333	603.259766	45.721687
-15329.368085	5239.953333	602.028320	-103.196274
-15329.368085	5239.953333	600.796875	88.208443
-15329.368085	5239.953333	599.564453	146.487000
-15329.368085	5239.953333	598.332031	28.252188
-15329.368085	5239.953333	597.099609	66.013283
-15329.368085	5239.953333	595.867188	-67.542717
-15329.368085	5239.953333	594.633789	13.620671
-15329.368085	5239.953333	593.400391	-137.804535
-15329.368085	5239.953333	592.166992	104.239792
-15329.368085	5239.953333	590.933594	98.402626
-15329.368085	5239.953333	589.699219	33.810249
-15329.368085	5239.953333	588.464844	68.793480
-15329.368085	5239.953333	587.230469	149.686844
-15329.368085	5239.953333	585.995117	0.841241
-15329.368085	5239.953333	584.760742	86.778252
-15329.368085	5239.953333	583.525391	-8.460080
-15329.368085	5239.953333	582.289063	136.055511
-15329.368085	5239.953333	581.053711	-10.185496
-15329.368085	5239.953333	579.817383	279.542480
-15329.368085	5239.953333	578.581055	153.684677
-15329.368085	5239.953333	577.343750	247.007034
-15329.368085	5239.953333	576.107422	189.964951
-15329.368085	5239.953333	574.870117	351.981232
-15329.368085	5239.953333	573.631836	307.637573
-15329.368085	5239.953333	572.394531	87.626740
-15329.368085	5239.953333	571.156250	364.062958
-15329.368085	5239.953333	569.917969	200.093735
-15329.368085	5239.953333	568.679688	76.893593
-15329.368085	5239.953333	567.440430	266.625916
-15329.368085	5239.953333	566.202148	273.151581
-15329.368085	5239.953333	564.961914	180.489563
-15329.368085	5239.953333	563.722656	298.866455
-15329.368085	5239.953333	562.482422	132.513596
-15329.368085	5239.953333	561.243164	288.951080
-15329.368085	5239.953333	560.001953	338.604156
-15329.368085	5239.953333	558.761719	309.491455
-15329.368085	5239.953333	557.520508	166.104034
-15329.368085	5239.953333	556.279297	200.501694
-15329.368085	5239.953333	555.038086	95.267220
-15329.368085	5239.953333	553.795898	226.094269
-15329.368085	5239.953333	552.554688	110.745255
-15329.368085	5239.953333	551.311523	48.708847
-15329.368085	5239.953333	550.069336	126.196129
-15329.368085	5239.953333	548.826172	26.147425
-15329.368085	5239.953333	547.583984	-78.924881
-15329.368085	5239.953333	546.339844	41.624187
-15329.368085	5239.953333	545.096680	55.696117
-15329.368085	5239.953333	543.852539	24.158022
-15329.368085	5239.953333	542.608398	-118.814095
-15329.368085	5239.953333	541.364258	110.549088
-15329.368085	5239.953333	540.119141	81.562408
-15329.368085	5239.953333	538.875000	138.663956
-15329.368085	5239.953333	537.628906	180.556442
-15329.368085	5239.953333	536.383789	57.973270
-15329.368085	5239.953333	535.137695	-115.147087
-15329.368085	5239.953333	533.892578	58.319912
-15329.368085	5239.953333	532.645508	-18.620182
-15329.368085	5239.953333	531.399414	18.251247
-15329.368085	5239.953333	530.152344	-33.349922
-15329.368085	5239.953333	528.905273	-26.794670
-15329.368085	5239.953333	527.658203	-45.494381
-15329.368085	5239.953333	526.410156	-190.473038
-15329.368085	5239.953333	525.163086	-148.491043
-15329.368085	5239.953333	523.914063	239.388000
-15329.368085	5239.953333	522.666016	-79.690834
-15329.368085	5239.953333	521.416992	-55.384594
-15329.368085	5239.953333	520.167969	-99.199188
-15329.368085	5239.953333	518.918945	-69.818512
-15329.368085	5239.953333	517.669922	-118.617905
-15329.368085	5239.953333	516.419922	24.261501
-15329.368085	5239.953333	515.169922	15.835171
-15329.368085	5239.953333	513.919922	-78.264458
-15329.368085	5239.953333	512.668945	14.174032
-15329.368085	5239.953333	511.417969	-190.700211
-15329.368085	5239.953333	510.166992	-22.666910
-15329.368085	5239.953333	508.916016	152.873093
-15329.368085	5239.953333	507.664063	84.129272
-15329.368085	5239.953333	506.412109	2.852171
-15329.368085	5239.953333	505.160156	-28.030979
-15329.368085	5239.953333	503.907227	127.320129
-15329.368085	5239.953333	502.655273	310.305298
-15329.368085	5239.953333	501.402344	279.449402
-15329.368085	5239.953333	500.148438	34.890560
-15329.368085	5239.953333	498.895508	200.254929
-15329.368085	5239.953333	497.641602	209.735382
-15329.368085	5239.953333	496.387695	28.254007
-15329.368085	5239.953333	495.132813	45.356129
-15329.368085	5239.953333	493.878906	102.671494
-15329.368085	5239.953333	492.624023	112.271950
-15329.368085	5239.953333	491.368164	-73.948723
-15329.368085	5239.953333	490.113281	56.233677
-15329.368085	5239.953333	488.857422	-24.430250
-15329.368085	5239.953333	487.601563	-117.576485
-15329.368085	5239.953333	486.344727	260.964264
-15329.368085	5239.953333	485.088867	57.496880
-15329.368085	5239.953333	483.832031	-145.856903
-15329.368085	5239.953333	482.575195	-113.437439
-15329.368085	5239.953333	481.317383	-163.719101
-15329.368085	5239.953333	480.059570	9.074796
-15329.368085	5239.953333	478.801758	-71.221085
-15329.368085	5239.953333	477.543945	-3.670591
-15329.368085	5239.953333	476.285156	-56.331207
-15329.368085	5239.953333	475.027344	-128.970078
-15329.368085	5239.953333	473.767578	-156.499161
-15329.368085	5239.953333	472.508789	-93.892380
-15329.368085	5239.953333	471.249023	146.361526
-15329.368085	5239.953333	469.989258	128.870651
-15329.368085	5239.953333	468.729492	41.380291
-15329.368085	5239.953333	467.469727	63.972614
-15329.368085	5239.953333	466.208984	179.074158
-15329.368085	5239.953333	464.948242	59.197922
-15329.368085	5239.953333	463.686523	-20.626154
-15329.368085	5239.953333	462.425781	47.006577
-15329.368085	5239.953333	461.164063	54.678402
-15329.368085	5239.953333	459.901367	142.272827
-15329.368085	5239.953333	458.639648	187.402191
-15329.368085	5239.953333	457.376953	147.650558
-15329.368085	5239.953333	456.114258	110.423805
-15329.368085	5239.953333	454.851563	100.668549
-15329.368085	5239.953333	453.587891	148.298904
-15329.368085	5239.953333	452.324219	-73.441666
-15329.368085	5239.953333	451.060547	-43.238674
-15329.368085	5239.953333	449.796875	76.701759
-15329.368085	5239.953333	448.532227	39.563889
-15329.368085	5239.953333	447.267578	44.802666
-15329.368085	5239.953333	446.002930	64.982162
-15329.368085	5239.953333	444.737305	72.690598
-15329.368085	5239.953333	443.471680	77.895294
-15329.368085	5239.953333	442.206055	85.575996
-15329.368085	5239.953333	440.940430	292.373474
-15329.368085	5239.953333	439.673828	160.603943
-15329.368085	5239.953333	438.407227	148.300690
-15329.368085	5239.953333	437.140625	33.986916
-15329.368085	5239.953333	435.873047	68.916893
-15329.368085	5239.953333	434.605469	-20.525885
-15329.368085	5239.953333	433.337891	34.222416
-15329.368085	5239.953333	432.070313	310.112183
-15329.368085	5239.953333	430.801758	297.590424
-15329.368085	5239.953333	429.533203	11.750065
-15329.368085	5239.953333	428.264648	-5.765519
-15329.368085	5239.953333	426.996094	162.917297
-15329.368085	5239.953333	425.726563	187.467377
-15329.368085	5239.953333	424.457031	10.884460
-15329.368085	5239.953333	423.186523	129.625061
-15329.368085	5239.953333	421.916992	77.044823
-15329.368085	5239.953333	420.646484	203.008423
-15329.368085	5239.953333	419.375977	259.393036
-15329.368085	5239.953333	418.104492	238.794876
-15329.368085	5239.953333	416.833008	188.363342
-15329.368085	5239.953333	415.561523	217.161942
-15329.368085	5239.953333	414.290039	-76.286057
-15329.368085	5239.953333	413.017578	190.159409
-15329.368085	5239.953333	411.746094	107.140747
-15329.368085	5239.953333	410.472656	222.127914
-15329.368085	5239.953333	409.200195	210.671692
-15329.368085	5239.953333	407.926758	194.125473
-15329.368085	5239.953333	406.653320	150.216766
-15329.368085	5239.953333	405.379883	128.438141
-15329.368085	5239.953333	404.105469	146.078751
-15329.368085	5239.953333	402.831055	351.492767
-15329.368085	5239.953333	401.556641	198.122253
-15329.368085	5239.953333	400.282227	319.019348
-15329.368085	5239.953333	399.006836	340.804749
-15329.368085	5239.953333	397.731445	167.171982
-15329.368085	5239.953333	396.456055	121.859032
-15329.368085	5239.953333	395.179688	113.382759
-15329.368085	5239.953333	393.903320	230.609253
-15329.368085	5239.953333	392.626953	246.319611
-15329.368085	5239.953333	391.350586	93.928467
-15329.368085	5239.953333	390.073242	-4.378260
-15329.368085	5239.953333	388.795898	158.598145
-15329.368085	5239.953333	387.518555	-110.443405
-15329.368085	5239.953333	386.240234	-49.218899
-15329.368085	5239.953333	384.961914	11.666387
-15329.368085	5239.953333	383.683594	146.151688
-15329.368085	5239.953333	382.405273	-42.605343
-15329.368085	5239.953333	381.125977	68.964188
-15329.368085	5239.953333	379.846680	101.293739
-15329.368085	5239.953333	378.567383	182.489227
-15329.368085	5239.953333	377.287109	-19.916502
-15329.368085	5239.953333	376.006836	267.258820
-15329.368085	5239.953333	374.726563	9.951151
-15329.368085	5239.953333	373.446289	0.854872
-15329.368085	5239.953333	372.165039	-52.980362
-15329.368085	5239.953333	370.883789	101.814049
-15329.368085	5239.953333	369.602539	219.173584
-15329.368085	5239.953333	368.320313	33.566547
-15329.368085	5239.953333	367.039063	159.709473
-15329.368085	5239.953333	365.755859	24.747429
-15329.368085	5239.953333	364.473633	14.610581
-15329.368085	5239.953333	363.190430	28.463829
-15329.368085	5239.953333	361.907227	49.091602
-15329.368085	5239.953333	360.624023	-164.155472
-15329.368085	5239.953333	359.340820	-9.708449
-15329.368085	5239.953333	358.056641	94.926414
-15329.368085	5239.953333	356.772461	19.725952
-15329.368085	5239.953333	355.487305	181.820618
-15329.368085	5239.953333	354.202148	2.210745
-15329.368085	5239.953333	352.916992	-222.188400
-15329.368085	5239.953333	351.631836	114.181587
-15329.368085	5239.953333	350.346680	-50.391903
-15329.368085	5239.953333	349.060547	-58.873482
-15329.368085	5239.953333	347.774414	105.778465
-15329.368085	5239.953333	346.487305	-19.546532
-15329.368085	5239.953333	345.200195	11.045821
-15329.368085	5239.953333	343.913086	172.941910
-15329.368085	5239.953333	342.625977	140.462158
-15329.368085	5239.953333	341.338867	207.389359
-15329.368085	5239.953333	340.050781	53.075645
-15329.368085	5239.953333	338.762695	-77.713013
-15329.368085	5239.953333	337.473633	-1.611565
-15329.368085	5239.953333	336.184570	-141.785385
-15329.368085	5239.953333	334.895508	3.039546
-15329.368085	5239.953333	333.606445	-21.966825
-15329.368085	5239.953333	332.317383	37.412689
-15329.368085	5239.953333	331.027344	-95.006096
-15329.368085	5239.953333	329.736328	0.988086
-15329.368085	5239.953333	328.446289	-94.756950
-15329.368085	5239.953333	327.155273	-101.438347
-15329.368085	5239.953333	325.864258	17.497019
-15329.368085	5239.953333	324.573242	34.970455
-15329.368085	5239.953333	323.281250	-44.139820
-15329.368085	5239.953333	321.989258	-92.927284
-15329.368085	5239.953333	320.697266	-82.184647
-15329.368085	5239.953333	319.405273	39.217529
-15329.368085	5239.953333	318.112305	56.606236
-15329.368085	5239.953333	316.819336	218.643265
-15329.368085	5239.953333	315.526367	52.477303
-15329.368085	5239.953333	314.232422	-30.050062
-15329.368085	5239.953333	312.938477	63.559090
-15329.368085	5239.953333	311.644531	216.262650
-15329.368085	5239.953333	310.349609	-46.807236
-15329.368085	5239.953333	309.054688	143.571350
-15329.368085	5239.953333	307.759766	-6.265300
-15329.368085	5239.953333	306.464844	68.308357
-15329.368085	5239.953333	305.168945	-78.087479
-15329.368085	5239.953333	303.873047	50.800491
-15329.368085	5239.953333	302.577148	77.881332
-15329.368085	5239.953333	301.281250	-52.735561
-15329.368085	5239.953333	299.984375	152.295578
