#X		#Y		#Wave		#Intensity
-14772.633511	5367.266667	1999.946289	-128.062454
-14772.633511	5367.266667	1998.981445	7.752801
-14772.633511	5367.266667	1998.017578	47.801888
-14772.633511	5367.266667	1997.052734	112.458488
-14772.633511	5367.266667	1996.088867	-8.889711
-14772.633511	5367.266667	1995.124023	-103.092545
-14772.633511	5367.266667	1994.159180	-100.813538
-14772.633511	5367.266667	1993.193359	10.281299
-14772.633511	5367.266667	1992.228516	71.681519
-14772.633511	5367.266667	1991.262695	61.143158
-14772.633511	5367.266667	1990.296875	15.833433
-14772.633511	5367.266667	1989.331055	173.321808
-14772.633511	5367.266667	1988.365234	60.970112
-14772.633511	5367.266667	1987.398438	82.116402
-14772.633511	5367.266667	1986.432617	-47.711735
-14772.633511	5367.266667	1985.465820	-34.186081
-14772.633511	5367.266667	1984.499023	3.954515
-14772.633511	5367.266667	1983.532227	-93.959816
-14772.633511	5367.266667	1982.565430	72.489342
-14772.633511	5367.266667	1981.597656	-5.819587
-14772.633511	5367.266667	1980.629883	110.968353
-14772.633511	5367.266667	1979.662109	-26.765289
-14772.633511	5367.266667	1978.694336	28.085554
-14772.633511	5367.266667	1977.726563	-48.013264
-14772.633511	5367.266667	1976.758789	75.789268
-14772.633511	5367.266667	1975.790039	58.798351
-14772.633511	5367.266667	1974.821289	133.047180
-14772.633511	5367.266667	1973.852539	73.981247
-14772.633511	5367.266667	1972.883789	-93.655167
-14772.633511	5367.266667	1971.915039	177.694138
-14772.633511	5367.266667	1970.945313	69.164711
-14772.633511	5367.266667	1969.975586	46.908363
-14772.633511	5367.266667	1969.005859	46.794052
-14772.633511	5367.266667	1968.036133	61.419674
-14772.633511	5367.266667	1967.066406	21.790285
-14772.633511	5367.266667	1966.096680	21.549053
-14772.633511	5367.266667	1965.125977	-67.399612
-14772.633511	5367.266667	1964.155273	-65.238518
-14772.633511	5367.266667	1963.184570	-33.567867
-14772.633511	5367.266667	1962.213867	-75.789192
-14772.633511	5367.266667	1961.242188	-34.346603
-14772.633511	5367.266667	1960.271484	66.110229
-14772.633511	5367.266667	1959.299805	161.582321
-14772.633511	5367.266667	1958.328125	79.891548
-14772.633511	5367.266667	1957.356445	199.873383
-14772.633511	5367.266667	1956.384766	-17.072830
-14772.633511	5367.266667	1955.412109	137.260666
-14772.633511	5367.266667	1954.439453	92.427040
-14772.633511	5367.266667	1953.467773	224.536148
-14772.633511	5367.266667	1952.495117	5.226471
-14772.633511	5367.266667	1951.521484	68.491318
-14772.633511	5367.266667	1950.548828	-121.255241
-14772.633511	5367.266667	1949.575195	89.331642
-14772.633511	5367.266667	1948.601563	118.148163
-14772.633511	5367.266667	1947.627930	-34.702713
-14772.633511	5367.266667	1946.654297	165.917587
-14772.633511	5367.266667	1945.680664	42.553822
-14772.633511	5367.266667	1944.706055	-73.406273
-14772.633511	5367.266667	1943.732422	11.817317
-14772.633511	5367.266667	1942.757813	121.533379
-14772.633511	5367.266667	1941.783203	165.006454
-14772.633511	5367.266667	1940.807617	125.111885
-14772.633511	5367.266667	1939.833008	109.749123
-14772.633511	5367.266667	1938.857422	79.691635
-14772.633511	5367.266667	1937.881836	-55.706371
-14772.633511	5367.266667	1936.906250	-83.258949
-14772.633511	5367.266667	1935.930664	50.858486
-14772.633511	5367.266667	1934.955078	118.816666
-14772.633511	5367.266667	1933.978516	5.579091
-14772.633511	5367.266667	1933.001953	-43.960743
-14772.633511	5367.266667	1932.025391	-117.945694
-14772.633511	5367.266667	1931.048828	101.746964
-14772.633511	5367.266667	1930.072266	86.503098
-14772.633511	5367.266667	1929.094727	174.011185
-14772.633511	5367.266667	1928.118164	85.417000
-14772.633511	5367.266667	1927.140625	-118.054520
-14772.633511	5367.266667	1926.163086	-52.518032
-14772.633511	5367.266667	1925.184570	-1.658198
-14772.633511	5367.266667	1924.207031	-41.220600
-14772.633511	5367.266667	1923.228516	-134.508148
-14772.633511	5367.266667	1922.250000	172.888229
-14772.633511	5367.266667	1921.271484	74.743271
-14772.633511	5367.266667	1920.292969	5.955197
-14772.633511	5367.266667	1919.314453	-92.088524
-14772.633511	5367.266667	1918.334961	-9.441791
-14772.633511	5367.266667	1917.355469	-141.581497
-14772.633511	5367.266667	1916.375977	-0.357585
-14772.633511	5367.266667	1915.396484	57.881462
-14772.633511	5367.266667	1914.416992	167.340836
-14772.633511	5367.266667	1913.436523	64.601364
-14772.633511	5367.266667	1912.457031	47.261406
-14772.633511	5367.266667	1911.476563	132.335037
-14772.633511	5367.266667	1910.496094	200.333328
-14772.633511	5367.266667	1909.515625	-167.893127
-14772.633511	5367.266667	1908.534180	97.527931
-14772.633511	5367.266667	1907.552734	102.209534
-14772.633511	5367.266667	1906.572266	43.582916
-14772.633511	5367.266667	1905.590820	99.446922
-14772.633511	5367.266667	1904.608398	48.179886
-14772.633511	5367.266667	1903.626953	6.688240
-14772.633511	5367.266667	1902.644531	30.939800
-14772.633511	5367.266667	1901.663086	28.434626
-14772.633511	5367.266667	1900.680664	1.617135
-14772.633511	5367.266667	1899.698242	-105.442955
-14772.633511	5367.266667	1898.714844	-95.713219
-14772.633511	5367.266667	1897.732422	38.036667
-14772.633511	5367.266667	1896.749023	33.182339
-14772.633511	5367.266667	1895.765625	25.914459
-14772.633511	5367.266667	1894.782227	18.665348
-14772.633511	5367.266667	1893.798828	45.449818
-14772.633511	5367.266667	1892.814453	23.653328
-14772.633511	5367.266667	1891.831055	-155.990189
-14772.633511	5367.266667	1890.846680	99.116684
-14772.633511	5367.266667	1889.862305	118.639030
-14772.633511	5367.266667	1888.877930	45.925594
-14772.633511	5367.266667	1887.892578	-60.726055
-14772.633511	5367.266667	1886.908203	111.724434
-14772.633511	5367.266667	1885.922852	68.202682
-14772.633511	5367.266667	1884.937500	-4.398321
-14772.633511	5367.266667	1883.952148	92.799881
-14772.633511	5367.266667	1882.965820	-28.250847
-14772.633511	5367.266667	1881.980469	-71.669014
-14772.633511	5367.266667	1880.994141	-124.756958
-14772.633511	5367.266667	1880.007813	8.780530
-14772.633511	5367.266667	1879.021484	-56.398357
-14772.633511	5367.266667	1878.035156	-10.113463
-14772.633511	5367.266667	1877.047852	-41.341141
-14772.633511	5367.266667	1876.061523	-99.185913
-14772.633511	5367.266667	1875.074219	-89.213242
-14772.633511	5367.266667	1874.086914	27.269432
-14772.633511	5367.266667	1873.098633	34.806278
-14772.633511	5367.266667	1872.111328	15.729203
-14772.633511	5367.266667	1871.123047	66.821892
-14772.633511	5367.266667	1870.135742	-32.064747
-14772.633511	5367.266667	1869.147461	-109.146523
-14772.633511	5367.266667	1868.158203	-65.302910
-14772.633511	5367.266667	1867.169922	-19.055113
-14772.633511	5367.266667	1866.180664	-100.923134
-14772.633511	5367.266667	1865.192383	-93.347618
-14772.633511	5367.266667	1864.203125	-131.679642
-14772.633511	5367.266667	1863.213867	54.654610
-14772.633511	5367.266667	1862.223633	-48.901810
-14772.633511	5367.266667	1861.234375	33.513165
-14772.633511	5367.266667	1860.244141	-219.687378
-14772.633511	5367.266667	1859.253906	48.586941
-14772.633511	5367.266667	1858.263672	70.595284
-14772.633511	5367.266667	1857.273438	90.179321
-14772.633511	5367.266667	1856.282227	-3.634430
-14772.633511	5367.266667	1855.291992	40.066895
-14772.633511	5367.266667	1854.300781	-51.300735
-14772.633511	5367.266667	1853.309570	-53.430126
-14772.633511	5367.266667	1852.317383	74.608055
-14772.633511	5367.266667	1851.326172	161.618301
-14772.633511	5367.266667	1850.333984	176.295837
-14772.633511	5367.266667	1849.342773	12.673223
-14772.633511	5367.266667	1848.350586	-8.777509
-14772.633511	5367.266667	1847.357422	210.606079
-14772.633511	5367.266667	1846.365234	73.526039
-14772.633511	5367.266667	1845.372070	145.934814
-14772.633511	5367.266667	1844.379883	95.548172
-14772.633511	5367.266667	1843.386719	37.947437
-14772.633511	5367.266667	1842.393555	134.345657
-14772.633511	5367.266667	1841.399414	88.759941
-14772.633511	5367.266667	1840.406250	-69.866302
-14772.633511	5367.266667	1839.412109	2.407039
-14772.633511	5367.266667	1838.417969	-14.321182
-14772.633511	5367.266667	1837.423828	74.709656
-14772.633511	5367.266667	1836.429688	175.706955
-14772.633511	5367.266667	1835.434570	134.875275
-14772.633511	5367.266667	1834.440430	-69.327156
-14772.633511	5367.266667	1833.445313	-23.661060
-14772.633511	5367.266667	1832.450195	91.614601
-14772.633511	5367.266667	1831.454102	137.193085
-14772.633511	5367.266667	1830.458984	31.492758
-14772.633511	5367.266667	1829.462891	89.025208
-14772.633511	5367.266667	1828.466797	12.127768
-14772.633511	5367.266667	1827.470703	16.813534
-14772.633511	5367.266667	1826.474609	64.654701
-14772.633511	5367.266667	1825.478516	76.478348
-14772.633511	5367.266667	1824.481445	49.904865
-14772.633511	5367.266667	1823.484375	100.037323
-14772.633511	5367.266667	1822.487305	126.155457
-14772.633511	5367.266667	1821.490234	140.255310
-14772.633511	5367.266667	1820.493164	147.135162
-14772.633511	5367.266667	1819.495117	110.862114
-14772.633511	5367.266667	1818.498047	-49.976456
-14772.633511	5367.266667	1817.500000	131.673065
-14772.633511	5367.266667	1816.500977	109.704620
-14772.633511	5367.266667	1815.502930	-39.158966
-14772.633511	5367.266667	1814.504883	53.741642
-14772.633511	5367.266667	1813.505859	132.218506
-14772.633511	5367.266667	1812.506836	-83.646927
-14772.633511	5367.266667	1811.507813	30.645836
-14772.633511	5367.266667	1810.508789	-48.857780
-14772.633511	5367.266667	1809.508789	41.409081
-14772.633511	5367.266667	1808.508789	162.689133
-14772.633511	5367.266667	1807.508789	257.597626
-14772.633511	5367.266667	1806.508789	333.318237
-14772.633511	5367.266667	1805.508789	50.570244
-14772.633511	5367.266667	1804.508789	-43.379711
-14772.633511	5367.266667	1803.507813	15.531672
-14772.633511	5367.266667	1802.506836	-54.567413
-14772.633511	5367.266667	1801.505859	54.391964
-14772.633511	5367.266667	1800.504883	-101.695580
-14772.633511	5367.266667	1799.502930	133.650620
-14772.633511	5367.266667	1798.501953	39.575943
-14772.633511	5367.266667	1797.500000	191.231049
-14772.633511	5367.266667	1796.498047	161.508072
-14772.633511	5367.266667	1795.496094	-39.951778
-14772.633511	5367.266667	1794.493164	168.742188
-14772.633511	5367.266667	1793.491211	0.656174
-14772.633511	5367.266667	1792.488281	78.092850
-14772.633511	5367.266667	1791.485352	-194.847443
-14772.633511	5367.266667	1790.482422	58.830578
-14772.633511	5367.266667	1789.478516	126.562859
-14772.633511	5367.266667	1788.475586	79.909660
-14772.633511	5367.266667	1787.471680	76.093239
-14772.633511	5367.266667	1786.467773	105.568665
-14772.633511	5367.266667	1785.463867	134.991425
-14772.633511	5367.266667	1784.459961	-64.108009
-14772.633511	5367.266667	1783.455078	-46.647377
-14772.633511	5367.266667	1782.450195	149.188431
-14772.633511	5367.266667	1781.445313	237.873276
-14772.633511	5367.266667	1780.440430	262.273621
-14772.633511	5367.266667	1779.435547	94.032822
-14772.633511	5367.266667	1778.429688	47.046406
-14772.633511	5367.266667	1777.424805	42.817982
-14772.633511	5367.266667	1776.418945	5.276560
-14772.633511	5367.266667	1775.413086	-70.307327
-14772.633511	5367.266667	1774.406250	22.742023
-14772.633511	5367.266667	1773.400391	68.216164
-14772.633511	5367.266667	1772.393555	51.888542
-14772.633511	5367.266667	1771.386719	75.881447
-14772.633511	5367.266667	1770.379883	-71.077728
-14772.633511	5367.266667	1769.373047	57.255981
-14772.633511	5367.266667	1768.365234	95.331520
-14772.633511	5367.266667	1767.358398	28.971767
-14772.633511	5367.266667	1766.350586	78.805664
-14772.633511	5367.266667	1765.342773	88.262451
-14772.633511	5367.266667	1764.334961	149.828354
-14772.633511	5367.266667	1763.326172	197.099594
-14772.633511	5367.266667	1762.318359	68.931763
-14772.633511	5367.266667	1761.309570	47.391403
-14772.633511	5367.266667	1760.300781	-95.009964
-14772.633511	5367.266667	1759.291016	1.823751
-14772.633511	5367.266667	1758.282227	27.532194
-14772.633511	5367.266667	1757.272461	-22.585970
-14772.633511	5367.266667	1756.262695	-160.320770
-14772.633511	5367.266667	1755.252930	-77.935905
-14772.633511	5367.266667	1754.243164	37.499767
-14772.633511	5367.266667	1753.233398	-36.428795
-14772.633511	5367.266667	1752.222656	74.126701
-14772.633511	5367.266667	1751.211914	104.182632
-14772.633511	5367.266667	1750.201172	115.263443
-14772.633511	5367.266667	1749.190430	38.821304
-14772.633511	5367.266667	1748.179688	-6.911323
-14772.633511	5367.266667	1747.167969	-66.856339
-14772.633511	5367.266667	1746.156250	123.626915
-14772.633511	5367.266667	1745.144531	127.368095
-14772.633511	5367.266667	1744.132813	-10.650301
-14772.633511	5367.266667	1743.121094	113.453148
-14772.633511	5367.266667	1742.108398	48.582050
-14772.633511	5367.266667	1741.095703	-115.452751
-14772.633511	5367.266667	1740.083008	-8.064723
-14772.633511	5367.266667	1739.070313	-70.655609
-14772.633511	5367.266667	1738.057617	-10.593462
-14772.633511	5367.266667	1737.043945	162.613541
-14772.633511	5367.266667	1736.030273	-147.735229
-14772.633511	5367.266667	1735.016602	58.348663
-14772.633511	5367.266667	1734.002930	-98.725456
-14772.633511	5367.266667	1732.989258	-97.872963
-14772.633511	5367.266667	1731.974609	-16.951323
-14772.633511	5367.266667	1730.959961	73.317604
-14772.633511	5367.266667	1729.945313	15.106359
-14772.633511	5367.266667	1728.930664	-76.099022
-14772.633511	5367.266667	1727.916016	-14.262210
-14772.633511	5367.266667	1726.900391	-72.563606
-14772.633511	5367.266667	1725.885742	-29.671127
-14772.633511	5367.266667	1724.870117	24.921871
-14772.633511	5367.266667	1723.853516	-80.549156
-14772.633511	5367.266667	1722.837891	110.383408
-14772.633511	5367.266667	1721.822266	-56.297813
-14772.633511	5367.266667	1720.805664	54.513210
-14772.633511	5367.266667	1719.789063	42.983345
-14772.633511	5367.266667	1718.772461	-36.752872
-14772.633511	5367.266667	1717.754883	-64.803871
-14772.633511	5367.266667	1716.738281	-45.887074
-14772.633511	5367.266667	1715.720703	-1.183987
-14772.633511	5367.266667	1714.703125	-109.213066
-14772.633511	5367.266667	1713.685547	22.289661
-14772.633511	5367.266667	1712.667969	177.179474
-14772.633511	5367.266667	1711.649414	-27.198135
-14772.633511	5367.266667	1710.630859	-6.225702
-14772.633511	5367.266667	1709.612305	-67.432198
-14772.633511	5367.266667	1708.593750	0.379970
-14772.633511	5367.266667	1707.575195	14.175496
-14772.633511	5367.266667	1706.555664	112.348053
-14772.633511	5367.266667	1705.536133	-31.067188
-14772.633511	5367.266667	1704.516602	-113.514702
-14772.633511	5367.266667	1703.497070	-45.962872
-14772.633511	5367.266667	1702.477539	-51.121300
-14772.633511	5367.266667	1701.457031	-0.091075
-14772.633511	5367.266667	1700.437500	-66.238258
-14772.633511	5367.266667	1699.416992	12.804393
-14772.633511	5367.266667	1698.395508	-58.089787
-14772.633511	5367.266667	1697.375000	112.151352
-14772.633511	5367.266667	1696.354492	97.375412
-14772.633511	5367.266667	1695.333008	-32.110664
-14772.633511	5367.266667	1694.311523	6.883995
-14772.633511	5367.266667	1693.290039	29.452101
-14772.633511	5367.266667	1692.267578	66.004524
-14772.633511	5367.266667	1691.246094	149.282761
-14772.633511	5367.266667	1690.223633	-3.650159
-14772.633511	5367.266667	1689.201172	126.287430
-14772.633511	5367.266667	1688.178711	71.509056
-14772.633511	5367.266667	1687.155273	-41.703915
-14772.633511	5367.266667	1686.132813	214.221878
-14772.633511	5367.266667	1685.109375	7.529852
-14772.633511	5367.266667	1684.085938	99.805267
-14772.633511	5367.266667	1683.062500	37.913338
-14772.633511	5367.266667	1682.039063	57.719280
-14772.633511	5367.266667	1681.014648	-32.215893
-14772.633511	5367.266667	1679.990234	-12.471332
-14772.633511	5367.266667	1678.965820	81.894852
-14772.633511	5367.266667	1677.941406	36.238613
-14772.633511	5367.266667	1676.916992	-25.754492
-14772.633511	5367.266667	1675.891602	117.433960
-14772.633511	5367.266667	1674.866211	43.730820
-14772.633511	5367.266667	1673.840820	11.984258
-14772.633511	5367.266667	1672.815430	-117.652390
-14772.633511	5367.266667	1671.790039	134.841400
-14772.633511	5367.266667	1670.763672	-1.815343
-14772.633511	5367.266667	1669.737305	8.283368
-14772.633511	5367.266667	1668.710938	186.011108
-14772.633511	5367.266667	1667.684570	33.052963
-14772.633511	5367.266667	1666.658203	247.902634
-14772.633511	5367.266667	1665.630859	120.537354
-14772.633511	5367.266667	1664.603516	121.171341
-14772.633511	5367.266667	1663.576172	175.288528
-14772.633511	5367.266667	1662.548828	99.114082
-14772.633511	5367.266667	1661.520508	227.578293
-14772.633511	5367.266667	1660.493164	214.156143
-14772.633511	5367.266667	1659.464844	121.679390
-14772.633511	5367.266667	1658.436523	138.449280
-14772.633511	5367.266667	1657.408203	157.518127
-14772.633511	5367.266667	1656.378906	236.956787
-14772.633511	5367.266667	1655.350586	144.471878
-14772.633511	5367.266667	1654.321289	168.112762
-14772.633511	5367.266667	1653.291992	142.969849
-14772.633511	5367.266667	1652.261719	45.850307
-14772.633511	5367.266667	1651.232422	180.853409
-14772.633511	5367.266667	1650.202148	209.039185
-14772.633511	5367.266667	1649.171875	283.601624
-14772.633511	5367.266667	1648.141602	295.491486
-14772.633511	5367.266667	1647.111328	344.470093
-14772.633511	5367.266667	1646.080078	87.342598
-14772.633511	5367.266667	1645.049805	263.820709
-14772.633511	5367.266667	1644.018555	143.533722
-14772.633511	5367.266667	1642.987305	447.357300
-14772.633511	5367.266667	1641.955078	278.399323
-14772.633511	5367.266667	1640.923828	378.210419
-14772.633511	5367.266667	1639.891602	438.595612
-14772.633511	5367.266667	1638.859375	371.592712
-14772.633511	5367.266667	1637.827148	318.498230
-14772.633511	5367.266667	1636.794922	462.163300
-14772.633511	5367.266667	1635.761719	409.050293
-14772.633511	5367.266667	1634.729492	231.015594
-14772.633511	5367.266667	1633.696289	261.235229
-14772.633511	5367.266667	1632.662109	143.408005
-14772.633511	5367.266667	1631.628906	173.622772
-14772.633511	5367.266667	1630.594727	393.395386
-14772.633511	5367.266667	1629.561523	245.555908
-14772.633511	5367.266667	1628.527344	326.559662
-14772.633511	5367.266667	1627.493164	451.430817
-14772.633511	5367.266667	1626.458008	241.271378
-14772.633511	5367.266667	1625.423828	282.957275
-14772.633511	5367.266667	1624.388672	287.672363
-14772.633511	5367.266667	1623.353516	350.105896
-14772.633511	5367.266667	1622.318359	465.608032
-14772.633511	5367.266667	1621.282227	352.575745
-14772.633511	5367.266667	1620.247070	562.641724
-14772.633511	5367.266667	1619.210938	378.120758
-14772.633511	5367.266667	1618.174805	371.281128
-14772.633511	5367.266667	1617.137695	405.950500
-14772.633511	5367.266667	1616.101563	382.976349
-14772.633511	5367.266667	1615.064453	496.017242
-14772.633511	5367.266667	1614.027344	401.589508
-14772.633511	5367.266667	1612.990234	528.419312
-14772.633511	5367.266667	1611.953125	512.366699
-14772.633511	5367.266667	1610.916016	517.058105
-14772.633511	5367.266667	1609.877930	450.355499
-14772.633511	5367.266667	1608.839844	611.638367
-14772.633511	5367.266667	1607.801758	422.951263
-14772.633511	5367.266667	1606.763672	478.320160
-14772.633511	5367.266667	1605.724609	372.587433
-14772.633511	5367.266667	1604.685547	526.889404
-14772.633511	5367.266667	1603.646484	644.339050
-14772.633511	5367.266667	1602.607422	577.766907
-14772.633511	5367.266667	1601.568359	571.017334
-14772.633511	5367.266667	1600.528320	665.430847
-14772.633511	5367.266667	1599.489258	532.275452
-14772.633511	5367.266667	1598.449219	709.417175
-14772.633511	5367.266667	1597.408203	592.404358
-14772.633511	5367.266667	1596.368164	583.425842
-14772.633511	5367.266667	1595.327148	445.844849
-14772.633511	5367.266667	1594.287109	643.593201
-14772.633511	5367.266667	1593.246094	613.990234
-14772.633511	5367.266667	1592.204102	669.338196
-14772.633511	5367.266667	1591.163086	598.469360
-14772.633511	5367.266667	1590.121094	669.897400
-14772.633511	5367.266667	1589.079102	560.089417
-14772.633511	5367.266667	1588.037109	470.986450
-14772.633511	5367.266667	1586.995117	494.301910
-14772.633511	5367.266667	1585.953125	444.262878
-14772.633511	5367.266667	1584.910156	497.409332
-14772.633511	5367.266667	1583.867188	344.297150
-14772.633511	5367.266667	1582.824219	679.319458
-14772.633511	5367.266667	1581.781250	317.808838
-14772.633511	5367.266667	1580.737305	474.092438
-14772.633511	5367.266667	1579.693359	671.559021
-14772.633511	5367.266667	1578.649414	440.831207
-14772.633511	5367.266667	1577.605469	551.292358
-14772.633511	5367.266667	1576.561523	574.768066
-14772.633511	5367.266667	1575.516602	458.675629
-14772.633511	5367.266667	1574.472656	608.039673
-14772.633511	5367.266667	1573.427734	439.433228
-14772.633511	5367.266667	1572.381836	545.335449
-14772.633511	5367.266667	1571.336914	475.179016
-14772.633511	5367.266667	1570.291016	599.377991
-14772.633511	5367.266667	1569.246094	570.436279
-14772.633511	5367.266667	1568.200195	502.684052
-14772.633511	5367.266667	1567.153320	428.129669
-14772.633511	5367.266667	1566.107422	287.401825
-14772.633511	5367.266667	1565.060547	404.811340
-14772.633511	5367.266667	1564.013672	519.925232
-14772.633511	5367.266667	1562.966797	450.119019
-14772.633511	5367.266667	1561.919922	651.973145
-14772.633511	5367.266667	1560.872070	552.565430
-14772.633511	5367.266667	1559.825195	341.444916
-14772.633511	5367.266667	1558.777344	442.934570
-14772.633511	5367.266667	1557.729492	434.952759
-14772.633511	5367.266667	1556.680664	522.767700
-14772.633511	5367.266667	1555.632813	585.514282
-14772.633511	5367.266667	1554.583984	272.197205
-14772.633511	5367.266667	1553.535156	458.089233
-14772.633511	5367.266667	1552.486328	388.774750
-14772.633511	5367.266667	1551.436523	399.245819
-14772.633511	5367.266667	1550.387695	457.582184
-14772.633511	5367.266667	1549.337891	449.896423
-14772.633511	5367.266667	1548.288086	141.752045
-14772.633511	5367.266667	1547.238281	450.585968
-14772.633511	5367.266667	1546.187500	336.066193
-14772.633511	5367.266667	1545.136719	396.820557
-14772.633511	5367.266667	1544.086914	539.488464
-14772.633511	5367.266667	1543.035156	288.679657
-14772.633511	5367.266667	1541.984375	431.390625
-14772.633511	5367.266667	1540.933594	289.913452
-14772.633511	5367.266667	1539.881836	364.460266
-14772.633511	5367.266667	1538.830078	241.313919
-14772.633511	5367.266667	1537.778320	331.831207
-14772.633511	5367.266667	1536.725586	497.315247
-14772.633511	5367.266667	1535.673828	233.535965
-14772.633511	5367.266667	1534.621094	335.484009
-14772.633511	5367.266667	1533.568359	176.357010
-14772.633511	5367.266667	1532.515625	375.968781
-14772.633511	5367.266667	1531.461914	291.872620
-14772.633511	5367.266667	1530.409180	282.735474
-14772.633511	5367.266667	1529.355469	368.918549
-14772.633511	5367.266667	1528.301758	282.746094
-14772.633511	5367.266667	1527.247070	319.098785
-14772.633511	5367.266667	1526.193359	387.230072
-14772.633511	5367.266667	1525.138672	242.310074
-14772.633511	5367.266667	1524.083984	432.897308
-14772.633511	5367.266667	1523.029297	188.430511
-14772.633511	5367.266667	1521.974609	342.805542
-14772.633511	5367.266667	1520.918945	80.427650
-14772.633511	5367.266667	1519.863281	180.512375
-14772.633511	5367.266667	1518.807617	99.489693
-14772.633511	5367.266667	1517.751953	294.699707
-14772.633511	5367.266667	1516.696289	89.318497
-14772.633511	5367.266667	1515.639648	-27.691797
-14772.633511	5367.266667	1514.583008	120.071571
-14772.633511	5367.266667	1513.526367	125.338348
-14772.633511	5367.266667	1512.469727	178.142990
-14772.633511	5367.266667	1511.412109	-58.413528
-14772.633511	5367.266667	1510.355469	91.707848
-14772.633511	5367.266667	1509.297852	115.262604
-14772.633511	5367.266667	1508.240234	68.816246
-14772.633511	5367.266667	1507.181641	56.324455
-14772.633511	5367.266667	1506.124023	-91.621437
-14772.633511	5367.266667	1505.065430	11.197358
-14772.633511	5367.266667	1504.006836	44.040447
-14772.633511	5367.266667	1502.948242	81.440262
-14772.633511	5367.266667	1501.888672	6.035342
-14772.633511	5367.266667	1500.830078	29.998501
-14772.633511	5367.266667	1499.770508	72.051949
-14772.633511	5367.266667	1498.710938	118.655205
-14772.633511	5367.266667	1497.650391	-10.598913
-14772.633511	5367.266667	1496.590820	-49.559505
-14772.633511	5367.266667	1495.530273	44.541931
-14772.633511	5367.266667	1494.469727	23.724258
-14772.633511	5367.266667	1493.409180	93.101891
-14772.633511	5367.266667	1492.348633	-26.726372
-14772.633511	5367.266667	1491.287109	-207.265091
-14772.633511	5367.266667	1490.225586	-56.646992
-14772.633511	5367.266667	1489.164063	42.184692
-14772.633511	5367.266667	1488.102539	35.237911
-14772.633511	5367.266667	1487.041016	104.871193
-14772.633511	5367.266667	1485.978516	19.274584
-14772.633511	5367.266667	1484.916016	-50.470127
-14772.633511	5367.266667	1483.853516	-129.147980
-14772.633511	5367.266667	1482.791016	-34.572338
-14772.633511	5367.266667	1481.727539	-56.887932
-14772.633511	5367.266667	1480.664063	-173.545425
-14772.633511	5367.266667	1479.600586	-72.095505
-14772.633511	5367.266667	1478.537109	65.309570
-14772.633511	5367.266667	1477.473633	-111.726608
-14772.633511	5367.266667	1476.409180	-82.062370
-14772.633511	5367.266667	1475.344727	80.154045
-14772.633511	5367.266667	1474.280273	-125.785309
-14772.633511	5367.266667	1473.215820	-120.580566
-14772.633511	5367.266667	1472.151367	82.076927
-14772.633511	5367.266667	1471.085938	-85.466820
-14772.633511	5367.266667	1470.020508	31.984385
-14772.633511	5367.266667	1468.955078	-81.388763
-14772.633511	5367.266667	1467.888672	-82.723488
-14772.633511	5367.266667	1466.823242	99.882744
-14772.633511	5367.266667	1465.756836	33.648659
-14772.633511	5367.266667	1464.690430	68.408798
-14772.633511	5367.266667	1463.624023	28.967867
-14772.633511	5367.266667	1462.556641	86.572678
-14772.633511	5367.266667	1461.490234	217.212097
-14772.633511	5367.266667	1460.422852	-85.101646
-14772.633511	5367.266667	1459.355469	255.904160
-14772.633511	5367.266667	1458.287109	105.062477
-14772.633511	5367.266667	1457.219727	-69.386360
-14772.633511	5367.266667	1456.151367	104.661133
-14772.633511	5367.266667	1455.083008	121.358292
-14772.633511	5367.266667	1454.014648	109.772453
-14772.633511	5367.266667	1452.945313	242.882355
-14772.633511	5367.266667	1451.876953	317.905273
-14772.633511	5367.266667	1450.807617	184.297775
-14772.633511	5367.266667	1449.738281	-18.291023
-14772.633511	5367.266667	1448.668945	68.033348
-14772.633511	5367.266667	1447.598633	47.042831
-14772.633511	5367.266667	1446.528320	145.674454
-14772.633511	5367.266667	1445.458008	-43.239838
-14772.633511	5367.266667	1444.387695	6.107506
-14772.633511	5367.266667	1443.317383	5.185146
-14772.633511	5367.266667	1442.246094	70.834625
-14772.633511	5367.266667	1441.174805	-4.711448
-14772.633511	5367.266667	1440.103516	-59.734421
-14772.633511	5367.266667	1439.032227	201.078094
-14772.633511	5367.266667	1437.960938	130.382263
-14772.633511	5367.266667	1436.888672	-23.275059
-14772.633511	5367.266667	1435.816406	69.770081
-14772.633511	5367.266667	1434.744141	118.073219
-14772.633511	5367.266667	1433.670898	-54.037365
-14772.633511	5367.266667	1432.598633	7.972855
-14772.633511	5367.266667	1431.525391	-0.361467
-14772.633511	5367.266667	1430.452148	55.482689
-14772.633511	5367.266667	1429.378906	-191.289749
-14772.633511	5367.266667	1428.304688	-126.613907
-14772.633511	5367.266667	1427.231445	-71.285934
-14772.633511	5367.266667	1426.157227	67.953972
-14772.633511	5367.266667	1425.083008	37.312122
-14772.633511	5367.266667	1424.007813	-26.805601
-14772.633511	5367.266667	1422.933594	58.521015
-14772.633511	5367.266667	1421.858398	-8.545480
-14772.633511	5367.266667	1420.783203	-72.052910
-14772.633511	5367.266667	1419.708008	34.477058
-14772.633511	5367.266667	1418.631836	-5.873677
-14772.633511	5367.266667	1417.555664	-138.858185
-14772.633511	5367.266667	1416.479492	-67.047974
-14772.633511	5367.266667	1415.403320	74.880020
-14772.633511	5367.266667	1414.327148	162.002731
-14772.633511	5367.266667	1413.250000	81.068321
-14772.633511	5367.266667	1412.173828	23.821096
-14772.633511	5367.266667	1411.096680	-18.117371
-14772.633511	5367.266667	1410.018555	-30.925856
-14772.633511	5367.266667	1408.941406	-174.926788
-14772.633511	5367.266667	1407.863281	-71.117416
-14772.633511	5367.266667	1406.785156	-162.219177
-14772.633511	5367.266667	1405.707031	20.394657
-14772.633511	5367.266667	1404.628906	-67.977341
-14772.633511	5367.266667	1403.549805	-99.062157
-14772.633511	5367.266667	1402.470703	-115.461319
-14772.633511	5367.266667	1401.391602	-3.525667
-14772.633511	5367.266667	1400.312500	61.038486
-14772.633511	5367.266667	1399.233398	-154.459549
-14772.633511	5367.266667	1398.153320	-29.891066
-14772.633511	5367.266667	1397.073242	-108.674271
-14772.633511	5367.266667	1395.993164	58.882950
-14772.633511	5367.266667	1394.913086	37.275436
-14772.633511	5367.266667	1393.832031	-55.277103
-14772.633511	5367.266667	1392.750977	-32.836643
-14772.633511	5367.266667	1391.669922	72.362167
-14772.633511	5367.266667	1390.588867	151.744812
-14772.633511	5367.266667	1389.506836	76.153236
-14772.633511	5367.266667	1388.425781	59.360722
-14772.633511	5367.266667	1387.343750	-28.198502
-14772.633511	5367.266667	1386.261719	6.210172
-14772.633511	5367.266667	1385.178711	35.644684
-14772.633511	5367.266667	1384.096680	112.414055
-14772.633511	5367.266667	1383.013672	11.396232
-14772.633511	5367.266667	1381.930664	175.620544
-14772.633511	5367.266667	1380.846680	82.754478
-14772.633511	5367.266667	1379.763672	52.303947
-14772.633511	5367.266667	1378.679688	122.186310
-14772.633511	5367.266667	1377.595703	58.190460
-14772.633511	5367.266667	1376.511719	-0.889007
-14772.633511	5367.266667	1375.427734	61.475899
-14772.633511	5367.266667	1374.342773	109.975372
-14772.633511	5367.266667	1373.257813	104.786789
-14772.633511	5367.266667	1372.172852	153.282852
-14772.633511	5367.266667	1371.087891	72.396828
-14772.633511	5367.266667	1370.001953	78.268280
-14772.633511	5367.266667	1368.916992	-16.317520
-14772.633511	5367.266667	1367.831055	59.905300
-14772.633511	5367.266667	1366.744141	39.806625
-14772.633511	5367.266667	1365.658203	123.149017
-14772.633511	5367.266667	1364.571289	78.974937
-14772.633511	5367.266667	1363.484375	42.311954
-14772.633511	5367.266667	1362.397461	169.079620
-14772.633511	5367.266667	1361.310547	35.810776
-14772.633511	5367.266667	1360.222656	159.099442
-14772.633511	5367.266667	1359.135742	98.206696
-14772.633511	5367.266667	1358.047852	168.228210
-14772.633511	5367.266667	1356.958984	54.231133
-14772.633511	5367.266667	1355.871094	126.375687
-14772.633511	5367.266667	1354.782227	158.502914
-14772.633511	5367.266667	1353.693359	186.902664
-14772.633511	5367.266667	1352.604492	160.497437
-14772.633511	5367.266667	1351.515625	276.947937
-14772.633511	5367.266667	1350.425781	248.184509
-14772.633511	5367.266667	1349.335938	304.081787
-14772.633511	5367.266667	1348.246094	319.696991
-14772.633511	5367.266667	1347.156250	348.149872
-14772.633511	5367.266667	1346.066406	322.075745
-14772.633511	5367.266667	1344.975586	402.126770
-14772.633511	5367.266667	1343.884766	409.387390
-14772.633511	5367.266667	1342.793945	439.913849
-14772.633511	5367.266667	1341.702148	213.929672
-14772.633511	5367.266667	1340.611328	99.312805
-14772.633511	5367.266667	1339.519531	266.062469
-14772.633511	5367.266667	1338.427734	321.822540
-14772.633511	5367.266667	1337.334961	182.311752
-14772.633511	5367.266667	1336.243164	321.526947
-14772.633511	5367.266667	1335.150391	159.833801
-14772.633511	5367.266667	1334.057617	125.158257
-14772.633511	5367.266667	1332.964844	298.298737
-14772.633511	5367.266667	1331.871094	200.791534
-14772.633511	5367.266667	1330.778320	221.105820
-14772.633511	5367.266667	1329.684570	217.509933
-14772.633511	5367.266667	1328.590820	279.020447
-14772.633511	5367.266667	1327.496094	362.059540
-14772.633511	5367.266667	1326.402344	177.507278
-14772.633511	5367.266667	1325.307617	161.107788
-14772.633511	5367.266667	1324.212891	283.636353
-14772.633511	5367.266667	1323.117188	187.643143
-14772.633511	5367.266667	1322.022461	48.757999
-14772.633511	5367.266667	1320.926758	253.567093
-14772.633511	5367.266667	1319.831055	192.626831
-14772.633511	5367.266667	1318.735352	160.136002
-14772.633511	5367.266667	1317.638672	73.155647
-14772.633511	5367.266667	1316.542969	216.693283
-14772.633511	5367.266667	1315.446289	182.817764
-14772.633511	5367.266667	1314.349609	116.527718
-14772.633511	5367.266667	1313.251953	32.114780
-14772.633511	5367.266667	1312.155273	176.875305
-14772.633511	5367.266667	1311.057617	104.517014
-14772.633511	5367.266667	1309.959961	78.383171
-14772.633511	5367.266667	1308.862305	133.249725
-14772.633511	5367.266667	1307.763672	95.707230
-14772.633511	5367.266667	1306.665039	172.622330
-14772.633511	5367.266667	1305.566406	152.381317
-14772.633511	5367.266667	1304.467773	142.711304
-14772.633511	5367.266667	1303.369141	66.056183
-14772.633511	5367.266667	1302.269531	-94.002144
-14772.633511	5367.266667	1301.169922	176.972183
-14772.633511	5367.266667	1300.070313	50.340050
-14772.633511	5367.266667	1298.970703	85.226044
-14772.633511	5367.266667	1297.870117	61.420132
-14772.633511	5367.266667	1296.769531	131.868835
-14772.633511	5367.266667	1295.668945	21.606878
-14772.633511	5367.266667	1294.568359	114.965874
-14772.633511	5367.266667	1293.466797	20.682158
-14772.633511	5367.266667	1292.366211	58.771053
-14772.633511	5367.266667	1291.264648	-1.105841
-14772.633511	5367.266667	1290.162109	80.430984
-14772.633511	5367.266667	1289.060547	79.153580
-14772.633511	5367.266667	1287.958008	95.883812
-14772.633511	5367.266667	1286.855469	82.627602
-14772.633511	5367.266667	1285.752930	60.354259
-14772.633511	5367.266667	1284.650391	87.159065
-14772.633511	5367.266667	1283.546875	-92.637520
-14772.633511	5367.266667	1282.444336	160.482498
-14772.633511	5367.266667	1281.339844	-136.375061
-14772.633511	5367.266667	1280.236328	203.115753
-14772.633511	5367.266667	1279.132813	17.814491
-14772.633511	5367.266667	1278.028320	89.939148
-14772.633511	5367.266667	1276.923828	132.105881
-14772.633511	5367.266667	1275.819336	134.346497
-14772.633511	5367.266667	1274.713867	-25.763527
-14772.633511	5367.266667	1273.608398	10.173162
-14772.633511	5367.266667	1272.503906	58.440620
-14772.633511	5367.266667	1271.397461	21.569826
-14772.633511	5367.266667	1270.291992	48.978199
-14772.633511	5367.266667	1269.185547	92.153091
-14772.633511	5367.266667	1268.080078	-11.539193
-14772.633511	5367.266667	1266.972656	-17.948408
-14772.633511	5367.266667	1265.866211	13.357408
-14772.633511	5367.266667	1264.759766	-14.093095
-14772.633511	5367.266667	1263.652344	-75.824936
-14772.633511	5367.266667	1262.544922	-56.231846
-14772.633511	5367.266667	1261.436523	5.391636
-14772.633511	5367.266667	1260.329102	-159.474991
-14772.633511	5367.266667	1259.220703	-21.003420
-14772.633511	5367.266667	1258.112305	-31.424303
-14772.633511	5367.266667	1257.003906	-6.004637
-14772.633511	5367.266667	1255.895508	-170.613953
-14772.633511	5367.266667	1254.786133	20.354620
-14772.633511	5367.266667	1253.676758	-215.224136
-14772.633511	5367.266667	1252.567383	-65.001961
-14772.633511	5367.266667	1251.458008	-105.355225
-14772.633511	5367.266667	1250.347656	-90.833290
-14772.633511	5367.266667	1249.237305	-67.534019
-14772.633511	5367.266667	1248.126953	-26.503710
-14772.633511	5367.266667	1247.016602	56.275829
-14772.633511	5367.266667	1245.905273	73.817757
-14772.633511	5367.266667	1244.793945	-39.130112
-14772.633511	5367.266667	1243.682617	-95.923615
-14772.633511	5367.266667	1242.571289	-5.992816
-14772.633511	5367.266667	1241.459961	-41.878113
-14772.633511	5367.266667	1240.347656	4.187578
-14772.633511	5367.266667	1239.235352	24.953049
-14772.633511	5367.266667	1238.123047	-90.745148
-14772.633511	5367.266667	1237.009766	-56.959259
-14772.633511	5367.266667	1235.897461	-24.023367
-14772.633511	5367.266667	1234.784180	40.231842
-14772.633511	5367.266667	1233.670898	66.573723
-14772.633511	5367.266667	1232.556641	-3.483566
-14772.633511	5367.266667	1231.443359	-58.134438
-14772.633511	5367.266667	1230.329102	-81.449821
-14772.633511	5367.266667	1229.214844	-25.437733
-14772.633511	5367.266667	1228.099609	-26.074242
-14772.633511	5367.266667	1226.985352	91.547813
-14772.633511	5367.266667	1225.870117	-32.871990
-14772.633511	5367.266667	1224.754883	-105.565285
-14772.633511	5367.266667	1223.639648	-100.427917
-14772.633511	5367.266667	1222.523438	18.595293
-14772.633511	5367.266667	1221.408203	52.261166
-14772.633511	5367.266667	1220.291992	-79.370392
-14772.633511	5367.266667	1219.174805	54.909267
-14772.633511	5367.266667	1218.058594	-195.995544
-14772.633511	5367.266667	1216.941406	-48.775917
-14772.633511	5367.266667	1215.824219	-26.535509
-14772.633511	5367.266667	1214.707031	121.698021
-14772.633511	5367.266667	1213.589844	27.146048
-14772.633511	5367.266667	1212.471680	-17.539600
-14772.633511	5367.266667	1211.353516	9.941751
-14772.633511	5367.266667	1210.235352	-134.013718
-14772.633511	5367.266667	1209.117188	-55.885796
-14772.633511	5367.266667	1207.998047	-81.361542
-14772.633511	5367.266667	1206.878906	-82.652931
-14772.633511	5367.266667	1205.759766	-86.260269
-14772.633511	5367.266667	1204.640625	-9.667228
-14772.633511	5367.266667	1203.520508	41.288715
-14772.633511	5367.266667	1202.401367	30.343166
-14772.633511	5367.266667	1201.281250	55.365410
-14772.633511	5367.266667	1200.160156	16.302412
-14772.633511	5367.266667	1199.040039	86.519714
-14772.633511	5367.266667	1197.918945	54.799648
-14772.633511	5367.266667	1196.797852	76.475250
-14772.633511	5367.266667	1195.676758	21.795277
-14772.633511	5367.266667	1194.555664	58.494816
-14772.633511	5367.266667	1193.433594	108.942398
-14772.633511	5367.266667	1192.311523	68.921295
-14772.633511	5367.266667	1191.189453	49.475201
-14772.633511	5367.266667	1190.066406	-54.345741
-14772.633511	5367.266667	1188.944336	86.372078
-14772.633511	5367.266667	1187.821289	6.611992
-14772.633511	5367.266667	1186.698242	-13.244991
-14772.633511	5367.266667	1185.574219	109.682281
-14772.633511	5367.266667	1184.451172	-10.458087
-14772.633511	5367.266667	1183.327148	-20.080318
-14772.633511	5367.266667	1182.203125	15.477908
-14772.633511	5367.266667	1181.078125	20.605520
-14772.633511	5367.266667	1179.954102	56.628464
-14772.633511	5367.266667	1178.829102	76.499619
-14772.633511	5367.266667	1177.704102	-35.777813
-14772.633511	5367.266667	1176.579102	42.880913
-14772.633511	5367.266667	1175.453125	28.563892
-14772.633511	5367.266667	1174.327148	-18.725624
-14772.633511	5367.266667	1173.201172	-47.656788
-14772.633511	5367.266667	1172.075195	30.185240
-14772.633511	5367.266667	1170.949219	-104.346718
-14772.633511	5367.266667	1169.822266	-169.421463
-14772.633511	5367.266667	1168.695313	41.636215
-14772.633511	5367.266667	1167.568359	-68.525917
-14772.633511	5367.266667	1166.440430	47.740677
-14772.633511	5367.266667	1165.313477	13.288238
-14772.633511	5367.266667	1164.185547	36.186001
-14772.633511	5367.266667	1163.057617	-0.695898
-14772.633511	5367.266667	1161.928711	-142.869125
-14772.633511	5367.266667	1160.800781	10.814584
-14772.633511	5367.266667	1159.671875	-81.264114
-14772.633511	5367.266667	1158.541992	-18.310028
-14772.633511	5367.266667	1157.413086	-3.024878
-14772.633511	5367.266667	1156.283203	-139.128204
-14772.633511	5367.266667	1155.154297	-80.585808
-14772.633511	5367.266667	1154.023438	-56.761719
-14772.633511	5367.266667	1152.893555	-100.440651
-14772.633511	5367.266667	1151.763672	69.441338
-14772.633511	5367.266667	1150.632813	81.285522
-14772.633511	5367.266667	1149.501953	-106.858528
-14772.633511	5367.266667	1148.370117	55.531052
-14772.633511	5367.266667	1147.239258	-6.658751
-14772.633511	5367.266667	1146.107422	21.239937
-14772.633511	5367.266667	1144.975586	66.487701
-14772.633511	5367.266667	1143.843750	47.590752
-14772.633511	5367.266667	1142.710938	-23.154219
-14772.633511	5367.266667	1141.578125	19.873787
-14772.633511	5367.266667	1140.445313	37.199547
-14772.633511	5367.266667	1139.312500	96.916206
-14772.633511	5367.266667	1138.178711	-127.973549
-14772.633511	5367.266667	1137.045898	67.510880
-14772.633511	5367.266667	1135.912109	34.439415
-14772.633511	5367.266667	1134.777344	0.094108
-14772.633511	5367.266667	1133.643555	114.627090
-14772.633511	5367.266667	1132.508789	98.277603
-14772.633511	5367.266667	1131.374023	8.858720
-14772.633511	5367.266667	1130.239258	38.339104
-14772.633511	5367.266667	1129.104492	-15.478601
-14772.633511	5367.266667	1127.968750	-28.048901
-14772.633511	5367.266667	1126.833008	-17.147488
-14772.633511	5367.266667	1125.697266	-9.093778
-14772.633511	5367.266667	1124.560547	-47.295940
-14772.633511	5367.266667	1123.424805	27.996672
-14772.633511	5367.266667	1122.288086	22.511736
-14772.633511	5367.266667	1121.151367	27.174845
-14772.633511	5367.266667	1120.013672	-72.496948
-14772.633511	5367.266667	1118.876953	85.171982
-14772.633511	5367.266667	1117.739258	27.739733
-14772.633511	5367.266667	1116.601563	74.422997
-14772.633511	5367.266667	1115.462891	9.568839
-14772.633511	5367.266667	1114.324219	47.260708
-14772.633511	5367.266667	1113.186523	-2.655175
-14772.633511	5367.266667	1112.046875	-0.090741
-14772.633511	5367.266667	1110.908203	-11.547729
-14772.633511	5367.266667	1109.769531	4.679293
-14772.633511	5367.266667	1108.629883	-51.696018
-14772.633511	5367.266667	1107.490234	10.248783
-14772.633511	5367.266667	1106.349609	30.426052
-14772.633511	5367.266667	1105.209961	25.660370
-14772.633511	5367.266667	1104.069336	-75.206940
-14772.633511	5367.266667	1102.928711	-72.556557
-14772.633511	5367.266667	1101.787109	131.403671
-14772.633511	5367.266667	1100.646484	74.415504
-14772.633511	5367.266667	1099.504883	58.489544
-14772.633511	5367.266667	1098.363281	113.996170
-14772.633511	5367.266667	1097.221680	-175.573410
-14772.633511	5367.266667	1096.079102	44.106052
-14772.633511	5367.266667	1094.936523	-2.936279
-14772.633511	5367.266667	1093.793945	-44.475315
-14772.633511	5367.266667	1092.651367	-23.350914
-14772.633511	5367.266667	1091.507813	98.539459
-14772.633511	5367.266667	1090.364258	175.842743
-14772.633511	5367.266667	1089.220703	92.516914
-14772.633511	5367.266667	1088.077148	115.423805
-14772.633511	5367.266667	1086.933594	60.321236
-14772.633511	5367.266667	1085.789063	53.246212
-14772.633511	5367.266667	1084.644531	91.567940
-14772.633511	5367.266667	1083.499023	57.358059
-14772.633511	5367.266667	1082.354492	14.147120
-14772.633511	5367.266667	1081.208984	-16.497784
-14772.633511	5367.266667	1080.063477	52.206703
-14772.633511	5367.266667	1078.917969	18.109720
-14772.633511	5367.266667	1077.771484	64.998146
-14772.633511	5367.266667	1076.625977	32.657635
-14772.633511	5367.266667	1075.479492	20.074020
-14772.633511	5367.266667	1074.332031	126.514351
-14772.633511	5367.266667	1073.185547	-19.107172
-14772.633511	5367.266667	1072.038086	69.645363
-14772.633511	5367.266667	1070.890625	88.458328
-14772.633511	5367.266667	1069.743164	154.666718
-14772.633511	5367.266667	1068.594727	-61.518421
-14772.633511	5367.266667	1067.447266	153.721130
-14772.633511	5367.266667	1066.298828	150.332809
-14772.633511	5367.266667	1065.149414	48.833195
-14772.633511	5367.266667	1064.000977	1.794056
-14772.633511	5367.266667	1062.851563	36.465923
-14772.633511	5367.266667	1061.702148	-35.054001
-14772.633511	5367.266667	1060.552734	91.172318
-14772.633511	5367.266667	1059.402344	-18.200380
-14772.633511	5367.266667	1058.252930	130.278793
-14772.633511	5367.266667	1057.102539	306.073578
-14772.633511	5367.266667	1055.951172	198.568192
-14772.633511	5367.266667	1054.800781	153.468079
-14772.633511	5367.266667	1053.649414	161.603546
-14772.633511	5367.266667	1052.498047	220.829758
-14772.633511	5367.266667	1051.346680	104.576965
-14772.633511	5367.266667	1050.194336	36.628654
-14772.633511	5367.266667	1049.042969	121.134300
-14772.633511	5367.266667	1047.890625	131.631027
-14772.633511	5367.266667	1046.738281	-62.557114
-14772.633511	5367.266667	1045.584961	16.891870
-14772.633511	5367.266667	1044.431641	11.505196
-14772.633511	5367.266667	1043.278320	20.863979
-14772.633511	5367.266667	1042.125000	50.337429
-14772.633511	5367.266667	1040.971680	125.246902
-14772.633511	5367.266667	1039.817383	-40.157967
-14772.633511	5367.266667	1038.663086	163.993881
-14772.633511	5367.266667	1037.508789	-83.833107
-14772.633511	5367.266667	1036.353516	127.316200
-14772.633511	5367.266667	1035.198242	40.605900
-14772.633511	5367.266667	1034.042969	-74.263733
-14772.633511	5367.266667	1032.887695	179.067230
-14772.633511	5367.266667	1031.732422	118.847420
-14772.633511	5367.266667	1030.576172	122.220345
-14772.633511	5367.266667	1029.419922	-57.548225
-14772.633511	5367.266667	1028.263672	68.164345
-14772.633511	5367.266667	1027.106445	-11.333429
-14772.633511	5367.266667	1025.949219	-77.474945
-14772.633511	5367.266667	1024.792969	112.246910
-14772.633511	5367.266667	1023.634766	-48.598549
-14772.633511	5367.266667	1022.477539	284.494232
-14772.633511	5367.266667	1021.319336	61.551739
-14772.633511	5367.266667	1020.161133	-12.217729
-14772.633511	5367.266667	1019.002930	14.191289
-14772.633511	5367.266667	1017.843750	-54.504154
-14772.633511	5367.266667	1016.684570	97.254402
-14772.633511	5367.266667	1015.525391	-143.658936
-14772.633511	5367.266667	1014.366211	129.127029
-14772.633511	5367.266667	1013.207031	186.584030
-14772.633511	5367.266667	1012.046875	-102.704254
-14772.633511	5367.266667	1010.886719	51.041924
-14772.633511	5367.266667	1009.726563	76.367081
-14772.633511	5367.266667	1008.565430	38.400246
-14772.633511	5367.266667	1007.404297	102.682930
-14772.633511	5367.266667	1006.243164	171.715225
-14772.633511	5367.266667	1005.082031	194.514801
-14772.633511	5367.266667	1003.920898	100.222359
-14772.633511	5367.266667	1002.758789	347.420441
-14772.633511	5367.266667	1001.596680	-11.454309
-14772.633511	5367.266667	1000.433594	145.514603
-14772.633511	5367.266667	999.271484	53.053001
-14772.633511	5367.266667	998.108398	-84.617043
-14772.633511	5367.266667	996.945313	-19.672117
-14772.633511	5367.266667	995.782227	179.518723
-14772.633511	5367.266667	994.618164	-33.002632
-14772.633511	5367.266667	993.454102	197.384171
-14772.633511	5367.266667	992.290039	140.241730
-14772.633511	5367.266667	991.125977	108.540810
-14772.633511	5367.266667	989.960938	108.505867
-14772.633511	5367.266667	988.796875	148.209732
-14772.633511	5367.266667	987.630859	320.422699
-14772.633511	5367.266667	986.465820	116.635849
-14772.633511	5367.266667	985.300781	167.083893
-14772.633511	5367.266667	984.134766	25.984829
-14772.633511	5367.266667	982.968750	14.501640
-14772.633511	5367.266667	981.801758	-87.404533
-14772.633511	5367.266667	980.635742	-72.844704
-14772.633511	5367.266667	979.468750	17.537378
-14772.633511	5367.266667	978.301758	-58.358414
-14772.633511	5367.266667	977.133789	-74.631554
-14772.633511	5367.266667	975.966797	45.629032
-14772.633511	5367.266667	974.798828	29.389833
-14772.633511	5367.266667	973.630859	113.796379
-14772.633511	5367.266667	972.461914	4.079208
-14772.633511	5367.266667	971.293945	68.862907
-14772.633511	5367.266667	970.125000	-88.448677
-14772.633511	5367.266667	968.956055	-48.270493
-14772.633511	5367.266667	967.786133	118.866699
-14772.633511	5367.266667	966.617188	69.555870
-14772.633511	5367.266667	965.447266	-76.900337
-14772.633511	5367.266667	964.276367	18.308662
-14772.633511	5367.266667	963.106445	41.619675
-14772.633511	5367.266667	961.935547	-87.815628
-14772.633511	5367.266667	960.764648	-5.032207
-14772.633511	5367.266667	959.593750	40.114040
-14772.633511	5367.266667	958.422852	238.209122
-14772.633511	5367.266667	957.250977	-13.561559
-14772.633511	5367.266667	956.079102	-39.859871
-14772.633511	5367.266667	954.907227	-42.271191
-14772.633511	5367.266667	953.734375	-53.804512
-14772.633511	5367.266667	952.562500	-45.998817
-14772.633511	5367.266667	951.389648	98.348053
-14772.633511	5367.266667	950.215820	52.074017
-14772.633511	5367.266667	949.042969	-157.325653
-14772.633511	5367.266667	947.869141	-217.475067
-14772.633511	5367.266667	946.695313	-107.125313
-14772.633511	5367.266667	945.521484	-14.288065
-14772.633511	5367.266667	944.346680	93.603249
-14772.633511	5367.266667	943.172852	130.587997
-14772.633511	5367.266667	941.998047	47.945740
-14772.633511	5367.266667	940.822266	119.071495
-14772.633511	5367.266667	939.647461	14.166337
-14772.633511	5367.266667	938.471680	7.245570
-14772.633511	5367.266667	937.295898	51.376556
-14772.633511	5367.266667	936.119141	-4.517313
-14772.633511	5367.266667	934.943359	-16.459461
-14772.633511	5367.266667	933.766602	81.346054
-14772.633511	5367.266667	932.589844	-52.578762
-14772.633511	5367.266667	931.413086	-45.044418
-14772.633511	5367.266667	930.235352	62.423183
-14772.633511	5367.266667	929.057617	191.766983
-14772.633511	5367.266667	927.879883	21.240440
-14772.633511	5367.266667	926.702148	79.885574
-14772.633511	5367.266667	925.523438	-102.821144
-14772.633511	5367.266667	924.344727	143.400696
-14772.633511	5367.266667	923.166016	150.773270
-14772.633511	5367.266667	921.987305	170.294189
-14772.633511	5367.266667	920.807617	92.380280
-14772.633511	5367.266667	919.627930	93.925270
-14772.633511	5367.266667	919.497070	124.223145
-14772.633511	5367.266667	918.331055	-80.294876
-14772.633511	5367.266667	917.165039	-77.860390
-14772.633511	5367.266667	915.999023	36.496357
-14772.633511	5367.266667	914.833008	-26.817398
-14772.633511	5367.266667	913.666016	-4.984029
-14772.633511	5367.266667	912.499023	272.181763
-14772.633511	5367.266667	911.332031	-2.729155
-14772.633511	5367.266667	910.165039	111.413567
-14772.633511	5367.266667	908.997070	295.978790
-14772.633511	5367.266667	907.830078	30.901182
-14772.633511	5367.266667	906.661133	-42.152233
-14772.633511	5367.266667	905.493164	54.836620
-14772.633511	5367.266667	904.325195	44.915272
-14772.633511	5367.266667	903.156250	-93.703285
-14772.633511	5367.266667	901.987305	76.014023
-14772.633511	5367.266667	900.818359	36.920712
-14772.633511	5367.266667	899.648438	-4.598881
-14772.633511	5367.266667	898.478516	38.793045
-14772.633511	5367.266667	897.308594	205.853317
-14772.633511	5367.266667	896.138672	86.672279
-14772.633511	5367.266667	894.968750	-42.174904
-14772.633511	5367.266667	893.797852	22.939692
-14772.633511	5367.266667	892.626953	-115.568924
-14772.633511	5367.266667	891.456055	-118.345787
-14772.633511	5367.266667	890.284180	159.881500
-14772.633511	5367.266667	889.113281	118.262436
-14772.633511	5367.266667	887.941406	28.212402
-14772.633511	5367.266667	886.768555	78.606339
-14772.633511	5367.266667	885.596680	75.708572
-14772.633511	5367.266667	884.423828	-145.013840
-14772.633511	5367.266667	883.250977	154.553909
-14772.633511	5367.266667	882.078125	64.503609
-14772.633511	5367.266667	880.905273	76.055450
-14772.633511	5367.266667	879.731445	-69.592545
-14772.633511	5367.266667	878.557617	-33.875305
-14772.633511	5367.266667	877.383789	-51.367565
-14772.633511	5367.266667	876.209961	78.545883
-14772.633511	5367.266667	875.035156	-64.635727
-14772.633511	5367.266667	873.860352	99.012108
-14772.633511	5367.266667	872.685547	-70.717201
-14772.633511	5367.266667	871.510742	8.316945
-14772.633511	5367.266667	870.334961	94.543892
-14772.633511	5367.266667	869.159180	52.792976
-14772.633511	5367.266667	867.983398	151.006042
-14772.633511	5367.266667	866.807617	-76.552277
-14772.633511	5367.266667	865.630859	21.612219
-14772.633511	5367.266667	864.454102	6.368479
-14772.633511	5367.266667	863.277344	63.449368
-14772.633511	5367.266667	862.100586	57.810406
-14772.633511	5367.266667	860.922852	-70.765182
-14772.633511	5367.266667	859.745117	70.583298
-14772.633511	5367.266667	858.567383	28.754234
-14772.633511	5367.266667	857.389648	143.491714
-14772.633511	5367.266667	856.210938	152.201447
-14772.633511	5367.266667	855.032227	91.064522
-14772.633511	5367.266667	853.853516	-133.758987
-14772.633511	5367.266667	852.674805	-96.171486
-14772.633511	5367.266667	851.495117	153.133591
-14772.633511	5367.266667	850.315430	65.509216
-14772.633511	5367.266667	849.135742	-142.361572
-14772.633511	5367.266667	847.956055	-18.305481
-14772.633511	5367.266667	846.775391	-84.257744
-14772.633511	5367.266667	845.595703	63.735394
-14772.633511	5367.266667	844.415039	41.014950
-14772.633511	5367.266667	843.233398	114.396729
-14772.633511	5367.266667	842.052734	70.015724
-14772.633511	5367.266667	840.871094	16.026819
-14772.633511	5367.266667	839.689453	113.324638
-14772.633511	5367.266667	838.506836	13.694539
-14772.633511	5367.266667	837.325195	-155.524261
-14772.633511	5367.266667	836.142578	37.683838
-14772.633511	5367.266667	834.959961	10.052865
-14772.633511	5367.266667	833.777344	-55.968517
-14772.633511	5367.266667	832.593750	-28.446589
-14772.633511	5367.266667	831.410156	42.205753
-14772.633511	5367.266667	830.226563	40.888340
-14772.633511	5367.266667	829.042969	-80.293434
-14772.633511	5367.266667	827.858398	-230.201324
-14772.633511	5367.266667	826.673828	94.318245
-14772.633511	5367.266667	825.489258	40.210999
-14772.633511	5367.266667	824.304688	41.188770
-14772.633511	5367.266667	823.120117	78.061066
-14772.633511	5367.266667	821.934570	-102.948517
-14772.633511	5367.266667	820.749023	39.207729
-14772.633511	5367.266667	819.562500	23.351507
-14772.633511	5367.266667	818.376953	-14.051474
-14772.633511	5367.266667	817.190430	77.705261
-14772.633511	5367.266667	816.003906	-41.044880
-14772.633511	5367.266667	814.817383	33.900177
-14772.633511	5367.266667	813.629883	147.040283
-14772.633511	5367.266667	812.442383	-0.394134
-14772.633511	5367.266667	811.254883	-54.599438
-14772.633511	5367.266667	810.067383	180.262192
-14772.633511	5367.266667	808.878906	32.847267
-14772.633511	5367.266667	807.690430	-52.440365
-14772.633511	5367.266667	806.501953	65.221970
-14772.633511	5367.266667	805.313477	113.591034
-14772.633511	5367.266667	804.124023	59.297890
-14772.633511	5367.266667	802.934570	12.162951
-14772.633511	5367.266667	801.745117	93.843857
-14772.633511	5367.266667	800.555664	56.216991
-14772.633511	5367.266667	799.365234	-67.260475
-14772.633511	5367.266667	798.175781	50.078926
-14772.633511	5367.266667	796.985352	36.252113
-14772.633511	5367.266667	795.793945	81.984550
-14772.633511	5367.266667	794.603516	115.762169
-14772.633511	5367.266667	793.412109	-12.477811
-14772.633511	5367.266667	792.220703	209.404053
-14772.633511	5367.266667	791.028320	228.778351
-14772.633511	5367.266667	789.836914	100.525238
-14772.633511	5367.266667	788.644531	-125.281502
-14772.633511	5367.266667	787.452148	-46.429607
-14772.633511	5367.266667	786.258789	120.392387
-14772.633511	5367.266667	785.066406	1.689259
-14772.633511	5367.266667	783.873047	4.294932
-14772.633511	5367.266667	782.679688	123.379745
-14772.633511	5367.266667	781.485352	-104.670692
-14772.633511	5367.266667	780.291992	2.456176
-14772.633511	5367.266667	779.097656	85.753304
-14772.633511	5367.266667	777.903320	-82.827644
-14772.633511	5367.266667	776.708008	102.535400
-14772.633511	5367.266667	775.512695	85.950890
-14772.633511	5367.266667	774.318359	-46.984867
-14772.633511	5367.266667	773.122070	57.476566
-14772.633511	5367.266667	771.926758	109.661362
-14772.633511	5367.266667	770.730469	-54.116013
-14772.633511	5367.266667	769.534180	-16.212332
-14772.633511	5367.266667	768.337891	159.209763
-14772.633511	5367.266667	767.141602	149.579407
-14772.633511	5367.266667	765.944336	68.805939
-14772.633511	5367.266667	764.747070	134.995529
-14772.633511	5367.266667	763.549805	329.098846
-14772.633511	5367.266667	762.351563	229.309280
-14772.633511	5367.266667	761.154297	120.062637
-14772.633511	5367.266667	759.956055	207.400070
-14772.633511	5367.266667	758.757813	209.437180
-14772.633511	5367.266667	757.558594	116.756981
-14772.633511	5367.266667	756.359375	135.328110
-14772.633511	5367.266667	755.160156	137.302887
-14772.633511	5367.266667	753.960938	46.985493
-14772.633511	5367.266667	752.761719	98.598076
-14772.633511	5367.266667	751.561523	53.206478
-14772.633511	5367.266667	750.361328	152.030914
-14772.633511	5367.266667	749.160156	177.509750
-14772.633511	5367.266667	747.959961	122.600693
-14772.633511	5367.266667	746.758789	-48.091034
-14772.633511	5367.266667	745.557617	19.859472
-14772.633511	5367.266667	744.356445	-39.783627
-14772.633511	5367.266667	743.154297	226.438461
-14772.633511	5367.266667	741.952148	53.403324
-14772.633511	5367.266667	740.750000	62.163723
-14772.633511	5367.266667	739.547852	99.213310
-14772.633511	5367.266667	738.344727	-10.060968
-14772.633511	5367.266667	737.142578	168.470840
-14772.633511	5367.266667	735.939453	59.176811
-14772.633511	5367.266667	734.735352	169.186813
-14772.633511	5367.266667	733.532227	128.251999
-14772.633511	5367.266667	732.328125	96.734993
-14772.633511	5367.266667	731.124023	112.334404
-14772.633511	5367.266667	729.918945	-18.167433
-14772.633511	5367.266667	728.714844	20.952993
-14772.633511	5367.266667	727.509766	128.323776
-14772.633511	5367.266667	726.303711	4.886313
-14772.633511	5367.266667	725.098633	154.536118
-14772.633511	5367.266667	723.892578	-15.975789
-14772.633511	5367.266667	722.686523	-106.440361
-14772.633511	5367.266667	721.480469	-241.588989
-14772.633511	5367.266667	720.274414	4.316182
-14772.633511	5367.266667	719.067383	-62.657986
-14772.633511	5367.266667	717.860352	-14.429809
-14772.633511	5367.266667	716.653320	-50.865425
-14772.633511	5367.266667	715.445313	-242.413651
-14772.633511	5367.266667	714.238281	12.505501
-14772.633511	5367.266667	713.030273	-38.083328
-14772.633511	5367.266667	711.821289	-20.569744
-14772.633511	5367.266667	710.613281	18.046272
-14772.633511	5367.266667	709.404297	-63.106236
-14772.633511	5367.266667	708.195313	55.251377
-14772.633511	5367.266667	706.986328	32.740799
-14772.633511	5367.266667	705.776367	111.094749
-14772.633511	5367.266667	704.566406	-192.939804
-14772.633511	5367.266667	703.356445	-4.399853
-14772.633511	5367.266667	702.146484	12.880268
-14772.633511	5367.266667	700.935547	-126.927826
-14772.633511	5367.266667	699.724609	-100.304596
-14772.633511	5367.266667	698.513672	-19.823647
-14772.633511	5367.266667	697.302734	53.571815
-14772.633511	5367.266667	696.090820	-109.645859
-14772.633511	5367.266667	694.878906	45.646946
-14772.633511	5367.266667	693.666992	81.451866
-14772.633511	5367.266667	692.455078	-74.716301
-14772.633511	5367.266667	691.242188	-188.720200
-14772.633511	5367.266667	690.029297	1.460357
-14772.633511	5367.266667	688.816406	53.525742
-14772.633511	5367.266667	687.602539	-2.035662
-14772.633511	5367.266667	686.389648	38.273067
-14772.633511	5367.266667	685.175781	-117.827850
-14772.633511	5367.266667	683.960938	116.429810
-14772.633511	5367.266667	682.747070	11.742782
-14772.633511	5367.266667	681.532227	82.294586
-14772.633511	5367.266667	680.317383	52.357552
-14772.633511	5367.266667	679.102539	-28.963133
-14772.633511	5367.266667	677.886719	-241.019989
-14772.633511	5367.266667	676.670898	6.844616
-14772.633511	5367.266667	675.455078	-74.479431
-14772.633511	5367.266667	674.239258	19.207327
-14772.633511	5367.266667	673.022461	103.501541
-14772.633511	5367.266667	671.805664	-15.171003
-14772.633511	5367.266667	670.588867	66.723640
-14772.633511	5367.266667	669.372070	-70.580376
-14772.633511	5367.266667	668.154297	-33.034786
-14772.633511	5367.266667	666.936523	-18.827976
-14772.633511	5367.266667	665.718750	16.323532
-14772.633511	5367.266667	664.500977	254.096283
-14772.633511	5367.266667	663.282227	237.901337
-14772.633511	5367.266667	662.063477	86.649956
-14772.633511	5367.266667	660.844727	214.791183
-14772.633511	5367.266667	659.625000	51.934273
-14772.633511	5367.266667	658.405273	61.320652
-14772.633511	5367.266667	657.185547	84.644485
-14772.633511	5367.266667	655.965820	119.572098
-14772.633511	5367.266667	654.745117	-82.727219
-14772.633511	5367.266667	653.525391	-43.160896
-14772.633511	5367.266667	652.303711	138.160095
-14772.633511	5367.266667	651.083008	112.559311
-14772.633511	5367.266667	649.861328	98.570282
-14772.633511	5367.266667	648.640625	-22.281712
-14772.633511	5367.266667	647.417969	140.241394
-14772.633511	5367.266667	646.196289	26.367596
-14772.633511	5367.266667	644.973633	193.427719
-14772.633511	5367.266667	643.750977	54.031082
-14772.633511	5367.266667	642.528320	93.360657
-14772.633511	5367.266667	641.305664	32.900719
-14772.633511	5367.266667	640.082031	76.830765
-14772.633511	5367.266667	638.858398	148.559464
-14772.633511	5367.266667	637.634766	78.815224
-14772.633511	5367.266667	636.410156	-4.821570
-14772.633511	5367.266667	635.185547	34.398602
-14772.633511	5367.266667	633.960938	-74.701096
-14772.633511	5367.266667	632.736328	-72.567024
-14772.633511	5367.266667	631.510742	119.473953
-14772.633511	5367.266667	630.285156	-75.281227
-14772.633511	5367.266667	629.059570	37.948620
-14772.633511	5367.266667	627.833984	74.740105
-14772.633511	5367.266667	626.607422	-8.829343
-14772.633511	5367.266667	625.380859	-64.605812
-14772.633511	5367.266667	624.154297	-30.152328
-14772.633511	5367.266667	622.927734	-99.789734
-14772.633511	5367.266667	621.700195	-63.045082
-14772.633511	5367.266667	620.472656	167.860077
-14772.633511	5367.266667	619.245117	199.900330
-14772.633511	5367.266667	618.016602	176.463196
-14772.633511	5367.266667	616.788086	0.558088
-14772.633511	5367.266667	615.559570	265.881775
-14772.633511	5367.266667	614.331055	73.861984
-14772.633511	5367.266667	613.101563	96.631844
-14772.633511	5367.266667	611.872070	214.028427
-14772.633511	5367.266667	610.642578	322.143066
-14772.633511	5367.266667	609.413086	220.249680
-14772.633511	5367.266667	608.182617	-10.783241
-14772.633511	5367.266667	606.952148	136.513733
-14772.633511	5367.266667	605.721680	32.416992
-14772.633511	5367.266667	604.491211	-25.528532
-14772.633511	5367.266667	603.259766	98.631126
-14772.633511	5367.266667	602.028320	15.350266
-14772.633511	5367.266667	600.796875	70.337891
-14772.633511	5367.266667	599.564453	192.100235
-14772.633511	5367.266667	598.332031	-54.642773
-14772.633511	5367.266667	597.099609	101.638184
-14772.633511	5367.266667	595.867188	66.801544
-14772.633511	5367.266667	594.633789	34.283745
-14772.633511	5367.266667	593.400391	20.193373
-14772.633511	5367.266667	592.166992	95.831245
-14772.633511	5367.266667	590.933594	70.247704
-14772.633511	5367.266667	589.699219	244.730789
-14772.633511	5367.266667	588.464844	145.573608
-14772.633511	5367.266667	587.230469	87.839226
-14772.633511	5367.266667	585.995117	200.185333
-14772.633511	5367.266667	584.760742	78.154099
-14772.633511	5367.266667	583.525391	116.971054
-14772.633511	5367.266667	582.289063	89.182175
-14772.633511	5367.266667	581.053711	105.042969
-14772.633511	5367.266667	579.817383	107.133018
-14772.633511	5367.266667	578.581055	173.495865
-14772.633511	5367.266667	577.343750	138.881088
-14772.633511	5367.266667	576.107422	108.885895
-14772.633511	5367.266667	574.870117	127.079704
-14772.633511	5367.266667	573.631836	3.108120
-14772.633511	5367.266667	572.394531	99.294350
-14772.633511	5367.266667	571.156250	-45.216431
-14772.633511	5367.266667	569.917969	101.384369
-14772.633511	5367.266667	568.679688	71.524048
-14772.633511	5367.266667	567.440430	243.265747
-14772.633511	5367.266667	566.202148	119.528244
-14772.633511	5367.266667	564.961914	332.434540
-14772.633511	5367.266667	563.722656	78.284531
-14772.633511	5367.266667	562.482422	55.415508
-14772.633511	5367.266667	561.243164	-4.032231
-14772.633511	5367.266667	560.001953	18.918512
-14772.633511	5367.266667	558.761719	277.463928
-14772.633511	5367.266667	557.520508	28.270018
-14772.633511	5367.266667	556.279297	92.416168
-14772.633511	5367.266667	555.038086	39.985893
-14772.633511	5367.266667	553.795898	206.982437
-14772.633511	5367.266667	552.554688	33.505764
-14772.633511	5367.266667	551.311523	141.087158
-14772.633511	5367.266667	550.069336	-66.510712
-14772.633511	5367.266667	548.826172	77.629356
-14772.633511	5367.266667	547.583984	-36.220486
-14772.633511	5367.266667	546.339844	279.074310
-14772.633511	5367.266667	545.096680	224.608597
-14772.633511	5367.266667	543.852539	-78.473160
-14772.633511	5367.266667	542.608398	-132.785736
-14772.633511	5367.266667	541.364258	91.155678
-14772.633511	5367.266667	540.119141	20.925789
-14772.633511	5367.266667	538.875000	228.840805
-14772.633511	5367.266667	537.628906	126.763733
-14772.633511	5367.266667	536.383789	314.118988
-14772.633511	5367.266667	535.137695	86.842758
-14772.633511	5367.266667	533.892578	-119.806595
-14772.633511	5367.266667	532.645508	-66.769516
-14772.633511	5367.266667	531.399414	-161.690781
-14772.633511	5367.266667	530.152344	-44.877197
-14772.633511	5367.266667	528.905273	76.469688
-14772.633511	5367.266667	527.658203	-66.100502
-14772.633511	5367.266667	526.410156	71.183899
-14772.633511	5367.266667	525.163086	19.702377
-14772.633511	5367.266667	523.914063	61.487122
-14772.633511	5367.266667	522.666016	-3.542832
-14772.633511	5367.266667	521.416992	-107.145172
-14772.633511	5367.266667	520.167969	-31.177010
-14772.633511	5367.266667	518.918945	-34.710876
-14772.633511	5367.266667	517.669922	-85.901352
-14772.633511	5367.266667	516.419922	-78.001091
-14772.633511	5367.266667	515.169922	-104.119812
-14772.633511	5367.266667	513.919922	-141.540558
-14772.633511	5367.266667	512.668945	109.268700
-14772.633511	5367.266667	511.417969	12.904176
-14772.633511	5367.266667	510.166992	-40.288334
-14772.633511	5367.266667	508.916016	1.820160
-14772.633511	5367.266667	507.664063	-8.199185
-14772.633511	5367.266667	506.412109	-74.845589
-14772.633511	5367.266667	505.160156	51.199821
-14772.633511	5367.266667	503.907227	-223.804764
-14772.633511	5367.266667	502.655273	22.348408
-14772.633511	5367.266667	501.402344	-39.573326
-14772.633511	5367.266667	500.148438	-35.770134
-14772.633511	5367.266667	498.895508	8.816553
-14772.633511	5367.266667	497.641602	64.735443
-14772.633511	5367.266667	496.387695	-37.728916
-14772.633511	5367.266667	495.132813	-58.671314
-14772.633511	5367.266667	493.878906	-16.237131
-14772.633511	5367.266667	492.624023	-68.762291
-14772.633511	5367.266667	491.368164	73.201767
-14772.633511	5367.266667	490.113281	-101.308434
-14772.633511	5367.266667	488.857422	-144.637543
-14772.633511	5367.266667	487.601563	28.987375
-14772.633511	5367.266667	486.344727	-115.933258
-14772.633511	5367.266667	485.088867	-62.016594
-14772.633511	5367.266667	483.832031	-256.462158
-14772.633511	5367.266667	482.575195	34.557945
-14772.633511	5367.266667	481.317383	38.852203
-14772.633511	5367.266667	480.059570	45.433437
-14772.633511	5367.266667	478.801758	74.602852
-14772.633511	5367.266667	477.543945	-63.115234
-14772.633511	5367.266667	476.285156	-65.444077
-14772.633511	5367.266667	475.027344	-83.523003
-14772.633511	5367.266667	473.767578	35.930111
-14772.633511	5367.266667	472.508789	119.303596
-14772.633511	5367.266667	471.249023	96.774567
-14772.633511	5367.266667	469.989258	173.395859
-14772.633511	5367.266667	468.729492	40.566059
-14772.633511	5367.266667	467.469727	-56.155670
-14772.633511	5367.266667	466.208984	18.273386
-14772.633511	5367.266667	464.948242	40.928780
-14772.633511	5367.266667	463.686523	-42.159523
-14772.633511	5367.266667	462.425781	-28.455391
-14772.633511	5367.266667	461.164063	237.169922
-14772.633511	5367.266667	459.901367	59.708481
-14772.633511	5367.266667	458.639648	262.287476
-14772.633511	5367.266667	457.376953	177.088867
-14772.633511	5367.266667	456.114258	211.045151
-14772.633511	5367.266667	454.851563	179.845932
-14772.633511	5367.266667	453.587891	166.642471
-14772.633511	5367.266667	452.324219	196.125931
-14772.633511	5367.266667	451.060547	-1.167109
-14772.633511	5367.266667	449.796875	84.478134
-14772.633511	5367.266667	448.532227	181.314316
-14772.633511	5367.266667	447.267578	132.265244
-14772.633511	5367.266667	446.002930	164.001587
-14772.633511	5367.266667	444.737305	162.082474
-14772.633511	5367.266667	443.471680	77.196663
-14772.633511	5367.266667	442.206055	52.876465
-14772.633511	5367.266667	440.940430	187.702469
-14772.633511	5367.266667	439.673828	22.180830
-14772.633511	5367.266667	438.407227	139.018143
-14772.633511	5367.266667	437.140625	251.314331
-14772.633511	5367.266667	435.873047	135.124680
-14772.633511	5367.266667	434.605469	144.353317
-14772.633511	5367.266667	433.337891	66.260178
-14772.633511	5367.266667	432.070313	216.458588
-14772.633511	5367.266667	430.801758	386.707123
-14772.633511	5367.266667	429.533203	205.643600
-14772.633511	5367.266667	428.264648	181.189743
-14772.633511	5367.266667	426.996094	123.176407
-14772.633511	5367.266667	425.726563	205.997528
-14772.633511	5367.266667	424.457031	259.691620
-14772.633511	5367.266667	423.186523	154.666031
-14772.633511	5367.266667	421.916992	281.995239
-14772.633511	5367.266667	420.646484	205.963013
-14772.633511	5367.266667	419.375977	174.580322
-14772.633511	5367.266667	418.104492	230.234070
-14772.633511	5367.266667	416.833008	171.968826
-14772.633511	5367.266667	415.561523	118.135246
-14772.633511	5367.266667	414.290039	173.594147
-14772.633511	5367.266667	413.017578	150.888702
-14772.633511	5367.266667	411.746094	232.948318
-14772.633511	5367.266667	410.472656	98.611298
-14772.633511	5367.266667	409.200195	80.180801
-14772.633511	5367.266667	407.926758	141.915985
-14772.633511	5367.266667	406.653320	103.266304
-14772.633511	5367.266667	405.379883	189.304901
-14772.633511	5367.266667	404.105469	130.435699
-14772.633511	5367.266667	402.831055	78.176933
-14772.633511	5367.266667	401.556641	48.104862
-14772.633511	5367.266667	400.282227	133.687714
-14772.633511	5367.266667	399.006836	43.315067
-14772.633511	5367.266667	397.731445	228.758957
-14772.633511	5367.266667	396.456055	100.356476
-14772.633511	5367.266667	395.179688	67.514664
-14772.633511	5367.266667	393.903320	76.804832
-14772.633511	5367.266667	392.626953	172.654083
-14772.633511	5367.266667	391.350586	234.985519
-14772.633511	5367.266667	390.073242	46.052006
-14772.633511	5367.266667	388.795898	221.386261
-14772.633511	5367.266667	387.518555	285.434937
-14772.633511	5367.266667	386.240234	207.174408
-14772.633511	5367.266667	384.961914	206.483978
-14772.633511	5367.266667	383.683594	123.495094
-14772.633511	5367.266667	382.405273	18.172029
-14772.633511	5367.266667	381.125977	258.816772
-14772.633511	5367.266667	379.846680	135.384857
-14772.633511	5367.266667	378.567383	-23.674383
-14772.633511	5367.266667	377.287109	160.795151
-14772.633511	5367.266667	376.006836	54.581135
-14772.633511	5367.266667	374.726563	32.412739
-14772.633511	5367.266667	373.446289	85.365219
-14772.633511	5367.266667	372.165039	111.474365
-14772.633511	5367.266667	370.883789	126.258934
-14772.633511	5367.266667	369.602539	32.288879
-14772.633511	5367.266667	368.320313	-101.748611
-14772.633511	5367.266667	367.039063	-45.636875
-14772.633511	5367.266667	365.755859	-51.789417
-14772.633511	5367.266667	364.473633	-159.981873
-14772.633511	5367.266667	363.190430	25.764952
-14772.633511	5367.266667	361.907227	78.451103
-14772.633511	5367.266667	360.624023	15.842346
-14772.633511	5367.266667	359.340820	3.790736
-14772.633511	5367.266667	358.056641	-6.371998
-14772.633511	5367.266667	356.772461	124.548828
-14772.633511	5367.266667	355.487305	-93.956696
-14772.633511	5367.266667	354.202148	-1.310913
-14772.633511	5367.266667	352.916992	243.294006
-14772.633511	5367.266667	351.631836	129.798538
-14772.633511	5367.266667	350.346680	75.569283
-14772.633511	5367.266667	349.060547	122.474045
-14772.633511	5367.266667	347.774414	140.283386
-14772.633511	5367.266667	346.487305	-107.007889
-14772.633511	5367.266667	345.200195	-3.986401
-14772.633511	5367.266667	343.913086	3.762436
-14772.633511	5367.266667	342.625977	-103.549103
-14772.633511	5367.266667	341.338867	0.295965
-14772.633511	5367.266667	340.050781	-110.088974
-14772.633511	5367.266667	338.762695	-71.108177
-14772.633511	5367.266667	337.473633	-107.516533
-14772.633511	5367.266667	336.184570	-5.689659
-14772.633511	5367.266667	334.895508	-49.699562
-14772.633511	5367.266667	333.606445	-28.183853
-14772.633511	5367.266667	332.317383	23.597603
-14772.633511	5367.266667	331.027344	22.003250
-14772.633511	5367.266667	329.736328	-59.336796
-14772.633511	5367.266667	328.446289	-7.063096
-14772.633511	5367.266667	327.155273	42.394142
-14772.633511	5367.266667	325.864258	9.909904
-14772.633511	5367.266667	324.573242	25.177258
-14772.633511	5367.266667	323.281250	48.587906
-14772.633511	5367.266667	321.989258	146.034149
-14772.633511	5367.266667	320.697266	51.730900
-14772.633511	5367.266667	319.405273	-104.669640
-14772.633511	5367.266667	318.112305	54.393307
-14772.633511	5367.266667	316.819336	39.317989
-14772.633511	5367.266667	315.526367	-15.952042
-14772.633511	5367.266667	314.232422	149.615387
-14772.633511	5367.266667	312.938477	-56.273979
-14772.633511	5367.266667	311.644531	46.340340
-14772.633511	5367.266667	310.349609	45.083843
-14772.633511	5367.266667	309.054688	-62.163914
-14772.633511	5367.266667	307.759766	121.266823
-14772.633511	5367.266667	306.464844	51.859058
-14772.633511	5367.266667	305.168945	148.081619
-14772.633511	5367.266667	303.873047	105.449280
-14772.633511	5367.266667	302.577148	-62.828144
-14772.633511	5367.266667	301.281250	35.117165
-14772.633511	5367.266667	299.984375	114.579544
