#X		#Y		#Wave		#Intensity
10126.381915	4350.328333	1999.946289	-46.046635
10126.381915	4350.328333	1998.981445	-112.909401
10126.381915	4350.328333	1998.017578	9.288949
10126.381915	4350.328333	1997.052734	98.958603
10126.381915	4350.328333	1996.088867	-4.931921
10126.381915	4350.328333	1995.124023	69.320114
10126.381915	4350.328333	1994.159180	9.550900
10126.381915	4350.328333	1993.193359	31.279997
10126.381915	4350.328333	1992.228516	-83.407822
10126.381915	4350.328333	1991.262695	125.992798
10126.381915	4350.328333	1990.296875	129.675415
10126.381915	4350.328333	1989.331055	-22.748096
10126.381915	4350.328333	1988.365234	-24.411644
10126.381915	4350.328333	1987.398438	166.659241
10126.381915	4350.328333	1986.432617	18.652281
10126.381915	4350.328333	1985.465820	214.202713
10126.381915	4350.328333	1984.499023	196.891861
10126.381915	4350.328333	1983.532227	21.221899
10126.381915	4350.328333	1982.565430	164.231995
10126.381915	4350.328333	1981.597656	35.239517
10126.381915	4350.328333	1980.629883	-44.459625
10126.381915	4350.328333	1979.662109	46.133835
10126.381915	4350.328333	1978.694336	74.810051
10126.381915	4350.328333	1977.726563	189.741867
10126.381915	4350.328333	1976.758789	-75.653343
10126.381915	4350.328333	1975.790039	-39.986568
10126.381915	4350.328333	1974.821289	-120.438202
10126.381915	4350.328333	1973.852539	21.053804
10126.381915	4350.328333	1972.883789	182.106094
10126.381915	4350.328333	1971.915039	291.193573
10126.381915	4350.328333	1970.945313	101.775398
10126.381915	4350.328333	1969.975586	13.396408
10126.381915	4350.328333	1969.005859	48.188923
10126.381915	4350.328333	1968.036133	129.693359
10126.381915	4350.328333	1967.066406	60.774265
10126.381915	4350.328333	1966.096680	90.329277
10126.381915	4350.328333	1965.125977	90.230461
10126.381915	4350.328333	1964.155273	136.837097
10126.381915	4350.328333	1963.184570	-25.928053
10126.381915	4350.328333	1962.213867	37.760006
10126.381915	4350.328333	1961.242188	59.512897
10126.381915	4350.328333	1960.271484	-4.933700
10126.381915	4350.328333	1959.299805	201.203094
10126.381915	4350.328333	1958.328125	8.718995
10126.381915	4350.328333	1957.356445	155.633881
10126.381915	4350.328333	1956.384766	-68.848877
10126.381915	4350.328333	1955.412109	-118.754745
10126.381915	4350.328333	1954.439453	82.020004
10126.381915	4350.328333	1953.467773	216.322388
10126.381915	4350.328333	1952.495117	198.195175
10126.381915	4350.328333	1951.521484	-85.278435
10126.381915	4350.328333	1950.548828	-51.842525
10126.381915	4350.328333	1949.575195	3.643828
10126.381915	4350.328333	1948.601563	-9.667985
10126.381915	4350.328333	1947.627930	-8.277452
10126.381915	4350.328333	1946.654297	-208.166550
10126.381915	4350.328333	1945.680664	-20.300755
10126.381915	4350.328333	1944.706055	54.614071
10126.381915	4350.328333	1943.732422	77.969963
10126.381915	4350.328333	1942.757813	113.558815
10126.381915	4350.328333	1941.783203	68.201141
10126.381915	4350.328333	1940.807617	123.356750
10126.381915	4350.328333	1939.833008	82.888245
10126.381915	4350.328333	1938.857422	-55.604271
10126.381915	4350.328333	1937.881836	234.726883
10126.381915	4350.328333	1936.906250	66.843369
10126.381915	4350.328333	1935.930664	-10.361545
10126.381915	4350.328333	1934.955078	7.962374
10126.381915	4350.328333	1933.978516	219.693390
10126.381915	4350.328333	1933.001953	-70.474426
10126.381915	4350.328333	1932.025391	104.478920
10126.381915	4350.328333	1931.048828	-19.163960
10126.381915	4350.328333	1930.072266	-118.292381
10126.381915	4350.328333	1929.094727	-29.035187
10126.381915	4350.328333	1928.118164	165.358276
10126.381915	4350.328333	1927.140625	186.076263
10126.381915	4350.328333	1926.163086	11.216731
10126.381915	4350.328333	1925.184570	-158.682800
10126.381915	4350.328333	1924.207031	-64.577530
10126.381915	4350.328333	1923.228516	88.141068
10126.381915	4350.328333	1922.250000	11.182572
10126.381915	4350.328333	1921.271484	161.410141
10126.381915	4350.328333	1920.292969	-201.219360
10126.381915	4350.328333	1919.314453	132.132721
10126.381915	4350.328333	1918.334961	-20.399191
10126.381915	4350.328333	1917.355469	68.761871
10126.381915	4350.328333	1916.375977	-32.427410
10126.381915	4350.328333	1915.396484	-1.818974
10126.381915	4350.328333	1914.416992	72.701004
10126.381915	4350.328333	1913.436523	-30.822029
10126.381915	4350.328333	1912.457031	182.695404
10126.381915	4350.328333	1911.476563	-1.223762
10126.381915	4350.328333	1910.496094	17.249958
10126.381915	4350.328333	1909.515625	57.668678
10126.381915	4350.328333	1908.534180	12.812132
10126.381915	4350.328333	1907.552734	-139.194458
10126.381915	4350.328333	1906.572266	-67.047295
10126.381915	4350.328333	1905.590820	-38.740974
10126.381915	4350.328333	1904.608398	84.525520
10126.381915	4350.328333	1903.626953	-98.944305
10126.381915	4350.328333	1902.644531	80.306122
10126.381915	4350.328333	1901.663086	154.878998
10126.381915	4350.328333	1900.680664	88.336395
10126.381915	4350.328333	1899.698242	89.947639
10126.381915	4350.328333	1898.714844	52.666176
10126.381915	4350.328333	1897.732422	-57.524261
10126.381915	4350.328333	1896.749023	41.416973
10126.381915	4350.328333	1895.765625	-88.134544
10126.381915	4350.328333	1894.782227	8.386518
10126.381915	4350.328333	1893.798828	0.414589
10126.381915	4350.328333	1892.814453	-107.133041
10126.381915	4350.328333	1891.831055	-98.037704
10126.381915	4350.328333	1890.846680	-16.077000
10126.381915	4350.328333	1889.862305	22.171242
10126.381915	4350.328333	1888.877930	-46.381119
10126.381915	4350.328333	1887.892578	-88.193756
10126.381915	4350.328333	1886.908203	-76.586418
10126.381915	4350.328333	1885.922852	-89.227226
10126.381915	4350.328333	1884.937500	-2.394405
10126.381915	4350.328333	1883.952148	69.872620
10126.381915	4350.328333	1882.965820	-13.050866
10126.381915	4350.328333	1881.980469	-141.984894
10126.381915	4350.328333	1880.994141	99.983559
10126.381915	4350.328333	1880.007813	9.881740
10126.381915	4350.328333	1879.021484	96.700417
10126.381915	4350.328333	1878.035156	-15.136057
10126.381915	4350.328333	1877.047852	64.418495
10126.381915	4350.328333	1876.061523	32.570110
10126.381915	4350.328333	1875.074219	78.220192
10126.381915	4350.328333	1874.086914	10.098927
10126.381915	4350.328333	1873.098633	38.820850
10126.381915	4350.328333	1872.111328	60.287136
10126.381915	4350.328333	1871.123047	1.921713
10126.381915	4350.328333	1870.135742	40.342480
10126.381915	4350.328333	1869.147461	83.595459
10126.381915	4350.328333	1868.158203	61.559013
10126.381915	4350.328333	1867.169922	-71.659813
10126.381915	4350.328333	1866.180664	-33.215160
10126.381915	4350.328333	1865.192383	138.133759
10126.381915	4350.328333	1864.203125	-149.627533
10126.381915	4350.328333	1863.213867	74.837349
10126.381915	4350.328333	1862.223633	9.403669
10126.381915	4350.328333	1861.234375	84.055267
10126.381915	4350.328333	1860.244141	-12.729118
10126.381915	4350.328333	1859.253906	35.356533
10126.381915	4350.328333	1858.263672	56.880882
10126.381915	4350.328333	1857.273438	25.317865
10126.381915	4350.328333	1856.282227	-40.006081
10126.381915	4350.328333	1855.291992	147.956253
10126.381915	4350.328333	1854.300781	39.229519
10126.381915	4350.328333	1853.309570	239.163620
10126.381915	4350.328333	1852.317383	-35.873005
10126.381915	4350.328333	1851.326172	-28.814651
10126.381915	4350.328333	1850.333984	-33.810490
10126.381915	4350.328333	1849.342773	-5.075072
10126.381915	4350.328333	1848.350586	-10.077903
10126.381915	4350.328333	1847.357422	6.591424
10126.381915	4350.328333	1846.365234	-44.169338
10126.381915	4350.328333	1845.372070	88.049194
10126.381915	4350.328333	1844.379883	-54.185287
10126.381915	4350.328333	1843.386719	97.226028
10126.381915	4350.328333	1842.393555	-37.752720
10126.381915	4350.328333	1841.399414	63.064217
10126.381915	4350.328333	1840.406250	-59.848213
10126.381915	4350.328333	1839.412109	-26.416632
10126.381915	4350.328333	1838.417969	132.016479
10126.381915	4350.328333	1837.423828	-17.313271
10126.381915	4350.328333	1836.429688	148.245728
10126.381915	4350.328333	1835.434570	-8.264408
10126.381915	4350.328333	1834.440430	68.313049
10126.381915	4350.328333	1833.445313	-13.686927
10126.381915	4350.328333	1832.450195	106.062195
10126.381915	4350.328333	1831.454102	151.314423
10126.381915	4350.328333	1830.458984	71.700195
10126.381915	4350.328333	1829.462891	-65.507126
10126.381915	4350.328333	1828.466797	25.297380
10126.381915	4350.328333	1827.470703	-49.503208
10126.381915	4350.328333	1826.474609	72.412674
10126.381915	4350.328333	1825.478516	119.911499
10126.381915	4350.328333	1824.481445	133.799896
10126.381915	4350.328333	1823.484375	-5.778027
10126.381915	4350.328333	1822.487305	-80.605209
10126.381915	4350.328333	1821.490234	-105.097366
10126.381915	4350.328333	1820.493164	-21.776670
10126.381915	4350.328333	1819.495117	193.250336
10126.381915	4350.328333	1818.498047	101.581421
10126.381915	4350.328333	1817.500000	-57.133537
10126.381915	4350.328333	1816.500977	6.858628
10126.381915	4350.328333	1815.502930	180.919510
10126.381915	4350.328333	1814.504883	161.019684
10126.381915	4350.328333	1813.505859	141.097427
10126.381915	4350.328333	1812.506836	152.257080
10126.381915	4350.328333	1811.507813	-11.238315
10126.381915	4350.328333	1810.508789	-69.470436
10126.381915	4350.328333	1809.508789	164.011597
10126.381915	4350.328333	1808.508789	41.156002
10126.381915	4350.328333	1807.508789	-29.099339
10126.381915	4350.328333	1806.508789	63.148293
10126.381915	4350.328333	1805.508789	-14.318489
10126.381915	4350.328333	1804.508789	89.769264
10126.381915	4350.328333	1803.507813	-150.158218
10126.381915	4350.328333	1802.506836	113.841660
10126.381915	4350.328333	1801.505859	-44.891827
10126.381915	4350.328333	1800.504883	154.464996
10126.381915	4350.328333	1799.502930	100.722130
10126.381915	4350.328333	1798.501953	149.571396
10126.381915	4350.328333	1797.500000	191.204590
10126.381915	4350.328333	1796.498047	113.519676
10126.381915	4350.328333	1795.496094	195.609863
10126.381915	4350.328333	1794.493164	198.943222
10126.381915	4350.328333	1793.491211	-69.534126
10126.381915	4350.328333	1792.488281	-94.834770
10126.381915	4350.328333	1791.485352	-34.375999
10126.381915	4350.328333	1790.482422	30.783125
10126.381915	4350.328333	1789.478516	31.554857
10126.381915	4350.328333	1788.475586	315.709961
10126.381915	4350.328333	1787.471680	159.180832
10126.381915	4350.328333	1786.467773	107.422462
10126.381915	4350.328333	1785.463867	-44.334099
10126.381915	4350.328333	1784.459961	34.773029
10126.381915	4350.328333	1783.455078	59.074867
10126.381915	4350.328333	1782.450195	392.592072
10126.381915	4350.328333	1781.445313	136.059601
10126.381915	4350.328333	1780.440430	88.850143
10126.381915	4350.328333	1779.435547	-84.401894
10126.381915	4350.328333	1778.429688	184.519089
10126.381915	4350.328333	1777.424805	127.680801
10126.381915	4350.328333	1776.418945	253.788223
10126.381915	4350.328333	1775.413086	23.425848
10126.381915	4350.328333	1774.406250	16.384348
10126.381915	4350.328333	1773.400391	66.300171
10126.381915	4350.328333	1772.393555	296.604553
10126.381915	4350.328333	1771.386719	230.018921
10126.381915	4350.328333	1770.379883	54.225636
10126.381915	4350.328333	1769.373047	-97.819511
10126.381915	4350.328333	1768.365234	39.606541
10126.381915	4350.328333	1767.358398	153.211182
10126.381915	4350.328333	1766.350586	81.720055
10126.381915	4350.328333	1765.342773	-60.933132
10126.381915	4350.328333	1764.334961	38.245541
10126.381915	4350.328333	1763.326172	2.217247
10126.381915	4350.328333	1762.318359	37.255314
10126.381915	4350.328333	1761.309570	152.788101
10126.381915	4350.328333	1760.300781	85.806236
10126.381915	4350.328333	1759.291016	-28.577906
10126.381915	4350.328333	1758.282227	98.586189
10126.381915	4350.328333	1757.272461	114.363266
10126.381915	4350.328333	1756.262695	33.024441
10126.381915	4350.328333	1755.252930	88.938744
10126.381915	4350.328333	1754.243164	149.511353
10126.381915	4350.328333	1753.233398	-10.021495
10126.381915	4350.328333	1752.222656	121.401520
10126.381915	4350.328333	1751.211914	257.451263
10126.381915	4350.328333	1750.201172	-6.215145
10126.381915	4350.328333	1749.190430	28.042910
10126.381915	4350.328333	1748.179688	62.235138
10126.381915	4350.328333	1747.167969	63.272289
10126.381915	4350.328333	1746.156250	35.901672
10126.381915	4350.328333	1745.144531	22.662342
10126.381915	4350.328333	1744.132813	94.400978
10126.381915	4350.328333	1743.121094	83.408607
10126.381915	4350.328333	1742.108398	77.085037
10126.381915	4350.328333	1741.095703	-94.525246
10126.381915	4350.328333	1740.083008	57.203777
10126.381915	4350.328333	1739.070313	-95.567688
10126.381915	4350.328333	1738.057617	-168.123764
10126.381915	4350.328333	1737.043945	-115.698608
10126.381915	4350.328333	1736.030273	-202.483780
10126.381915	4350.328333	1735.016602	10.151660
10126.381915	4350.328333	1734.002930	123.643379
10126.381915	4350.328333	1732.989258	97.980743
10126.381915	4350.328333	1731.974609	51.062195
10126.381915	4350.328333	1730.959961	46.515812
10126.381915	4350.328333	1729.945313	-137.103577
10126.381915	4350.328333	1728.930664	-52.224514
10126.381915	4350.328333	1727.916016	-87.516777
10126.381915	4350.328333	1726.900391	-108.729576
10126.381915	4350.328333	1725.885742	-104.089592
10126.381915	4350.328333	1724.870117	11.095954
10126.381915	4350.328333	1723.853516	-118.517616
10126.381915	4350.328333	1722.837891	8.284753
10126.381915	4350.328333	1721.822266	113.819214
10126.381915	4350.328333	1720.805664	-98.197845
10126.381915	4350.328333	1719.789063	63.632790
10126.381915	4350.328333	1718.772461	-7.360501
10126.381915	4350.328333	1717.754883	-29.028835
10126.381915	4350.328333	1716.738281	-13.139955
10126.381915	4350.328333	1715.720703	-98.330948
10126.381915	4350.328333	1714.703125	-54.355625
10126.381915	4350.328333	1713.685547	-184.225418
10126.381915	4350.328333	1712.667969	28.698647
10126.381915	4350.328333	1711.649414	74.816208
10126.381915	4350.328333	1710.630859	12.904918
10126.381915	4350.328333	1709.612305	7.285418
10126.381915	4350.328333	1708.593750	53.233433
10126.381915	4350.328333	1707.575195	35.782505
10126.381915	4350.328333	1706.555664	128.508850
10126.381915	4350.328333	1705.536133	45.295876
10126.381915	4350.328333	1704.516602	-82.475212
10126.381915	4350.328333	1703.497070	-60.237625
10126.381915	4350.328333	1702.477539	-14.621842
10126.381915	4350.328333	1701.457031	12.180612
10126.381915	4350.328333	1700.437500	-106.302513
10126.381915	4350.328333	1699.416992	-121.741806
10126.381915	4350.328333	1698.395508	-125.518799
10126.381915	4350.328333	1697.375000	-89.533211
10126.381915	4350.328333	1696.354492	-27.857481
10126.381915	4350.328333	1695.333008	19.701441
10126.381915	4350.328333	1694.311523	-17.034042
10126.381915	4350.328333	1693.290039	-58.478516
10126.381915	4350.328333	1692.267578	2.956483
10126.381915	4350.328333	1691.246094	40.946938
10126.381915	4350.328333	1690.223633	-180.645172
10126.381915	4350.328333	1689.201172	-7.145636
10126.381915	4350.328333	1688.178711	-2.026635
10126.381915	4350.328333	1687.155273	49.776711
10126.381915	4350.328333	1686.132813	31.440784
10126.381915	4350.328333	1685.109375	-115.402245
10126.381915	4350.328333	1684.085938	-24.026213
10126.381915	4350.328333	1683.062500	144.327225
10126.381915	4350.328333	1682.039063	-67.932251
10126.381915	4350.328333	1681.014648	65.271805
10126.381915	4350.328333	1679.990234	63.043659
10126.381915	4350.328333	1678.965820	147.102585
10126.381915	4350.328333	1677.941406	217.097595
10126.381915	4350.328333	1676.916992	121.446213
10126.381915	4350.328333	1675.891602	74.755028
10126.381915	4350.328333	1674.866211	4.733955
10126.381915	4350.328333	1673.840820	6.962666
10126.381915	4350.328333	1672.815430	148.977875
10126.381915	4350.328333	1671.790039	60.244022
10126.381915	4350.328333	1670.763672	174.168350
10126.381915	4350.328333	1669.737305	97.037148
10126.381915	4350.328333	1668.710938	-112.823822
10126.381915	4350.328333	1667.684570	126.693474
10126.381915	4350.328333	1666.658203	112.370895
10126.381915	4350.328333	1665.630859	-29.980118
10126.381915	4350.328333	1664.603516	88.294037
10126.381915	4350.328333	1663.576172	132.051407
10126.381915	4350.328333	1662.548828	-33.564816
10126.381915	4350.328333	1661.520508	124.082916
10126.381915	4350.328333	1660.493164	144.477264
10126.381915	4350.328333	1659.464844	274.083069
10126.381915	4350.328333	1658.436523	13.168375
10126.381915	4350.328333	1657.408203	196.143005
10126.381915	4350.328333	1656.378906	195.484268
10126.381915	4350.328333	1655.350586	255.200409
10126.381915	4350.328333	1654.321289	228.938751
10126.381915	4350.328333	1653.291992	328.044586
10126.381915	4350.328333	1652.261719	48.697308
10126.381915	4350.328333	1651.232422	289.334045
10126.381915	4350.328333	1650.202148	246.750412
10126.381915	4350.328333	1649.171875	285.366028
10126.381915	4350.328333	1648.141602	198.689346
10126.381915	4350.328333	1647.111328	316.112671
10126.381915	4350.328333	1646.080078	111.166901
10126.381915	4350.328333	1645.049805	321.257111
10126.381915	4350.328333	1644.018555	260.060608
10126.381915	4350.328333	1642.987305	384.258820
10126.381915	4350.328333	1641.955078	306.817169
10126.381915	4350.328333	1640.923828	518.955322
10126.381915	4350.328333	1639.891602	527.181519
10126.381915	4350.328333	1638.859375	535.392090
10126.381915	4350.328333	1637.827148	346.803619
10126.381915	4350.328333	1636.794922	408.259491
10126.381915	4350.328333	1635.761719	284.536652
10126.381915	4350.328333	1634.729492	283.488678
10126.381915	4350.328333	1633.696289	462.862030
10126.381915	4350.328333	1632.662109	477.936707
10126.381915	4350.328333	1631.628906	395.883667
10126.381915	4350.328333	1630.594727	473.373199
10126.381915	4350.328333	1629.561523	573.949341
10126.381915	4350.328333	1628.527344	371.723755
10126.381915	4350.328333	1627.493164	340.556763
10126.381915	4350.328333	1626.458008	309.389282
10126.381915	4350.328333	1625.423828	476.874725
10126.381915	4350.328333	1624.388672	531.129700
10126.381915	4350.328333	1623.353516	458.375793
10126.381915	4350.328333	1622.318359	501.067841
10126.381915	4350.328333	1621.282227	546.043274
10126.381915	4350.328333	1620.247070	381.028717
10126.381915	4350.328333	1619.210938	382.175964
10126.381915	4350.328333	1618.174805	613.981995
10126.381915	4350.328333	1617.137695	605.855591
10126.381915	4350.328333	1616.101563	487.070190
10126.381915	4350.328333	1615.064453	548.135071
10126.381915	4350.328333	1614.027344	588.436768
10126.381915	4350.328333	1612.990234	428.251465
10126.381915	4350.328333	1611.953125	374.113037
10126.381915	4350.328333	1610.916016	660.909912
10126.381915	4350.328333	1609.877930	553.784363
10126.381915	4350.328333	1608.839844	594.070129
10126.381915	4350.328333	1607.801758	595.214294
10126.381915	4350.328333	1606.763672	773.592468
10126.381915	4350.328333	1605.724609	689.568787
10126.381915	4350.328333	1604.685547	771.241516
10126.381915	4350.328333	1603.646484	790.786255
10126.381915	4350.328333	1602.607422	895.429260
10126.381915	4350.328333	1601.568359	701.123413
10126.381915	4350.328333	1600.528320	773.577454
10126.381915	4350.328333	1599.489258	859.815430
10126.381915	4350.328333	1598.449219	734.607788
10126.381915	4350.328333	1597.408203	738.122192
10126.381915	4350.328333	1596.368164	920.837646
10126.381915	4350.328333	1595.327148	814.106689
10126.381915	4350.328333	1594.287109	682.183716
10126.381915	4350.328333	1593.246094	667.409424
10126.381915	4350.328333	1592.204102	765.125488
10126.381915	4350.328333	1591.163086	750.381042
10126.381915	4350.328333	1590.121094	439.670319
10126.381915	4350.328333	1589.079102	865.479187
10126.381915	4350.328333	1588.037109	772.798584
10126.381915	4350.328333	1586.995117	801.713135
10126.381915	4350.328333	1585.953125	738.932495
10126.381915	4350.328333	1584.910156	685.363037
10126.381915	4350.328333	1583.867188	682.258057
10126.381915	4350.328333	1582.824219	796.037048
10126.381915	4350.328333	1581.781250	692.165649
10126.381915	4350.328333	1580.737305	702.874451
10126.381915	4350.328333	1579.693359	940.315063
10126.381915	4350.328333	1578.649414	779.314270
10126.381915	4350.328333	1577.605469	790.085693
10126.381915	4350.328333	1576.561523	835.212952
10126.381915	4350.328333	1575.516602	763.647522
10126.381915	4350.328333	1574.472656	845.426941
10126.381915	4350.328333	1573.427734	792.249390
10126.381915	4350.328333	1572.381836	736.830444
10126.381915	4350.328333	1571.336914	633.460388
10126.381915	4350.328333	1570.291016	653.597351
10126.381915	4350.328333	1569.246094	509.213013
10126.381915	4350.328333	1568.200195	383.194489
10126.381915	4350.328333	1567.153320	721.025879
10126.381915	4350.328333	1566.107422	754.976440
10126.381915	4350.328333	1565.060547	473.793884
10126.381915	4350.328333	1564.013672	747.589172
10126.381915	4350.328333	1562.966797	642.369751
10126.381915	4350.328333	1561.919922	553.207520
10126.381915	4350.328333	1560.872070	683.175476
10126.381915	4350.328333	1559.825195	806.295471
10126.381915	4350.328333	1558.777344	708.143555
10126.381915	4350.328333	1557.729492	737.781738
10126.381915	4350.328333	1556.680664	537.154297
10126.381915	4350.328333	1555.632813	514.467163
10126.381915	4350.328333	1554.583984	503.222656
10126.381915	4350.328333	1553.535156	621.915161
10126.381915	4350.328333	1552.486328	430.755127
10126.381915	4350.328333	1551.436523	444.716370
10126.381915	4350.328333	1550.387695	508.827637
10126.381915	4350.328333	1549.337891	602.554565
10126.381915	4350.328333	1548.288086	609.782776
10126.381915	4350.328333	1547.238281	487.320496
10126.381915	4350.328333	1546.187500	442.318451
10126.381915	4350.328333	1545.136719	488.389740
10126.381915	4350.328333	1544.086914	593.641418
10126.381915	4350.328333	1543.035156	428.249481
10126.381915	4350.328333	1541.984375	597.232300
10126.381915	4350.328333	1540.933594	570.687988
10126.381915	4350.328333	1539.881836	555.563416
10126.381915	4350.328333	1538.830078	456.415680
10126.381915	4350.328333	1537.778320	398.255066
10126.381915	4350.328333	1536.725586	469.646759
10126.381915	4350.328333	1535.673828	377.545807
10126.381915	4350.328333	1534.621094	467.184753
10126.381915	4350.328333	1533.568359	588.627258
10126.381915	4350.328333	1532.515625	585.237061
10126.381915	4350.328333	1531.461914	566.012207
10126.381915	4350.328333	1530.409180	456.100586
10126.381915	4350.328333	1529.355469	421.141449
10126.381915	4350.328333	1528.301758	363.574158
10126.381915	4350.328333	1527.247070	591.793457
10126.381915	4350.328333	1526.193359	488.987701
10126.381915	4350.328333	1525.138672	322.808380
10126.381915	4350.328333	1524.083984	401.505127
10126.381915	4350.328333	1523.029297	244.590042
10126.381915	4350.328333	1521.974609	96.857468
10126.381915	4350.328333	1520.918945	291.234711
10126.381915	4350.328333	1519.863281	311.234833
10126.381915	4350.328333	1518.807617	238.464676
10126.381915	4350.328333	1517.751953	211.055435
10126.381915	4350.328333	1516.696289	97.721359
10126.381915	4350.328333	1515.639648	192.651749
10126.381915	4350.328333	1514.583008	203.907166
10126.381915	4350.328333	1513.526367	203.911789
10126.381915	4350.328333	1512.469727	355.486298
10126.381915	4350.328333	1511.412109	226.715668
10126.381915	4350.328333	1510.355469	109.366516
10126.381915	4350.328333	1509.297852	141.280441
10126.381915	4350.328333	1508.240234	234.252991
10126.381915	4350.328333	1507.181641	248.183823
10126.381915	4350.328333	1506.124023	368.332184
10126.381915	4350.328333	1505.065430	362.038208
10126.381915	4350.328333	1504.006836	245.186035
10126.381915	4350.328333	1502.948242	151.019073
10126.381915	4350.328333	1501.888672	199.131653
10126.381915	4350.328333	1500.830078	145.759888
10126.381915	4350.328333	1499.770508	272.946655
10126.381915	4350.328333	1498.710938	165.582550
10126.381915	4350.328333	1497.650391	247.746490
10126.381915	4350.328333	1496.590820	334.460205
10126.381915	4350.328333	1495.530273	351.325592
10126.381915	4350.328333	1494.469727	219.511383
10126.381915	4350.328333	1493.409180	299.623199
10126.381915	4350.328333	1492.348633	271.638855
10126.381915	4350.328333	1491.287109	248.237183
10126.381915	4350.328333	1490.225586	371.287750
10126.381915	4350.328333	1489.164063	266.963562
10126.381915	4350.328333	1488.102539	189.764862
10126.381915	4350.328333	1487.041016	54.152756
10126.381915	4350.328333	1485.978516	35.667736
10126.381915	4350.328333	1484.916016	55.523705
10126.381915	4350.328333	1483.853516	-64.039917
10126.381915	4350.328333	1482.791016	-32.798355
10126.381915	4350.328333	1481.727539	-95.927658
10126.381915	4350.328333	1480.664063	11.875602
10126.381915	4350.328333	1479.600586	216.337158
10126.381915	4350.328333	1478.537109	70.277466
10126.381915	4350.328333	1477.473633	79.385109
10126.381915	4350.328333	1476.409180	146.899399
10126.381915	4350.328333	1475.344727	-5.526986
10126.381915	4350.328333	1474.280273	183.322845
10126.381915	4350.328333	1473.215820	284.504669
10126.381915	4350.328333	1472.151367	94.314453
10126.381915	4350.328333	1471.085938	92.679337
10126.381915	4350.328333	1470.020508	201.001602
10126.381915	4350.328333	1468.955078	208.391663
10126.381915	4350.328333	1467.888672	300.977020
10126.381915	4350.328333	1466.823242	129.353561
10126.381915	4350.328333	1465.756836	71.712753
10126.381915	4350.328333	1464.690430	124.448715
10126.381915	4350.328333	1463.624023	163.189407
10126.381915	4350.328333	1462.556641	323.279419
10126.381915	4350.328333	1461.490234	259.686981
10126.381915	4350.328333	1460.422852	413.037811
10126.381915	4350.328333	1459.355469	193.167023
10126.381915	4350.328333	1458.287109	256.589417
10126.381915	4350.328333	1457.219727	218.058746
10126.381915	4350.328333	1456.151367	304.841888
10126.381915	4350.328333	1455.083008	283.724823
10126.381915	4350.328333	1454.014648	251.911682
10126.381915	4350.328333	1452.945313	222.326721
10126.381915	4350.328333	1451.876953	139.794205
10126.381915	4350.328333	1450.807617	74.821968
10126.381915	4350.328333	1449.738281	264.288391
10126.381915	4350.328333	1448.668945	226.611389
10126.381915	4350.328333	1447.598633	246.511459
10126.381915	4350.328333	1446.528320	270.106018
10126.381915	4350.328333	1445.458008	170.372498
10126.381915	4350.328333	1444.387695	139.916336
10126.381915	4350.328333	1443.317383	136.840958
10126.381915	4350.328333	1442.246094	144.581985
10126.381915	4350.328333	1441.174805	65.222290
10126.381915	4350.328333	1440.103516	94.070366
10126.381915	4350.328333	1439.032227	172.474731
10126.381915	4350.328333	1437.960938	211.535873
10126.381915	4350.328333	1436.888672	107.126244
10126.381915	4350.328333	1435.816406	276.754120
10126.381915	4350.328333	1434.744141	410.956512
10126.381915	4350.328333	1433.670898	231.363846
10126.381915	4350.328333	1432.598633	156.872040
10126.381915	4350.328333	1431.525391	81.700294
10126.381915	4350.328333	1430.452148	197.147491
10126.381915	4350.328333	1429.378906	34.795486
10126.381915	4350.328333	1428.304688	190.244827
10126.381915	4350.328333	1427.231445	41.376026
10126.381915	4350.328333	1426.157227	162.376694
10126.381915	4350.328333	1425.083008	76.390099
10126.381915	4350.328333	1424.007813	69.676178
10126.381915	4350.328333	1422.933594	-10.500331
10126.381915	4350.328333	1421.858398	144.452011
10126.381915	4350.328333	1420.783203	179.473038
10126.381915	4350.328333	1419.708008	-126.779251
10126.381915	4350.328333	1418.631836	12.982731
10126.381915	4350.328333	1417.555664	-178.810181
10126.381915	4350.328333	1416.479492	0.674787
10126.381915	4350.328333	1415.403320	30.670792
10126.381915	4350.328333	1414.327148	-182.456192
10126.381915	4350.328333	1413.250000	105.187180
10126.381915	4350.328333	1412.173828	148.448273
10126.381915	4350.328333	1411.096680	-115.129059
10126.381915	4350.328333	1410.018555	63.918018
10126.381915	4350.328333	1408.941406	-4.458106
10126.381915	4350.328333	1407.863281	43.871784
10126.381915	4350.328333	1406.785156	-230.248123
10126.381915	4350.328333	1405.707031	-66.792747
10126.381915	4350.328333	1404.628906	41.583344
10126.381915	4350.328333	1403.549805	-28.277718
10126.381915	4350.328333	1402.470703	-33.631634
10126.381915	4350.328333	1401.391602	-29.513872
10126.381915	4350.328333	1400.312500	69.928772
10126.381915	4350.328333	1399.233398	-121.718086
10126.381915	4350.328333	1398.153320	-211.933304
10126.381915	4350.328333	1397.073242	-55.251247
10126.381915	4350.328333	1395.993164	189.301392
10126.381915	4350.328333	1394.913086	-51.626335
10126.381915	4350.328333	1393.832031	-51.774761
10126.381915	4350.328333	1392.750977	44.126167
10126.381915	4350.328333	1391.669922	20.265549
10126.381915	4350.328333	1390.588867	73.339317
10126.381915	4350.328333	1389.506836	-53.341885
10126.381915	4350.328333	1388.425781	27.010756
10126.381915	4350.328333	1387.343750	-150.440048
10126.381915	4350.328333	1386.261719	-3.724412
10126.381915	4350.328333	1385.178711	-299.099854
10126.381915	4350.328333	1384.096680	-95.803429
10126.381915	4350.328333	1383.013672	-13.608491
10126.381915	4350.328333	1381.930664	-17.729025
10126.381915	4350.328333	1380.846680	-121.910599
10126.381915	4350.328333	1379.763672	38.627811
10126.381915	4350.328333	1378.679688	-79.417976
10126.381915	4350.328333	1377.595703	-177.505341
10126.381915	4350.328333	1376.511719	-53.685467
10126.381915	4350.328333	1375.427734	0.208203
10126.381915	4350.328333	1374.342773	44.396240
10126.381915	4350.328333	1373.257813	-57.476440
10126.381915	4350.328333	1372.172852	224.372925
10126.381915	4350.328333	1371.087891	-91.689865
10126.381915	4350.328333	1370.001953	114.393829
10126.381915	4350.328333	1368.916992	64.618721
10126.381915	4350.328333	1367.831055	-1.543876
10126.381915	4350.328333	1366.744141	32.316875
10126.381915	4350.328333	1365.658203	141.581116
10126.381915	4350.328333	1364.571289	38.569073
10126.381915	4350.328333	1363.484375	194.962265
10126.381915	4350.328333	1362.397461	-33.776886
10126.381915	4350.328333	1361.310547	304.021088
10126.381915	4350.328333	1360.222656	87.693581
10126.381915	4350.328333	1359.135742	69.533195
10126.381915	4350.328333	1358.047852	98.421288
10126.381915	4350.328333	1356.958984	231.738403
10126.381915	4350.328333	1355.871094	171.288528
10126.381915	4350.328333	1354.782227	123.831268
10126.381915	4350.328333	1353.693359	46.833778
10126.381915	4350.328333	1352.604492	148.036774
10126.381915	4350.328333	1351.515625	277.033539
10126.381915	4350.328333	1350.425781	133.547577
10126.381915	4350.328333	1349.335938	221.108398
10126.381915	4350.328333	1348.246094	228.822891
10126.381915	4350.328333	1347.156250	53.011879
10126.381915	4350.328333	1346.066406	267.043976
10126.381915	4350.328333	1344.975586	273.046265
10126.381915	4350.328333	1343.884766	158.416122
10126.381915	4350.328333	1342.793945	174.768295
10126.381915	4350.328333	1341.702148	228.951645
10126.381915	4350.328333	1340.611328	157.088226
10126.381915	4350.328333	1339.519531	284.340210
10126.381915	4350.328333	1338.427734	284.832275
10126.381915	4350.328333	1337.334961	204.698624
10126.381915	4350.328333	1336.243164	187.734787
10126.381915	4350.328333	1335.150391	175.855209
10126.381915	4350.328333	1334.057617	118.775238
10126.381915	4350.328333	1332.964844	239.886917
10126.381915	4350.328333	1331.871094	319.638123
10126.381915	4350.328333	1330.778320	413.525116
10126.381915	4350.328333	1329.684570	274.110229
10126.381915	4350.328333	1328.590820	255.836090
10126.381915	4350.328333	1327.496094	295.988617
10126.381915	4350.328333	1326.402344	325.818695
10126.381915	4350.328333	1325.307617	210.743393
10126.381915	4350.328333	1324.212891	297.085083
10126.381915	4350.328333	1323.117188	88.316353
10126.381915	4350.328333	1322.022461	287.149689
10126.381915	4350.328333	1320.926758	279.415497
10126.381915	4350.328333	1319.831055	31.732965
10126.381915	4350.328333	1318.735352	75.501907
10126.381915	4350.328333	1317.638672	212.260452
10126.381915	4350.328333	1316.542969	247.317474
10126.381915	4350.328333	1315.446289	86.407990
10126.381915	4350.328333	1314.349609	238.148056
10126.381915	4350.328333	1313.251953	193.500717
10126.381915	4350.328333	1312.155273	123.126160
10126.381915	4350.328333	1311.057617	104.624878
10126.381915	4350.328333	1309.959961	125.822762
10126.381915	4350.328333	1308.862305	191.096222
10126.381915	4350.328333	1307.763672	202.613510
10126.381915	4350.328333	1306.665039	72.531479
10126.381915	4350.328333	1305.566406	192.719711
10126.381915	4350.328333	1304.467773	185.526276
10126.381915	4350.328333	1303.369141	34.774834
10126.381915	4350.328333	1302.269531	190.602539
10126.381915	4350.328333	1301.169922	4.902435
10126.381915	4350.328333	1300.070313	275.403473
10126.381915	4350.328333	1298.970703	55.467373
10126.381915	4350.328333	1297.870117	94.552689
10126.381915	4350.328333	1296.769531	31.051390
10126.381915	4350.328333	1295.668945	171.487335
10126.381915	4350.328333	1294.568359	89.171494
10126.381915	4350.328333	1293.466797	149.559555
10126.381915	4350.328333	1292.366211	-105.558380
10126.381915	4350.328333	1291.264648	-8.591630
10126.381915	4350.328333	1290.162109	72.822578
10126.381915	4350.328333	1289.060547	9.111940
10126.381915	4350.328333	1287.958008	-36.628860
10126.381915	4350.328333	1286.855469	-213.417221
10126.381915	4350.328333	1285.752930	-210.198029
10126.381915	4350.328333	1284.650391	122.924652
10126.381915	4350.328333	1283.546875	22.252386
10126.381915	4350.328333	1282.444336	4.308354
10126.381915	4350.328333	1281.339844	76.142914
10126.381915	4350.328333	1280.236328	19.070829
10126.381915	4350.328333	1279.132813	-22.704956
10126.381915	4350.328333	1278.028320	-35.890610
10126.381915	4350.328333	1276.923828	56.301010
10126.381915	4350.328333	1275.819336	30.255108
10126.381915	4350.328333	1274.713867	241.063416
10126.381915	4350.328333	1273.608398	48.427078
10126.381915	4350.328333	1272.503906	-47.811165
10126.381915	4350.328333	1271.397461	103.365250
10126.381915	4350.328333	1270.291992	34.414265
10126.381915	4350.328333	1269.185547	22.268009
10126.381915	4350.328333	1268.080078	-0.427625
10126.381915	4350.328333	1266.972656	112.990540
10126.381915	4350.328333	1265.866211	126.277214
10126.381915	4350.328333	1264.759766	143.631622
10126.381915	4350.328333	1263.652344	53.891697
10126.381915	4350.328333	1262.544922	189.491913
10126.381915	4350.328333	1261.436523	102.819038
10126.381915	4350.328333	1260.329102	155.836258
10126.381915	4350.328333	1259.220703	58.432880
10126.381915	4350.328333	1258.112305	-52.894142
10126.381915	4350.328333	1257.003906	121.868355
10126.381915	4350.328333	1255.895508	119.884888
10126.381915	4350.328333	1254.786133	114.465141
10126.381915	4350.328333	1253.676758	77.725182
10126.381915	4350.328333	1252.567383	91.546349
10126.381915	4350.328333	1251.458008	165.199615
10126.381915	4350.328333	1250.347656	64.630417
10126.381915	4350.328333	1249.237305	34.657948
10126.381915	4350.328333	1248.126953	186.129364
10126.381915	4350.328333	1247.016602	80.108643
10126.381915	4350.328333	1245.905273	-29.434370
10126.381915	4350.328333	1244.793945	-120.991020
10126.381915	4350.328333	1243.682617	-48.845982
10126.381915	4350.328333	1242.571289	-1.501689
10126.381915	4350.328333	1241.459961	-90.813118
10126.381915	4350.328333	1240.347656	-4.948077
10126.381915	4350.328333	1239.235352	-28.685030
10126.381915	4350.328333	1238.123047	28.253872
10126.381915	4350.328333	1237.009766	236.159805
10126.381915	4350.328333	1235.897461	110.916771
10126.381915	4350.328333	1234.784180	13.734557
10126.381915	4350.328333	1233.670898	103.683350
10126.381915	4350.328333	1232.556641	49.498665
10126.381915	4350.328333	1231.443359	-102.892487
10126.381915	4350.328333	1230.329102	-42.883865
10126.381915	4350.328333	1229.214844	-34.999969
10126.381915	4350.328333	1228.099609	-11.861747
10126.381915	4350.328333	1226.985352	-20.303856
10126.381915	4350.328333	1225.870117	14.558245
10126.381915	4350.328333	1224.754883	-31.292109
10126.381915	4350.328333	1223.639648	-90.488167
10126.381915	4350.328333	1222.523438	38.391102
10126.381915	4350.328333	1221.408203	7.132215
10126.381915	4350.328333	1220.291992	68.330597
10126.381915	4350.328333	1219.174805	-153.907745
10126.381915	4350.328333	1218.058594	-78.120483
10126.381915	4350.328333	1216.941406	-66.551071
10126.381915	4350.328333	1215.824219	11.553429
10126.381915	4350.328333	1214.707031	-48.182392
10126.381915	4350.328333	1213.589844	-39.765778
10126.381915	4350.328333	1212.471680	15.866831
10126.381915	4350.328333	1211.353516	-19.117502
10126.381915	4350.328333	1210.235352	94.112862
10126.381915	4350.328333	1209.117188	51.446194
10126.381915	4350.328333	1207.998047	403.849335
10126.381915	4350.328333	1206.878906	196.994324
10126.381915	4350.328333	1205.759766	282.402222
10126.381915	4350.328333	1204.640625	113.767998
10126.381915	4350.328333	1203.520508	145.726395
10126.381915	4350.328333	1202.401367	75.263588
10126.381915	4350.328333	1201.281250	-10.094652
10126.381915	4350.328333	1200.160156	57.336819
10126.381915	4350.328333	1199.040039	8.434869
10126.381915	4350.328333	1197.918945	4.262315
10126.381915	4350.328333	1196.797852	-3.178609
10126.381915	4350.328333	1195.676758	23.918390
10126.381915	4350.328333	1194.555664	-25.286877
10126.381915	4350.328333	1193.433594	-41.968323
10126.381915	4350.328333	1192.311523	-61.633408
10126.381915	4350.328333	1191.189453	-44.139885
10126.381915	4350.328333	1190.066406	-3.222255
10126.381915	4350.328333	1188.944336	-97.912514
10126.381915	4350.328333	1187.821289	-43.187157
10126.381915	4350.328333	1186.698242	-88.896317
10126.381915	4350.328333	1185.574219	-105.521614
10126.381915	4350.328333	1184.451172	-63.100750
10126.381915	4350.328333	1183.327148	-38.227531
10126.381915	4350.328333	1182.203125	111.269478
10126.381915	4350.328333	1181.078125	-4.266210
10126.381915	4350.328333	1179.954102	-91.280327
10126.381915	4350.328333	1178.829102	24.095089
10126.381915	4350.328333	1177.704102	-96.251625
10126.381915	4350.328333	1176.579102	-7.994580
10126.381915	4350.328333	1175.453125	-154.668274
10126.381915	4350.328333	1174.327148	-92.472198
10126.381915	4350.328333	1173.201172	-158.037476
10126.381915	4350.328333	1172.075195	-134.698349
10126.381915	4350.328333	1170.949219	-111.356461
10126.381915	4350.328333	1169.822266	-93.296379
10126.381915	4350.328333	1168.695313	43.536427
10126.381915	4350.328333	1167.568359	-107.418831
10126.381915	4350.328333	1166.440430	-64.237801
10126.381915	4350.328333	1165.313477	-121.751373
10126.381915	4350.328333	1164.185547	-29.254177
10126.381915	4350.328333	1163.057617	-112.876114
10126.381915	4350.328333	1161.928711	-78.572792
10126.381915	4350.328333	1160.800781	-19.501072
10126.381915	4350.328333	1159.671875	-8.738954
10126.381915	4350.328333	1158.541992	-71.859962
10126.381915	4350.328333	1157.413086	-2.520804
10126.381915	4350.328333	1156.283203	-34.699024
10126.381915	4350.328333	1155.154297	-68.880318
10126.381915	4350.328333	1154.023438	-221.079910
10126.381915	4350.328333	1152.893555	-44.022240
10126.381915	4350.328333	1151.763672	-1.976475
10126.381915	4350.328333	1150.632813	-87.610352
10126.381915	4350.328333	1149.501953	37.659454
10126.381915	4350.328333	1148.370117	202.046036
10126.381915	4350.328333	1147.239258	135.852173
10126.381915	4350.328333	1146.107422	41.229763
10126.381915	4350.328333	1144.975586	-39.312920
10126.381915	4350.328333	1143.843750	-119.371742
10126.381915	4350.328333	1142.710938	222.350250
10126.381915	4350.328333	1141.578125	-1.176660
10126.381915	4350.328333	1140.445313	26.248531
10126.381915	4350.328333	1139.312500	-16.058882
10126.381915	4350.328333	1138.178711	17.828840
10126.381915	4350.328333	1137.045898	175.130005
10126.381915	4350.328333	1135.912109	85.143570
10126.381915	4350.328333	1134.777344	66.936714
10126.381915	4350.328333	1133.643555	95.106819
10126.381915	4350.328333	1132.508789	84.587456
10126.381915	4350.328333	1131.374023	40.315964
10126.381915	4350.328333	1130.239258	192.563705
10126.381915	4350.328333	1129.104492	121.393089
10126.381915	4350.328333	1127.968750	131.743347
10126.381915	4350.328333	1126.833008	16.747272
10126.381915	4350.328333	1125.697266	-22.166538
10126.381915	4350.328333	1124.560547	167.284851
10126.381915	4350.328333	1123.424805	175.045059
10126.381915	4350.328333	1122.288086	86.941742
10126.381915	4350.328333	1121.151367	20.946674
10126.381915	4350.328333	1120.013672	117.181572
10126.381915	4350.328333	1118.876953	142.788513
10126.381915	4350.328333	1117.739258	-38.602295
10126.381915	4350.328333	1116.601563	-80.494545
10126.381915	4350.328333	1115.462891	17.470676
10126.381915	4350.328333	1114.324219	101.946999
10126.381915	4350.328333	1113.186523	68.331306
10126.381915	4350.328333	1112.046875	76.069450
10126.381915	4350.328333	1110.908203	-27.292311
10126.381915	4350.328333	1109.769531	137.627365
10126.381915	4350.328333	1108.629883	76.814194
10126.381915	4350.328333	1107.490234	65.101669
10126.381915	4350.328333	1106.349609	240.196182
10126.381915	4350.328333	1105.209961	99.644829
10126.381915	4350.328333	1104.069336	72.906265
10126.381915	4350.328333	1102.928711	141.755524
10126.381915	4350.328333	1101.787109	159.935989
10126.381915	4350.328333	1100.646484	189.975494
10126.381915	4350.328333	1099.504883	-32.726124
10126.381915	4350.328333	1098.363281	76.086761
10126.381915	4350.328333	1097.221680	167.432709
10126.381915	4350.328333	1096.079102	20.938780
10126.381915	4350.328333	1094.936523	66.089203
10126.381915	4350.328333	1093.793945	137.326370
10126.381915	4350.328333	1092.651367	-25.039127
10126.381915	4350.328333	1091.507813	-1.601066
10126.381915	4350.328333	1090.364258	68.678642
10126.381915	4350.328333	1089.220703	61.559788
10126.381915	4350.328333	1088.077148	75.484795
10126.381915	4350.328333	1086.933594	176.751541
10126.381915	4350.328333	1085.789063	71.439980
10126.381915	4350.328333	1084.644531	90.304169
10126.381915	4350.328333	1083.499023	125.907402
10126.381915	4350.328333	1082.354492	222.454269
10126.381915	4350.328333	1081.208984	37.742165
10126.381915	4350.328333	1080.063477	83.314362
10126.381915	4350.328333	1078.917969	166.864273
10126.381915	4350.328333	1077.771484	86.640610
10126.381915	4350.328333	1076.625977	-97.223038
10126.381915	4350.328333	1075.479492	20.802904
10126.381915	4350.328333	1074.332031	285.390289
10126.381915	4350.328333	1073.185547	1.439505
10126.381915	4350.328333	1072.038086	103.816856
10126.381915	4350.328333	1070.890625	140.019958
10126.381915	4350.328333	1069.743164	109.118225
10126.381915	4350.328333	1068.594727	122.107246
10126.381915	4350.328333	1067.447266	120.446266
10126.381915	4350.328333	1066.298828	10.036513
10126.381915	4350.328333	1065.149414	130.189529
10126.381915	4350.328333	1064.000977	106.449677
10126.381915	4350.328333	1062.851563	281.377228
10126.381915	4350.328333	1061.702148	17.677032
10126.381915	4350.328333	1060.552734	159.264252
10126.381915	4350.328333	1059.402344	104.658691
10126.381915	4350.328333	1058.252930	155.470444
10126.381915	4350.328333	1057.102539	83.463585
10126.381915	4350.328333	1055.951172	186.880356
10126.381915	4350.328333	1054.800781	125.250946
10126.381915	4350.328333	1053.649414	289.071716
10126.381915	4350.328333	1052.498047	291.280151
10126.381915	4350.328333	1051.346680	103.071754
10126.381915	4350.328333	1050.194336	152.111603
10126.381915	4350.328333	1049.042969	335.655762
10126.381915	4350.328333	1047.890625	97.146629
10126.381915	4350.328333	1046.738281	279.412476
10126.381915	4350.328333	1045.584961	46.214085
10126.381915	4350.328333	1044.431641	129.451050
10126.381915	4350.328333	1043.278320	166.789551
10126.381915	4350.328333	1042.125000	244.760956
10126.381915	4350.328333	1040.971680	295.871277
10126.381915	4350.328333	1039.817383	188.686798
10126.381915	4350.328333	1038.663086	81.763542
10126.381915	4350.328333	1037.508789	118.560631
10126.381915	4350.328333	1036.353516	304.315186
10126.381915	4350.328333	1035.198242	172.486618
10126.381915	4350.328333	1034.042969	277.302612
10126.381915	4350.328333	1032.887695	-24.762999
10126.381915	4350.328333	1031.732422	216.599472
10126.381915	4350.328333	1030.576172	300.036194
10126.381915	4350.328333	1029.419922	195.935440
10126.381915	4350.328333	1028.263672	65.473167
10126.381915	4350.328333	1027.106445	22.193897
10126.381915	4350.328333	1025.949219	-36.987152
10126.381915	4350.328333	1024.792969	64.112404
10126.381915	4350.328333	1023.634766	5.290768
10126.381915	4350.328333	1022.477539	70.102119
10126.381915	4350.328333	1021.319336	129.527802
10126.381915	4350.328333	1020.161133	52.823948
10126.381915	4350.328333	1019.002930	18.011251
10126.381915	4350.328333	1017.843750	-18.877163
10126.381915	4350.328333	1016.684570	184.783096
10126.381915	4350.328333	1015.525391	74.798347
10126.381915	4350.328333	1014.366211	68.635071
10126.381915	4350.328333	1013.207031	-53.926777
10126.381915	4350.328333	1012.046875	47.210285
10126.381915	4350.328333	1010.886719	35.545761
10126.381915	4350.328333	1009.726563	-84.802994
10126.381915	4350.328333	1008.565430	35.520721
10126.381915	4350.328333	1007.404297	28.823601
10126.381915	4350.328333	1006.243164	-44.732067
10126.381915	4350.328333	1005.082031	72.580948
10126.381915	4350.328333	1003.920898	204.076782
10126.381915	4350.328333	1002.758789	184.343948
10126.381915	4350.328333	1001.596680	157.700027
10126.381915	4350.328333	1000.433594	-112.575127
10126.381915	4350.328333	999.271484	79.013451
10126.381915	4350.328333	998.108398	133.894455
10126.381915	4350.328333	996.945313	-0.743856
10126.381915	4350.328333	995.782227	8.217833
10126.381915	4350.328333	994.618164	61.827858
10126.381915	4350.328333	993.454102	54.558708
10126.381915	4350.328333	992.290039	141.539963
10126.381915	4350.328333	991.125977	131.525208
10126.381915	4350.328333	989.960938	8.778030
10126.381915	4350.328333	988.796875	222.096481
10126.381915	4350.328333	987.630859	245.835861
10126.381915	4350.328333	986.465820	-15.281628
10126.381915	4350.328333	985.300781	112.352798
10126.381915	4350.328333	984.134766	86.522163
10126.381915	4350.328333	982.968750	314.238678
10126.381915	4350.328333	981.801758	210.065125
10126.381915	4350.328333	980.635742	-12.597172
10126.381915	4350.328333	979.468750	52.326359
10126.381915	4350.328333	978.301758	9.301123
10126.381915	4350.328333	977.133789	119.668633
10126.381915	4350.328333	975.966797	150.487091
10126.381915	4350.328333	974.798828	71.812874
10126.381915	4350.328333	973.630859	37.601185
10126.381915	4350.328333	972.461914	48.586536
10126.381915	4350.328333	971.293945	16.563110
10126.381915	4350.328333	970.125000	67.219940
10126.381915	4350.328333	968.956055	97.127548
10126.381915	4350.328333	967.786133	108.579941
10126.381915	4350.328333	966.617188	21.161467
10126.381915	4350.328333	965.447266	-106.663101
10126.381915	4350.328333	964.276367	39.912018
10126.381915	4350.328333	963.106445	27.837488
10126.381915	4350.328333	961.935547	-133.881012
10126.381915	4350.328333	960.764648	-45.547840
10126.381915	4350.328333	959.593750	17.805418
10126.381915	4350.328333	958.422852	-143.286896
10126.381915	4350.328333	957.250977	-120.806824
10126.381915	4350.328333	956.079102	16.860289
10126.381915	4350.328333	954.907227	-169.728775
10126.381915	4350.328333	953.734375	-78.244087
10126.381915	4350.328333	952.562500	-75.404137
10126.381915	4350.328333	951.389648	-1.372004
10126.381915	4350.328333	950.215820	7.047737
10126.381915	4350.328333	949.042969	92.445259
10126.381915	4350.328333	947.869141	-126.277161
10126.381915	4350.328333	946.695313	-60.814346
10126.381915	4350.328333	945.521484	-279.919098
10126.381915	4350.328333	944.346680	-61.515503
10126.381915	4350.328333	943.172852	-78.303299
10126.381915	4350.328333	941.998047	-210.070313
10126.381915	4350.328333	940.822266	-91.834999
10126.381915	4350.328333	939.647461	-6.002080
10126.381915	4350.328333	938.471680	-62.816017
10126.381915	4350.328333	937.295898	25.564598
10126.381915	4350.328333	936.119141	-101.249779
10126.381915	4350.328333	934.943359	57.091599
10126.381915	4350.328333	933.766602	35.209393
10126.381915	4350.328333	932.589844	65.789299
10126.381915	4350.328333	931.413086	-55.937614
10126.381915	4350.328333	930.235352	62.132198
10126.381915	4350.328333	929.057617	-4.701771
10126.381915	4350.328333	927.879883	28.388716
10126.381915	4350.328333	926.702148	-35.967815
10126.381915	4350.328333	925.523438	109.465416
10126.381915	4350.328333	924.344727	-4.831873
10126.381915	4350.328333	923.166016	78.114044
10126.381915	4350.328333	921.987305	-113.557564
10126.381915	4350.328333	920.807617	-80.556267
10126.381915	4350.328333	919.627930	-78.438934
10126.381915	4350.328333	919.497070	109.849388
10126.381915	4350.328333	918.331055	112.805962
10126.381915	4350.328333	917.165039	-78.794724
10126.381915	4350.328333	915.999023	-150.637650
10126.381915	4350.328333	914.833008	106.626877
10126.381915	4350.328333	913.666016	-112.315292
10126.381915	4350.328333	912.499023	-111.875954
10126.381915	4350.328333	911.332031	-84.043304
10126.381915	4350.328333	910.165039	55.863869
10126.381915	4350.328333	908.997070	26.341911
10126.381915	4350.328333	907.830078	-33.064064
10126.381915	4350.328333	906.661133	-22.748035
10126.381915	4350.328333	905.493164	-9.961895
10126.381915	4350.328333	904.325195	-54.431496
10126.381915	4350.328333	903.156250	-66.550217
10126.381915	4350.328333	901.987305	53.162811
10126.381915	4350.328333	900.818359	-23.662476
10126.381915	4350.328333	899.648438	-97.981026
10126.381915	4350.328333	898.478516	-90.244072
10126.381915	4350.328333	897.308594	-10.443266
10126.381915	4350.328333	896.138672	218.412643
10126.381915	4350.328333	894.968750	62.063427
10126.381915	4350.328333	893.797852	-17.229120
10126.381915	4350.328333	892.626953	15.254220
10126.381915	4350.328333	891.456055	-29.260939
10126.381915	4350.328333	890.284180	0.704918
10126.381915	4350.328333	889.113281	-56.224655
10126.381915	4350.328333	887.941406	149.892242
10126.381915	4350.328333	886.768555	75.565361
10126.381915	4350.328333	885.596680	16.137060
10126.381915	4350.328333	884.423828	-30.879055
10126.381915	4350.328333	883.250977	-8.464389
10126.381915	4350.328333	882.078125	28.801968
10126.381915	4350.328333	880.905273	90.823830
10126.381915	4350.328333	879.731445	-30.556625
10126.381915	4350.328333	878.557617	113.181686
10126.381915	4350.328333	877.383789	-10.656562
10126.381915	4350.328333	876.209961	56.225018
10126.381915	4350.328333	875.035156	137.922455
10126.381915	4350.328333	873.860352	199.770828
10126.381915	4350.328333	872.685547	-60.153709
10126.381915	4350.328333	871.510742	53.645405
10126.381915	4350.328333	870.334961	-47.840340
10126.381915	4350.328333	869.159180	-178.977997
10126.381915	4350.328333	867.983398	-127.084465
10126.381915	4350.328333	866.807617	122.562378
10126.381915	4350.328333	865.630859	90.305527
10126.381915	4350.328333	864.454102	65.462051
10126.381915	4350.328333	863.277344	-31.038395
10126.381915	4350.328333	862.100586	-16.348196
10126.381915	4350.328333	860.922852	163.800873
10126.381915	4350.328333	859.745117	225.335800
10126.381915	4350.328333	858.567383	44.889320
10126.381915	4350.328333	857.389648	160.698212
10126.381915	4350.328333	856.210938	46.943249
10126.381915	4350.328333	855.032227	9.706704
10126.381915	4350.328333	853.853516	-27.529062
10126.381915	4350.328333	852.674805	75.814499
10126.381915	4350.328333	851.495117	-203.090683
10126.381915	4350.328333	850.315430	146.744446
10126.381915	4350.328333	849.135742	126.709442
10126.381915	4350.328333	847.956055	185.523972
10126.381915	4350.328333	846.775391	32.419975
10126.381915	4350.328333	845.595703	4.987528
10126.381915	4350.328333	844.415039	29.270638
10126.381915	4350.328333	843.233398	51.067520
10126.381915	4350.328333	842.052734	18.682199
10126.381915	4350.328333	840.871094	89.666412
10126.381915	4350.328333	839.689453	-11.642091
10126.381915	4350.328333	838.506836	-80.940186
10126.381915	4350.328333	837.325195	19.491766
10126.381915	4350.328333	836.142578	36.256168
10126.381915	4350.328333	834.959961	33.328999
10126.381915	4350.328333	833.777344	-16.318161
10126.381915	4350.328333	832.593750	15.143604
10126.381915	4350.328333	831.410156	-5.023557
10126.381915	4350.328333	830.226563	-123.464775
10126.381915	4350.328333	829.042969	-170.644531
10126.381915	4350.328333	827.858398	-80.305237
10126.381915	4350.328333	826.673828	83.635109
10126.381915	4350.328333	825.489258	97.758904
10126.381915	4350.328333	824.304688	-40.294819
10126.381915	4350.328333	823.120117	44.970406
10126.381915	4350.328333	821.934570	24.700737
10126.381915	4350.328333	820.749023	-20.103790
10126.381915	4350.328333	819.562500	62.602856
10126.381915	4350.328333	818.376953	-26.353828
10126.381915	4350.328333	817.190430	2.361494
10126.381915	4350.328333	816.003906	-54.722771
10126.381915	4350.328333	814.817383	-212.254227
10126.381915	4350.328333	813.629883	36.889751
10126.381915	4350.328333	812.442383	-101.038292
10126.381915	4350.328333	811.254883	-33.249432
10126.381915	4350.328333	810.067383	-80.564621
10126.381915	4350.328333	808.878906	58.134296
10126.381915	4350.328333	807.690430	189.416336
10126.381915	4350.328333	806.501953	122.456146
10126.381915	4350.328333	805.313477	-42.335773
10126.381915	4350.328333	804.124023	32.581989
10126.381915	4350.328333	802.934570	-97.931450
10126.381915	4350.328333	801.745117	94.263893
10126.381915	4350.328333	800.555664	237.480347
10126.381915	4350.328333	799.365234	-68.984871
10126.381915	4350.328333	798.175781	174.328491
10126.381915	4350.328333	796.985352	202.582855
10126.381915	4350.328333	795.793945	15.911325
10126.381915	4350.328333	794.603516	-55.954277
10126.381915	4350.328333	793.412109	148.018005
10126.381915	4350.328333	792.220703	56.589287
10126.381915	4350.328333	791.028320	-117.780762
10126.381915	4350.328333	789.836914	95.771652
10126.381915	4350.328333	788.644531	-76.138138
10126.381915	4350.328333	787.452148	186.042511
10126.381915	4350.328333	786.258789	126.286423
10126.381915	4350.328333	785.066406	176.216782
10126.381915	4350.328333	783.873047	-39.519974
10126.381915	4350.328333	782.679688	-99.259300
10126.381915	4350.328333	781.485352	77.286949
10126.381915	4350.328333	780.291992	-28.770079
10126.381915	4350.328333	779.097656	1.547920
10126.381915	4350.328333	777.903320	-143.445999
10126.381915	4350.328333	776.708008	49.906853
10126.381915	4350.328333	775.512695	63.085575
10126.381915	4350.328333	774.318359	98.130882
10126.381915	4350.328333	773.122070	135.569824
10126.381915	4350.328333	771.926758	90.285622
10126.381915	4350.328333	770.730469	47.426743
10126.381915	4350.328333	769.534180	11.853729
10126.381915	4350.328333	768.337891	27.308104
10126.381915	4350.328333	767.141602	227.398087
10126.381915	4350.328333	765.944336	369.076111
10126.381915	4350.328333	764.747070	328.507019
10126.381915	4350.328333	763.549805	207.794113
10126.381915	4350.328333	762.351563	283.758972
10126.381915	4350.328333	761.154297	167.908340
10126.381915	4350.328333	759.956055	154.005539
10126.381915	4350.328333	758.757813	261.397186
10126.381915	4350.328333	757.558594	380.845581
10126.381915	4350.328333	756.359375	73.366318
10126.381915	4350.328333	755.160156	178.201416
10126.381915	4350.328333	753.960938	135.084564
10126.381915	4350.328333	752.761719	254.351044
10126.381915	4350.328333	751.561523	119.096130
10126.381915	4350.328333	750.361328	155.886261
10126.381915	4350.328333	749.160156	115.120369
10126.381915	4350.328333	747.959961	304.410217
10126.381915	4350.328333	746.758789	35.975201
10126.381915	4350.328333	745.557617	113.790558
10126.381915	4350.328333	744.356445	157.661301
10126.381915	4350.328333	743.154297	216.002365
10126.381915	4350.328333	741.952148	136.393555
10126.381915	4350.328333	740.750000	126.931877
10126.381915	4350.328333	739.547852	264.955536
10126.381915	4350.328333	738.344727	158.702133
10126.381915	4350.328333	737.142578	267.595398
10126.381915	4350.328333	735.939453	154.075012
10126.381915	4350.328333	734.735352	183.127075
10126.381915	4350.328333	733.532227	96.183762
10126.381915	4350.328333	732.328125	185.554733
10126.381915	4350.328333	731.124023	231.392288
10126.381915	4350.328333	729.918945	144.399200
10126.381915	4350.328333	728.714844	30.861847
10126.381915	4350.328333	727.509766	151.416855
10126.381915	4350.328333	726.303711	216.398010
10126.381915	4350.328333	725.098633	97.996597
10126.381915	4350.328333	723.892578	-15.564450
10126.381915	4350.328333	722.686523	220.507004
10126.381915	4350.328333	721.480469	24.940804
10126.381915	4350.328333	720.274414	48.747566
10126.381915	4350.328333	719.067383	-62.428726
10126.381915	4350.328333	717.860352	-38.679619
10126.381915	4350.328333	716.653320	-118.544785
10126.381915	4350.328333	715.445313	-0.943786
10126.381915	4350.328333	714.238281	-25.473896
10126.381915	4350.328333	713.030273	26.999479
10126.381915	4350.328333	711.821289	-67.386635
10126.381915	4350.328333	710.613281	199.150040
10126.381915	4350.328333	709.404297	66.210762
10126.381915	4350.328333	708.195313	3.040634
10126.381915	4350.328333	706.986328	-28.876543
10126.381915	4350.328333	705.776367	174.784592
10126.381915	4350.328333	704.566406	166.811249
10126.381915	4350.328333	703.356445	-50.261513
10126.381915	4350.328333	702.146484	112.329903
10126.381915	4350.328333	700.935547	-30.246454
10126.381915	4350.328333	699.724609	-213.623672
10126.381915	4350.328333	698.513672	-118.435135
10126.381915	4350.328333	697.302734	168.723404
10126.381915	4350.328333	696.090820	124.517464
10126.381915	4350.328333	694.878906	190.674408
10126.381915	4350.328333	693.666992	108.027702
10126.381915	4350.328333	692.455078	82.945450
10126.381915	4350.328333	691.242188	103.400208
10126.381915	4350.328333	690.029297	-53.606590
10126.381915	4350.328333	688.816406	41.105679
10126.381915	4350.328333	687.602539	102.189682
10126.381915	4350.328333	686.389648	105.709610
10126.381915	4350.328333	685.175781	137.937103
10126.381915	4350.328333	683.960938	-78.967278
10126.381915	4350.328333	682.747070	156.747833
10126.381915	4350.328333	681.532227	136.167908
10126.381915	4350.328333	680.317383	98.806816
10126.381915	4350.328333	679.102539	49.460484
10126.381915	4350.328333	677.886719	93.404915
10126.381915	4350.328333	676.670898	53.575481
10126.381915	4350.328333	675.455078	121.344284
10126.381915	4350.328333	674.239258	124.492096
10126.381915	4350.328333	673.022461	31.981853
10126.381915	4350.328333	671.805664	32.683640
10126.381915	4350.328333	670.588867	28.570631
10126.381915	4350.328333	669.372070	67.425591
10126.381915	4350.328333	668.154297	101.449158
10126.381915	4350.328333	666.936523	97.215637
10126.381915	4350.328333	665.718750	112.047356
10126.381915	4350.328333	664.500977	79.098671
10126.381915	4350.328333	663.282227	17.489086
10126.381915	4350.328333	662.063477	65.623116
10126.381915	4350.328333	660.844727	159.025253
10126.381915	4350.328333	659.625000	242.810547
10126.381915	4350.328333	658.405273	159.614563
10126.381915	4350.328333	657.185547	-164.359009
10126.381915	4350.328333	655.965820	71.875320
10126.381915	4350.328333	654.745117	19.638050
10126.381915	4350.328333	653.525391	81.746941
10126.381915	4350.328333	652.303711	91.387398
10126.381915	4350.328333	651.083008	98.610092
10126.381915	4350.328333	649.861328	160.553421
10126.381915	4350.328333	648.640625	155.787323
10126.381915	4350.328333	647.417969	39.128242
10126.381915	4350.328333	646.196289	165.185318
10126.381915	4350.328333	644.973633	3.305730
10126.381915	4350.328333	643.750977	155.408630
10126.381915	4350.328333	642.528320	7.798890
10126.381915	4350.328333	641.305664	-1.893945
10126.381915	4350.328333	640.082031	-6.864729
10126.381915	4350.328333	638.858398	111.704750
10126.381915	4350.328333	637.634766	16.361559
10126.381915	4350.328333	636.410156	4.160776
10126.381915	4350.328333	635.185547	32.304985
10126.381915	4350.328333	633.960938	-46.441940
10126.381915	4350.328333	632.736328	-15.990428
10126.381915	4350.328333	631.510742	-21.187820
10126.381915	4350.328333	630.285156	-66.753288
10126.381915	4350.328333	629.059570	63.222580
10126.381915	4350.328333	627.833984	98.237083
10126.381915	4350.328333	626.607422	-1.964905
10126.381915	4350.328333	625.380859	6.903427
10126.381915	4350.328333	624.154297	96.328651
10126.381915	4350.328333	622.927734	3.207026
10126.381915	4350.328333	621.700195	97.268700
10126.381915	4350.328333	620.472656	-95.368835
10126.381915	4350.328333	619.245117	-3.755108
10126.381915	4350.328333	618.016602	-104.007675
10126.381915	4350.328333	616.788086	-40.902031
10126.381915	4350.328333	615.559570	74.217873
10126.381915	4350.328333	614.331055	-52.105186
10126.381915	4350.328333	613.101563	-19.897034
10126.381915	4350.328333	611.872070	-20.845652
10126.381915	4350.328333	610.642578	-147.157761
10126.381915	4350.328333	609.413086	-37.012745
10126.381915	4350.328333	608.182617	-87.684532
10126.381915	4350.328333	606.952148	5.799164
10126.381915	4350.328333	605.721680	-96.896790
10126.381915	4350.328333	604.491211	-36.577244
10126.381915	4350.328333	603.259766	-9.377996
10126.381915	4350.328333	602.028320	-119.172379
10126.381915	4350.328333	600.796875	276.265045
10126.381915	4350.328333	599.564453	-178.202042
10126.381915	4350.328333	598.332031	-103.906403
10126.381915	4350.328333	597.099609	-86.291023
10126.381915	4350.328333	595.867188	77.538010
10126.381915	4350.328333	594.633789	31.381308
10126.381915	4350.328333	593.400391	-7.706561
10126.381915	4350.328333	592.166992	-56.230110
10126.381915	4350.328333	590.933594	121.495110
10126.381915	4350.328333	589.699219	-47.255722
10126.381915	4350.328333	588.464844	-27.494370
10126.381915	4350.328333	587.230469	138.263443
10126.381915	4350.328333	585.995117	82.576042
10126.381915	4350.328333	584.760742	-57.858639
10126.381915	4350.328333	583.525391	-82.923805
10126.381915	4350.328333	582.289063	139.090836
10126.381915	4350.328333	581.053711	137.480957
10126.381915	4350.328333	579.817383	138.200195
10126.381915	4350.328333	578.581055	141.252045
10126.381915	4350.328333	577.343750	101.956993
10126.381915	4350.328333	576.107422	20.349583
10126.381915	4350.328333	574.870117	147.928253
10126.381915	4350.328333	573.631836	63.951691
10126.381915	4350.328333	572.394531	48.126385
10126.381915	4350.328333	571.156250	142.678253
10126.381915	4350.328333	569.917969	93.928772
10126.381915	4350.328333	568.679688	247.091248
10126.381915	4350.328333	567.440430	325.055389
10126.381915	4350.328333	566.202148	62.696262
10126.381915	4350.328333	564.961914	241.521072
10126.381915	4350.328333	563.722656	281.859375
10126.381915	4350.328333	562.482422	183.791412
10126.381915	4350.328333	561.243164	8.379839
10126.381915	4350.328333	560.001953	20.560436
10126.381915	4350.328333	558.761719	39.758083
10126.381915	4350.328333	557.520508	-126.185822
10126.381915	4350.328333	556.279297	28.884777
10126.381915	4350.328333	555.038086	19.919483
10126.381915	4350.328333	553.795898	67.143845
10126.381915	4350.328333	552.554688	-21.450682
10126.381915	4350.328333	551.311523	131.069550
10126.381915	4350.328333	550.069336	14.390304
10126.381915	4350.328333	548.826172	237.008133
10126.381915	4350.328333	547.583984	-8.321807
10126.381915	4350.328333	546.339844	204.827713
10126.381915	4350.328333	545.096680	-3.002051
10126.381915	4350.328333	543.852539	-35.425919
10126.381915	4350.328333	542.608398	-0.064187
10126.381915	4350.328333	541.364258	124.069328
10126.381915	4350.328333	540.119141	110.301117
10126.381915	4350.328333	538.875000	-43.609703
10126.381915	4350.328333	537.628906	68.746353
10126.381915	4350.328333	536.383789	87.662567
10126.381915	4350.328333	535.137695	136.904846
10126.381915	4350.328333	533.892578	-37.915157
10126.381915	4350.328333	532.645508	-19.014990
10126.381915	4350.328333	531.399414	-154.086227
10126.381915	4350.328333	530.152344	-97.865952
10126.381915	4350.328333	528.905273	65.584595
10126.381915	4350.328333	527.658203	-20.482405
10126.381915	4350.328333	526.410156	-55.244965
10126.381915	4350.328333	525.163086	140.699524
10126.381915	4350.328333	523.914063	122.212524
10126.381915	4350.328333	522.666016	-157.140762
10126.381915	4350.328333	521.416992	57.308266
10126.381915	4350.328333	520.167969	-82.229767
10126.381915	4350.328333	518.918945	-161.190247
10126.381915	4350.328333	517.669922	34.491913
10126.381915	4350.328333	516.419922	6.716695
10126.381915	4350.328333	515.169922	-14.070932
10126.381915	4350.328333	513.919922	44.221897
10126.381915	4350.328333	512.668945	-178.871094
10126.381915	4350.328333	511.417969	-146.151062
10126.381915	4350.328333	510.166992	-48.369465
10126.381915	4350.328333	508.916016	-148.150757
10126.381915	4350.328333	507.664063	-220.016983
10126.381915	4350.328333	506.412109	-17.773266
10126.381915	4350.328333	505.160156	-105.899643
10126.381915	4350.328333	503.907227	-212.568085
10126.381915	4350.328333	502.655273	-63.855240
10126.381915	4350.328333	501.402344	52.296795
10126.381915	4350.328333	500.148438	59.339569
10126.381915	4350.328333	498.895508	-290.859314
10126.381915	4350.328333	497.641602	36.300961
10126.381915	4350.328333	496.387695	61.881275
10126.381915	4350.328333	495.132813	-14.560531
10126.381915	4350.328333	493.878906	15.645304
10126.381915	4350.328333	492.624023	-146.500610
10126.381915	4350.328333	491.368164	-69.962456
10126.381915	4350.328333	490.113281	4.225367
10126.381915	4350.328333	488.857422	-28.153435
10126.381915	4350.328333	487.601563	64.499435
10126.381915	4350.328333	486.344727	106.176659
10126.381915	4350.328333	485.088867	-67.391632
10126.381915	4350.328333	483.832031	106.165047
10126.381915	4350.328333	482.575195	145.470276
10126.381915	4350.328333	481.317383	22.853483
10126.381915	4350.328333	480.059570	175.438187
10126.381915	4350.328333	478.801758	-7.257668
10126.381915	4350.328333	477.543945	156.803329
10126.381915	4350.328333	476.285156	145.161407
10126.381915	4350.328333	475.027344	135.825790
10126.381915	4350.328333	473.767578	151.880356
10126.381915	4350.328333	472.508789	-14.512301
10126.381915	4350.328333	471.249023	89.272697
10126.381915	4350.328333	469.989258	-81.685341
10126.381915	4350.328333	468.729492	-51.811176
10126.381915	4350.328333	467.469727	3.413738
10126.381915	4350.328333	466.208984	402.300720
10126.381915	4350.328333	464.948242	49.150574
10126.381915	4350.328333	463.686523	55.830185
10126.381915	4350.328333	462.425781	16.382723
10126.381915	4350.328333	461.164063	212.012604
10126.381915	4350.328333	459.901367	126.407974
10126.381915	4350.328333	458.639648	220.513336
10126.381915	4350.328333	457.376953	100.341438
10126.381915	4350.328333	456.114258	157.507339
10126.381915	4350.328333	454.851563	180.084778
10126.381915	4350.328333	453.587891	147.373627
10126.381915	4350.328333	452.324219	114.643135
10126.381915	4350.328333	451.060547	231.444397
10126.381915	4350.328333	449.796875	102.026703
10126.381915	4350.328333	448.532227	103.710114
10126.381915	4350.328333	447.267578	185.829147
10126.381915	4350.328333	446.002930	141.436646
10126.381915	4350.328333	444.737305	99.312340
10126.381915	4350.328333	443.471680	59.458614
10126.381915	4350.328333	442.206055	109.169319
10126.381915	4350.328333	440.940430	62.341740
10126.381915	4350.328333	439.673828	105.034508
10126.381915	4350.328333	438.407227	129.286987
10126.381915	4350.328333	437.140625	61.658375
10126.381915	4350.328333	435.873047	58.249931
10126.381915	4350.328333	434.605469	125.905624
10126.381915	4350.328333	433.337891	9.960782
10126.381915	4350.328333	432.070313	166.904968
10126.381915	4350.328333	430.801758	62.322361
10126.381915	4350.328333	429.533203	207.578278
10126.381915	4350.328333	428.264648	73.089767
10126.381915	4350.328333	426.996094	94.391998
10126.381915	4350.328333	425.726563	67.489471
10126.381915	4350.328333	424.457031	230.613617
10126.381915	4350.328333	423.186523	322.587982
10126.381915	4350.328333	421.916992	279.363159
10126.381915	4350.328333	420.646484	213.167313
10126.381915	4350.328333	419.375977	240.724960
10126.381915	4350.328333	418.104492	252.147079
10126.381915	4350.328333	416.833008	203.987213
10126.381915	4350.328333	415.561523	126.007256
10126.381915	4350.328333	414.290039	73.097908
10126.381915	4350.328333	413.017578	358.400696
10126.381915	4350.328333	411.746094	172.671402
10126.381915	4350.328333	410.472656	270.212067
10126.381915	4350.328333	409.200195	342.456451
10126.381915	4350.328333	407.926758	252.371307
10126.381915	4350.328333	406.653320	91.399689
10126.381915	4350.328333	405.379883	259.094696
10126.381915	4350.328333	404.105469	205.165710
10126.381915	4350.328333	402.831055	9.626141
10126.381915	4350.328333	401.556641	377.526764
10126.381915	4350.328333	400.282227	88.193657
10126.381915	4350.328333	399.006836	175.083328
10126.381915	4350.328333	397.731445	223.000198
10126.381915	4350.328333	396.456055	156.744553
10126.381915	4350.328333	395.179688	341.009491
10126.381915	4350.328333	393.903320	210.574966
10126.381915	4350.328333	392.626953	369.301514
10126.381915	4350.328333	391.350586	81.370789
10126.381915	4350.328333	390.073242	307.945435
10126.381915	4350.328333	388.795898	201.838745
10126.381915	4350.328333	387.518555	202.526901
10126.381915	4350.328333	386.240234	-8.642816
10126.381915	4350.328333	384.961914	-99.380493
10126.381915	4350.328333	383.683594	237.283783
10126.381915	4350.328333	382.405273	14.147935
10126.381915	4350.328333	381.125977	177.340179
10126.381915	4350.328333	379.846680	83.345879
10126.381915	4350.328333	378.567383	189.105072
10126.381915	4350.328333	377.287109	-16.739437
10126.381915	4350.328333	376.006836	54.346649
10126.381915	4350.328333	374.726563	-2.072063
10126.381915	4350.328333	373.446289	168.287628
10126.381915	4350.328333	372.165039	224.748642
10126.381915	4350.328333	370.883789	121.996872
10126.381915	4350.328333	369.602539	-76.338272
10126.381915	4350.328333	368.320313	67.618614
10126.381915	4350.328333	367.039063	-26.968632
10126.381915	4350.328333	365.755859	102.597633
10126.381915	4350.328333	364.473633	16.383266
10126.381915	4350.328333	363.190430	-54.313496
10126.381915	4350.328333	361.907227	-2.993690
10126.381915	4350.328333	360.624023	-149.196106
10126.381915	4350.328333	359.340820	-71.489983
10126.381915	4350.328333	358.056641	51.047184
10126.381915	4350.328333	356.772461	123.297585
10126.381915	4350.328333	355.487305	18.504961
10126.381915	4350.328333	354.202148	58.153290
10126.381915	4350.328333	352.916992	-56.530739
10126.381915	4350.328333	351.631836	38.748707
10126.381915	4350.328333	350.346680	58.874184
10126.381915	4350.328333	349.060547	-165.720917
10126.381915	4350.328333	347.774414	-175.956192
10126.381915	4350.328333	346.487305	55.122028
10126.381915	4350.328333	345.200195	-53.380165
10126.381915	4350.328333	343.913086	22.880651
10126.381915	4350.328333	342.625977	-5.343117
10126.381915	4350.328333	341.338867	-88.315880
10126.381915	4350.328333	340.050781	-16.065588
10126.381915	4350.328333	338.762695	-52.784081
10126.381915	4350.328333	337.473633	49.806953
10126.381915	4350.328333	336.184570	77.277786
10126.381915	4350.328333	334.895508	-80.866631
10126.381915	4350.328333	333.606445	-104.273895
10126.381915	4350.328333	332.317383	-42.649467
10126.381915	4350.328333	331.027344	-58.396351
10126.381915	4350.328333	329.736328	-0.474939
10126.381915	4350.328333	328.446289	-155.073227
10126.381915	4350.328333	327.155273	41.087990
10126.381915	4350.328333	325.864258	11.194168
10126.381915	4350.328333	324.573242	-172.564163
10126.381915	4350.328333	323.281250	-26.094791
10126.381915	4350.328333	321.989258	-38.034637
10126.381915	4350.328333	320.697266	32.488655
10126.381915	4350.328333	319.405273	77.410660
10126.381915	4350.328333	318.112305	-87.743385
10126.381915	4350.328333	316.819336	43.167255
10126.381915	4350.328333	315.526367	4.517753
10126.381915	4350.328333	314.232422	117.817856
10126.381915	4350.328333	312.938477	99.806999
10126.381915	4350.328333	311.644531	-186.509644
10126.381915	4350.328333	310.349609	141.832733
10126.381915	4350.328333	309.054688	293.878418
10126.381915	4350.328333	307.759766	69.881676
10126.381915	4350.328333	306.464844	419.674683
10126.381915	4350.328333	305.168945	339.560852
10126.381915	4350.328333	303.873047	435.700348
10126.381915	4350.328333	302.577148	301.892212
10126.381915	4350.328333	301.281250	595.454651
10126.381915	4350.328333	299.984375	367.479523
