#X		#Y		#Wave		#Intensity
9847.631383	4698.550000	1999.946289	-41.751186
9847.631383	4698.550000	1998.981445	122.436462
9847.631383	4698.550000	1998.017578	-32.219990
9847.631383	4698.550000	1997.052734	-43.320610
9847.631383	4698.550000	1996.088867	-136.410080
9847.631383	4698.550000	1995.124023	47.761871
9847.631383	4698.550000	1994.159180	40.942101
9847.631383	4698.550000	1993.193359	28.965403
9847.631383	4698.550000	1992.228516	182.668716
9847.631383	4698.550000	1991.262695	34.126797
9847.631383	4698.550000	1990.296875	100.766052
9847.631383	4698.550000	1989.331055	-10.963147
9847.631383	4698.550000	1988.365234	176.521774
9847.631383	4698.550000	1987.398438	71.889725
9847.631383	4698.550000	1986.432617	-0.721494
9847.631383	4698.550000	1985.465820	-90.775208
9847.631383	4698.550000	1984.499023	4.458158
9847.631383	4698.550000	1983.532227	-33.965267
9847.631383	4698.550000	1982.565430	21.385534
9847.631383	4698.550000	1981.597656	-7.431516
9847.631383	4698.550000	1980.629883	252.652222
9847.631383	4698.550000	1979.662109	55.585529
9847.631383	4698.550000	1978.694336	147.384445
9847.631383	4698.550000	1977.726563	137.800735
9847.631383	4698.550000	1976.758789	-0.257668
9847.631383	4698.550000	1975.790039	2.298039
9847.631383	4698.550000	1974.821289	130.589890
9847.631383	4698.550000	1973.852539	7.085104
9847.631383	4698.550000	1972.883789	-52.341999
9847.631383	4698.550000	1971.915039	82.986046
9847.631383	4698.550000	1970.945313	173.785980
9847.631383	4698.550000	1969.975586	32.729206
9847.631383	4698.550000	1969.005859	24.739510
9847.631383	4698.550000	1968.036133	117.709801
9847.631383	4698.550000	1967.066406	121.868370
9847.631383	4698.550000	1966.096680	-63.732883
9847.631383	4698.550000	1965.125977	58.534386
9847.631383	4698.550000	1964.155273	133.901154
9847.631383	4698.550000	1963.184570	118.079720
9847.631383	4698.550000	1962.213867	70.202728
9847.631383	4698.550000	1961.242188	71.506355
9847.631383	4698.550000	1960.271484	281.916290
9847.631383	4698.550000	1959.299805	61.653450
9847.631383	4698.550000	1958.328125	-50.345741
9847.631383	4698.550000	1957.356445	2.424999
9847.631383	4698.550000	1956.384766	104.310242
9847.631383	4698.550000	1955.412109	24.192873
9847.631383	4698.550000	1954.439453	-28.895067
9847.631383	4698.550000	1953.467773	-47.591396
9847.631383	4698.550000	1952.495117	-78.600632
9847.631383	4698.550000	1951.521484	-21.195353
9847.631383	4698.550000	1950.548828	50.900330
9847.631383	4698.550000	1949.575195	-46.500416
9847.631383	4698.550000	1948.601563	30.431599
9847.631383	4698.550000	1947.627930	53.308872
9847.631383	4698.550000	1946.654297	73.703804
9847.631383	4698.550000	1945.680664	-8.987535
9847.631383	4698.550000	1944.706055	-37.691364
9847.631383	4698.550000	1943.732422	56.250355
9847.631383	4698.550000	1942.757813	29.971872
9847.631383	4698.550000	1941.783203	57.637516
9847.631383	4698.550000	1940.807617	58.314453
9847.631383	4698.550000	1939.833008	134.971603
9847.631383	4698.550000	1938.857422	162.579330
9847.631383	4698.550000	1937.881836	104.417038
9847.631383	4698.550000	1936.906250	-61.513317
9847.631383	4698.550000	1935.930664	64.080742
9847.631383	4698.550000	1934.955078	184.731354
9847.631383	4698.550000	1933.978516	136.399368
9847.631383	4698.550000	1933.001953	46.475193
9847.631383	4698.550000	1932.025391	17.775036
9847.631383	4698.550000	1931.048828	182.403595
9847.631383	4698.550000	1930.072266	43.608097
9847.631383	4698.550000	1929.094727	-9.517528
9847.631383	4698.550000	1928.118164	93.908035
9847.631383	4698.550000	1927.140625	-59.439293
9847.631383	4698.550000	1926.163086	-39.144051
9847.631383	4698.550000	1925.184570	39.814796
9847.631383	4698.550000	1924.207031	11.233328
9847.631383	4698.550000	1923.228516	97.510544
9847.631383	4698.550000	1922.250000	-33.646812
9847.631383	4698.550000	1921.271484	86.830841
9847.631383	4698.550000	1920.292969	-127.271118
9847.631383	4698.550000	1919.314453	0.536747
9847.631383	4698.550000	1918.334961	-120.677338
9847.631383	4698.550000	1917.355469	19.317499
9847.631383	4698.550000	1916.375977	20.189293
9847.631383	4698.550000	1915.396484	-59.429611
9847.631383	4698.550000	1914.416992	141.514008
9847.631383	4698.550000	1913.436523	-79.510330
9847.631383	4698.550000	1912.457031	-29.774342
9847.631383	4698.550000	1911.476563	39.464249
9847.631383	4698.550000	1910.496094	-42.421501
9847.631383	4698.550000	1909.515625	153.558960
9847.631383	4698.550000	1908.534180	132.636322
9847.631383	4698.550000	1907.552734	31.353922
9847.631383	4698.550000	1906.572266	156.645065
9847.631383	4698.550000	1905.590820	28.654449
9847.631383	4698.550000	1904.608398	22.466303
9847.631383	4698.550000	1903.626953	45.516716
9847.631383	4698.550000	1902.644531	139.158951
9847.631383	4698.550000	1901.663086	57.592125
9847.631383	4698.550000	1900.680664	-60.415901
9847.631383	4698.550000	1899.698242	-81.060509
9847.631383	4698.550000	1898.714844	253.390427
9847.631383	4698.550000	1897.732422	-51.744633
9847.631383	4698.550000	1896.749023	236.432632
9847.631383	4698.550000	1895.765625	-27.220610
9847.631383	4698.550000	1894.782227	30.026987
9847.631383	4698.550000	1893.798828	-51.216290
9847.631383	4698.550000	1892.814453	10.916465
9847.631383	4698.550000	1891.831055	5.045047
9847.631383	4698.550000	1890.846680	-59.082943
9847.631383	4698.550000	1889.862305	61.353245
9847.631383	4698.550000	1888.877930	-65.829704
9847.631383	4698.550000	1887.892578	-134.697968
9847.631383	4698.550000	1886.908203	24.575418
9847.631383	4698.550000	1885.922852	94.044365
9847.631383	4698.550000	1884.937500	37.378048
9847.631383	4698.550000	1883.952148	143.238266
9847.631383	4698.550000	1882.965820	142.391388
9847.631383	4698.550000	1881.980469	-81.462860
9847.631383	4698.550000	1880.994141	131.065979
9847.631383	4698.550000	1880.007813	-78.124596
9847.631383	4698.550000	1879.021484	-27.969532
9847.631383	4698.550000	1878.035156	80.324242
9847.631383	4698.550000	1877.047852	-116.574539
9847.631383	4698.550000	1876.061523	224.197098
9847.631383	4698.550000	1875.074219	29.802721
9847.631383	4698.550000	1874.086914	41.249981
9847.631383	4698.550000	1873.098633	118.052376
9847.631383	4698.550000	1872.111328	23.045338
9847.631383	4698.550000	1871.123047	87.758736
9847.631383	4698.550000	1870.135742	-145.046799
9847.631383	4698.550000	1869.147461	-109.315933
9847.631383	4698.550000	1868.158203	-1.048659
9847.631383	4698.550000	1867.169922	-69.279381
9847.631383	4698.550000	1866.180664	116.310471
9847.631383	4698.550000	1865.192383	67.442261
9847.631383	4698.550000	1864.203125	-34.550274
9847.631383	4698.550000	1863.213867	-117.167564
9847.631383	4698.550000	1862.223633	29.696218
9847.631383	4698.550000	1861.234375	-57.709362
9847.631383	4698.550000	1860.244141	183.265915
9847.631383	4698.550000	1859.253906	240.710876
9847.631383	4698.550000	1858.263672	73.702110
9847.631383	4698.550000	1857.273438	51.538338
9847.631383	4698.550000	1856.282227	77.638412
9847.631383	4698.550000	1855.291992	72.381134
9847.631383	4698.550000	1854.300781	30.958797
9847.631383	4698.550000	1853.309570	-99.652641
9847.631383	4698.550000	1852.317383	34.959335
9847.631383	4698.550000	1851.326172	-13.646375
9847.631383	4698.550000	1850.333984	53.435455
9847.631383	4698.550000	1849.342773	43.400902
9847.631383	4698.550000	1848.350586	-36.483948
9847.631383	4698.550000	1847.357422	-53.719707
9847.631383	4698.550000	1846.365234	-30.011696
9847.631383	4698.550000	1845.372070	34.614681
9847.631383	4698.550000	1844.379883	75.148430
9847.631383	4698.550000	1843.386719	-43.166817
9847.631383	4698.550000	1842.393555	69.547661
9847.631383	4698.550000	1841.399414	42.689236
9847.631383	4698.550000	1840.406250	11.030604
9847.631383	4698.550000	1839.412109	-15.810572
9847.631383	4698.550000	1838.417969	-42.645039
9847.631383	4698.550000	1837.423828	-21.396275
9847.631383	4698.550000	1836.429688	158.464401
9847.631383	4698.550000	1835.434570	244.536011
9847.631383	4698.550000	1834.440430	205.642059
9847.631383	4698.550000	1833.445313	17.829376
9847.631383	4698.550000	1832.450195	70.238419
9847.631383	4698.550000	1831.454102	33.777279
9847.631383	4698.550000	1830.458984	129.359833
9847.631383	4698.550000	1829.462891	-24.726381
9847.631383	4698.550000	1828.466797	-17.979092
9847.631383	4698.550000	1827.470703	183.100128
9847.631383	4698.550000	1826.474609	45.853443
9847.631383	4698.550000	1825.478516	6.981917
9847.631383	4698.550000	1824.481445	30.459036
9847.631383	4698.550000	1823.484375	-3.624957
9847.631383	4698.550000	1822.487305	103.717140
9847.631383	4698.550000	1821.490234	254.143921
9847.631383	4698.550000	1820.493164	35.492699
9847.631383	4698.550000	1819.495117	291.255951
9847.631383	4698.550000	1818.498047	132.531448
9847.631383	4698.550000	1817.500000	45.692913
9847.631383	4698.550000	1816.500977	42.671371
9847.631383	4698.550000	1815.502930	173.693588
9847.631383	4698.550000	1814.504883	-42.400280
9847.631383	4698.550000	1813.505859	-131.603668
9847.631383	4698.550000	1812.506836	111.770538
9847.631383	4698.550000	1811.507813	-42.052605
9847.631383	4698.550000	1810.508789	-85.822655
9847.631383	4698.550000	1809.508789	42.567497
9847.631383	4698.550000	1808.508789	297.596588
9847.631383	4698.550000	1807.508789	14.695205
9847.631383	4698.550000	1806.508789	40.166595
9847.631383	4698.550000	1805.508789	108.614731
9847.631383	4698.550000	1804.508789	5.011291
9847.631383	4698.550000	1803.507813	51.895912
9847.631383	4698.550000	1802.506836	-1.558195
9847.631383	4698.550000	1801.505859	18.997612
9847.631383	4698.550000	1800.504883	49.069698
9847.631383	4698.550000	1799.502930	122.062881
9847.631383	4698.550000	1798.501953	6.493758
9847.631383	4698.550000	1797.500000	103.272514
9847.631383	4698.550000	1796.498047	52.098892
9847.631383	4698.550000	1795.496094	84.387009
9847.631383	4698.550000	1794.493164	85.635834
9847.631383	4698.550000	1793.491211	160.761185
9847.631383	4698.550000	1792.488281	138.103180
9847.631383	4698.550000	1791.485352	10.570724
9847.631383	4698.550000	1790.482422	221.386581
9847.631383	4698.550000	1789.478516	153.378693
9847.631383	4698.550000	1788.475586	63.933407
9847.631383	4698.550000	1787.471680	5.444827
9847.631383	4698.550000	1786.467773	92.176514
9847.631383	4698.550000	1785.463867	-113.938782
9847.631383	4698.550000	1784.459961	-29.660685
9847.631383	4698.550000	1783.455078	154.487564
9847.631383	4698.550000	1782.450195	119.666153
9847.631383	4698.550000	1781.445313	-17.452375
9847.631383	4698.550000	1780.440430	168.868469
9847.631383	4698.550000	1779.435547	226.691849
9847.631383	4698.550000	1778.429688	32.475880
9847.631383	4698.550000	1777.424805	45.077843
9847.631383	4698.550000	1776.418945	109.915680
9847.631383	4698.550000	1775.413086	39.271938
9847.631383	4698.550000	1774.406250	142.020142
9847.631383	4698.550000	1773.400391	116.450005
9847.631383	4698.550000	1772.393555	55.234619
9847.631383	4698.550000	1771.386719	39.112743
9847.631383	4698.550000	1770.379883	132.145187
9847.631383	4698.550000	1769.373047	267.822418
9847.631383	4698.550000	1768.365234	128.178009
9847.631383	4698.550000	1767.358398	126.141769
9847.631383	4698.550000	1766.350586	60.028023
9847.631383	4698.550000	1765.342773	93.497665
9847.631383	4698.550000	1764.334961	27.340548
9847.631383	4698.550000	1763.326172	157.912827
9847.631383	4698.550000	1762.318359	146.202347
9847.631383	4698.550000	1761.309570	84.695000
9847.631383	4698.550000	1760.300781	120.304337
9847.631383	4698.550000	1759.291016	181.913742
9847.631383	4698.550000	1758.282227	99.005508
9847.631383	4698.550000	1757.272461	94.222031
9847.631383	4698.550000	1756.262695	37.320778
9847.631383	4698.550000	1755.252930	8.804584
9847.631383	4698.550000	1754.243164	-24.473135
9847.631383	4698.550000	1753.233398	200.107651
9847.631383	4698.550000	1752.222656	-1.223652
9847.631383	4698.550000	1751.211914	93.109001
9847.631383	4698.550000	1750.201172	21.846270
9847.631383	4698.550000	1749.190430	2.581864
9847.631383	4698.550000	1748.179688	23.467106
9847.631383	4698.550000	1747.167969	56.117474
9847.631383	4698.550000	1746.156250	-43.599728
9847.631383	4698.550000	1745.144531	76.376518
9847.631383	4698.550000	1744.132813	87.621391
9847.631383	4698.550000	1743.121094	115.351707
9847.631383	4698.550000	1742.108398	-19.878246
9847.631383	4698.550000	1741.095703	-77.199959
9847.631383	4698.550000	1740.083008	-63.738403
9847.631383	4698.550000	1739.070313	110.131935
9847.631383	4698.550000	1738.057617	158.860321
9847.631383	4698.550000	1737.043945	165.069290
9847.631383	4698.550000	1736.030273	-78.739632
9847.631383	4698.550000	1735.016602	-70.209442
9847.631383	4698.550000	1734.002930	77.361595
9847.631383	4698.550000	1732.989258	111.704529
9847.631383	4698.550000	1731.974609	44.663410
9847.631383	4698.550000	1730.959961	27.083759
9847.631383	4698.550000	1729.945313	-65.906387
9847.631383	4698.550000	1728.930664	34.218472
9847.631383	4698.550000	1727.916016	-39.979038
9847.631383	4698.550000	1726.900391	3.518354
9847.631383	4698.550000	1725.885742	44.610565
9847.631383	4698.550000	1724.870117	-95.560608
9847.631383	4698.550000	1723.853516	107.794930
9847.631383	4698.550000	1722.837891	-58.289371
9847.631383	4698.550000	1721.822266	36.718376
9847.631383	4698.550000	1720.805664	-136.424988
9847.631383	4698.550000	1719.789063	-48.573177
9847.631383	4698.550000	1718.772461	128.529861
9847.631383	4698.550000	1717.754883	51.705334
9847.631383	4698.550000	1716.738281	94.712273
9847.631383	4698.550000	1715.720703	-24.438463
9847.631383	4698.550000	1714.703125	20.835657
9847.631383	4698.550000	1713.685547	-128.858688
9847.631383	4698.550000	1712.667969	64.261436
9847.631383	4698.550000	1711.649414	62.427265
9847.631383	4698.550000	1710.630859	238.929489
9847.631383	4698.550000	1709.612305	-119.687210
9847.631383	4698.550000	1708.593750	103.631645
9847.631383	4698.550000	1707.575195	3.128509
9847.631383	4698.550000	1706.555664	10.502728
9847.631383	4698.550000	1705.536133	-73.606659
9847.631383	4698.550000	1704.516602	-0.650526
9847.631383	4698.550000	1703.497070	62.867512
9847.631383	4698.550000	1702.477539	133.356445
9847.631383	4698.550000	1701.457031	58.515522
9847.631383	4698.550000	1700.437500	-18.667572
9847.631383	4698.550000	1699.416992	68.083717
9847.631383	4698.550000	1698.395508	-198.819733
9847.631383	4698.550000	1697.375000	-196.415405
9847.631383	4698.550000	1696.354492	-4.447463
9847.631383	4698.550000	1695.333008	168.686996
9847.631383	4698.550000	1694.311523	-53.705112
9847.631383	4698.550000	1693.290039	-128.663467
9847.631383	4698.550000	1692.267578	116.800522
9847.631383	4698.550000	1691.246094	-30.716978
9847.631383	4698.550000	1690.223633	109.360909
9847.631383	4698.550000	1689.201172	29.624474
9847.631383	4698.550000	1688.178711	45.709850
9847.631383	4698.550000	1687.155273	173.913605
9847.631383	4698.550000	1686.132813	-39.042770
9847.631383	4698.550000	1685.109375	177.828476
9847.631383	4698.550000	1684.085938	74.650040
9847.631383	4698.550000	1683.062500	162.941849
9847.631383	4698.550000	1682.039063	204.484100
9847.631383	4698.550000	1681.014648	124.610382
9847.631383	4698.550000	1679.990234	56.408329
9847.631383	4698.550000	1678.965820	-116.781792
9847.631383	4698.550000	1677.941406	73.956482
9847.631383	4698.550000	1676.916992	161.980515
9847.631383	4698.550000	1675.891602	149.675552
9847.631383	4698.550000	1674.866211	151.337860
9847.631383	4698.550000	1673.840820	145.983032
9847.631383	4698.550000	1672.815430	245.472870
9847.631383	4698.550000	1671.790039	188.795593
9847.631383	4698.550000	1670.763672	34.273895
9847.631383	4698.550000	1669.737305	63.781796
9847.631383	4698.550000	1668.710938	-20.844292
9847.631383	4698.550000	1667.684570	-58.896858
9847.631383	4698.550000	1666.658203	138.139221
9847.631383	4698.550000	1665.630859	104.677361
9847.631383	4698.550000	1664.603516	131.704010
9847.631383	4698.550000	1663.576172	33.079041
9847.631383	4698.550000	1662.548828	57.743858
9847.631383	4698.550000	1661.520508	35.865734
9847.631383	4698.550000	1660.493164	23.283974
9847.631383	4698.550000	1659.464844	189.671478
9847.631383	4698.550000	1658.436523	242.097824
9847.631383	4698.550000	1657.408203	287.515167
9847.631383	4698.550000	1656.378906	332.892975
9847.631383	4698.550000	1655.350586	259.784607
9847.631383	4698.550000	1654.321289	316.729980
9847.631383	4698.550000	1653.291992	306.305115
9847.631383	4698.550000	1652.261719	263.364716
9847.631383	4698.550000	1651.232422	259.889404
9847.631383	4698.550000	1650.202148	242.472855
9847.631383	4698.550000	1649.171875	218.089508
9847.631383	4698.550000	1648.141602	418.703766
9847.631383	4698.550000	1647.111328	285.272247
9847.631383	4698.550000	1646.080078	223.755051
9847.631383	4698.550000	1645.049805	185.438629
9847.631383	4698.550000	1644.018555	304.730927
9847.631383	4698.550000	1642.987305	254.800888
9847.631383	4698.550000	1641.955078	279.015778
9847.631383	4698.550000	1640.923828	266.155334
9847.631383	4698.550000	1639.891602	371.401855
9847.631383	4698.550000	1638.859375	245.045349
9847.631383	4698.550000	1637.827148	310.883270
9847.631383	4698.550000	1636.794922	332.712067
9847.631383	4698.550000	1635.761719	514.198853
9847.631383	4698.550000	1634.729492	406.397736
9847.631383	4698.550000	1633.696289	384.219574
9847.631383	4698.550000	1632.662109	274.151245
9847.631383	4698.550000	1631.628906	376.869934
9847.631383	4698.550000	1630.594727	421.739594
9847.631383	4698.550000	1629.561523	418.053650
9847.631383	4698.550000	1628.527344	384.317657
9847.631383	4698.550000	1627.493164	466.123413
9847.631383	4698.550000	1626.458008	524.789429
9847.631383	4698.550000	1625.423828	449.474274
9847.631383	4698.550000	1624.388672	551.996094
9847.631383	4698.550000	1623.353516	451.302185
9847.631383	4698.550000	1622.318359	516.851990
9847.631383	4698.550000	1621.282227	533.905518
9847.631383	4698.550000	1620.247070	654.797119
9847.631383	4698.550000	1619.210938	501.103638
9847.631383	4698.550000	1618.174805	529.691345
9847.631383	4698.550000	1617.137695	539.818237
9847.631383	4698.550000	1616.101563	406.999298
9847.631383	4698.550000	1615.064453	562.384705
9847.631383	4698.550000	1614.027344	706.191223
9847.631383	4698.550000	1612.990234	707.079590
9847.631383	4698.550000	1611.953125	530.576660
9847.631383	4698.550000	1610.916016	715.788513
9847.631383	4698.550000	1609.877930	525.543518
9847.631383	4698.550000	1608.839844	434.390381
9847.631383	4698.550000	1607.801758	817.510376
9847.631383	4698.550000	1606.763672	864.452820
9847.631383	4698.550000	1605.724609	626.034424
9847.631383	4698.550000	1604.685547	748.934753
9847.631383	4698.550000	1603.646484	754.484436
9847.631383	4698.550000	1602.607422	635.851990
9847.631383	4698.550000	1601.568359	813.900208
9847.631383	4698.550000	1600.528320	727.507446
9847.631383	4698.550000	1599.489258	802.063293
9847.631383	4698.550000	1598.449219	718.031738
9847.631383	4698.550000	1597.408203	748.922241
9847.631383	4698.550000	1596.368164	876.302063
9847.631383	4698.550000	1595.327148	826.796387
9847.631383	4698.550000	1594.287109	791.109131
9847.631383	4698.550000	1593.246094	707.235718
9847.631383	4698.550000	1592.204102	827.692444
9847.631383	4698.550000	1591.163086	847.150818
9847.631383	4698.550000	1590.121094	866.614197
9847.631383	4698.550000	1589.079102	725.507935
9847.631383	4698.550000	1588.037109	761.080688
9847.631383	4698.550000	1586.995117	716.401306
9847.631383	4698.550000	1585.953125	710.734863
9847.631383	4698.550000	1584.910156	636.319397
9847.631383	4698.550000	1583.867188	791.131897
9847.631383	4698.550000	1582.824219	755.726501
9847.631383	4698.550000	1581.781250	802.828430
9847.631383	4698.550000	1580.737305	639.211792
9847.631383	4698.550000	1579.693359	787.119141
9847.631383	4698.550000	1578.649414	699.171021
9847.631383	4698.550000	1577.605469	684.534058
9847.631383	4698.550000	1576.561523	889.635376
9847.631383	4698.550000	1575.516602	980.267944
9847.631383	4698.550000	1574.472656	595.049622
9847.631383	4698.550000	1573.427734	653.735535
9847.631383	4698.550000	1572.381836	680.405457
9847.631383	4698.550000	1571.336914	665.942688
9847.631383	4698.550000	1570.291016	587.502991
9847.631383	4698.550000	1569.246094	646.257690
9847.631383	4698.550000	1568.200195	762.139038
9847.631383	4698.550000	1567.153320	745.493103
9847.631383	4698.550000	1566.107422	527.884888
9847.631383	4698.550000	1565.060547	646.090210
9847.631383	4698.550000	1564.013672	691.217529
9847.631383	4698.550000	1562.966797	601.673523
9847.631383	4698.550000	1561.919922	621.749573
9847.631383	4698.550000	1560.872070	584.798462
9847.631383	4698.550000	1559.825195	835.363159
9847.631383	4698.550000	1558.777344	807.575439
9847.631383	4698.550000	1557.729492	706.854004
9847.631383	4698.550000	1556.680664	615.323242
9847.631383	4698.550000	1555.632813	571.740540
9847.631383	4698.550000	1554.583984	817.666748
9847.631383	4698.550000	1553.535156	815.145325
9847.631383	4698.550000	1552.486328	783.044922
9847.631383	4698.550000	1551.436523	928.661865
9847.631383	4698.550000	1550.387695	876.127319
9847.631383	4698.550000	1549.337891	700.690918
9847.631383	4698.550000	1548.288086	684.718140
9847.631383	4698.550000	1547.238281	616.440918
9847.631383	4698.550000	1546.187500	684.762268
9847.631383	4698.550000	1545.136719	543.778931
9847.631383	4698.550000	1544.086914	630.368958
9847.631383	4698.550000	1543.035156	730.602173
9847.631383	4698.550000	1541.984375	546.611572
9847.631383	4698.550000	1540.933594	505.957520
9847.631383	4698.550000	1539.881836	426.717041
9847.631383	4698.550000	1538.830078	497.533630
9847.631383	4698.550000	1537.778320	604.717224
9847.631383	4698.550000	1536.725586	509.724792
9847.631383	4698.550000	1535.673828	435.257660
9847.631383	4698.550000	1534.621094	367.671021
9847.631383	4698.550000	1533.568359	588.477173
9847.631383	4698.550000	1532.515625	650.353333
9847.631383	4698.550000	1531.461914	365.033966
9847.631383	4698.550000	1530.409180	560.884949
9847.631383	4698.550000	1529.355469	459.531403
9847.631383	4698.550000	1528.301758	419.499176
9847.631383	4698.550000	1527.247070	350.047394
9847.631383	4698.550000	1526.193359	477.911621
9847.631383	4698.550000	1525.138672	549.101135
9847.631383	4698.550000	1524.083984	475.271484
9847.631383	4698.550000	1523.029297	281.432617
9847.631383	4698.550000	1521.974609	248.555603
9847.631383	4698.550000	1520.918945	328.978912
9847.631383	4698.550000	1519.863281	171.654724
9847.631383	4698.550000	1518.807617	378.941711
9847.631383	4698.550000	1517.751953	269.300079
9847.631383	4698.550000	1516.696289	148.436142
9847.631383	4698.550000	1515.639648	367.061676
9847.631383	4698.550000	1514.583008	167.145218
9847.631383	4698.550000	1513.526367	331.497528
9847.631383	4698.550000	1512.469727	210.912796
9847.631383	4698.550000	1511.412109	176.334396
9847.631383	4698.550000	1510.355469	277.447601
9847.631383	4698.550000	1509.297852	186.472961
9847.631383	4698.550000	1508.240234	185.965591
9847.631383	4698.550000	1507.181641	162.916916
9847.631383	4698.550000	1506.124023	302.551788
9847.631383	4698.550000	1505.065430	137.328476
9847.631383	4698.550000	1504.006836	-32.292858
9847.631383	4698.550000	1502.948242	-14.440943
9847.631383	4698.550000	1501.888672	26.021374
9847.631383	4698.550000	1500.830078	-35.012611
9847.631383	4698.550000	1499.770508	125.107231
9847.631383	4698.550000	1498.710938	39.372036
9847.631383	4698.550000	1497.650391	50.686714
9847.631383	4698.550000	1496.590820	231.146286
9847.631383	4698.550000	1495.530273	109.533089
9847.631383	4698.550000	1494.469727	84.929840
9847.631383	4698.550000	1493.409180	137.000748
9847.631383	4698.550000	1492.348633	49.433441
9847.631383	4698.550000	1491.287109	137.635071
9847.631383	4698.550000	1490.225586	92.995728
9847.631383	4698.550000	1489.164063	93.456940
9847.631383	4698.550000	1488.102539	195.268829
9847.631383	4698.550000	1487.041016	164.312363
9847.631383	4698.550000	1485.978516	108.671669
9847.631383	4698.550000	1484.916016	172.324448
9847.631383	4698.550000	1483.853516	107.832336
9847.631383	4698.550000	1482.791016	88.380959
9847.631383	4698.550000	1481.727539	-20.928766
9847.631383	4698.550000	1480.664063	274.449005
9847.631383	4698.550000	1479.600586	32.654957
9847.631383	4698.550000	1478.537109	116.788780
9847.631383	4698.550000	1477.473633	21.294865
9847.631383	4698.550000	1476.409180	-29.251987
9847.631383	4698.550000	1475.344727	75.211342
9847.631383	4698.550000	1474.280273	107.795242
9847.631383	4698.550000	1473.215820	131.542740
9847.631383	4698.550000	1472.151367	121.645271
9847.631383	4698.550000	1471.085938	51.367321
9847.631383	4698.550000	1470.020508	16.905508
9847.631383	4698.550000	1468.955078	240.209076
9847.631383	4698.550000	1467.888672	-103.478836
9847.631383	4698.550000	1466.823242	-20.846569
9847.631383	4698.550000	1465.756836	-52.498623
9847.631383	4698.550000	1464.690430	9.576759
9847.631383	4698.550000	1463.624023	-40.371407
9847.631383	4698.550000	1462.556641	28.623899
9847.631383	4698.550000	1461.490234	-7.517828
9847.631383	4698.550000	1460.422852	-18.889837
9847.631383	4698.550000	1459.355469	200.014450
9847.631383	4698.550000	1458.287109	-5.339708
9847.631383	4698.550000	1457.219727	128.449158
9847.631383	4698.550000	1456.151367	144.272583
9847.631383	4698.550000	1455.083008	-25.428524
9847.631383	4698.550000	1454.014648	165.924896
9847.631383	4698.550000	1452.945313	159.605957
9847.631383	4698.550000	1451.876953	-32.187565
9847.631383	4698.550000	1450.807617	118.000839
9847.631383	4698.550000	1449.738281	197.866669
9847.631383	4698.550000	1448.668945	81.208672
9847.631383	4698.550000	1447.598633	-57.749584
9847.631383	4698.550000	1446.528320	-59.094028
9847.631383	4698.550000	1445.458008	45.711384
9847.631383	4698.550000	1444.387695	-6.312935
9847.631383	4698.550000	1443.317383	-0.664153
9847.631383	4698.550000	1442.246094	49.779964
9847.631383	4698.550000	1441.174805	-30.389057
9847.631383	4698.550000	1440.103516	110.535698
9847.631383	4698.550000	1439.032227	-22.210541
9847.631383	4698.550000	1437.960938	68.690468
9847.631383	4698.550000	1436.888672	108.557487
9847.631383	4698.550000	1435.816406	183.988586
9847.631383	4698.550000	1434.744141	10.878155
9847.631383	4698.550000	1433.670898	-18.387510
9847.631383	4698.550000	1432.598633	18.265314
9847.631383	4698.550000	1431.525391	82.847664
9847.631383	4698.550000	1430.452148	-45.953793
9847.631383	4698.550000	1429.378906	-134.110916
9847.631383	4698.550000	1428.304688	14.298976
9847.631383	4698.550000	1427.231445	40.549244
9847.631383	4698.550000	1426.157227	-42.286068
9847.631383	4698.550000	1425.083008	-13.321370
9847.631383	4698.550000	1424.007813	98.927704
9847.631383	4698.550000	1422.933594	-5.047135
9847.631383	4698.550000	1421.858398	60.295326
9847.631383	4698.550000	1420.783203	93.745743
9847.631383	4698.550000	1419.708008	99.762894
9847.631383	4698.550000	1418.631836	69.899727
9847.631383	4698.550000	1417.555664	65.369591
9847.631383	4698.550000	1416.479492	108.308006
9847.631383	4698.550000	1415.403320	-97.663162
9847.631383	4698.550000	1414.327148	82.163857
9847.631383	4698.550000	1413.250000	83.048309
9847.631383	4698.550000	1412.173828	-103.255463
9847.631383	4698.550000	1411.096680	29.868917
9847.631383	4698.550000	1410.018555	152.737778
9847.631383	4698.550000	1408.941406	95.462570
9847.631383	4698.550000	1407.863281	-122.167183
9847.631383	4698.550000	1406.785156	16.088663
9847.631383	4698.550000	1405.707031	89.652718
9847.631383	4698.550000	1404.628906	-81.699898
9847.631383	4698.550000	1403.549805	-166.327713
9847.631383	4698.550000	1402.470703	45.601990
9847.631383	4698.550000	1401.391602	-110.267502
9847.631383	4698.550000	1400.312500	-38.159115
9847.631383	4698.550000	1399.233398	37.561646
9847.631383	4698.550000	1398.153320	47.780586
9847.631383	4698.550000	1397.073242	118.544052
9847.631383	4698.550000	1395.993164	-54.257626
9847.631383	4698.550000	1394.913086	-64.863014
9847.631383	4698.550000	1393.832031	209.929306
9847.631383	4698.550000	1392.750977	19.515076
9847.631383	4698.550000	1391.669922	75.699661
9847.631383	4698.550000	1390.588867	175.228851
9847.631383	4698.550000	1389.506836	92.384308
9847.631383	4698.550000	1388.425781	208.850861
9847.631383	4698.550000	1387.343750	79.461716
9847.631383	4698.550000	1386.261719	132.843750
9847.631383	4698.550000	1385.178711	-22.327656
9847.631383	4698.550000	1384.096680	-10.616060
9847.631383	4698.550000	1383.013672	-2.929169
9847.631383	4698.550000	1381.930664	159.907593
9847.631383	4698.550000	1380.846680	51.217213
9847.631383	4698.550000	1379.763672	97.249260
9847.631383	4698.550000	1378.679688	-94.150726
9847.631383	4698.550000	1377.595703	46.392830
9847.631383	4698.550000	1376.511719	-21.097950
9847.631383	4698.550000	1375.427734	82.350220
9847.631383	4698.550000	1374.342773	-7.007804
9847.631383	4698.550000	1373.257813	15.575435
9847.631383	4698.550000	1372.172852	96.411110
9847.631383	4698.550000	1371.087891	-138.383942
9847.631383	4698.550000	1370.001953	-61.532261
9847.631383	4698.550000	1368.916992	-11.738234
9847.631383	4698.550000	1367.831055	-80.550079
9847.631383	4698.550000	1366.744141	86.508522
9847.631383	4698.550000	1365.658203	125.015175
9847.631383	4698.550000	1364.571289	63.156265
9847.631383	4698.550000	1363.484375	187.777512
9847.631383	4698.550000	1362.397461	64.405891
9847.631383	4698.550000	1361.310547	247.027359
9847.631383	4698.550000	1360.222656	2.712639
9847.631383	4698.550000	1359.135742	300.942230
9847.631383	4698.550000	1358.047852	73.099197
9847.631383	4698.550000	1356.958984	78.105156
9847.631383	4698.550000	1355.871094	-21.340887
9847.631383	4698.550000	1354.782227	-20.961109
9847.631383	4698.550000	1353.693359	140.697296
9847.631383	4698.550000	1352.604492	27.317543
9847.631383	4698.550000	1351.515625	-46.739445
9847.631383	4698.550000	1350.425781	37.134468
9847.631383	4698.550000	1349.335938	12.210310
9847.631383	4698.550000	1348.246094	131.545303
9847.631383	4698.550000	1347.156250	12.577516
9847.631383	4698.550000	1346.066406	10.360269
9847.631383	4698.550000	1344.975586	58.340706
9847.631383	4698.550000	1343.884766	9.109021
9847.631383	4698.550000	1342.793945	106.281021
9847.631383	4698.550000	1341.702148	112.676994
9847.631383	4698.550000	1340.611328	-28.053806
9847.631383	4698.550000	1339.519531	-118.766472
9847.631383	4698.550000	1338.427734	-45.755741
9847.631383	4698.550000	1337.334961	54.874954
9847.631383	4698.550000	1336.243164	80.570549
9847.631383	4698.550000	1335.150391	-1.638104
9847.631383	4698.550000	1334.057617	-105.580025
9847.631383	4698.550000	1332.964844	-51.202900
9847.631383	4698.550000	1331.871094	47.983715
9847.631383	4698.550000	1330.778320	43.749672
9847.631383	4698.550000	1329.684570	-23.056522
9847.631383	4698.550000	1328.590820	-16.376343
9847.631383	4698.550000	1327.496094	36.762199
9847.631383	4698.550000	1326.402344	-210.693527
9847.631383	4698.550000	1325.307617	-25.916285
9847.631383	4698.550000	1324.212891	103.628899
9847.631383	4698.550000	1323.117188	26.050827
9847.631383	4698.550000	1322.022461	22.922657
9847.631383	4698.550000	1320.926758	55.970234
9847.631383	4698.550000	1319.831055	37.066338
9847.631383	4698.550000	1318.735352	45.254490
9847.631383	4698.550000	1317.638672	178.704147
9847.631383	4698.550000	1316.542969	23.001898
9847.631383	4698.550000	1315.446289	0.948043
9847.631383	4698.550000	1314.349609	21.804892
9847.631383	4698.550000	1313.251953	140.884552
9847.631383	4698.550000	1312.155273	172.492218
9847.631383	4698.550000	1311.057617	148.000595
9847.631383	4698.550000	1309.959961	11.446338
9847.631383	4698.550000	1308.862305	214.517487
9847.631383	4698.550000	1307.763672	60.861214
9847.631383	4698.550000	1306.665039	57.054146
9847.631383	4698.550000	1305.566406	107.199371
9847.631383	4698.550000	1304.467773	66.246666
9847.631383	4698.550000	1303.369141	74.913376
9847.631383	4698.550000	1302.269531	186.413147
9847.631383	4698.550000	1301.169922	23.856709
9847.631383	4698.550000	1300.070313	54.141098
9847.631383	4698.550000	1298.970703	188.240509
9847.631383	4698.550000	1297.870117	265.894989
9847.631383	4698.550000	1296.769531	250.131271
9847.631383	4698.550000	1295.668945	276.913727
9847.631383	4698.550000	1294.568359	197.431412
9847.631383	4698.550000	1293.466797	147.518219
9847.631383	4698.550000	1292.366211	183.832245
9847.631383	4698.550000	1291.264648	66.261444
9847.631383	4698.550000	1290.162109	192.965591
9847.631383	4698.550000	1289.060547	164.984558
9847.631383	4698.550000	1287.958008	114.839188
9847.631383	4698.550000	1286.855469	19.024778
9847.631383	4698.550000	1285.752930	63.805561
9847.631383	4698.550000	1284.650391	33.206516
9847.631383	4698.550000	1283.546875	12.665157
9847.631383	4698.550000	1282.444336	54.147991
9847.631383	4698.550000	1281.339844	164.281906
9847.631383	4698.550000	1280.236328	148.637421
9847.631383	4698.550000	1279.132813	142.164764
9847.631383	4698.550000	1278.028320	55.893318
9847.631383	4698.550000	1276.923828	62.388599
9847.631383	4698.550000	1275.819336	-65.859070
9847.631383	4698.550000	1274.713867	135.400879
9847.631383	4698.550000	1273.608398	109.879982
9847.631383	4698.550000	1272.503906	111.733063
9847.631383	4698.550000	1271.397461	-9.616862
9847.631383	4698.550000	1270.291992	11.672994
9847.631383	4698.550000	1269.185547	114.969482
9847.631383	4698.550000	1268.080078	-122.707848
9847.631383	4698.550000	1266.972656	-52.795307
9847.631383	4698.550000	1265.866211	31.042042
9847.631383	4698.550000	1264.759766	149.137329
9847.631383	4698.550000	1263.652344	30.060553
9847.631383	4698.550000	1262.544922	-40.336700
9847.631383	4698.550000	1261.436523	-8.586481
9847.631383	4698.550000	1260.329102	-167.499359
9847.631383	4698.550000	1259.220703	-129.154221
9847.631383	4698.550000	1258.112305	-129.424072
9847.631383	4698.550000	1257.003906	4.814752
9847.631383	4698.550000	1255.895508	-72.768715
9847.631383	4698.550000	1254.786133	-12.747048
9847.631383	4698.550000	1253.676758	-60.616783
9847.631383	4698.550000	1252.567383	-54.965210
9847.631383	4698.550000	1251.458008	-44.227272
9847.631383	4698.550000	1250.347656	12.955124
9847.631383	4698.550000	1249.237305	235.409180
9847.631383	4698.550000	1248.126953	-64.618904
9847.631383	4698.550000	1247.016602	65.217194
9847.631383	4698.550000	1245.905273	153.468933
9847.631383	4698.550000	1244.793945	53.228176
9847.631383	4698.550000	1243.682617	196.218185
9847.631383	4698.550000	1242.571289	98.253540
9847.631383	4698.550000	1241.459961	164.676178
9847.631383	4698.550000	1240.347656	252.312454
9847.631383	4698.550000	1239.235352	256.470062
9847.631383	4698.550000	1238.123047	195.251205
9847.631383	4698.550000	1237.009766	223.592560
9847.631383	4698.550000	1235.897461	164.998123
9847.631383	4698.550000	1234.784180	79.314293
9847.631383	4698.550000	1233.670898	131.402512
9847.631383	4698.550000	1232.556641	264.188721
9847.631383	4698.550000	1231.443359	121.606621
9847.631383	4698.550000	1230.329102	19.108068
9847.631383	4698.550000	1229.214844	-1.930820
9847.631383	4698.550000	1228.099609	73.398796
9847.631383	4698.550000	1226.985352	81.828049
9847.631383	4698.550000	1225.870117	16.937639
9847.631383	4698.550000	1224.754883	47.878139
9847.631383	4698.550000	1223.639648	24.180965
9847.631383	4698.550000	1222.523438	0.939512
9847.631383	4698.550000	1221.408203	49.758034
9847.631383	4698.550000	1220.291992	4.913958
9847.631383	4698.550000	1219.174805	167.430878
9847.631383	4698.550000	1218.058594	11.529320
9847.631383	4698.550000	1216.941406	71.261566
9847.631383	4698.550000	1215.824219	-7.547414
9847.631383	4698.550000	1214.707031	7.849145
9847.631383	4698.550000	1213.589844	35.938747
9847.631383	4698.550000	1212.471680	-52.771706
9847.631383	4698.550000	1211.353516	23.995926
9847.631383	4698.550000	1210.235352	-92.575050
9847.631383	4698.550000	1209.117188	-45.605530
9847.631383	4698.550000	1207.998047	-43.802986
9847.631383	4698.550000	1206.878906	10.092696
9847.631383	4698.550000	1205.759766	48.461617
9847.631383	4698.550000	1204.640625	99.668739
9847.631383	4698.550000	1203.520508	52.502144
9847.631383	4698.550000	1202.401367	11.412676
9847.631383	4698.550000	1201.281250	81.981163
9847.631383	4698.550000	1200.160156	-54.912319
9847.631383	4698.550000	1199.040039	6.329144
9847.631383	4698.550000	1197.918945	-14.322081
9847.631383	4698.550000	1196.797852	-118.809349
9847.631383	4698.550000	1195.676758	-127.656349
9847.631383	4698.550000	1194.555664	-17.589401
9847.631383	4698.550000	1193.433594	-138.843460
9847.631383	4698.550000	1192.311523	-25.559095
9847.631383	4698.550000	1191.189453	59.437786
9847.631383	4698.550000	1190.066406	-61.257732
9847.631383	4698.550000	1188.944336	48.231819
9847.631383	4698.550000	1187.821289	49.521641
9847.631383	4698.550000	1186.698242	45.560616
9847.631383	4698.550000	1185.574219	120.340759
9847.631383	4698.550000	1184.451172	12.813407
9847.631383	4698.550000	1183.327148	34.481339
9847.631383	4698.550000	1182.203125	27.689514
9847.631383	4698.550000	1181.078125	-22.245895
9847.631383	4698.550000	1179.954102	49.484016
9847.631383	4698.550000	1178.829102	-57.826588
9847.631383	4698.550000	1177.704102	-90.936188
9847.631383	4698.550000	1176.579102	-29.859138
9847.631383	4698.550000	1175.453125	-50.975147
9847.631383	4698.550000	1174.327148	-62.835106
9847.631383	4698.550000	1173.201172	-29.376709
9847.631383	4698.550000	1172.075195	45.302689
9847.631383	4698.550000	1170.949219	56.429470
9847.631383	4698.550000	1169.822266	157.280594
9847.631383	4698.550000	1168.695313	10.661224
9847.631383	4698.550000	1167.568359	60.409077
9847.631383	4698.550000	1166.440430	-7.412803
9847.631383	4698.550000	1165.313477	-85.224007
9847.631383	4698.550000	1164.185547	-116.121910
9847.631383	4698.550000	1163.057617	-28.339827
9847.631383	4698.550000	1161.928711	-30.858221
9847.631383	4698.550000	1160.800781	51.773102
9847.631383	4698.550000	1159.671875	-70.730385
9847.631383	4698.550000	1158.541992	-64.679939
9847.631383	4698.550000	1157.413086	-129.504120
9847.631383	4698.550000	1156.283203	-62.744427
9847.631383	4698.550000	1155.154297	-46.789791
9847.631383	4698.550000	1154.023438	10.779676
9847.631383	4698.550000	1152.893555	12.420275
9847.631383	4698.550000	1151.763672	3.252026
9847.631383	4698.550000	1150.632813	-37.406887
9847.631383	4698.550000	1149.501953	-35.223579
9847.631383	4698.550000	1148.370117	-55.192886
9847.631383	4698.550000	1147.239258	-5.614581
9847.631383	4698.550000	1146.107422	-36.910362
9847.631383	4698.550000	1144.975586	39.013489
9847.631383	4698.550000	1143.843750	103.027473
9847.631383	4698.550000	1142.710938	49.808533
9847.631383	4698.550000	1141.578125	97.735619
9847.631383	4698.550000	1140.445313	131.142120
9847.631383	4698.550000	1139.312500	144.589966
9847.631383	4698.550000	1138.178711	74.102188
9847.631383	4698.550000	1137.045898	15.774476
9847.631383	4698.550000	1135.912109	153.933777
9847.631383	4698.550000	1134.777344	20.772324
9847.631383	4698.550000	1133.643555	132.903000
9847.631383	4698.550000	1132.508789	94.555984
9847.631383	4698.550000	1131.374023	35.620689
9847.631383	4698.550000	1130.239258	64.332878
9847.631383	4698.550000	1129.104492	-0.930563
9847.631383	4698.550000	1127.968750	82.524635
9847.631383	4698.550000	1126.833008	-17.261122
9847.631383	4698.550000	1125.697266	129.513382
9847.631383	4698.550000	1124.560547	42.132668
9847.631383	4698.550000	1123.424805	-142.717163
9847.631383	4698.550000	1122.288086	7.356730
9847.631383	4698.550000	1121.151367	123.307495
9847.631383	4698.550000	1120.013672	-25.482256
9847.631383	4698.550000	1118.876953	117.859764
9847.631383	4698.550000	1117.739258	2.406930
9847.631383	4698.550000	1116.601563	-15.281092
9847.631383	4698.550000	1115.462891	92.743660
9847.631383	4698.550000	1114.324219	72.179108
9847.631383	4698.550000	1113.186523	87.322853
9847.631383	4698.550000	1112.046875	30.520685
9847.631383	4698.550000	1110.908203	150.228027
9847.631383	4698.550000	1109.769531	-28.619402
9847.631383	4698.550000	1108.629883	7.258268
9847.631383	4698.550000	1107.490234	40.882832
9847.631383	4698.550000	1106.349609	174.393494
9847.631383	4698.550000	1105.209961	-25.019005
9847.631383	4698.550000	1104.069336	145.651779
9847.631383	4698.550000	1102.928711	31.135761
9847.631383	4698.550000	1101.787109	165.802994
9847.631383	4698.550000	1100.646484	79.822479
9847.631383	4698.550000	1099.504883	78.069107
9847.631383	4698.550000	1098.363281	47.572212
9847.631383	4698.550000	1097.221680	20.455324
9847.631383	4698.550000	1096.079102	29.030800
9847.631383	4698.550000	1094.936523	222.606354
9847.631383	4698.550000	1093.793945	131.868530
9847.631383	4698.550000	1092.651367	124.275826
9847.631383	4698.550000	1091.507813	0.322633
9847.631383	4698.550000	1090.364258	59.762096
9847.631383	4698.550000	1089.220703	-15.788581
9847.631383	4698.550000	1088.077148	25.657919
9847.631383	4698.550000	1086.933594	152.942444
9847.631383	4698.550000	1085.789063	187.537292
9847.631383	4698.550000	1084.644531	143.980423
9847.631383	4698.550000	1083.499023	134.320282
9847.631383	4698.550000	1082.354492	144.934128
9847.631383	4698.550000	1081.208984	28.757704
9847.631383	4698.550000	1080.063477	114.691818
9847.631383	4698.550000	1078.917969	80.338570
9847.631383	4698.550000	1077.771484	91.854698
9847.631383	4698.550000	1076.625977	-47.840778
9847.631383	4698.550000	1075.479492	-21.969587
9847.631383	4698.550000	1074.332031	-82.998055
9847.631383	4698.550000	1073.185547	81.167778
9847.631383	4698.550000	1072.038086	195.961823
9847.631383	4698.550000	1070.890625	78.203064
9847.631383	4698.550000	1069.743164	30.059538
9847.631383	4698.550000	1068.594727	-21.140812
9847.631383	4698.550000	1067.447266	-32.789608
9847.631383	4698.550000	1066.298828	-12.839890
9847.631383	4698.550000	1065.149414	68.265953
9847.631383	4698.550000	1064.000977	-0.204401
9847.631383	4698.550000	1062.851563	-31.561529
9847.631383	4698.550000	1061.702148	63.722252
9847.631383	4698.550000	1060.552734	134.082550
9847.631383	4698.550000	1059.402344	-68.882820
9847.631383	4698.550000	1058.252930	197.490540
9847.631383	4698.550000	1057.102539	111.543205
9847.631383	4698.550000	1055.951172	89.968529
9847.631383	4698.550000	1054.800781	129.182526
9847.631383	4698.550000	1053.649414	109.645737
9847.631383	4698.550000	1052.498047	-35.602722
9847.631383	4698.550000	1051.346680	157.582245
9847.631383	4698.550000	1050.194336	-14.519116
9847.631383	4698.550000	1049.042969	-1.599436
9847.631383	4698.550000	1047.890625	-115.192039
9847.631383	4698.550000	1046.738281	209.166626
9847.631383	4698.550000	1045.584961	62.763065
9847.631383	4698.550000	1044.431641	4.784032
9847.631383	4698.550000	1043.278320	-18.302137
9847.631383	4698.550000	1042.125000	-15.636961
9847.631383	4698.550000	1040.971680	55.974468
9847.631383	4698.550000	1039.817383	164.569550
9847.631383	4698.550000	1038.663086	68.650574
9847.631383	4698.550000	1037.508789	62.336746
9847.631383	4698.550000	1036.353516	28.535542
9847.631383	4698.550000	1035.198242	138.297150
9847.631383	4698.550000	1034.042969	-1.022386
9847.631383	4698.550000	1032.887695	156.703491
9847.631383	4698.550000	1031.732422	163.757111
9847.631383	4698.550000	1030.576172	148.601959
9847.631383	4698.550000	1029.419922	65.832802
9847.631383	4698.550000	1028.263672	147.914551
9847.631383	4698.550000	1027.106445	70.523567
9847.631383	4698.550000	1025.949219	195.875732
9847.631383	4698.550000	1024.792969	243.598175
9847.631383	4698.550000	1023.634766	139.792343
9847.631383	4698.550000	1022.477539	101.189987
9847.631383	4698.550000	1021.319336	130.286133
9847.631383	4698.550000	1020.161133	218.632706
9847.631383	4698.550000	1019.002930	43.948067
9847.631383	4698.550000	1017.843750	-105.954384
9847.631383	4698.550000	1016.684570	107.635071
9847.631383	4698.550000	1015.525391	-37.364525
9847.631383	4698.550000	1014.366211	37.657768
9847.631383	4698.550000	1013.207031	111.062881
9847.631383	4698.550000	1012.046875	-25.514587
9847.631383	4698.550000	1010.886719	-74.461021
9847.631383	4698.550000	1009.726563	150.028366
9847.631383	4698.550000	1008.565430	-61.891872
9847.631383	4698.550000	1007.404297	-8.848287
9847.631383	4698.550000	1006.243164	-56.745075
9847.631383	4698.550000	1005.082031	128.551163
9847.631383	4698.550000	1003.920898	19.018082
9847.631383	4698.550000	1002.758789	27.373594
9847.631383	4698.550000	1001.596680	20.488325
9847.631383	4698.550000	1000.433594	61.135826
9847.631383	4698.550000	999.271484	37.522701
9847.631383	4698.550000	998.108398	135.400513
9847.631383	4698.550000	996.945313	113.830894
9847.631383	4698.550000	995.782227	145.144012
9847.631383	4698.550000	994.618164	43.585503
9847.631383	4698.550000	993.454102	-56.214619
9847.631383	4698.550000	992.290039	-112.231339
9847.631383	4698.550000	991.125977	-78.290237
9847.631383	4698.550000	989.960938	86.587639
9847.631383	4698.550000	988.796875	-28.870768
9847.631383	4698.550000	987.630859	20.156404
9847.631383	4698.550000	986.465820	53.303066
9847.631383	4698.550000	985.300781	72.935364
9847.631383	4698.550000	984.134766	-33.068432
9847.631383	4698.550000	982.968750	48.226559
9847.631383	4698.550000	981.801758	-60.152012
9847.631383	4698.550000	980.635742	159.605576
9847.631383	4698.550000	979.468750	112.090157
9847.631383	4698.550000	978.301758	27.389507
9847.631383	4698.550000	977.133789	-38.996616
9847.631383	4698.550000	975.966797	64.706482
9847.631383	4698.550000	974.798828	-113.017441
9847.631383	4698.550000	973.630859	-101.427696
9847.631383	4698.550000	972.461914	-51.391804
9847.631383	4698.550000	971.293945	101.871918
9847.631383	4698.550000	970.125000	79.859772
9847.631383	4698.550000	968.956055	79.357933
9847.631383	4698.550000	967.786133	9.831327
9847.631383	4698.550000	966.617188	-60.047611
9847.631383	4698.550000	965.447266	-22.808096
9847.631383	4698.550000	964.276367	-40.511116
9847.631383	4698.550000	963.106445	100.787338
9847.631383	4698.550000	961.935547	168.900238
9847.631383	4698.550000	960.764648	87.935135
9847.631383	4698.550000	959.593750	135.897003
9847.631383	4698.550000	958.422852	44.995403
9847.631383	4698.550000	957.250977	152.003723
9847.631383	4698.550000	956.079102	2.699485
9847.631383	4698.550000	954.907227	-34.564182
9847.631383	4698.550000	953.734375	101.949913
9847.631383	4698.550000	952.562500	47.779816
9847.631383	4698.550000	951.389648	200.859787
9847.631383	4698.550000	950.215820	116.210358
9847.631383	4698.550000	949.042969	36.953171
9847.631383	4698.550000	947.869141	68.804611
9847.631383	4698.550000	946.695313	203.195648
9847.631383	4698.550000	945.521484	153.608307
9847.631383	4698.550000	944.346680	283.148285
9847.631383	4698.550000	943.172852	38.229877
9847.631383	4698.550000	941.998047	167.641068
9847.631383	4698.550000	940.822266	67.170456
9847.631383	4698.550000	939.647461	-10.182162
9847.631383	4698.550000	938.471680	-90.045853
9847.631383	4698.550000	937.295898	116.044151
9847.631383	4698.550000	936.119141	215.207642
9847.631383	4698.550000	934.943359	119.106117
9847.631383	4698.550000	933.766602	46.324757
9847.631383	4698.550000	932.589844	177.886017
9847.631383	4698.550000	931.413086	-6.388287
9847.631383	4698.550000	930.235352	111.119606
9847.631383	4698.550000	929.057617	5.815485
9847.631383	4698.550000	927.879883	100.091988
9847.631383	4698.550000	926.702148	10.966255
9847.631383	4698.550000	925.523438	23.992983
9847.631383	4698.550000	924.344727	111.224014
9847.631383	4698.550000	923.166016	-17.324976
9847.631383	4698.550000	921.987305	181.179077
9847.631383	4698.550000	920.807617	117.559357
9847.631383	4698.550000	919.627930	118.001053
9847.631383	4698.550000	919.497070	-48.018394
9847.631383	4698.550000	918.331055	-67.569290
9847.631383	4698.550000	917.165039	-22.239912
9847.631383	4698.550000	915.999023	-58.041439
9847.631383	4698.550000	914.833008	-202.723343
9847.631383	4698.550000	913.666016	-13.847796
9847.631383	4698.550000	912.499023	59.153782
9847.631383	4698.550000	911.332031	-16.059877
9847.631383	4698.550000	910.165039	47.619663
9847.631383	4698.550000	908.997070	-27.594439
9847.631383	4698.550000	907.830078	-24.128889
9847.631383	4698.550000	906.661133	62.596104
9847.631383	4698.550000	905.493164	8.188805
9847.631383	4698.550000	904.325195	27.781301
9847.631383	4698.550000	903.156250	12.671153
9847.631383	4698.550000	901.987305	-27.874222
9847.631383	4698.550000	900.818359	72.544617
9847.631383	4698.550000	899.648438	-88.171783
9847.631383	4698.550000	898.478516	125.372940
9847.631383	4698.550000	897.308594	-16.846586
9847.631383	4698.550000	896.138672	-68.972908
9847.631383	4698.550000	894.968750	52.045258
9847.631383	4698.550000	893.797852	131.452621
9847.631383	4698.550000	892.626953	116.199333
9847.631383	4698.550000	891.456055	177.071030
9847.631383	4698.550000	890.284180	111.035049
9847.631383	4698.550000	889.113281	28.865776
9847.631383	4698.550000	887.941406	45.859135
9847.631383	4698.550000	886.768555	-10.938511
9847.631383	4698.550000	885.596680	118.956779
9847.631383	4698.550000	884.423828	55.220730
9847.631383	4698.550000	883.250977	108.990105
9847.631383	4698.550000	882.078125	95.923103
9847.631383	4698.550000	880.905273	119.690643
9847.631383	4698.550000	879.731445	67.452293
9847.631383	4698.550000	878.557617	178.656876
9847.631383	4698.550000	877.383789	-85.341621
9847.631383	4698.550000	876.209961	-63.924034
9847.631383	4698.550000	875.035156	31.085258
9847.631383	4698.550000	873.860352	-92.467422
9847.631383	4698.550000	872.685547	-13.621620
9847.631383	4698.550000	871.510742	81.269142
9847.631383	4698.550000	870.334961	-79.046806
9847.631383	4698.550000	869.159180	-32.477005
9847.631383	4698.550000	867.983398	110.560577
9847.631383	4698.550000	866.807617	-22.145977
9847.631383	4698.550000	865.630859	120.797104
9847.631383	4698.550000	864.454102	-21.076746
9847.631383	4698.550000	863.277344	305.440460
9847.631383	4698.550000	862.100586	60.262329
9847.631383	4698.550000	860.922852	127.272285
9847.631383	4698.550000	859.745117	84.105865
9847.631383	4698.550000	858.567383	128.110245
9847.631383	4698.550000	857.389648	43.644768
9847.631383	4698.550000	856.210938	18.814528
9847.631383	4698.550000	855.032227	28.365948
9847.631383	4698.550000	853.853516	223.553406
9847.631383	4698.550000	852.674805	125.319763
9847.631383	4698.550000	851.495117	8.779806
9847.631383	4698.550000	850.315430	-16.103682
9847.631383	4698.550000	849.135742	55.194187
9847.631383	4698.550000	847.956055	25.697807
9847.631383	4698.550000	846.775391	32.823669
9847.631383	4698.550000	845.595703	71.973099
9847.631383	4698.550000	844.415039	35.574284
9847.631383	4698.550000	843.233398	-74.037865
9847.631383	4698.550000	842.052734	22.240196
9847.631383	4698.550000	840.871094	255.674973
9847.631383	4698.550000	839.689453	-68.890778
9847.631383	4698.550000	838.506836	72.992569
9847.631383	4698.550000	837.325195	-59.456593
9847.631383	4698.550000	836.142578	100.611610
9847.631383	4698.550000	834.959961	155.507782
9847.631383	4698.550000	833.777344	132.705063
9847.631383	4698.550000	832.593750	-72.794296
9847.631383	4698.550000	831.410156	-59.046848
9847.631383	4698.550000	830.226563	144.138306
9847.631383	4698.550000	829.042969	-1.953206
9847.631383	4698.550000	827.858398	84.732559
9847.631383	4698.550000	826.673828	114.332977
9847.631383	4698.550000	825.489258	114.253777
9847.631383	4698.550000	824.304688	102.754692
9847.631383	4698.550000	823.120117	-52.387447
9847.631383	4698.550000	821.934570	-152.779404
9847.631383	4698.550000	820.749023	-59.441933
9847.631383	4698.550000	819.562500	-84.640038
9847.631383	4698.550000	818.376953	104.282631
9847.631383	4698.550000	817.190430	40.307335
9847.631383	4698.550000	816.003906	-48.706757
9847.631383	4698.550000	814.817383	-101.278221
9847.631383	4698.550000	813.629883	-44.594978
9847.631383	4698.550000	812.442383	12.045938
9847.631383	4698.550000	811.254883	-63.312534
9847.631383	4698.550000	810.067383	-18.101084
9847.631383	4698.550000	808.878906	20.249151
9847.631383	4698.550000	807.690430	258.653107
9847.631383	4698.550000	806.501953	133.219162
9847.631383	4698.550000	805.313477	71.456543
9847.631383	4698.550000	804.124023	232.386230
9847.631383	4698.550000	802.934570	102.434448
9847.631383	4698.550000	801.745117	-70.638107
9847.631383	4698.550000	800.555664	-5.213278
9847.631383	4698.550000	799.365234	-141.903961
9847.631383	4698.550000	798.175781	34.699120
9847.631383	4698.550000	796.985352	106.812103
9847.631383	4698.550000	795.793945	110.805031
9847.631383	4698.550000	794.603516	35.378288
9847.631383	4698.550000	793.412109	23.469601
9847.631383	4698.550000	792.220703	54.630817
9847.631383	4698.550000	791.028320	167.376389
9847.631383	4698.550000	789.836914	150.856537
9847.631383	4698.550000	788.644531	102.596275
9847.631383	4698.550000	787.452148	124.574745
9847.631383	4698.550000	786.258789	207.685257
9847.631383	4698.550000	785.066406	-42.181126
9847.631383	4698.550000	783.873047	-20.245607
9847.631383	4698.550000	782.679688	96.743500
9847.631383	4698.550000	781.485352	100.493889
9847.631383	4698.550000	780.291992	97.435814
9847.631383	4698.550000	779.097656	85.308403
9847.631383	4698.550000	777.903320	233.767212
9847.631383	4698.550000	776.708008	-13.620731
9847.631383	4698.550000	775.512695	-80.042130
9847.631383	4698.550000	774.318359	54.736298
9847.631383	4698.550000	773.122070	47.050323
9847.631383	4698.550000	771.926758	-107.526657
9847.631383	4698.550000	770.730469	72.295090
9847.631383	4698.550000	769.534180	84.879715
9847.631383	4698.550000	768.337891	126.796066
9847.631383	4698.550000	767.141602	249.954300
9847.631383	4698.550000	765.944336	72.821724
9847.631383	4698.550000	764.747070	216.210312
9847.631383	4698.550000	763.549805	151.936462
9847.631383	4698.550000	762.351563	159.855637
9847.631383	4698.550000	761.154297	70.771614
9847.631383	4698.550000	759.956055	250.039764
9847.631383	4698.550000	758.757813	95.553230
9847.631383	4698.550000	757.558594	74.095596
9847.631383	4698.550000	756.359375	248.683075
9847.631383	4698.550000	755.160156	107.751244
9847.631383	4698.550000	753.960938	232.662903
9847.631383	4698.550000	752.761719	330.477661
9847.631383	4698.550000	751.561523	92.734886
9847.631383	4698.550000	750.361328	183.743866
9847.631383	4698.550000	749.160156	220.675797
9847.631383	4698.550000	747.959961	136.061890
9847.631383	4698.550000	746.758789	123.454453
9847.631383	4698.550000	745.557617	-69.111092
9847.631383	4698.550000	744.356445	21.736383
9847.631383	4698.550000	743.154297	56.315975
9847.631383	4698.550000	741.952148	57.143116
9847.631383	4698.550000	740.750000	82.671951
9847.631383	4698.550000	739.547852	9.304872
9847.631383	4698.550000	738.344727	55.010342
9847.631383	4698.550000	737.142578	107.417984
9847.631383	4698.550000	735.939453	-37.825859
9847.631383	4698.550000	734.735352	50.457527
9847.631383	4698.550000	733.532227	109.507248
9847.631383	4698.550000	732.328125	-62.635433
9847.631383	4698.550000	731.124023	50.220860
9847.631383	4698.550000	729.918945	30.659740
9847.631383	4698.550000	728.714844	-40.492661
9847.631383	4698.550000	727.509766	-1.765478
9847.631383	4698.550000	726.303711	16.748545
9847.631383	4698.550000	725.098633	120.407867
9847.631383	4698.550000	723.892578	230.725739
9847.631383	4698.550000	722.686523	-66.771362
9847.631383	4698.550000	721.480469	14.383424
9847.631383	4698.550000	720.274414	46.217545
9847.631383	4698.550000	719.067383	-9.302186
9847.631383	4698.550000	717.860352	85.163246
9847.631383	4698.550000	716.653320	43.049984
9847.631383	4698.550000	715.445313	65.823830
9847.631383	4698.550000	714.238281	-76.973381
9847.631383	4698.550000	713.030273	-78.823235
9847.631383	4698.550000	711.821289	84.784126
9847.631383	4698.550000	710.613281	-111.640160
9847.631383	4698.550000	709.404297	-97.890228
9847.631383	4698.550000	708.195313	38.747578
9847.631383	4698.550000	706.986328	74.768013
9847.631383	4698.550000	705.776367	90.649025
9847.631383	4698.550000	704.566406	133.306458
9847.631383	4698.550000	703.356445	12.928443
9847.631383	4698.550000	702.146484	4.204578
9847.631383	4698.550000	700.935547	22.248995
9847.631383	4698.550000	699.724609	145.148026
9847.631383	4698.550000	698.513672	-10.897007
9847.631383	4698.550000	697.302734	-33.060753
9847.631383	4698.550000	696.090820	170.003799
9847.631383	4698.550000	694.878906	76.429436
9847.631383	4698.550000	693.666992	25.231943
9847.631383	4698.550000	692.455078	-39.331673
9847.631383	4698.550000	691.242188	-74.919807
9847.631383	4698.550000	690.029297	-28.082230
9847.631383	4698.550000	688.816406	-132.733795
9847.631383	4698.550000	687.602539	47.670677
9847.631383	4698.550000	686.389648	-77.019684
9847.631383	4698.550000	685.175781	-36.961246
9847.631383	4698.550000	683.960938	0.837359
9847.631383	4698.550000	682.747070	83.107155
9847.631383	4698.550000	681.532227	-70.466972
9847.631383	4698.550000	680.317383	78.471565
9847.631383	4698.550000	679.102539	36.111465
9847.631383	4698.550000	677.886719	140.473938
9847.631383	4698.550000	676.670898	-6.372461
9847.631383	4698.550000	675.455078	-133.171173
9847.631383	4698.550000	674.239258	-8.883870
9847.631383	4698.550000	673.022461	86.460831
9847.631383	4698.550000	671.805664	39.627335
9847.631383	4698.550000	670.588867	-207.020355
9847.631383	4698.550000	669.372070	232.332947
9847.631383	4698.550000	668.154297	167.705002
9847.631383	4698.550000	666.936523	25.433500
9847.631383	4698.550000	665.718750	93.955223
9847.631383	4698.550000	664.500977	124.732330
9847.631383	4698.550000	663.282227	71.221062
9847.631383	4698.550000	662.063477	139.654648
9847.631383	4698.550000	660.844727	88.358078
9847.631383	4698.550000	659.625000	154.519974
9847.631383	4698.550000	658.405273	14.597268
9847.631383	4698.550000	657.185547	144.965225
9847.631383	4698.550000	655.965820	44.947353
9847.631383	4698.550000	654.745117	-86.037712
9847.631383	4698.550000	653.525391	8.822568
9847.631383	4698.550000	652.303711	8.460705
9847.631383	4698.550000	651.083008	101.028763
9847.631383	4698.550000	649.861328	220.095108
9847.631383	4698.550000	648.640625	44.933792
9847.631383	4698.550000	647.417969	82.124229
9847.631383	4698.550000	646.196289	134.770233
9847.631383	4698.550000	644.973633	3.920122
9847.631383	4698.550000	643.750977	98.533852
9847.631383	4698.550000	642.528320	-49.941002
9847.631383	4698.550000	641.305664	77.767372
9847.631383	4698.550000	640.082031	-8.814997
9847.631383	4698.550000	638.858398	65.823616
9847.631383	4698.550000	637.634766	105.103958
9847.631383	4698.550000	636.410156	11.932425
9847.631383	4698.550000	635.185547	121.810028
9847.631383	4698.550000	633.960938	15.428993
9847.631383	4698.550000	632.736328	14.965454
9847.631383	4698.550000	631.510742	-49.456898
9847.631383	4698.550000	630.285156	-71.963020
9847.631383	4698.550000	629.059570	128.175964
9847.631383	4698.550000	627.833984	8.666939
9847.631383	4698.550000	626.607422	-35.880051
9847.631383	4698.550000	625.380859	69.390030
9847.631383	4698.550000	624.154297	-8.190427
9847.631383	4698.550000	622.927734	-83.536583
9847.631383	4698.550000	621.700195	32.679878
9847.631383	4698.550000	620.472656	60.804718
9847.631383	4698.550000	619.245117	152.735291
9847.631383	4698.550000	618.016602	-14.990143
9847.631383	4698.550000	616.788086	-57.262604
9847.631383	4698.550000	615.559570	-64.328300
9847.631383	4698.550000	614.331055	-23.016451
9847.631383	4698.550000	613.101563	141.380203
9847.631383	4698.550000	611.872070	-15.168556
9847.631383	4698.550000	610.642578	-35.413311
9847.631383	4698.550000	609.413086	93.741051
9847.631383	4698.550000	608.182617	-49.511379
9847.631383	4698.550000	606.952148	-19.219870
9847.631383	4698.550000	605.721680	33.018326
9847.631383	4698.550000	604.491211	6.219214
9847.631383	4698.550000	603.259766	-0.814683
9847.631383	4698.550000	602.028320	-95.601883
9847.631383	4698.550000	600.796875	-74.082413
9847.631383	4698.550000	599.564453	-76.691536
9847.631383	4698.550000	598.332031	82.964333
9847.631383	4698.550000	597.099609	27.724459
9847.631383	4698.550000	595.867188	66.760620
9847.631383	4698.550000	594.633789	226.305573
9847.631383	4698.550000	593.400391	214.909607
9847.631383	4698.550000	592.166992	-22.077278
9847.631383	4698.550000	590.933594	-64.055069
9847.631383	4698.550000	589.699219	69.144073
9847.631383	4698.550000	588.464844	55.638775
9847.631383	4698.550000	587.230469	46.526588
9847.631383	4698.550000	585.995117	111.819626
9847.631383	4698.550000	584.760742	91.784424
9847.631383	4698.550000	583.525391	104.574203
9847.631383	4698.550000	582.289063	172.033142
9847.631383	4698.550000	581.053711	44.912083
9847.631383	4698.550000	579.817383	-12.201610
9847.631383	4698.550000	578.581055	85.871628
9847.631383	4698.550000	577.343750	59.384701
9847.631383	4698.550000	576.107422	15.451628
9847.631383	4698.550000	574.870117	104.762405
9847.631383	4698.550000	573.631836	213.697357
9847.631383	4698.550000	572.394531	228.740982
9847.631383	4698.550000	571.156250	139.036041
9847.631383	4698.550000	569.917969	138.845444
9847.631383	4698.550000	568.679688	101.586586
9847.631383	4698.550000	567.440430	-16.339115
9847.631383	4698.550000	566.202148	27.166008
9847.631383	4698.550000	564.961914	68.486237
9847.631383	4698.550000	563.722656	186.095428
9847.631383	4698.550000	562.482422	124.980713
9847.631383	4698.550000	561.243164	127.095589
9847.631383	4698.550000	560.001953	242.491486
9847.631383	4698.550000	558.761719	240.261703
9847.631383	4698.550000	557.520508	279.418884
9847.631383	4698.550000	556.279297	5.118319
9847.631383	4698.550000	555.038086	81.348656
9847.631383	4698.550000	553.795898	5.253639
9847.631383	4698.550000	552.554688	107.598976
9847.631383	4698.550000	551.311523	138.144943
9847.631383	4698.550000	550.069336	-22.653284
9847.631383	4698.550000	548.826172	121.001831
9847.631383	4698.550000	547.583984	201.586746
9847.631383	4698.550000	546.339844	121.346825
9847.631383	4698.550000	545.096680	60.720860
9847.631383	4698.550000	543.852539	193.465500
9847.631383	4698.550000	542.608398	174.157669
9847.631383	4698.550000	541.364258	133.170685
9847.631383	4698.550000	540.119141	77.028320
9847.631383	4698.550000	538.875000	107.748711
9847.631383	4698.550000	537.628906	51.684017
9847.631383	4698.550000	536.383789	251.656357
9847.631383	4698.550000	535.137695	247.689713
9847.631383	4698.550000	533.892578	-12.124771
9847.631383	4698.550000	532.645508	155.287460
9847.631383	4698.550000	531.399414	103.736542
9847.631383	4698.550000	530.152344	58.733356
9847.631383	4698.550000	528.905273	174.103546
9847.631383	4698.550000	527.658203	150.819427
9847.631383	4698.550000	526.410156	103.748680
9847.631383	4698.550000	525.163086	236.437668
9847.631383	4698.550000	523.914063	185.091690
9847.631383	4698.550000	522.666016	14.762504
9847.631383	4698.550000	521.416992	-25.639313
9847.631383	4698.550000	520.167969	40.006542
9847.631383	4698.550000	518.918945	-43.585495
9847.631383	4698.550000	517.669922	-44.942215
9847.631383	4698.550000	516.419922	-128.425842
9847.631383	4698.550000	515.169922	138.313278
9847.631383	4698.550000	513.919922	33.272255
9847.631383	4698.550000	512.668945	-54.412575
9847.631383	4698.550000	511.417969	-176.592834
9847.631383	4698.550000	510.166992	-33.059574
9847.631383	4698.550000	508.916016	-83.883606
9847.631383	4698.550000	507.664063	-7.296729
9847.631383	4698.550000	506.412109	-131.429031
9847.631383	4698.550000	505.160156	-61.282082
9847.631383	4698.550000	503.907227	-118.418678
9847.631383	4698.550000	502.655273	141.552643
9847.631383	4698.550000	501.402344	82.296349
9847.631383	4698.550000	500.148438	-4.935184
9847.631383	4698.550000	498.895508	101.889458
9847.631383	4698.550000	497.641602	-62.833229
9847.631383	4698.550000	496.387695	-22.779070
9847.631383	4698.550000	495.132813	53.902710
9847.631383	4698.550000	493.878906	-110.622437
9847.631383	4698.550000	492.624023	65.142181
9847.631383	4698.550000	491.368164	152.597214
9847.631383	4698.550000	490.113281	121.671127
9847.631383	4698.550000	488.857422	135.969055
9847.631383	4698.550000	487.601563	40.571228
9847.631383	4698.550000	486.344727	-26.800470
9847.631383	4698.550000	485.088867	-171.530350
9847.631383	4698.550000	483.832031	135.299805
9847.631383	4698.550000	482.575195	224.931198
9847.631383	4698.550000	481.317383	149.076401
9847.631383	4698.550000	480.059570	36.753372
9847.631383	4698.550000	478.801758	59.826855
9847.631383	4698.550000	477.543945	190.290451
9847.631383	4698.550000	476.285156	28.712694
9847.631383	4698.550000	475.027344	-3.975309
9847.631383	4698.550000	473.767578	-75.261711
9847.631383	4698.550000	472.508789	61.636791
9847.631383	4698.550000	471.249023	-88.968391
9847.631383	4698.550000	469.989258	-29.301844
9847.631383	4698.550000	468.729492	221.201645
9847.631383	4698.550000	467.469727	109.301598
9847.631383	4698.550000	466.208984	-2.534636
9847.631383	4698.550000	464.948242	74.270927
9847.631383	4698.550000	463.686523	251.753479
9847.631383	4698.550000	462.425781	150.712708
9847.631383	4698.550000	461.164063	229.617722
9847.631383	4698.550000	459.901367	109.379250
9847.631383	4698.550000	458.639648	74.829063
9847.631383	4698.550000	457.376953	164.432312
9847.631383	4698.550000	456.114258	209.072372
9847.631383	4698.550000	454.851563	379.915680
9847.631383	4698.550000	453.587891	86.578758
9847.631383	4698.550000	452.324219	79.907768
9847.631383	4698.550000	451.060547	156.620300
9847.631383	4698.550000	449.796875	194.830429
9847.631383	4698.550000	448.532227	-4.172582
9847.631383	4698.550000	447.267578	59.696014
9847.631383	4698.550000	446.002930	129.944702
9847.631383	4698.550000	444.737305	61.351425
9847.631383	4698.550000	443.471680	278.884583
9847.631383	4698.550000	442.206055	112.089699
9847.631383	4698.550000	440.940430	169.446747
9847.631383	4698.550000	439.673828	98.750130
9847.631383	4698.550000	438.407227	107.005226
9847.631383	4698.550000	437.140625	179.229050
9847.631383	4698.550000	435.873047	138.397461
9847.631383	4698.550000	434.605469	240.402969
9847.631383	4698.550000	433.337891	165.445557
9847.631383	4698.550000	432.070313	81.979576
9847.631383	4698.550000	430.801758	258.446533
9847.631383	4698.550000	429.533203	170.697250
9847.631383	4698.550000	428.264648	117.036072
9847.631383	4698.550000	426.996094	320.991882
9847.631383	4698.550000	425.726563	152.325775
9847.631383	4698.550000	424.457031	294.414825
9847.631383	4698.550000	423.186523	142.790512
9847.631383	4698.550000	421.916992	140.106506
9847.631383	4698.550000	420.646484	271.374359
9847.631383	4698.550000	419.375977	75.099014
9847.631383	4698.550000	418.104492	148.850693
9847.631383	4698.550000	416.833008	207.651871
9847.631383	4698.550000	415.561523	119.764908
9847.631383	4698.550000	414.290039	116.849113
9847.631383	4698.550000	413.017578	183.977783
9847.631383	4698.550000	411.746094	176.703629
9847.631383	4698.550000	410.472656	201.224274
9847.631383	4698.550000	409.200195	212.943542
9847.631383	4698.550000	407.926758	184.278107
9847.631383	4698.550000	406.653320	21.897285
9847.631383	4698.550000	405.379883	143.768616
9847.631383	4698.550000	404.105469	235.829010
9847.631383	4698.550000	402.831055	156.034378
9847.631383	4698.550000	401.556641	201.274460
9847.631383	4698.550000	400.282227	220.986328
9847.631383	4698.550000	399.006836	382.579102
9847.631383	4698.550000	397.731445	353.358307
9847.631383	4698.550000	396.456055	186.395096
9847.631383	4698.550000	395.179688	0.357046
9847.631383	4698.550000	393.903320	133.990601
9847.631383	4698.550000	392.626953	212.439499
9847.631383	4698.550000	391.350586	45.281063
9847.631383	4698.550000	390.073242	148.903976
9847.631383	4698.550000	388.795898	100.079185
9847.631383	4698.550000	387.518555	6.757802
9847.631383	4698.550000	386.240234	139.596680
9847.631383	4698.550000	384.961914	352.590424
9847.631383	4698.550000	383.683594	-43.290451
9847.631383	4698.550000	382.405273	137.714981
9847.631383	4698.550000	381.125977	147.400665
9847.631383	4698.550000	379.846680	-7.787031
9847.631383	4698.550000	378.567383	-93.359299
9847.631383	4698.550000	377.287109	-16.479250
9847.631383	4698.550000	376.006836	85.552521
9847.631383	4698.550000	374.726563	35.458996
9847.631383	4698.550000	373.446289	92.833229
9847.631383	4698.550000	372.165039	122.603691
9847.631383	4698.550000	370.883789	-60.789318
9847.631383	4698.550000	369.602539	23.495586
9847.631383	4698.550000	368.320313	128.650467
9847.631383	4698.550000	367.039063	107.143585
9847.631383	4698.550000	365.755859	-3.032921
9847.631383	4698.550000	364.473633	74.141205
9847.631383	4698.550000	363.190430	-103.743843
9847.631383	4698.550000	361.907227	-39.598911
9847.631383	4698.550000	360.624023	-13.571854
9847.631383	4698.550000	359.340820	-114.039589
9847.631383	4698.550000	358.056641	37.832794
9847.631383	4698.550000	356.772461	27.436008
9847.631383	4698.550000	355.487305	-2.109370
9847.631383	4698.550000	354.202148	54.352680
9847.631383	4698.550000	352.916992	7.544003
9847.631383	4698.550000	351.631836	-58.395645
9847.631383	4698.550000	350.346680	70.892166
9847.631383	4698.550000	349.060547	-29.139240
9847.631383	4698.550000	347.774414	38.668121
9847.631383	4698.550000	346.487305	41.079540
9847.631383	4698.550000	345.200195	-34.459679
9847.631383	4698.550000	343.913086	-59.853672
9847.631383	4698.550000	342.625977	17.327333
9847.631383	4698.550000	341.338867	-25.406878
9847.631383	4698.550000	340.050781	105.702225
9847.631383	4698.550000	338.762695	43.504379
9847.631383	4698.550000	337.473633	-2.198043
9847.631383	4698.550000	336.184570	188.712555
9847.631383	4698.550000	334.895508	-21.105995
9847.631383	4698.550000	333.606445	66.413757
9847.631383	4698.550000	332.317383	140.999832
9847.631383	4698.550000	331.027344	-2.627060
9847.631383	4698.550000	329.736328	123.606873
9847.631383	4698.550000	328.446289	8.674586
9847.631383	4698.550000	327.155273	-33.306648
9847.631383	4698.550000	325.864258	41.566734
9847.631383	4698.550000	324.573242	-28.329758
9847.631383	4698.550000	323.281250	-35.823856
9847.631383	4698.550000	321.989258	-104.346886
9847.631383	4698.550000	320.697266	-10.134400
9847.631383	4698.550000	319.405273	64.826973
9847.631383	4698.550000	318.112305	26.478056
9847.631383	4698.550000	316.819336	-8.085284
9847.631383	4698.550000	315.526367	151.236038
9847.631383	4698.550000	314.232422	46.874847
9847.631383	4698.550000	312.938477	-24.462959
9847.631383	4698.550000	311.644531	35.316608
9847.631383	4698.550000	310.349609	-128.736725
9847.631383	4698.550000	309.054688	165.930389
9847.631383	4698.550000	307.759766	109.487854
9847.631383	4698.550000	306.464844	-49.616169
9847.631383	4698.550000	305.168945	-38.140293
9847.631383	4698.550000	303.873047	227.212051
9847.631383	4698.550000	302.577148	141.740356
9847.631383	4698.550000	301.281250	70.385658
9847.631383	4698.550000	299.984375	100.626770
