#X		#Y		#Wave		#Intensity
-15681.646809	5151.021667	1999.946289	52.816269
-15681.646809	5151.021667	1998.981445	205.748047
-15681.646809	5151.021667	1998.017578	-13.530442
-15681.646809	5151.021667	1997.052734	-297.032135
-15681.646809	5151.021667	1996.088867	21.768793
-15681.646809	5151.021667	1995.124023	95.327850
-15681.646809	5151.021667	1994.159180	77.337845
-15681.646809	5151.021667	1993.193359	210.520432
-15681.646809	5151.021667	1992.228516	143.226898
-15681.646809	5151.021667	1991.262695	46.359276
-15681.646809	5151.021667	1990.296875	177.324036
-15681.646809	5151.021667	1989.331055	211.838730
-15681.646809	5151.021667	1988.365234	-226.090988
-15681.646809	5151.021667	1987.398438	70.872803
-15681.646809	5151.021667	1986.432617	41.376400
-15681.646809	5151.021667	1985.465820	-27.581816
-15681.646809	5151.021667	1984.499023	-197.785095
-15681.646809	5151.021667	1983.532227	-135.501846
-15681.646809	5151.021667	1982.565430	102.297386
-15681.646809	5151.021667	1981.597656	-87.356224
-15681.646809	5151.021667	1980.629883	123.328156
-15681.646809	5151.021667	1979.662109	-75.987007
-15681.646809	5151.021667	1978.694336	60.681103
-15681.646809	5151.021667	1977.726563	147.989197
-15681.646809	5151.021667	1976.758789	205.710251
-15681.646809	5151.021667	1975.790039	211.644730
-15681.646809	5151.021667	1974.821289	10.365547
-15681.646809	5151.021667	1973.852539	-84.693047
-15681.646809	5151.021667	1972.883789	-228.991287
-15681.646809	5151.021667	1971.915039	36.205978
-15681.646809	5151.021667	1970.945313	178.072769
-15681.646809	5151.021667	1969.975586	216.396790
-15681.646809	5151.021667	1969.005859	-142.077942
-15681.646809	5151.021667	1968.036133	34.393700
-15681.646809	5151.021667	1967.066406	-20.761557
-15681.646809	5151.021667	1966.096680	86.735649
-15681.646809	5151.021667	1965.125977	58.770832
-15681.646809	5151.021667	1964.155273	94.881630
-15681.646809	5151.021667	1963.184570	300.901215
-15681.646809	5151.021667	1962.213867	78.561264
-15681.646809	5151.021667	1961.242188	208.283707
-15681.646809	5151.021667	1960.271484	-102.471802
-15681.646809	5151.021667	1959.299805	5.159022
-15681.646809	5151.021667	1958.328125	412.873962
-15681.646809	5151.021667	1957.356445	-42.755299
-15681.646809	5151.021667	1956.384766	96.857613
-15681.646809	5151.021667	1955.412109	174.983688
-15681.646809	5151.021667	1954.439453	-78.716377
-15681.646809	5151.021667	1953.467773	-86.550720
-15681.646809	5151.021667	1952.495117	202.941299
-15681.646809	5151.021667	1951.521484	15.770117
-15681.646809	5151.021667	1950.548828	89.035759
-15681.646809	5151.021667	1949.575195	-193.778442
-15681.646809	5151.021667	1948.601563	-120.465858
-15681.646809	5151.021667	1947.627930	134.485947
-15681.646809	5151.021667	1946.654297	143.928314
-15681.646809	5151.021667	1945.680664	52.773140
-15681.646809	5151.021667	1944.706055	57.345676
-15681.646809	5151.021667	1943.732422	81.550629
-15681.646809	5151.021667	1942.757813	-75.726913
-15681.646809	5151.021667	1941.783203	-161.828079
-15681.646809	5151.021667	1940.807617	38.942642
-15681.646809	5151.021667	1939.833008	23.947971
-15681.646809	5151.021667	1938.857422	-0.837947
-15681.646809	5151.021667	1937.881836	158.153961
-15681.646809	5151.021667	1936.906250	99.064369
-15681.646809	5151.021667	1935.930664	10.609132
-15681.646809	5151.021667	1934.955078	-87.607178
-15681.646809	5151.021667	1933.978516	112.913879
-15681.646809	5151.021667	1933.001953	-63.615955
-15681.646809	5151.021667	1932.025391	-39.389900
-15681.646809	5151.021667	1931.048828	38.658611
-15681.646809	5151.021667	1930.072266	-44.794456
-15681.646809	5151.021667	1929.094727	38.112705
-15681.646809	5151.021667	1928.118164	106.312370
-15681.646809	5151.021667	1927.140625	152.475250
-15681.646809	5151.021667	1926.163086	-221.874252
-15681.646809	5151.021667	1925.184570	-244.117447
-15681.646809	5151.021667	1924.207031	-131.950867
-15681.646809	5151.021667	1923.228516	104.777702
-15681.646809	5151.021667	1922.250000	-137.396530
-15681.646809	5151.021667	1921.271484	43.052162
-15681.646809	5151.021667	1920.292969	-123.335823
-15681.646809	5151.021667	1919.314453	-23.546431
-15681.646809	5151.021667	1918.334961	-123.972626
-15681.646809	5151.021667	1917.355469	22.129906
-15681.646809	5151.021667	1916.375977	-70.968880
-15681.646809	5151.021667	1915.396484	201.909180
-15681.646809	5151.021667	1914.416992	-44.884884
-15681.646809	5151.021667	1913.436523	-230.631714
-15681.646809	5151.021667	1912.457031	66.467690
-15681.646809	5151.021667	1911.476563	-38.807590
-15681.646809	5151.021667	1910.496094	-217.181808
-15681.646809	5151.021667	1909.515625	13.906074
-15681.646809	5151.021667	1908.534180	-40.180046
-15681.646809	5151.021667	1907.552734	-77.209274
-15681.646809	5151.021667	1906.572266	-33.866673
-15681.646809	5151.021667	1905.590820	-44.131058
-15681.646809	5151.021667	1904.608398	130.627960
-15681.646809	5151.021667	1903.626953	-40.357624
-15681.646809	5151.021667	1902.644531	170.805344
-15681.646809	5151.021667	1901.663086	257.771790
-15681.646809	5151.021667	1900.680664	140.324493
-15681.646809	5151.021667	1899.698242	44.794151
-15681.646809	5151.021667	1898.714844	-237.981781
-15681.646809	5151.021667	1897.732422	140.698669
-15681.646809	5151.021667	1896.749023	11.125966
-15681.646809	5151.021667	1895.765625	144.086014
-15681.646809	5151.021667	1894.782227	-43.804314
-15681.646809	5151.021667	1893.798828	-88.294357
-15681.646809	5151.021667	1892.814453	-96.351433
-15681.646809	5151.021667	1891.831055	-138.429520
-15681.646809	5151.021667	1890.846680	-71.240318
-15681.646809	5151.021667	1889.862305	76.020813
-15681.646809	5151.021667	1888.877930	181.936600
-15681.646809	5151.021667	1887.892578	57.229092
-15681.646809	5151.021667	1886.908203	116.958244
-15681.646809	5151.021667	1885.922852	4.391668
-15681.646809	5151.021667	1884.937500	119.849762
-15681.646809	5151.021667	1883.952148	232.814682
-15681.646809	5151.021667	1882.965820	54.748669
-15681.646809	5151.021667	1881.980469	-108.729515
-15681.646809	5151.021667	1880.994141	35.648544
-15681.646809	5151.021667	1880.007813	58.780510
-15681.646809	5151.021667	1879.021484	-177.369965
-15681.646809	5151.021667	1878.035156	97.673485
-15681.646809	5151.021667	1877.047852	-182.043091
-15681.646809	5151.021667	1876.061523	124.325027
-15681.646809	5151.021667	1875.074219	-0.397399
-15681.646809	5151.021667	1874.086914	-112.997086
-15681.646809	5151.021667	1873.098633	-169.918289
-15681.646809	5151.021667	1872.111328	63.518894
-15681.646809	5151.021667	1871.123047	-162.816055
-15681.646809	5151.021667	1870.135742	-108.513634
-15681.646809	5151.021667	1869.147461	129.533813
-15681.646809	5151.021667	1868.158203	9.616107
-15681.646809	5151.021667	1867.169922	56.518848
-15681.646809	5151.021667	1866.180664	221.806610
-15681.646809	5151.021667	1865.192383	167.101089
-15681.646809	5151.021667	1864.203125	252.517502
-15681.646809	5151.021667	1863.213867	38.337837
-15681.646809	5151.021667	1862.223633	-42.958584
-15681.646809	5151.021667	1861.234375	-150.814301
-15681.646809	5151.021667	1860.244141	-178.990265
-15681.646809	5151.021667	1859.253906	152.472382
-15681.646809	5151.021667	1858.263672	66.270744
-15681.646809	5151.021667	1857.273438	-17.516197
-15681.646809	5151.021667	1856.282227	135.117081
-15681.646809	5151.021667	1855.291992	145.356323
-15681.646809	5151.021667	1854.300781	42.217613
-15681.646809	5151.021667	1853.309570	-210.399597
-15681.646809	5151.021667	1852.317383	57.741562
-15681.646809	5151.021667	1851.326172	84.735275
-15681.646809	5151.021667	1850.333984	210.484131
-15681.646809	5151.021667	1849.342773	-145.697861
-15681.646809	5151.021667	1848.350586	71.519485
-15681.646809	5151.021667	1847.357422	115.220947
-15681.646809	5151.021667	1846.365234	84.229500
-15681.646809	5151.021667	1845.372070	55.624191
-15681.646809	5151.021667	1844.379883	-6.699590
-15681.646809	5151.021667	1843.386719	137.930832
-15681.646809	5151.021667	1842.393555	51.488506
-15681.646809	5151.021667	1841.399414	-83.068329
-15681.646809	5151.021667	1840.406250	99.880569
-15681.646809	5151.021667	1839.412109	155.275223
-15681.646809	5151.021667	1838.417969	164.933533
-15681.646809	5151.021667	1837.423828	30.326080
-15681.646809	5151.021667	1836.429688	164.914673
-15681.646809	5151.021667	1835.434570	-101.871902
-15681.646809	5151.021667	1834.440430	-49.059528
-15681.646809	5151.021667	1833.445313	54.140095
-15681.646809	5151.021667	1832.450195	128.448364
-15681.646809	5151.021667	1831.454102	-83.041008
-15681.646809	5151.021667	1830.458984	-119.233543
-15681.646809	5151.021667	1829.462891	24.567999
-15681.646809	5151.021667	1828.466797	103.487495
-15681.646809	5151.021667	1827.470703	79.172302
-15681.646809	5151.021667	1826.474609	287.521729
-15681.646809	5151.021667	1825.478516	198.356033
-15681.646809	5151.021667	1824.481445	176.329193
-15681.646809	5151.021667	1823.484375	72.760590
-15681.646809	5151.021667	1822.487305	-155.450470
-15681.646809	5151.021667	1821.490234	47.777962
-15681.646809	5151.021667	1820.493164	13.676262
-15681.646809	5151.021667	1819.495117	216.723495
-15681.646809	5151.021667	1818.498047	46.003220
-15681.646809	5151.021667	1817.500000	9.417962
-15681.646809	5151.021667	1816.500977	104.496834
-15681.646809	5151.021667	1815.502930	31.933952
-15681.646809	5151.021667	1814.504883	-119.619804
-15681.646809	5151.021667	1813.505859	11.217752
-15681.646809	5151.021667	1812.506836	252.026123
-15681.646809	5151.021667	1811.507813	212.832550
-15681.646809	5151.021667	1810.508789	235.802002
-15681.646809	5151.021667	1809.508789	5.257963
-15681.646809	5151.021667	1808.508789	-96.135971
-15681.646809	5151.021667	1807.508789	82.133797
-15681.646809	5151.021667	1806.508789	152.757614
-15681.646809	5151.021667	1805.508789	-118.362228
-15681.646809	5151.021667	1804.508789	-112.301994
-15681.646809	5151.021667	1803.507813	-194.656372
-15681.646809	5151.021667	1802.506836	9.545091
-15681.646809	5151.021667	1801.505859	75.152924
-15681.646809	5151.021667	1800.504883	243.344788
-15681.646809	5151.021667	1799.502930	117.874489
-15681.646809	5151.021667	1798.501953	-2.811717
-15681.646809	5151.021667	1797.500000	403.760620
-15681.646809	5151.021667	1796.498047	204.272125
-15681.646809	5151.021667	1795.496094	140.759842
-15681.646809	5151.021667	1794.493164	-3.839950
-15681.646809	5151.021667	1793.491211	130.503326
-15681.646809	5151.021667	1792.488281	59.773548
-15681.646809	5151.021667	1791.485352	-46.713711
-15681.646809	5151.021667	1790.482422	-115.077637
-15681.646809	5151.021667	1789.478516	130.987000
-15681.646809	5151.021667	1788.475586	234.022858
-15681.646809	5151.021667	1787.471680	36.939266
-15681.646809	5151.021667	1786.467773	185.106659
-15681.646809	5151.021667	1785.463867	97.526962
-15681.646809	5151.021667	1784.459961	-54.315502
-15681.646809	5151.021667	1783.455078	43.698742
-15681.646809	5151.021667	1782.450195	136.877808
-15681.646809	5151.021667	1781.445313	75.378876
-15681.646809	5151.021667	1780.440430	20.998787
-15681.646809	5151.021667	1779.435547	33.174034
-15681.646809	5151.021667	1778.429688	164.161621
-15681.646809	5151.021667	1777.424805	71.650536
-15681.646809	5151.021667	1776.418945	-23.244627
-15681.646809	5151.021667	1775.413086	117.064774
-15681.646809	5151.021667	1774.406250	304.786774
-15681.646809	5151.021667	1773.400391	-217.703766
-15681.646809	5151.021667	1772.393555	-101.304291
-15681.646809	5151.021667	1771.386719	19.760536
-15681.646809	5151.021667	1770.379883	24.435036
-15681.646809	5151.021667	1769.373047	-27.887247
-15681.646809	5151.021667	1768.365234	-16.171322
-15681.646809	5151.021667	1767.358398	33.461006
-15681.646809	5151.021667	1766.350586	-30.814831
-15681.646809	5151.021667	1765.342773	-31.079731
-15681.646809	5151.021667	1764.334961	44.483685
-15681.646809	5151.021667	1763.326172	-112.327065
-15681.646809	5151.021667	1762.318359	-228.823837
-15681.646809	5151.021667	1761.309570	62.237797
-15681.646809	5151.021667	1760.300781	-293.607666
-15681.646809	5151.021667	1759.291016	-85.630173
-15681.646809	5151.021667	1758.282227	209.855743
-15681.646809	5151.021667	1757.272461	83.729012
-15681.646809	5151.021667	1756.262695	-58.958122
-15681.646809	5151.021667	1755.252930	219.661560
-15681.646809	5151.021667	1754.243164	171.578323
-15681.646809	5151.021667	1753.233398	-172.267365
-15681.646809	5151.021667	1752.222656	-139.917221
-15681.646809	5151.021667	1751.211914	109.963425
-15681.646809	5151.021667	1750.201172	-212.516968
-15681.646809	5151.021667	1749.190430	-267.768524
-15681.646809	5151.021667	1748.179688	-27.581245
-15681.646809	5151.021667	1747.167969	-132.558502
-15681.646809	5151.021667	1746.156250	173.585739
-15681.646809	5151.021667	1745.144531	137.037064
-15681.646809	5151.021667	1744.132813	34.330719
-15681.646809	5151.021667	1743.121094	-110.879929
-15681.646809	5151.021667	1742.108398	-147.476746
-15681.646809	5151.021667	1741.095703	56.674152
-15681.646809	5151.021667	1740.083008	-343.469147
-15681.646809	5151.021667	1739.070313	-82.807930
-15681.646809	5151.021667	1738.057617	17.292645
-15681.646809	5151.021667	1737.043945	-24.213512
-15681.646809	5151.021667	1736.030273	-23.292904
-15681.646809	5151.021667	1735.016602	119.056519
-15681.646809	5151.021667	1734.002930	-221.947372
-15681.646809	5151.021667	1732.989258	-65.551567
-15681.646809	5151.021667	1731.974609	-236.807175
-15681.646809	5151.021667	1730.959961	-144.162918
-15681.646809	5151.021667	1729.945313	-119.903870
-15681.646809	5151.021667	1728.930664	43.257214
-15681.646809	5151.021667	1727.916016	-29.148306
-15681.646809	5151.021667	1726.900391	-99.215645
-15681.646809	5151.021667	1725.885742	127.285027
-15681.646809	5151.021667	1724.870117	-25.227489
-15681.646809	5151.021667	1723.853516	161.086670
-15681.646809	5151.021667	1722.837891	-125.538521
-15681.646809	5151.021667	1721.822266	41.836819
-15681.646809	5151.021667	1720.805664	164.425888
-15681.646809	5151.021667	1719.789063	68.281334
-15681.646809	5151.021667	1718.772461	-131.290024
-15681.646809	5151.021667	1717.754883	-84.061424
-15681.646809	5151.021667	1716.738281	-130.872696
-15681.646809	5151.021667	1715.720703	-67.291931
-15681.646809	5151.021667	1714.703125	-111.819031
-15681.646809	5151.021667	1713.685547	76.122353
-15681.646809	5151.021667	1712.667969	-43.621887
-15681.646809	5151.021667	1711.649414	-153.971634
-15681.646809	5151.021667	1710.630859	87.733543
-15681.646809	5151.021667	1709.612305	143.933289
-15681.646809	5151.021667	1708.593750	-11.073393
-15681.646809	5151.021667	1707.575195	-318.525543
-15681.646809	5151.021667	1706.555664	277.003540
-15681.646809	5151.021667	1705.536133	65.671471
-15681.646809	5151.021667	1704.516602	147.422836
-15681.646809	5151.021667	1703.497070	-94.343719
-15681.646809	5151.021667	1702.477539	69.356407
-15681.646809	5151.021667	1701.457031	-20.084421
-15681.646809	5151.021667	1700.437500	-104.836990
-15681.646809	5151.021667	1699.416992	157.027710
-15681.646809	5151.021667	1698.395508	34.728600
-15681.646809	5151.021667	1697.375000	123.151703
-15681.646809	5151.021667	1696.354492	87.451065
-15681.646809	5151.021667	1695.333008	-105.074829
-15681.646809	5151.021667	1694.311523	165.723267
-15681.646809	5151.021667	1693.290039	179.054611
-15681.646809	5151.021667	1692.267578	37.973450
-15681.646809	5151.021667	1691.246094	-77.356453
-15681.646809	5151.021667	1690.223633	-185.666718
-15681.646809	5151.021667	1689.201172	35.627632
-15681.646809	5151.021667	1688.178711	-7.287578
-15681.646809	5151.021667	1687.155273	115.678917
-15681.646809	5151.021667	1686.132813	100.738029
-15681.646809	5151.021667	1685.109375	-269.271790
-15681.646809	5151.021667	1684.085938	28.728756
-15681.646809	5151.021667	1683.062500	95.433304
-15681.646809	5151.021667	1682.039063	-31.673441
-15681.646809	5151.021667	1681.014648	-95.750343
-15681.646809	5151.021667	1679.990234	204.196030
-15681.646809	5151.021667	1678.965820	-6.945292
-15681.646809	5151.021667	1677.941406	-131.724777
-15681.646809	5151.021667	1676.916992	98.002457
-15681.646809	5151.021667	1675.891602	152.727829
-15681.646809	5151.021667	1674.866211	167.773071
-15681.646809	5151.021667	1673.840820	152.484222
-15681.646809	5151.021667	1672.815430	416.818695
-15681.646809	5151.021667	1671.790039	170.772934
-15681.646809	5151.021667	1670.763672	17.965223
-15681.646809	5151.021667	1669.737305	18.906889
-15681.646809	5151.021667	1668.710938	1.194002
-15681.646809	5151.021667	1667.684570	409.508575
-15681.646809	5151.021667	1666.658203	529.009216
-15681.646809	5151.021667	1665.630859	54.987988
-15681.646809	5151.021667	1664.603516	220.991440
-15681.646809	5151.021667	1663.576172	198.473114
-15681.646809	5151.021667	1662.548828	124.769348
-15681.646809	5151.021667	1661.520508	495.222931
-15681.646809	5151.021667	1660.493164	379.594818
-15681.646809	5151.021667	1659.464844	122.187340
-15681.646809	5151.021667	1658.436523	90.293320
-15681.646809	5151.021667	1657.408203	293.075287
-15681.646809	5151.021667	1656.378906	398.178711
-15681.646809	5151.021667	1655.350586	291.856903
-15681.646809	5151.021667	1654.321289	157.683578
-15681.646809	5151.021667	1653.291992	494.873505
-15681.646809	5151.021667	1652.261719	307.273254
-15681.646809	5151.021667	1651.232422	242.743774
-15681.646809	5151.021667	1650.202148	266.391785
-15681.646809	5151.021667	1649.171875	568.416565
-15681.646809	5151.021667	1648.141602	536.287354
-15681.646809	5151.021667	1647.111328	845.065186
-15681.646809	5151.021667	1646.080078	546.203918
-15681.646809	5151.021667	1645.049805	704.142822
-15681.646809	5151.021667	1644.018555	695.115479
-15681.646809	5151.021667	1642.987305	616.555664
-15681.646809	5151.021667	1641.955078	544.956360
-15681.646809	5151.021667	1640.923828	466.426727
-15681.646809	5151.021667	1639.891602	702.883972
-15681.646809	5151.021667	1638.859375	763.252075
-15681.646809	5151.021667	1637.827148	805.064758
-15681.646809	5151.021667	1636.794922	645.472961
-15681.646809	5151.021667	1635.761719	846.940247
-15681.646809	5151.021667	1634.729492	796.126892
-15681.646809	5151.021667	1633.696289	439.957703
-15681.646809	5151.021667	1632.662109	706.065979
-15681.646809	5151.021667	1631.628906	858.762329
-15681.646809	5151.021667	1630.594727	743.194214
-15681.646809	5151.021667	1629.561523	759.428162
-15681.646809	5151.021667	1628.527344	738.660522
-15681.646809	5151.021667	1627.493164	627.780151
-15681.646809	5151.021667	1626.458008	840.352356
-15681.646809	5151.021667	1625.423828	720.242493
-15681.646809	5151.021667	1624.388672	868.041382
-15681.646809	5151.021667	1623.353516	706.393860
-15681.646809	5151.021667	1622.318359	724.859131
-15681.646809	5151.021667	1621.282227	683.299316
-15681.646809	5151.021667	1620.247070	927.884399
-15681.646809	5151.021667	1619.210938	727.109558
-15681.646809	5151.021667	1618.174805	754.760315
-15681.646809	5151.021667	1617.137695	807.759399
-15681.646809	5151.021667	1616.101563	793.878357
-15681.646809	5151.021667	1615.064453	899.864380
-15681.646809	5151.021667	1614.027344	701.581055
-15681.646809	5151.021667	1612.990234	874.370789
-15681.646809	5151.021667	1611.953125	874.302551
-15681.646809	5151.021667	1610.916016	982.498047
-15681.646809	5151.021667	1609.877930	1226.520630
-15681.646809	5151.021667	1608.839844	1180.331543
-15681.646809	5151.021667	1607.801758	1164.091553
-15681.646809	5151.021667	1606.763672	1244.531738
-15681.646809	5151.021667	1605.724609	1189.164795
-15681.646809	5151.021667	1604.685547	1166.037964
-15681.646809	5151.021667	1603.646484	1458.063843
-15681.646809	5151.021667	1602.607422	1444.102417
-15681.646809	5151.021667	1601.568359	1161.125122
-15681.646809	5151.021667	1600.528320	1179.421997
-15681.646809	5151.021667	1599.489258	1167.844360
-15681.646809	5151.021667	1598.449219	1158.571533
-15681.646809	5151.021667	1597.408203	1119.436035
-15681.646809	5151.021667	1596.368164	995.338196
-15681.646809	5151.021667	1595.327148	1107.853638
-15681.646809	5151.021667	1594.287109	1091.753662
-15681.646809	5151.021667	1593.246094	1089.438232
-15681.646809	5151.021667	1592.204102	997.611145
-15681.646809	5151.021667	1591.163086	956.328735
-15681.646809	5151.021667	1590.121094	919.657104
-15681.646809	5151.021667	1589.079102	749.963562
-15681.646809	5151.021667	1588.037109	1009.246826
-15681.646809	5151.021667	1586.995117	1009.322021
-15681.646809	5151.021667	1585.953125	748.051147
-15681.646809	5151.021667	1584.910156	970.550598
-15681.646809	5151.021667	1583.867188	1005.054932
-15681.646809	5151.021667	1582.824219	943.330322
-15681.646809	5151.021667	1581.781250	980.156860
-15681.646809	5151.021667	1580.737305	1195.633423
-15681.646809	5151.021667	1579.693359	937.023865
-15681.646809	5151.021667	1578.649414	1166.203613
-15681.646809	5151.021667	1577.605469	786.421631
-15681.646809	5151.021667	1576.561523	827.920532
-15681.646809	5151.021667	1575.516602	1061.625732
-15681.646809	5151.021667	1574.472656	860.600830
-15681.646809	5151.021667	1573.427734	929.572632
-15681.646809	5151.021667	1572.381836	1023.690308
-15681.646809	5151.021667	1571.336914	621.659912
-15681.646809	5151.021667	1570.291016	939.876343
-15681.646809	5151.021667	1569.246094	643.205750
-15681.646809	5151.021667	1568.200195	689.429932
-15681.646809	5151.021667	1567.153320	934.418823
-15681.646809	5151.021667	1566.107422	864.133911
-15681.646809	5151.021667	1565.060547	967.462769
-15681.646809	5151.021667	1564.013672	767.108093
-15681.646809	5151.021667	1562.966797	888.740601
-15681.646809	5151.021667	1561.919922	903.085388
-15681.646809	5151.021667	1560.872070	1049.802734
-15681.646809	5151.021667	1559.825195	943.261841
-15681.646809	5151.021667	1558.777344	850.475769
-15681.646809	5151.021667	1557.729492	819.336365
-15681.646809	5151.021667	1556.680664	754.037231
-15681.646809	5151.021667	1555.632813	750.359497
-15681.646809	5151.021667	1554.583984	810.529236
-15681.646809	5151.021667	1553.535156	704.366028
-15681.646809	5151.021667	1552.486328	523.097168
-15681.646809	5151.021667	1551.436523	688.168213
-15681.646809	5151.021667	1550.387695	614.092407
-15681.646809	5151.021667	1549.337891	890.734802
-15681.646809	5151.021667	1548.288086	798.512573
-15681.646809	5151.021667	1547.238281	674.504517
-15681.646809	5151.021667	1546.187500	964.744202
-15681.646809	5151.021667	1545.136719	834.006104
-15681.646809	5151.021667	1544.086914	823.931580
-15681.646809	5151.021667	1543.035156	563.722168
-15681.646809	5151.021667	1541.984375	849.386597
-15681.646809	5151.021667	1540.933594	871.273071
-15681.646809	5151.021667	1539.881836	779.544495
-15681.646809	5151.021667	1538.830078	803.797241
-15681.646809	5151.021667	1537.778320	764.471313
-15681.646809	5151.021667	1536.725586	754.733765
-15681.646809	5151.021667	1535.673828	690.549500
-15681.646809	5151.021667	1534.621094	730.888550
-15681.646809	5151.021667	1533.568359	775.802063
-15681.646809	5151.021667	1532.515625	666.403931
-15681.646809	5151.021667	1531.461914	597.943420
-15681.646809	5151.021667	1530.409180	488.728729
-15681.646809	5151.021667	1529.355469	715.337769
-15681.646809	5151.021667	1528.301758	892.016785
-15681.646809	5151.021667	1527.247070	676.386169
-15681.646809	5151.021667	1526.193359	549.320313
-15681.646809	5151.021667	1525.138672	340.754791
-15681.646809	5151.021667	1524.083984	374.814575
-15681.646809	5151.021667	1523.029297	429.312775
-15681.646809	5151.021667	1521.974609	443.070343
-15681.646809	5151.021667	1520.918945	210.006882
-15681.646809	5151.021667	1519.863281	219.387726
-15681.646809	5151.021667	1518.807617	355.609924
-15681.646809	5151.021667	1517.751953	134.201477
-15681.646809	5151.021667	1516.696289	243.352402
-15681.646809	5151.021667	1515.639648	78.738518
-15681.646809	5151.021667	1514.583008	97.490021
-15681.646809	5151.021667	1513.526367	123.084068
-15681.646809	5151.021667	1512.469727	-100.009995
-15681.646809	5151.021667	1511.412109	124.692467
-15681.646809	5151.021667	1510.355469	-116.264282
-15681.646809	5151.021667	1509.297852	-18.073608
-15681.646809	5151.021667	1508.240234	-265.556885
-15681.646809	5151.021667	1507.181641	-183.057327
-15681.646809	5151.021667	1506.124023	-152.464813
-15681.646809	5151.021667	1505.065430	-374.733917
-15681.646809	5151.021667	1504.006836	-188.199951
-15681.646809	5151.021667	1502.948242	-28.756884
-15681.646809	5151.021667	1501.888672	-140.126556
-15681.646809	5151.021667	1500.830078	-113.740524
-15681.646809	5151.021667	1499.770508	-188.810532
-15681.646809	5151.021667	1498.710938	-175.816757
-15681.646809	5151.021667	1497.650391	-74.810875
-15681.646809	5151.021667	1496.590820	-23.369534
-15681.646809	5151.021667	1495.530273	95.745285
-15681.646809	5151.021667	1494.469727	39.101913
-15681.646809	5151.021667	1493.409180	-107.572563
-15681.646809	5151.021667	1492.348633	4.956748
-15681.646809	5151.021667	1491.287109	-60.418045
-15681.646809	5151.021667	1490.225586	106.253906
-15681.646809	5151.021667	1489.164063	88.318802
-15681.646809	5151.021667	1488.102539	-10.564653
-15681.646809	5151.021667	1487.041016	-75.573708
-15681.646809	5151.021667	1485.978516	-255.233871
-15681.646809	5151.021667	1484.916016	-268.190399
-15681.646809	5151.021667	1483.853516	281.082581
-15681.646809	5151.021667	1482.791016	126.444939
-15681.646809	5151.021667	1481.727539	417.107727
-15681.646809	5151.021667	1480.664063	363.804352
-15681.646809	5151.021667	1479.600586	0.529323
-15681.646809	5151.021667	1478.537109	235.148376
-15681.646809	5151.021667	1477.473633	373.118988
-15681.646809	5151.021667	1476.409180	322.453369
-15681.646809	5151.021667	1475.344727	191.169647
-15681.646809	5151.021667	1474.280273	369.682281
-15681.646809	5151.021667	1473.215820	263.325684
-15681.646809	5151.021667	1472.151367	275.983063
-15681.646809	5151.021667	1471.085938	467.909271
-15681.646809	5151.021667	1470.020508	-14.641737
-15681.646809	5151.021667	1468.955078	16.078472
-15681.646809	5151.021667	1467.888672	347.571045
-15681.646809	5151.021667	1466.823242	134.020508
-15681.646809	5151.021667	1465.756836	-60.995026
-15681.646809	5151.021667	1464.690430	84.838539
-15681.646809	5151.021667	1463.624023	102.459061
-15681.646809	5151.021667	1462.556641	178.491119
-15681.646809	5151.021667	1461.490234	84.868362
-15681.646809	5151.021667	1460.422852	-15.800973
-15681.646809	5151.021667	1459.355469	125.992050
-15681.646809	5151.021667	1458.287109	200.358658
-15681.646809	5151.021667	1457.219727	282.876312
-15681.646809	5151.021667	1456.151367	-5.023802
-15681.646809	5151.021667	1455.083008	54.237175
-15681.646809	5151.021667	1454.014648	-14.022078
-15681.646809	5151.021667	1452.945313	268.435059
-15681.646809	5151.021667	1451.876953	233.269135
-15681.646809	5151.021667	1450.807617	291.671936
-15681.646809	5151.021667	1449.738281	399.018738
-15681.646809	5151.021667	1448.668945	360.317627
-15681.646809	5151.021667	1447.598633	244.930618
-15681.646809	5151.021667	1446.528320	162.537430
-15681.646809	5151.021667	1445.458008	349.765259
-15681.646809	5151.021667	1444.387695	356.889740
-15681.646809	5151.021667	1443.317383	482.211914
-15681.646809	5151.021667	1442.246094	320.768005
-15681.646809	5151.021667	1441.174805	155.700180
-15681.646809	5151.021667	1440.103516	428.143372
-15681.646809	5151.021667	1439.032227	470.152496
-15681.646809	5151.021667	1437.960938	263.921112
-15681.646809	5151.021667	1436.888672	246.882385
-15681.646809	5151.021667	1435.816406	147.451385
-15681.646809	5151.021667	1434.744141	147.561874
-15681.646809	5151.021667	1433.670898	-128.995300
-15681.646809	5151.021667	1432.598633	190.886292
-15681.646809	5151.021667	1431.525391	500.891724
-15681.646809	5151.021667	1430.452148	261.429749
-15681.646809	5151.021667	1429.378906	44.084457
-15681.646809	5151.021667	1428.304688	71.250633
-15681.646809	5151.021667	1427.231445	115.035706
-15681.646809	5151.021667	1426.157227	171.938141
-15681.646809	5151.021667	1425.083008	155.545868
-15681.646809	5151.021667	1424.007813	48.093807
-15681.646809	5151.021667	1422.933594	-20.592611
-15681.646809	5151.021667	1421.858398	67.790482
-15681.646809	5151.021667	1420.783203	192.791519
-15681.646809	5151.021667	1419.708008	56.238689
-15681.646809	5151.021667	1418.631836	47.105679
-15681.646809	5151.021667	1417.555664	61.005058
-15681.646809	5151.021667	1416.479492	125.198608
-15681.646809	5151.021667	1415.403320	368.998871
-15681.646809	5151.021667	1414.327148	154.054291
-15681.646809	5151.021667	1413.250000	345.094879
-15681.646809	5151.021667	1412.173828	124.699890
-15681.646809	5151.021667	1411.096680	457.009033
-15681.646809	5151.021667	1410.018555	92.397552
-15681.646809	5151.021667	1408.941406	-51.016735
-15681.646809	5151.021667	1407.863281	144.681747
-15681.646809	5151.021667	1406.785156	385.848694
-15681.646809	5151.021667	1405.707031	218.327835
-15681.646809	5151.021667	1404.628906	236.554688
-15681.646809	5151.021667	1403.549805	130.263885
-15681.646809	5151.021667	1402.470703	161.982590
-15681.646809	5151.021667	1401.391602	2.339668
-15681.646809	5151.021667	1400.312500	-100.475510
-15681.646809	5151.021667	1399.233398	-44.966927
-15681.646809	5151.021667	1398.153320	-25.645613
-15681.646809	5151.021667	1397.073242	-237.182159
-15681.646809	5151.021667	1395.993164	11.878396
-15681.646809	5151.021667	1394.913086	62.299629
-15681.646809	5151.021667	1393.832031	33.910686
-15681.646809	5151.021667	1392.750977	-191.935989
-15681.646809	5151.021667	1391.669922	-127.148758
-15681.646809	5151.021667	1390.588867	-82.251167
-15681.646809	5151.021667	1389.506836	-198.564148
-15681.646809	5151.021667	1388.425781	-68.639595
-15681.646809	5151.021667	1387.343750	-72.099571
-15681.646809	5151.021667	1386.261719	109.054245
-15681.646809	5151.021667	1385.178711	80.141907
-15681.646809	5151.021667	1384.096680	61.321671
-15681.646809	5151.021667	1383.013672	-35.732891
-15681.646809	5151.021667	1381.930664	-56.957458
-15681.646809	5151.021667	1380.846680	21.929293
-15681.646809	5151.021667	1379.763672	96.186424
-15681.646809	5151.021667	1378.679688	35.972572
-15681.646809	5151.021667	1377.595703	57.310650
-15681.646809	5151.021667	1376.511719	170.925018
-15681.646809	5151.021667	1375.427734	196.842773
-15681.646809	5151.021667	1374.342773	354.505890
-15681.646809	5151.021667	1373.257813	39.860695
-15681.646809	5151.021667	1372.172852	335.959656
-15681.646809	5151.021667	1371.087891	27.993910
-15681.646809	5151.021667	1370.001953	61.481907
-15681.646809	5151.021667	1368.916992	254.799973
-15681.646809	5151.021667	1367.831055	82.997131
-15681.646809	5151.021667	1366.744141	293.335052
-15681.646809	5151.021667	1365.658203	88.609421
-15681.646809	5151.021667	1364.571289	189.861954
-15681.646809	5151.021667	1363.484375	171.415085
-15681.646809	5151.021667	1362.397461	145.838776
-15681.646809	5151.021667	1361.310547	255.013519
-15681.646809	5151.021667	1360.222656	5.903826
-15681.646809	5151.021667	1359.135742	242.204666
-15681.646809	5151.021667	1358.047852	156.863068
-15681.646809	5151.021667	1356.958984	395.068359
-15681.646809	5151.021667	1355.871094	296.225891
-15681.646809	5151.021667	1354.782227	348.115234
-15681.646809	5151.021667	1353.693359	323.524750
-15681.646809	5151.021667	1352.604492	205.774323
-15681.646809	5151.021667	1351.515625	331.711182
-15681.646809	5151.021667	1350.425781	199.114990
-15681.646809	5151.021667	1349.335938	299.336243
-15681.646809	5151.021667	1348.246094	434.046387
-15681.646809	5151.021667	1347.156250	152.657013
-15681.646809	5151.021667	1346.066406	242.398193
-15681.646809	5151.021667	1344.975586	103.124146
-15681.646809	5151.021667	1343.884766	194.772812
-15681.646809	5151.021667	1342.793945	191.583939
-15681.646809	5151.021667	1341.702148	27.966673
-15681.646809	5151.021667	1340.611328	111.040771
-15681.646809	5151.021667	1339.519531	-16.357336
-15681.646809	5151.021667	1338.427734	168.752823
-15681.646809	5151.021667	1337.334961	75.599052
-15681.646809	5151.021667	1336.243164	49.911747
-15681.646809	5151.021667	1335.150391	251.912735
-15681.646809	5151.021667	1334.057617	298.431732
-15681.646809	5151.021667	1332.964844	409.679138
-15681.646809	5151.021667	1331.871094	465.701447
-15681.646809	5151.021667	1330.778320	253.980225
-15681.646809	5151.021667	1329.684570	451.687225
-15681.646809	5151.021667	1328.590820	238.071701
-15681.646809	5151.021667	1327.496094	294.922607
-15681.646809	5151.021667	1326.402344	299.025574
-15681.646809	5151.021667	1325.307617	186.058777
-15681.646809	5151.021667	1324.212891	438.753540
-15681.646809	5151.021667	1323.117188	388.233093
-15681.646809	5151.021667	1322.022461	21.559807
-15681.646809	5151.021667	1320.926758	-144.837601
-15681.646809	5151.021667	1319.831055	-112.657806
-15681.646809	5151.021667	1318.735352	126.918884
-15681.646809	5151.021667	1317.638672	-24.519148
-15681.646809	5151.021667	1316.542969	-48.951309
-15681.646809	5151.021667	1315.446289	-368.153259
-15681.646809	5151.021667	1314.349609	-301.197113
-15681.646809	5151.021667	1313.251953	-41.568428
-15681.646809	5151.021667	1312.155273	70.668816
-15681.646809	5151.021667	1311.057617	-135.168732
-15681.646809	5151.021667	1309.959961	-245.592911
-15681.646809	5151.021667	1308.862305	-305.346588
-15681.646809	5151.021667	1307.763672	-248.655319
-15681.646809	5151.021667	1306.665039	-323.126862
-15681.646809	5151.021667	1305.566406	-295.812653
-15681.646809	5151.021667	1304.467773	169.706467
-15681.646809	5151.021667	1303.369141	-110.140518
-15681.646809	5151.021667	1302.269531	-34.235085
-15681.646809	5151.021667	1301.169922	-287.181458
-15681.646809	5151.021667	1300.070313	-175.392441
-15681.646809	5151.021667	1298.970703	-25.495741
-15681.646809	5151.021667	1297.870117	-104.810143
-15681.646809	5151.021667	1296.769531	32.575523
-15681.646809	5151.021667	1295.668945	83.693710
-15681.646809	5151.021667	1294.568359	12.227262
-15681.646809	5151.021667	1293.466797	22.472837
-15681.646809	5151.021667	1292.366211	129.914963
-15681.646809	5151.021667	1291.264648	109.393875
-15681.646809	5151.021667	1290.162109	49.641380
-15681.646809	5151.021667	1289.060547	149.317444
-15681.646809	5151.021667	1287.958008	225.243073
-15681.646809	5151.021667	1286.855469	209.680435
-15681.646809	5151.021667	1285.752930	232.218597
-15681.646809	5151.021667	1284.650391	201.198578
-15681.646809	5151.021667	1283.546875	368.517059
-15681.646809	5151.021667	1282.444336	291.862640
-15681.646809	5151.021667	1281.339844	268.435028
-15681.646809	5151.021667	1280.236328	315.890350
-15681.646809	5151.021667	1279.132813	310.695679
-15681.646809	5151.021667	1278.028320	336.208862
-15681.646809	5151.021667	1276.923828	386.673981
-15681.646809	5151.021667	1275.819336	-1.456615
-15681.646809	5151.021667	1274.713867	78.725822
-15681.646809	5151.021667	1273.608398	271.238708
-15681.646809	5151.021667	1272.503906	-126.111710
-15681.646809	5151.021667	1271.397461	88.100067
-15681.646809	5151.021667	1270.291992	204.493774
-15681.646809	5151.021667	1269.185547	-34.813129
-15681.646809	5151.021667	1268.080078	128.692947
-15681.646809	5151.021667	1266.972656	224.730881
-15681.646809	5151.021667	1265.866211	20.466833
-15681.646809	5151.021667	1264.759766	53.788280
-15681.646809	5151.021667	1263.652344	-25.583138
-15681.646809	5151.021667	1262.544922	82.711342
-15681.646809	5151.021667	1261.436523	4.178578
-15681.646809	5151.021667	1260.329102	193.960510
-15681.646809	5151.021667	1259.220703	18.071749
-15681.646809	5151.021667	1258.112305	113.427536
-15681.646809	5151.021667	1257.003906	37.515285
-15681.646809	5151.021667	1255.895508	145.839996
-15681.646809	5151.021667	1254.786133	188.865723
-15681.646809	5151.021667	1253.676758	-148.684784
-15681.646809	5151.021667	1252.567383	-93.157150
-15681.646809	5151.021667	1251.458008	-268.353027
-15681.646809	5151.021667	1250.347656	-132.736908
-15681.646809	5151.021667	1249.237305	-110.367500
-15681.646809	5151.021667	1248.126953	122.772896
-15681.646809	5151.021667	1247.016602	-19.363464
-15681.646809	5151.021667	1245.905273	165.985535
-15681.646809	5151.021667	1244.793945	3.187894
-15681.646809	5151.021667	1243.682617	177.262253
-15681.646809	5151.021667	1242.571289	230.504623
-15681.646809	5151.021667	1241.459961	-3.820280
-15681.646809	5151.021667	1240.347656	32.225578
-15681.646809	5151.021667	1239.235352	17.118465
-15681.646809	5151.021667	1238.123047	-94.428635
-15681.646809	5151.021667	1237.009766	104.094612
-15681.646809	5151.021667	1235.897461	3.526221
-15681.646809	5151.021667	1234.784180	16.713945
-15681.646809	5151.021667	1233.670898	-23.409010
-15681.646809	5151.021667	1232.556641	13.095489
-15681.646809	5151.021667	1231.443359	-184.835068
-15681.646809	5151.021667	1230.329102	-42.973885
-15681.646809	5151.021667	1229.214844	61.555523
-15681.646809	5151.021667	1228.099609	-85.796928
-15681.646809	5151.021667	1226.985352	-71.787209
-15681.646809	5151.021667	1225.870117	83.134811
-15681.646809	5151.021667	1224.754883	-24.585091
-15681.646809	5151.021667	1223.639648	118.657684
-15681.646809	5151.021667	1222.523438	-122.756248
-15681.646809	5151.021667	1221.408203	-37.925720
-15681.646809	5151.021667	1220.291992	-12.764378
-15681.646809	5151.021667	1219.174805	-32.088501
-15681.646809	5151.021667	1218.058594	10.397557
-15681.646809	5151.021667	1216.941406	-22.079174
-15681.646809	5151.021667	1215.824219	119.277618
-15681.646809	5151.021667	1214.707031	-31.874737
-15681.646809	5151.021667	1213.589844	-24.193348
-15681.646809	5151.021667	1212.471680	90.253235
-15681.646809	5151.021667	1211.353516	60.536720
-15681.646809	5151.021667	1210.235352	-18.283215
-15681.646809	5151.021667	1209.117188	28.802340
-15681.646809	5151.021667	1207.998047	-26.505623
-15681.646809	5151.021667	1206.878906	149.121445
-15681.646809	5151.021667	1205.759766	13.276419
-15681.646809	5151.021667	1204.640625	30.697731
-15681.646809	5151.021667	1203.520508	-66.103088
-15681.646809	5151.021667	1202.401367	7.842479
-15681.646809	5151.021667	1201.281250	4.550549
-15681.646809	5151.021667	1200.160156	-21.507080
-15681.646809	5151.021667	1199.040039	42.357883
-15681.646809	5151.021667	1197.918945	-75.478127
-15681.646809	5151.021667	1196.797852	-46.395500
-15681.646809	5151.021667	1195.676758	8.611778
-15681.646809	5151.021667	1194.555664	-47.602619
-15681.646809	5151.021667	1193.433594	42.382950
-15681.646809	5151.021667	1192.311523	-187.718094
-15681.646809	5151.021667	1191.189453	-67.158516
-15681.646809	5151.021667	1190.066406	-17.206154
-15681.646809	5151.021667	1188.944336	-63.462532
-15681.646809	5151.021667	1187.821289	-241.120728
-15681.646809	5151.021667	1186.698242	-213.802185
-15681.646809	5151.021667	1185.574219	-196.673248
-15681.646809	5151.021667	1184.451172	-131.882172
-15681.646809	5151.021667	1183.327148	-187.968811
-15681.646809	5151.021667	1182.203125	-89.657097
-15681.646809	5151.021667	1181.078125	-156.531372
-15681.646809	5151.021667	1179.954102	-88.614731
-15681.646809	5151.021667	1178.829102	28.858492
-15681.646809	5151.021667	1177.704102	-231.666595
-15681.646809	5151.021667	1176.579102	-290.667297
-15681.646809	5151.021667	1175.453125	168.879379
-15681.646809	5151.021667	1174.327148	-36.379234
-15681.646809	5151.021667	1173.201172	-91.154808
-15681.646809	5151.021667	1172.075195	31.482582
-15681.646809	5151.021667	1170.949219	57.966782
-15681.646809	5151.021667	1169.822266	92.732803
-15681.646809	5151.021667	1168.695313	229.126373
-15681.646809	5151.021667	1167.568359	187.243454
-15681.646809	5151.021667	1166.440430	-24.910700
-15681.646809	5151.021667	1165.313477	90.741096
-15681.646809	5151.021667	1164.185547	-31.072163
-15681.646809	5151.021667	1163.057617	120.102821
-15681.646809	5151.021667	1161.928711	41.292698
-15681.646809	5151.021667	1160.800781	-21.112604
-15681.646809	5151.021667	1159.671875	79.004372
-15681.646809	5151.021667	1158.541992	10.008108
-15681.646809	5151.021667	1157.413086	-216.961288
-15681.646809	5151.021667	1156.283203	-91.827515
-15681.646809	5151.021667	1155.154297	-179.497208
-15681.646809	5151.021667	1154.023438	-26.644424
-15681.646809	5151.021667	1152.893555	-126.309265
-15681.646809	5151.021667	1151.763672	-90.999374
-15681.646809	5151.021667	1150.632813	-118.936409
-15681.646809	5151.021667	1149.501953	-16.138306
-15681.646809	5151.021667	1148.370117	-5.195908
-15681.646809	5151.021667	1147.239258	195.616531
-15681.646809	5151.021667	1146.107422	75.194077
-15681.646809	5151.021667	1144.975586	11.803128
-15681.646809	5151.021667	1143.843750	65.174568
-15681.646809	5151.021667	1142.710938	-56.001366
-15681.646809	5151.021667	1141.578125	106.157112
-15681.646809	5151.021667	1140.445313	169.123077
-15681.646809	5151.021667	1139.312500	38.971191
-15681.646809	5151.021667	1138.178711	9.393505
-15681.646809	5151.021667	1137.045898	204.274734
-15681.646809	5151.021667	1135.912109	44.629433
-15681.646809	5151.021667	1134.777344	38.756737
-15681.646809	5151.021667	1133.643555	207.357086
-15681.646809	5151.021667	1132.508789	72.527771
-15681.646809	5151.021667	1131.374023	154.823868
-15681.646809	5151.021667	1130.239258	169.261505
-15681.646809	5151.021667	1129.104492	100.266945
-15681.646809	5151.021667	1127.968750	198.250702
-15681.646809	5151.021667	1126.833008	69.917442
-15681.646809	5151.021667	1125.697266	207.646622
-15681.646809	5151.021667	1124.560547	442.495087
-15681.646809	5151.021667	1123.424805	352.310608
-15681.646809	5151.021667	1122.288086	345.138062
-15681.646809	5151.021667	1121.151367	385.638397
-15681.646809	5151.021667	1120.013672	470.099792
-15681.646809	5151.021667	1118.876953	479.167297
-15681.646809	5151.021667	1117.739258	475.127594
-15681.646809	5151.021667	1116.601563	296.537415
-15681.646809	5151.021667	1115.462891	506.786316
-15681.646809	5151.021667	1114.324219	462.769073
-15681.646809	5151.021667	1113.186523	132.919662
-15681.646809	5151.021667	1112.046875	254.596741
-15681.646809	5151.021667	1110.908203	205.046417
-15681.646809	5151.021667	1109.769531	279.686554
-15681.646809	5151.021667	1108.629883	343.696503
-15681.646809	5151.021667	1107.490234	-32.408562
-15681.646809	5151.021667	1106.349609	137.939346
-15681.646809	5151.021667	1105.209961	-10.775562
-15681.646809	5151.021667	1104.069336	-27.696407
-15681.646809	5151.021667	1102.928711	134.227402
-15681.646809	5151.021667	1101.787109	122.037292
-15681.646809	5151.021667	1100.646484	158.189606
-15681.646809	5151.021667	1099.504883	155.961746
-15681.646809	5151.021667	1098.363281	45.535412
-15681.646809	5151.021667	1097.221680	305.717987
-15681.646809	5151.021667	1096.079102	334.869965
-15681.646809	5151.021667	1094.936523	207.489700
-15681.646809	5151.021667	1093.793945	321.949005
-15681.646809	5151.021667	1092.651367	258.317047
-15681.646809	5151.021667	1091.507813	218.131882
-15681.646809	5151.021667	1090.364258	69.193825
-15681.646809	5151.021667	1089.220703	170.609146
-15681.646809	5151.021667	1088.077148	453.276123
-15681.646809	5151.021667	1086.933594	182.352798
-15681.646809	5151.021667	1085.789063	169.515717
-15681.646809	5151.021667	1084.644531	222.186569
-15681.646809	5151.021667	1083.499023	193.837692
-15681.646809	5151.021667	1082.354492	305.397064
-15681.646809	5151.021667	1081.208984	207.187332
-15681.646809	5151.021667	1080.063477	84.181282
-15681.646809	5151.021667	1078.917969	299.770416
-15681.646809	5151.021667	1077.771484	68.770592
-15681.646809	5151.021667	1076.625977	38.791996
-15681.646809	5151.021667	1075.479492	500.921448
-15681.646809	5151.021667	1074.332031	408.043518
-15681.646809	5151.021667	1073.185547	188.068573
-15681.646809	5151.021667	1072.038086	137.556732
-15681.646809	5151.021667	1070.890625	244.700027
-15681.646809	5151.021667	1069.743164	251.852951
-15681.646809	5151.021667	1068.594727	550.678650
-15681.646809	5151.021667	1067.447266	531.255981
-15681.646809	5151.021667	1066.298828	439.740417
-15681.646809	5151.021667	1065.149414	686.879761
-15681.646809	5151.021667	1064.000977	663.838318
-15681.646809	5151.021667	1062.851563	651.547485
-15681.646809	5151.021667	1061.702148	481.207581
-15681.646809	5151.021667	1060.552734	394.394867
-15681.646809	5151.021667	1059.402344	357.187134
-15681.646809	5151.021667	1058.252930	417.972931
-15681.646809	5151.021667	1057.102539	341.329559
-15681.646809	5151.021667	1055.951172	436.827301
-15681.646809	5151.021667	1054.800781	360.224152
-15681.646809	5151.021667	1053.649414	282.137207
-15681.646809	5151.021667	1052.498047	423.240997
-15681.646809	5151.021667	1051.346680	241.621552
-15681.646809	5151.021667	1050.194336	224.737198
-15681.646809	5151.021667	1049.042969	151.440262
-15681.646809	5151.021667	1047.890625	157.685257
-15681.646809	5151.021667	1046.738281	-42.983875
-15681.646809	5151.021667	1045.584961	-139.449829
-15681.646809	5151.021667	1044.431641	-47.143120
-15681.646809	5151.021667	1043.278320	440.185455
-15681.646809	5151.021667	1042.125000	221.125000
-15681.646809	5151.021667	1040.971680	250.728424
-15681.646809	5151.021667	1039.817383	70.685059
-15681.646809	5151.021667	1038.663086	41.571552
-15681.646809	5151.021667	1037.508789	259.657654
-15681.646809	5151.021667	1036.353516	398.274200
-15681.646809	5151.021667	1035.198242	221.642502
-15681.646809	5151.021667	1034.042969	67.537247
-15681.646809	5151.021667	1032.887695	311.579803
-15681.646809	5151.021667	1031.732422	287.863220
-15681.646809	5151.021667	1030.576172	106.717094
-15681.646809	5151.021667	1029.419922	266.945099
-15681.646809	5151.021667	1028.263672	86.051483
-15681.646809	5151.021667	1027.106445	268.567841
-15681.646809	5151.021667	1025.949219	192.705246
-15681.646809	5151.021667	1024.792969	216.840073
-15681.646809	5151.021667	1023.634766	-38.374176
-15681.646809	5151.021667	1022.477539	263.275879
-15681.646809	5151.021667	1021.319336	27.210264
-15681.646809	5151.021667	1020.161133	105.523178
-15681.646809	5151.021667	1019.002930	-16.228369
-15681.646809	5151.021667	1017.843750	-87.622482
-15681.646809	5151.021667	1016.684570	-11.801115
-15681.646809	5151.021667	1015.525391	31.293739
-15681.646809	5151.021667	1014.366211	-0.183229
-15681.646809	5151.021667	1013.207031	-115.672050
-15681.646809	5151.021667	1012.046875	-17.250059
-15681.646809	5151.021667	1010.886719	57.637371
-15681.646809	5151.021667	1009.726563	128.491623
-15681.646809	5151.021667	1008.565430	221.246017
-15681.646809	5151.021667	1007.404297	86.472878
-15681.646809	5151.021667	1006.243164	152.176575
-15681.646809	5151.021667	1005.082031	-152.577026
-15681.646809	5151.021667	1003.920898	110.462540
-15681.646809	5151.021667	1002.758789	159.555511
-15681.646809	5151.021667	1001.596680	266.665131
-15681.646809	5151.021667	1000.433594	169.666824
-15681.646809	5151.021667	999.271484	-90.254303
-15681.646809	5151.021667	998.108398	45.671608
-15681.646809	5151.021667	996.945313	81.164841
-15681.646809	5151.021667	995.782227	417.816711
-15681.646809	5151.021667	994.618164	175.223145
-15681.646809	5151.021667	993.454102	279.406311
-15681.646809	5151.021667	992.290039	201.665588
-15681.646809	5151.021667	991.125977	267.087402
-15681.646809	5151.021667	989.960938	195.224564
-15681.646809	5151.021667	988.796875	113.160484
-15681.646809	5151.021667	987.630859	418.335663
-15681.646809	5151.021667	986.465820	160.500137
-15681.646809	5151.021667	985.300781	262.628540
-15681.646809	5151.021667	984.134766	200.636856
-15681.646809	5151.021667	982.968750	63.578892
-15681.646809	5151.021667	981.801758	326.774811
-15681.646809	5151.021667	980.635742	1.865229
-15681.646809	5151.021667	979.468750	125.707657
-15681.646809	5151.021667	978.301758	48.427395
-15681.646809	5151.021667	977.133789	-83.750244
-15681.646809	5151.021667	975.966797	402.523651
-15681.646809	5151.021667	974.798828	89.580940
-15681.646809	5151.021667	973.630859	61.162312
-15681.646809	5151.021667	972.461914	328.532990
-15681.646809	5151.021667	971.293945	290.167206
-15681.646809	5151.021667	970.125000	218.142624
-15681.646809	5151.021667	968.956055	3.825091
-15681.646809	5151.021667	967.786133	-196.617935
-15681.646809	5151.021667	966.617188	-84.380920
-15681.646809	5151.021667	965.447266	-126.250671
-15681.646809	5151.021667	964.276367	-72.685661
-15681.646809	5151.021667	963.106445	-156.887970
-15681.646809	5151.021667	961.935547	43.247005
-15681.646809	5151.021667	960.764648	71.094147
-15681.646809	5151.021667	959.593750	-29.798084
-15681.646809	5151.021667	958.422852	201.724258
-15681.646809	5151.021667	957.250977	194.534439
-15681.646809	5151.021667	956.079102	36.728146
-15681.646809	5151.021667	954.907227	-98.533836
-15681.646809	5151.021667	953.734375	120.926384
-15681.646809	5151.021667	952.562500	355.205048
-15681.646809	5151.021667	951.389648	63.524525
-15681.646809	5151.021667	950.215820	-30.153732
-15681.646809	5151.021667	949.042969	345.616302
-15681.646809	5151.021667	947.869141	-105.195122
-15681.646809	5151.021667	946.695313	-21.774353
-15681.646809	5151.021667	945.521484	12.646821
-15681.646809	5151.021667	944.346680	21.532249
-15681.646809	5151.021667	943.172852	-46.919876
-15681.646809	5151.021667	941.998047	13.138394
-15681.646809	5151.021667	940.822266	88.259384
-15681.646809	5151.021667	939.647461	-247.475769
-15681.646809	5151.021667	938.471680	-153.678238
-15681.646809	5151.021667	937.295898	-42.598637
-15681.646809	5151.021667	936.119141	42.871284
-15681.646809	5151.021667	934.943359	56.590141
-15681.646809	5151.021667	933.766602	183.381195
-15681.646809	5151.021667	932.589844	68.594490
-15681.646809	5151.021667	931.413086	115.655441
-15681.646809	5151.021667	930.235352	-60.849262
-15681.646809	5151.021667	929.057617	17.002712
-15681.646809	5151.021667	927.879883	187.096756
-15681.646809	5151.021667	926.702148	246.871948
-15681.646809	5151.021667	925.523438	75.671753
-15681.646809	5151.021667	924.344727	-54.428127
-15681.646809	5151.021667	923.166016	128.405930
-15681.646809	5151.021667	921.987305	239.358124
-15681.646809	5151.021667	920.807617	-80.440071
-15681.646809	5151.021667	919.627930	-74.524231
-15681.646809	5151.021667	919.497070	151.628433
-15681.646809	5151.021667	918.331055	-119.421089
-15681.646809	5151.021667	917.165039	22.139463
-15681.646809	5151.021667	915.999023	-48.983288
-15681.646809	5151.021667	914.833008	-45.812214
-15681.646809	5151.021667	913.666016	57.217655
-15681.646809	5151.021667	912.499023	-83.010284
-15681.646809	5151.021667	911.332031	201.700806
-15681.646809	5151.021667	910.165039	-25.520607
-15681.646809	5151.021667	908.997070	-183.570511
-15681.646809	5151.021667	907.830078	39.577129
-15681.646809	5151.021667	906.661133	-190.036316
-15681.646809	5151.021667	905.493164	-133.184570
-15681.646809	5151.021667	904.325195	-71.247017
-15681.646809	5151.021667	903.156250	90.347076
-15681.646809	5151.021667	901.987305	121.548492
-15681.646809	5151.021667	900.818359	-74.651039
-15681.646809	5151.021667	899.648438	137.931503
-15681.646809	5151.021667	898.478516	-142.465988
-15681.646809	5151.021667	897.308594	149.195053
-15681.646809	5151.021667	896.138672	-39.190327
-15681.646809	5151.021667	894.968750	-36.076744
-15681.646809	5151.021667	893.797852	194.147507
-15681.646809	5151.021667	892.626953	-147.199615
-15681.646809	5151.021667	891.456055	167.130402
-15681.646809	5151.021667	890.284180	91.157433
-15681.646809	5151.021667	889.113281	35.611610
-15681.646809	5151.021667	887.941406	99.906288
-15681.646809	5151.021667	886.768555	113.210846
-15681.646809	5151.021667	885.596680	159.634293
-15681.646809	5151.021667	884.423828	58.287212
-15681.646809	5151.021667	883.250977	-9.902141
-15681.646809	5151.021667	882.078125	-65.324966
-15681.646809	5151.021667	880.905273	-87.621498
-15681.646809	5151.021667	879.731445	-2.986725
-15681.646809	5151.021667	878.557617	188.510483
-15681.646809	5151.021667	877.383789	94.954475
-15681.646809	5151.021667	876.209961	37.058517
-15681.646809	5151.021667	875.035156	2.090488
-15681.646809	5151.021667	873.860352	12.916036
-15681.646809	5151.021667	872.685547	33.915382
-15681.646809	5151.021667	871.510742	-123.015633
-15681.646809	5151.021667	870.334961	157.242432
-15681.646809	5151.021667	869.159180	-162.239761
-15681.646809	5151.021667	867.983398	-227.551758
-15681.646809	5151.021667	866.807617	-36.308475
-15681.646809	5151.021667	865.630859	-93.976448
-15681.646809	5151.021667	864.454102	-42.444038
-15681.646809	5151.021667	863.277344	4.000923
-15681.646809	5151.021667	862.100586	68.201469
-15681.646809	5151.021667	860.922852	15.682305
-15681.646809	5151.021667	859.745117	143.298126
-15681.646809	5151.021667	858.567383	45.157585
-15681.646809	5151.021667	857.389648	-75.752800
-15681.646809	5151.021667	856.210938	-242.227661
-15681.646809	5151.021667	855.032227	7.049557
-15681.646809	5151.021667	853.853516	40.841728
-15681.646809	5151.021667	852.674805	87.300400
-15681.646809	5151.021667	851.495117	-119.543884
-15681.646809	5151.021667	850.315430	-45.183250
-15681.646809	5151.021667	849.135742	-64.522820
-15681.646809	5151.021667	847.956055	-63.589806
-15681.646809	5151.021667	846.775391	23.413904
-15681.646809	5151.021667	845.595703	-246.400528
-15681.646809	5151.021667	844.415039	-151.777817
-15681.646809	5151.021667	843.233398	-74.881912
-15681.646809	5151.021667	842.052734	87.973442
-15681.646809	5151.021667	840.871094	-55.148827
-15681.646809	5151.021667	839.689453	-49.057430
-15681.646809	5151.021667	838.506836	-42.948410
-15681.646809	5151.021667	837.325195	-46.940319
-15681.646809	5151.021667	836.142578	-154.488754
-15681.646809	5151.021667	834.959961	-216.514816
-15681.646809	5151.021667	833.777344	-238.097626
-15681.646809	5151.021667	832.593750	-9.706658
-15681.646809	5151.021667	831.410156	-205.458405
-15681.646809	5151.021667	830.226563	-22.565794
-15681.646809	5151.021667	829.042969	-198.021072
-15681.646809	5151.021667	827.858398	52.938686
-15681.646809	5151.021667	826.673828	-44.241570
-15681.646809	5151.021667	825.489258	-317.879303
-15681.646809	5151.021667	824.304688	-150.203171
-15681.646809	5151.021667	823.120117	-186.747437
-15681.646809	5151.021667	821.934570	-49.376160
-15681.646809	5151.021667	820.749023	-0.230432
-15681.646809	5151.021667	819.562500	13.647968
-15681.646809	5151.021667	818.376953	-63.136406
-15681.646809	5151.021667	817.190430	-1.384738
-15681.646809	5151.021667	816.003906	-188.870056
-15681.646809	5151.021667	814.817383	81.810745
-15681.646809	5151.021667	813.629883	-52.740574
-15681.646809	5151.021667	812.442383	-91.621330
-15681.646809	5151.021667	811.254883	45.599861
-15681.646809	5151.021667	810.067383	142.538956
-15681.646809	5151.021667	808.878906	30.767410
-15681.646809	5151.021667	807.690430	82.448570
-15681.646809	5151.021667	806.501953	-69.454987
-15681.646809	5151.021667	805.313477	-73.033417
-15681.646809	5151.021667	804.124023	21.382387
-15681.646809	5151.021667	802.934570	-112.797264
-15681.646809	5151.021667	801.745117	132.277863
-15681.646809	5151.021667	800.555664	65.938438
-15681.646809	5151.021667	799.365234	-218.743118
-15681.646809	5151.021667	798.175781	-199.639328
-15681.646809	5151.021667	796.985352	-32.491768
-15681.646809	5151.021667	795.793945	-269.284241
-15681.646809	5151.021667	794.603516	-124.749649
-15681.646809	5151.021667	793.412109	39.797150
-15681.646809	5151.021667	792.220703	-139.181931
-15681.646809	5151.021667	791.028320	-2.254211
-15681.646809	5151.021667	789.836914	39.388317
-15681.646809	5151.021667	788.644531	-174.535019
-15681.646809	5151.021667	787.452148	12.427848
-15681.646809	5151.021667	786.258789	-16.059002
-15681.646809	5151.021667	785.066406	-177.244278
-15681.646809	5151.021667	783.873047	-57.974102
-15681.646809	5151.021667	782.679688	-43.872658
-15681.646809	5151.021667	781.485352	157.906708
-15681.646809	5151.021667	780.291992	99.407227
-15681.646809	5151.021667	779.097656	183.512192
-15681.646809	5151.021667	777.903320	-7.506114
-15681.646809	5151.021667	776.708008	64.088531
-15681.646809	5151.021667	775.512695	-44.330059
-15681.646809	5151.021667	774.318359	24.733992
-15681.646809	5151.021667	773.122070	-71.138313
-15681.646809	5151.021667	771.926758	-84.540070
-15681.646809	5151.021667	770.730469	79.401146
-15681.646809	5151.021667	769.534180	-28.921381
-15681.646809	5151.021667	768.337891	-2.386295
-15681.646809	5151.021667	767.141602	-23.296087
-15681.646809	5151.021667	765.944336	108.033554
-15681.646809	5151.021667	764.747070	64.644341
-15681.646809	5151.021667	763.549805	138.509125
-15681.646809	5151.021667	762.351563	97.612961
-15681.646809	5151.021667	761.154297	9.339836
-15681.646809	5151.021667	759.956055	382.305115
-15681.646809	5151.021667	758.757813	254.112976
-15681.646809	5151.021667	757.558594	168.328430
-15681.646809	5151.021667	756.359375	35.229523
-15681.646809	5151.021667	755.160156	121.372993
-15681.646809	5151.021667	753.960938	117.810722
-15681.646809	5151.021667	752.761719	241.217621
-15681.646809	5151.021667	751.561523	-66.101181
-15681.646809	5151.021667	750.361328	-32.337387
-15681.646809	5151.021667	749.160156	240.280869
-15681.646809	5151.021667	747.959961	-27.098551
-15681.646809	5151.021667	746.758789	71.251572
-15681.646809	5151.021667	745.557617	-71.678802
-15681.646809	5151.021667	744.356445	78.806656
-15681.646809	5151.021667	743.154297	3.007000
-15681.646809	5151.021667	741.952148	123.546997
-15681.646809	5151.021667	740.750000	25.357307
-15681.646809	5151.021667	739.547852	-18.166565
-15681.646809	5151.021667	738.344727	102.227440
-15681.646809	5151.021667	737.142578	167.907196
-15681.646809	5151.021667	735.939453	285.670746
-15681.646809	5151.021667	734.735352	18.630266
-15681.646809	5151.021667	733.532227	-94.476120
-15681.646809	5151.021667	732.328125	-46.292938
-15681.646809	5151.021667	731.124023	135.785172
-15681.646809	5151.021667	729.918945	82.153557
-15681.646809	5151.021667	728.714844	-224.408432
-15681.646809	5151.021667	727.509766	175.641907
-15681.646809	5151.021667	726.303711	213.631516
-15681.646809	5151.021667	725.098633	3.763749
-15681.646809	5151.021667	723.892578	29.306664
-15681.646809	5151.021667	722.686523	195.981018
-15681.646809	5151.021667	721.480469	13.368731
-15681.646809	5151.021667	720.274414	229.407166
-15681.646809	5151.021667	719.067383	145.795044
-15681.646809	5151.021667	717.860352	109.192680
-15681.646809	5151.021667	716.653320	-38.786789
-15681.646809	5151.021667	715.445313	-25.950647
-15681.646809	5151.021667	714.238281	-124.471909
-15681.646809	5151.021667	713.030273	51.479279
-15681.646809	5151.021667	711.821289	133.363556
-15681.646809	5151.021667	710.613281	252.230820
-15681.646809	5151.021667	709.404297	123.876457
-15681.646809	5151.021667	708.195313	188.234528
-15681.646809	5151.021667	706.986328	40.071472
-15681.646809	5151.021667	705.776367	141.354004
-15681.646809	5151.021667	704.566406	156.114944
-15681.646809	5151.021667	703.356445	91.811150
-15681.646809	5151.021667	702.146484	76.835991
-15681.646809	5151.021667	700.935547	74.145241
-15681.646809	5151.021667	699.724609	140.469177
-15681.646809	5151.021667	698.513672	-54.754883
-15681.646809	5151.021667	697.302734	-47.748817
-15681.646809	5151.021667	696.090820	82.466377
-15681.646809	5151.021667	694.878906	165.722733
-15681.646809	5151.021667	693.666992	211.906799
-15681.646809	5151.021667	692.455078	322.062317
-15681.646809	5151.021667	691.242188	62.584095
-15681.646809	5151.021667	690.029297	10.028004
-15681.646809	5151.021667	688.816406	-10.569993
-15681.646809	5151.021667	687.602539	106.633919
-15681.646809	5151.021667	686.389648	144.942719
-15681.646809	5151.021667	685.175781	308.664276
-15681.646809	5151.021667	683.960938	174.537491
-15681.646809	5151.021667	682.747070	148.614761
-15681.646809	5151.021667	681.532227	147.217209
-15681.646809	5151.021667	680.317383	94.101501
-15681.646809	5151.021667	679.102539	240.043823
-15681.646809	5151.021667	677.886719	216.255646
-15681.646809	5151.021667	676.670898	231.705734
-15681.646809	5151.021667	675.455078	367.439850
-15681.646809	5151.021667	674.239258	78.104301
-15681.646809	5151.021667	673.022461	252.925949
-15681.646809	5151.021667	671.805664	299.913879
-15681.646809	5151.021667	670.588867	219.146118
-15681.646809	5151.021667	669.372070	74.511200
-15681.646809	5151.021667	668.154297	408.298187
-15681.646809	5151.021667	666.936523	467.101471
-15681.646809	5151.021667	665.718750	327.122131
-15681.646809	5151.021667	664.500977	228.787796
-15681.646809	5151.021667	663.282227	238.264236
-15681.646809	5151.021667	662.063477	284.402008
-15681.646809	5151.021667	660.844727	416.184479
-15681.646809	5151.021667	659.625000	155.810349
-15681.646809	5151.021667	658.405273	270.212494
-15681.646809	5151.021667	657.185547	80.788368
-15681.646809	5151.021667	655.965820	3.966681
-15681.646809	5151.021667	654.745117	218.373566
-15681.646809	5151.021667	653.525391	351.815277
-15681.646809	5151.021667	652.303711	282.001038
-15681.646809	5151.021667	651.083008	-47.211910
-15681.646809	5151.021667	649.861328	213.055283
-15681.646809	5151.021667	648.640625	-72.212646
-15681.646809	5151.021667	647.417969	434.651489
-15681.646809	5151.021667	646.196289	249.445541
-15681.646809	5151.021667	644.973633	93.528130
-15681.646809	5151.021667	643.750977	294.278656
-15681.646809	5151.021667	642.528320	223.679688
-15681.646809	5151.021667	641.305664	165.203049
-15681.646809	5151.021667	640.082031	153.023773
-15681.646809	5151.021667	638.858398	287.202362
-15681.646809	5151.021667	637.634766	142.964615
-15681.646809	5151.021667	636.410156	88.951118
-15681.646809	5151.021667	635.185547	254.406296
-15681.646809	5151.021667	633.960938	236.731796
-15681.646809	5151.021667	632.736328	40.921036
-15681.646809	5151.021667	631.510742	174.211960
-15681.646809	5151.021667	630.285156	334.132690
-15681.646809	5151.021667	629.059570	423.184479
-15681.646809	5151.021667	627.833984	275.724182
-15681.646809	5151.021667	626.607422	174.481567
-15681.646809	5151.021667	625.380859	177.879745
-15681.646809	5151.021667	624.154297	244.458191
-15681.646809	5151.021667	622.927734	145.331604
-15681.646809	5151.021667	621.700195	121.567337
-15681.646809	5151.021667	620.472656	224.222794
-15681.646809	5151.021667	619.245117	-79.599983
-15681.646809	5151.021667	618.016602	15.489373
-15681.646809	5151.021667	616.788086	25.287886
-15681.646809	5151.021667	615.559570	173.538300
-15681.646809	5151.021667	614.331055	168.446304
-15681.646809	5151.021667	613.101563	61.143120
-15681.646809	5151.021667	611.872070	196.735855
-15681.646809	5151.021667	610.642578	-151.302170
-15681.646809	5151.021667	609.413086	-71.856995
-15681.646809	5151.021667	608.182617	-24.153164
-15681.646809	5151.021667	606.952148	-10.594782
-15681.646809	5151.021667	605.721680	78.065987
-15681.646809	5151.021667	604.491211	6.385591
-15681.646809	5151.021667	603.259766	-70.257339
-15681.646809	5151.021667	602.028320	-132.451920
-15681.646809	5151.021667	600.796875	-88.048836
-15681.646809	5151.021667	599.564453	-29.259556
-15681.646809	5151.021667	598.332031	121.485413
-15681.646809	5151.021667	597.099609	7.849127
-15681.646809	5151.021667	595.867188	-69.530724
-15681.646809	5151.021667	594.633789	238.176056
-15681.646809	5151.021667	593.400391	5.482883
-15681.646809	5151.021667	592.166992	-263.574066
-15681.646809	5151.021667	590.933594	-72.650894
-15681.646809	5151.021667	589.699219	-29.607208
-15681.646809	5151.021667	588.464844	-243.245468
-15681.646809	5151.021667	587.230469	-60.128952
-15681.646809	5151.021667	585.995117	55.033886
-15681.646809	5151.021667	584.760742	-146.810211
-15681.646809	5151.021667	583.525391	-10.194592
-15681.646809	5151.021667	582.289063	109.297707
-15681.646809	5151.021667	581.053711	95.673721
-15681.646809	5151.021667	579.817383	-46.159058
-15681.646809	5151.021667	578.581055	-89.016655
-15681.646809	5151.021667	577.343750	-47.458641
-15681.646809	5151.021667	576.107422	-247.540497
-15681.646809	5151.021667	574.870117	88.312492
-15681.646809	5151.021667	573.631836	61.801704
-15681.646809	5151.021667	572.394531	73.784470
-15681.646809	5151.021667	571.156250	25.300808
-15681.646809	5151.021667	569.917969	-88.430206
-15681.646809	5151.021667	568.679688	-166.070068
-15681.646809	5151.021667	567.440430	-101.551041
-15681.646809	5151.021667	566.202148	76.118225
-15681.646809	5151.021667	564.961914	39.054504
-15681.646809	5151.021667	563.722656	139.235199
-15681.646809	5151.021667	562.482422	130.820160
-15681.646809	5151.021667	561.243164	134.327057
-15681.646809	5151.021667	560.001953	96.750450
-15681.646809	5151.021667	558.761719	143.334686
-15681.646809	5151.021667	557.520508	-36.509087
-15681.646809	5151.021667	556.279297	-23.872890
-15681.646809	5151.021667	555.038086	125.780319
-15681.646809	5151.021667	553.795898	-23.061604
-15681.646809	5151.021667	552.554688	111.845139
-15681.646809	5151.021667	551.311523	-78.066284
-15681.646809	5151.021667	550.069336	248.864731
-15681.646809	5151.021667	548.826172	-87.859070
-15681.646809	5151.021667	547.583984	-124.170784
-15681.646809	5151.021667	546.339844	-124.566010
-15681.646809	5151.021667	545.096680	-50.611427
-15681.646809	5151.021667	543.852539	-65.670189
-15681.646809	5151.021667	542.608398	-92.846680
-15681.646809	5151.021667	541.364258	-132.129959
-15681.646809	5151.021667	540.119141	-130.721405
-15681.646809	5151.021667	538.875000	-14.246087
-15681.646809	5151.021667	537.628906	-109.057732
-15681.646809	5151.021667	536.383789	-52.831398
-15681.646809	5151.021667	535.137695	-104.655930
-15681.646809	5151.021667	533.892578	-240.468140
-15681.646809	5151.021667	532.645508	19.136093
-15681.646809	5151.021667	531.399414	-181.571930
-15681.646809	5151.021667	530.152344	10.610368
-15681.646809	5151.021667	528.905273	-142.323608
-15681.646809	5151.021667	527.658203	-278.532654
-15681.646809	5151.021667	526.410156	-120.295074
-15681.646809	5151.021667	525.163086	-158.509338
-15681.646809	5151.021667	523.914063	-125.026817
-15681.646809	5151.021667	522.666016	1.669658
-15681.646809	5151.021667	521.416992	-216.280853
-15681.646809	5151.021667	520.167969	-34.813038
-15681.646809	5151.021667	518.918945	-71.120842
-15681.646809	5151.021667	517.669922	-90.771225
-15681.646809	5151.021667	516.419922	-301.731476
-15681.646809	5151.021667	515.169922	-75.379318
-15681.646809	5151.021667	513.919922	-135.915558
-15681.646809	5151.021667	512.668945	-108.143578
-15681.646809	5151.021667	511.417969	24.606897
-15681.646809	5151.021667	510.166992	128.562820
-15681.646809	5151.021667	508.916016	-30.193380
-15681.646809	5151.021667	507.664063	-67.258362
-15681.646809	5151.021667	506.412109	-481.392303
-15681.646809	5151.021667	505.160156	-41.390709
-15681.646809	5151.021667	503.907227	-57.216679
-15681.646809	5151.021667	502.655273	-192.331818
-15681.646809	5151.021667	501.402344	58.737705
-15681.646809	5151.021667	500.148438	33.123856
-15681.646809	5151.021667	498.895508	-137.907181
-15681.646809	5151.021667	497.641602	-125.496216
-15681.646809	5151.021667	496.387695	-75.051544
-15681.646809	5151.021667	495.132813	-46.143204
-15681.646809	5151.021667	493.878906	-45.879696
-15681.646809	5151.021667	492.624023	-124.250992
-15681.646809	5151.021667	491.368164	209.061203
-15681.646809	5151.021667	490.113281	75.806007
-15681.646809	5151.021667	488.857422	2.003775
-15681.646809	5151.021667	487.601563	111.304909
-15681.646809	5151.021667	486.344727	122.988396
-15681.646809	5151.021667	485.088867	-145.915222
-15681.646809	5151.021667	483.832031	-53.494522
-15681.646809	5151.021667	482.575195	55.457523
-15681.646809	5151.021667	481.317383	47.873810
-15681.646809	5151.021667	480.059570	-156.920502
-15681.646809	5151.021667	478.801758	-117.080147
-15681.646809	5151.021667	477.543945	124.496964
-15681.646809	5151.021667	476.285156	-59.009640
-15681.646809	5151.021667	475.027344	32.814579
-15681.646809	5151.021667	473.767578	-15.476256
-15681.646809	5151.021667	472.508789	83.285889
-15681.646809	5151.021667	471.249023	-45.752731
-15681.646809	5151.021667	469.989258	100.267937
-15681.646809	5151.021667	468.729492	-26.467590
-15681.646809	5151.021667	467.469727	12.707535
-15681.646809	5151.021667	466.208984	73.121284
-15681.646809	5151.021667	464.948242	150.032913
-15681.646809	5151.021667	463.686523	248.156830
-15681.646809	5151.021667	462.425781	5.173098
-15681.646809	5151.021667	461.164063	-43.631882
-15681.646809	5151.021667	459.901367	208.135529
-15681.646809	5151.021667	458.639648	171.014648
-15681.646809	5151.021667	457.376953	-8.135460
-15681.646809	5151.021667	456.114258	328.428314
-15681.646809	5151.021667	454.851563	198.856003
-15681.646809	5151.021667	453.587891	29.059956
-15681.646809	5151.021667	452.324219	164.232193
-15681.646809	5151.021667	451.060547	126.734268
-15681.646809	5151.021667	449.796875	110.445190
-15681.646809	5151.021667	448.532227	183.850662
-15681.646809	5151.021667	447.267578	157.941116
-15681.646809	5151.021667	446.002930	122.514992
-15681.646809	5151.021667	444.737305	-14.514950
-15681.646809	5151.021667	443.471680	23.105043
-15681.646809	5151.021667	442.206055	81.858414
-15681.646809	5151.021667	440.940430	135.776260
-15681.646809	5151.021667	439.673828	50.381653
-15681.646809	5151.021667	438.407227	-16.206926
-15681.646809	5151.021667	437.140625	75.112297
-15681.646809	5151.021667	435.873047	3.608634
-15681.646809	5151.021667	434.605469	38.085655
-15681.646809	5151.021667	433.337891	22.948204
-15681.646809	5151.021667	432.070313	-119.523148
-15681.646809	5151.021667	430.801758	107.725784
-15681.646809	5151.021667	429.533203	-119.746193
-15681.646809	5151.021667	428.264648	3.544871
-15681.646809	5151.021667	426.996094	37.194965
-15681.646809	5151.021667	425.726563	11.834961
-15681.646809	5151.021667	424.457031	82.798386
-15681.646809	5151.021667	423.186523	315.867676
-15681.646809	5151.021667	421.916992	68.911499
-15681.646809	5151.021667	420.646484	52.301189
-15681.646809	5151.021667	419.375977	167.162521
-15681.646809	5151.021667	418.104492	30.287884
-15681.646809	5151.021667	416.833008	130.603470
-15681.646809	5151.021667	415.561523	-13.654812
-15681.646809	5151.021667	414.290039	-24.185986
-15681.646809	5151.021667	413.017578	148.212509
-15681.646809	5151.021667	411.746094	167.713776
-15681.646809	5151.021667	410.472656	86.002602
-15681.646809	5151.021667	409.200195	245.801300
-15681.646809	5151.021667	407.926758	107.281296
-15681.646809	5151.021667	406.653320	17.806629
-15681.646809	5151.021667	405.379883	96.938385
-15681.646809	5151.021667	404.105469	96.002022
-15681.646809	5151.021667	402.831055	169.768188
-15681.646809	5151.021667	401.556641	123.653145
-15681.646809	5151.021667	400.282227	264.674316
-15681.646809	5151.021667	399.006836	98.380043
-15681.646809	5151.021667	397.731445	161.323288
-15681.646809	5151.021667	396.456055	258.984955
-15681.646809	5151.021667	395.179688	262.548737
-15681.646809	5151.021667	393.903320	347.621735
-15681.646809	5151.021667	392.626953	55.476299
-15681.646809	5151.021667	391.350586	74.182137
-15681.646809	5151.021667	390.073242	36.263416
-15681.646809	5151.021667	388.795898	-65.256691
-15681.646809	5151.021667	387.518555	347.148895
-15681.646809	5151.021667	386.240234	125.359993
-15681.646809	5151.021667	384.961914	157.873703
-15681.646809	5151.021667	383.683594	126.733009
-15681.646809	5151.021667	382.405273	10.935346
-15681.646809	5151.021667	381.125977	39.374977
-15681.646809	5151.021667	379.846680	127.894920
-15681.646809	5151.021667	378.567383	-113.430161
-15681.646809	5151.021667	377.287109	200.158798
-15681.646809	5151.021667	376.006836	139.563797
-15681.646809	5151.021667	374.726563	15.294002
-15681.646809	5151.021667	373.446289	123.589409
-15681.646809	5151.021667	372.165039	165.755905
-15681.646809	5151.021667	370.883789	130.175217
-15681.646809	5151.021667	369.602539	65.822441
-15681.646809	5151.021667	368.320313	63.547256
-15681.646809	5151.021667	367.039063	-91.019745
-15681.646809	5151.021667	365.755859	58.676144
-15681.646809	5151.021667	364.473633	67.665680
-15681.646809	5151.021667	363.190430	45.385010
-15681.646809	5151.021667	361.907227	38.411030
-15681.646809	5151.021667	360.624023	-53.378513
-15681.646809	5151.021667	359.340820	79.516327
-15681.646809	5151.021667	358.056641	50.698345
-15681.646809	5151.021667	356.772461	-125.776558
-15681.646809	5151.021667	355.487305	-19.686140
-15681.646809	5151.021667	354.202148	-28.773558
-15681.646809	5151.021667	352.916992	-53.055180
-15681.646809	5151.021667	351.631836	91.025902
-15681.646809	5151.021667	350.346680	-79.940178
-15681.646809	5151.021667	349.060547	-78.030907
-15681.646809	5151.021667	347.774414	-291.193817
-15681.646809	5151.021667	346.487305	86.301804
-15681.646809	5151.021667	345.200195	-218.024857
-15681.646809	5151.021667	343.913086	61.077072
-15681.646809	5151.021667	342.625977	-39.753910
-15681.646809	5151.021667	341.338867	-179.304245
-15681.646809	5151.021667	340.050781	-230.087112
-15681.646809	5151.021667	338.762695	-284.914276
-15681.646809	5151.021667	337.473633	-332.297180
-15681.646809	5151.021667	336.184570	-230.858032
-15681.646809	5151.021667	334.895508	-321.391174
-15681.646809	5151.021667	333.606445	-244.723465
-15681.646809	5151.021667	332.317383	-234.967133
-15681.646809	5151.021667	331.027344	-243.563263
-15681.646809	5151.021667	329.736328	-87.658844
-15681.646809	5151.021667	328.446289	-251.087387
-15681.646809	5151.021667	327.155273	-46.492779
-15681.646809	5151.021667	325.864258	28.427900
-15681.646809	5151.021667	324.573242	-5.491649
-15681.646809	5151.021667	323.281250	-16.484659
-15681.646809	5151.021667	321.989258	-205.735687
-15681.646809	5151.021667	320.697266	-161.711349
-15681.646809	5151.021667	319.405273	-48.731285
-15681.646809	5151.021667	318.112305	160.737595
-15681.646809	5151.021667	316.819336	157.060989
-15681.646809	5151.021667	315.526367	229.018066
-15681.646809	5151.021667	314.232422	217.062195
-15681.646809	5151.021667	312.938477	185.888535
-15681.646809	5151.021667	311.644531	133.124771
-15681.646809	5151.021667	310.349609	413.991425
-15681.646809	5151.021667	309.054688	435.325836
-15681.646809	5151.021667	307.759766	298.703583
-15681.646809	5151.021667	306.464844	624.505127
-15681.646809	5151.021667	305.168945	713.613281
-15681.646809	5151.021667	303.873047	766.739075
-15681.646809	5151.021667	302.577148	995.837463
-15681.646809	5151.021667	301.281250	1105.767822
-15681.646809	5151.021667	299.984375	1064.143799
