#X		#Y		#Wave		#Intensity
9887.781383	4374.811667	1999.946289	124.043404
9887.781383	4374.811667	1998.981445	42.000851
9887.781383	4374.811667	1998.017578	-84.010895
9887.781383	4374.811667	1997.052734	15.620718
9887.781383	4374.811667	1996.088867	-45.741055
9887.781383	4374.811667	1995.124023	-72.318123
9887.781383	4374.811667	1994.159180	166.207336
9887.781383	4374.811667	1993.193359	142.235428
9887.781383	4374.811667	1992.228516	44.076248
9887.781383	4374.811667	1991.262695	77.217804
9887.781383	4374.811667	1990.296875	43.594997
9887.781383	4374.811667	1989.331055	-49.332985
9887.781383	4374.811667	1988.365234	87.917503
9887.781383	4374.811667	1987.398438	-7.332716
9887.781383	4374.811667	1986.432617	-30.767195
9887.781383	4374.811667	1985.465820	52.184284
9887.781383	4374.811667	1984.499023	127.743683
9887.781383	4374.811667	1983.532227	10.536533
9887.781383	4374.811667	1982.565430	-109.047890
9887.781383	4374.811667	1981.597656	-30.879513
9887.781383	4374.811667	1980.629883	-100.913139
9887.781383	4374.811667	1979.662109	-267.201752
9887.781383	4374.811667	1978.694336	-97.548210
9887.781383	4374.811667	1977.726563	151.086380
9887.781383	4374.811667	1976.758789	54.080853
9887.781383	4374.811667	1975.790039	102.758232
9887.781383	4374.811667	1974.821289	173.659836
9887.781383	4374.811667	1973.852539	279.106049
9887.781383	4374.811667	1972.883789	100.880173
9887.781383	4374.811667	1971.915039	213.757767
9887.781383	4374.811667	1970.945313	183.607162
9887.781383	4374.811667	1969.975586	-11.679701
9887.781383	4374.811667	1969.005859	37.144547
9887.781383	4374.811667	1968.036133	39.150555
9887.781383	4374.811667	1967.066406	339.306458
9887.781383	4374.811667	1966.096680	104.804123
9887.781383	4374.811667	1965.125977	-21.224112
9887.781383	4374.811667	1964.155273	128.612854
9887.781383	4374.811667	1963.184570	216.856552
9887.781383	4374.811667	1962.213867	-22.312729
9887.781383	4374.811667	1961.242188	-84.180389
9887.781383	4374.811667	1960.271484	109.898521
9887.781383	4374.811667	1959.299805	124.316544
9887.781383	4374.811667	1958.328125	-72.804619
9887.781383	4374.811667	1957.356445	54.784813
9887.781383	4374.811667	1956.384766	-29.129213
9887.781383	4374.811667	1955.412109	56.621300
9887.781383	4374.811667	1954.439453	66.146423
9887.781383	4374.811667	1953.467773	173.970322
9887.781383	4374.811667	1952.495117	171.188980
9887.781383	4374.811667	1951.521484	99.622711
9887.781383	4374.811667	1950.548828	-33.318676
9887.781383	4374.811667	1949.575195	44.973621
9887.781383	4374.811667	1948.601563	177.248520
9887.781383	4374.811667	1947.627930	-12.101315
9887.781383	4374.811667	1946.654297	-137.573792
9887.781383	4374.811667	1945.680664	80.532440
9887.781383	4374.811667	1944.706055	65.479424
9887.781383	4374.811667	1943.732422	119.108849
9887.781383	4374.811667	1942.757813	3.489635
9887.781383	4374.811667	1941.783203	39.929504
9887.781383	4374.811667	1940.807617	-75.650223
9887.781383	4374.811667	1939.833008	12.245618
9887.781383	4374.811667	1938.857422	146.659607
9887.781383	4374.811667	1937.881836	185.456253
9887.781383	4374.811667	1936.906250	40.497265
9887.781383	4374.811667	1935.930664	101.319183
9887.781383	4374.811667	1934.955078	-143.996506
9887.781383	4374.811667	1933.978516	78.402290
9887.781383	4374.811667	1933.001953	-110.542633
9887.781383	4374.811667	1932.025391	-118.321014
9887.781383	4374.811667	1931.048828	125.928993
9887.781383	4374.811667	1930.072266	-58.069401
9887.781383	4374.811667	1929.094727	-100.143776
9887.781383	4374.811667	1928.118164	-2.816012
9887.781383	4374.811667	1927.140625	199.599030
9887.781383	4374.811667	1926.163086	162.341232
9887.781383	4374.811667	1925.184570	61.529335
9887.781383	4374.811667	1924.207031	80.484421
9887.781383	4374.811667	1923.228516	28.556612
9887.781383	4374.811667	1922.250000	35.260342
9887.781383	4374.811667	1921.271484	61.482059
9887.781383	4374.811667	1920.292969	-88.145676
9887.781383	4374.811667	1919.314453	-110.777405
9887.781383	4374.811667	1918.334961	-106.569801
9887.781383	4374.811667	1917.355469	236.862839
9887.781383	4374.811667	1916.375977	33.552544
9887.781383	4374.811667	1915.396484	37.673935
9887.781383	4374.811667	1914.416992	-121.655968
9887.781383	4374.811667	1913.436523	-59.017673
9887.781383	4374.811667	1912.457031	-28.119751
9887.781383	4374.811667	1911.476563	19.810513
9887.781383	4374.811667	1910.496094	-49.293114
9887.781383	4374.811667	1909.515625	71.691345
9887.781383	4374.811667	1908.534180	-7.185813
9887.781383	4374.811667	1907.552734	108.831551
9887.781383	4374.811667	1906.572266	122.490852
9887.781383	4374.811667	1905.590820	-46.513462
9887.781383	4374.811667	1904.608398	71.816544
9887.781383	4374.811667	1903.626953	56.200485
9887.781383	4374.811667	1902.644531	57.604202
9887.781383	4374.811667	1901.663086	-26.178373
9887.781383	4374.811667	1900.680664	74.945488
9887.781383	4374.811667	1899.698242	365.739960
9887.781383	4374.811667	1898.714844	-12.387319
9887.781383	4374.811667	1897.732422	-28.097290
9887.781383	4374.811667	1896.749023	-43.823723
9887.781383	4374.811667	1895.765625	-13.384355
9887.781383	4374.811667	1894.782227	-68.032066
9887.781383	4374.811667	1893.798828	-23.062698
9887.781383	4374.811667	1892.814453	31.583656
9887.781383	4374.811667	1891.831055	47.331303
9887.781383	4374.811667	1890.846680	203.892761
9887.781383	4374.811667	1889.862305	243.837189
9887.781383	4374.811667	1888.877930	19.157833
9887.781383	4374.811667	1887.892578	-30.718271
9887.781383	4374.811667	1886.908203	31.025003
9887.781383	4374.811667	1885.922852	-128.048401
9887.781383	4374.811667	1884.937500	117.993065
9887.781383	4374.811667	1883.952148	237.815567
9887.781383	4374.811667	1882.965820	15.688828
9887.781383	4374.811667	1881.980469	72.415535
9887.781383	4374.811667	1880.994141	-40.565556
9887.781383	4374.811667	1880.007813	74.268082
9887.781383	4374.811667	1879.021484	80.010338
9887.781383	4374.811667	1878.035156	51.817608
9887.781383	4374.811667	1877.047852	42.989838
9887.781383	4374.811667	1876.061523	-60.290180
9887.781383	4374.811667	1875.074219	51.921017
9887.781383	4374.811667	1874.086914	-153.027756
9887.781383	4374.811667	1873.098633	-26.359058
9887.781383	4374.811667	1872.111328	80.888359
9887.781383	4374.811667	1871.123047	35.662724
9887.781383	4374.811667	1870.135742	-130.502350
9887.781383	4374.811667	1869.147461	-180.544449
9887.781383	4374.811667	1868.158203	-5.724181
9887.781383	4374.811667	1867.169922	4.629869
9887.781383	4374.811667	1866.180664	80.218697
9887.781383	4374.811667	1865.192383	44.603436
9887.781383	4374.811667	1864.203125	-80.411461
9887.781383	4374.811667	1863.213867	-82.200600
9887.781383	4374.811667	1862.223633	65.732056
9887.781383	4374.811667	1861.234375	107.348137
9887.781383	4374.811667	1860.244141	204.457870
9887.781383	4374.811667	1859.253906	289.446442
9887.781383	4374.811667	1858.263672	101.678375
9887.781383	4374.811667	1857.273438	-20.887196
9887.781383	4374.811667	1856.282227	51.983002
9887.781383	4374.811667	1855.291992	4.213683
9887.781383	4374.811667	1854.300781	84.256485
9887.781383	4374.811667	1853.309570	-240.807953
9887.781383	4374.811667	1852.317383	-18.554043
9887.781383	4374.811667	1851.326172	-90.437828
9887.781383	4374.811667	1850.333984	194.328171
9887.781383	4374.811667	1849.342773	134.449112
9887.781383	4374.811667	1848.350586	262.464386
9887.781383	4374.811667	1847.357422	91.777443
9887.781383	4374.811667	1846.365234	89.698036
9887.781383	4374.811667	1845.372070	94.825035
9887.781383	4374.811667	1844.379883	99.939880
9887.781383	4374.811667	1843.386719	213.332809
9887.781383	4374.811667	1842.393555	6.657844
9887.781383	4374.811667	1841.399414	16.554298
9887.781383	4374.811667	1840.406250	14.410151
9887.781383	4374.811667	1839.412109	118.062431
9887.781383	4374.811667	1838.417969	159.151520
9887.781383	4374.811667	1837.423828	226.655151
9887.781383	4374.811667	1836.429688	36.959278
9887.781383	4374.811667	1835.434570	152.494186
9887.781383	4374.811667	1834.440430	109.411621
9887.781383	4374.811667	1833.445313	-118.623375
9887.781383	4374.811667	1832.450195	13.652675
9887.781383	4374.811667	1831.454102	97.843834
9887.781383	4374.811667	1830.458984	-55.671497
9887.781383	4374.811667	1829.462891	-43.527203
9887.781383	4374.811667	1828.466797	23.797077
9887.781383	4374.811667	1827.470703	196.656998
9887.781383	4374.811667	1826.474609	167.936554
9887.781383	4374.811667	1825.478516	129.624207
9887.781383	4374.811667	1824.481445	86.517303
9887.781383	4374.811667	1823.484375	-6.929174
9887.781383	4374.811667	1822.487305	105.796669
9887.781383	4374.811667	1821.490234	232.851257
9887.781383	4374.811667	1820.493164	-16.346254
9887.781383	4374.811667	1819.495117	67.540489
9887.781383	4374.811667	1818.498047	36.418381
9887.781383	4374.811667	1817.500000	79.536156
9887.781383	4374.811667	1816.500977	17.275801
9887.781383	4374.811667	1815.502930	-30.603218
9887.781383	4374.811667	1814.504883	5.298930
9887.781383	4374.811667	1813.505859	-4.289824
9887.781383	4374.811667	1812.506836	184.698822
9887.781383	4374.811667	1811.507813	167.889038
9887.781383	4374.811667	1810.508789	50.630634
9887.781383	4374.811667	1809.508789	103.180786
9887.781383	4374.811667	1808.508789	-21.209564
9887.781383	4374.811667	1807.508789	165.176529
9887.781383	4374.811667	1806.508789	-104.971306
9887.781383	4374.811667	1805.508789	-169.536713
9887.781383	4374.811667	1804.508789	-83.582039
9887.781383	4374.811667	1803.507813	71.598129
9887.781383	4374.811667	1802.506836	-141.042145
9887.781383	4374.811667	1801.505859	-90.974380
9887.781383	4374.811667	1800.504883	-19.447464
9887.781383	4374.811667	1799.502930	21.017429
9887.781383	4374.811667	1798.501953	97.258011
9887.781383	4374.811667	1797.500000	70.874344
9887.781383	4374.811667	1796.498047	-72.383583
9887.781383	4374.811667	1795.496094	201.756821
9887.781383	4374.811667	1794.493164	-139.390686
9887.781383	4374.811667	1793.491211	175.177643
9887.781383	4374.811667	1792.488281	-153.927429
9887.781383	4374.811667	1791.485352	-65.876801
9887.781383	4374.811667	1790.482422	129.352112
9887.781383	4374.811667	1789.478516	276.858215
9887.781383	4374.811667	1788.475586	-59.178020
9887.781383	4374.811667	1787.471680	57.344425
9887.781383	4374.811667	1786.467773	-28.550062
9887.781383	4374.811667	1785.463867	14.123986
9887.781383	4374.811667	1784.459961	21.079578
9887.781383	4374.811667	1783.455078	113.687065
9887.781383	4374.811667	1782.450195	-41.159031
9887.781383	4374.811667	1781.445313	260.729858
9887.781383	4374.811667	1780.440430	-89.095329
9887.781383	4374.811667	1779.435547	81.912338
9887.781383	4374.811667	1778.429688	-79.956856
9887.781383	4374.811667	1777.424805	-113.420830
9887.781383	4374.811667	1776.418945	-28.063215
9887.781383	4374.811667	1775.413086	100.025139
9887.781383	4374.811667	1774.406250	33.278034
9887.781383	4374.811667	1773.400391	-69.067352
9887.781383	4374.811667	1772.393555	92.187546
9887.781383	4374.811667	1771.386719	77.701889
9887.781383	4374.811667	1770.379883	-60.205883
9887.781383	4374.811667	1769.373047	108.068817
9887.781383	4374.811667	1768.365234	79.343575
9887.781383	4374.811667	1767.358398	12.674883
9887.781383	4374.811667	1766.350586	-61.088310
9887.781383	4374.811667	1765.342773	-130.082748
9887.781383	4374.811667	1764.334961	104.419174
9887.781383	4374.811667	1763.326172	-52.291321
9887.781383	4374.811667	1762.318359	-62.003452
9887.781383	4374.811667	1761.309570	167.606323
9887.781383	4374.811667	1760.300781	179.172745
9887.781383	4374.811667	1759.291016	-20.076462
9887.781383	4374.811667	1758.282227	62.563614
9887.781383	4374.811667	1757.272461	-141.324692
9887.781383	4374.811667	1756.262695	57.298622
9887.781383	4374.811667	1755.252930	-106.277321
9887.781383	4374.811667	1754.243164	108.827423
9887.781383	4374.811667	1753.233398	16.279922
9887.781383	4374.811667	1752.222656	86.980751
9887.781383	4374.811667	1751.211914	8.658365
9887.781383	4374.811667	1750.201172	67.510094
9887.781383	4374.811667	1749.190430	-32.055801
9887.781383	4374.811667	1748.179688	3.143357
9887.781383	4374.811667	1747.167969	-143.640289
9887.781383	4374.811667	1746.156250	92.397873
9887.781383	4374.811667	1745.144531	35.420017
9887.781383	4374.811667	1744.132813	-23.899000
9887.781383	4374.811667	1743.121094	-71.387253
9887.781383	4374.811667	1742.108398	8.630256
9887.781383	4374.811667	1741.095703	-48.291866
9887.781383	4374.811667	1740.083008	43.491936
9887.781383	4374.811667	1739.070313	69.171165
9887.781383	4374.811667	1738.057617	5.193144
9887.781383	4374.811667	1737.043945	80.400833
9887.781383	4374.811667	1736.030273	91.906448
9887.781383	4374.811667	1735.016602	-2.693288
9887.781383	4374.811667	1734.002930	53.614368
9887.781383	4374.811667	1732.989258	-95.150032
9887.781383	4374.811667	1731.974609	17.706100
9887.781383	4374.811667	1730.959961	-13.196253
9887.781383	4374.811667	1729.945313	-121.819939
9887.781383	4374.811667	1728.930664	-25.506706
9887.781383	4374.811667	1727.916016	-190.597336
9887.781383	4374.811667	1726.900391	-131.977356
9887.781383	4374.811667	1725.885742	41.958393
9887.781383	4374.811667	1724.870117	-45.392227
9887.781383	4374.811667	1723.853516	79.046021
9887.781383	4374.811667	1722.837891	97.582397
9887.781383	4374.811667	1721.822266	59.664379
9887.781383	4374.811667	1720.805664	10.002156
9887.781383	4374.811667	1719.789063	28.540897
9887.781383	4374.811667	1718.772461	-96.314079
9887.781383	4374.811667	1717.754883	27.993111
9887.781383	4374.811667	1716.738281	60.618385
9887.781383	4374.811667	1715.720703	3.957676
9887.781383	4374.811667	1714.703125	-165.422760
9887.781383	4374.811667	1713.685547	76.225143
9887.781383	4374.811667	1712.667969	31.336990
9887.781383	4374.811667	1711.649414	33.413998
9887.781383	4374.811667	1710.630859	42.532177
9887.781383	4374.811667	1709.612305	-44.561367
9887.781383	4374.811667	1708.593750	98.299423
9887.781383	4374.811667	1707.575195	163.699539
9887.781383	4374.811667	1706.555664	-99.255280
9887.781383	4374.811667	1705.536133	-94.806419
9887.781383	4374.811667	1704.516602	17.480715
9887.781383	4374.811667	1703.497070	-22.624296
9887.781383	4374.811667	1702.477539	-18.186844
9887.781383	4374.811667	1701.457031	-67.641220
9887.781383	4374.811667	1700.437500	166.371506
9887.781383	4374.811667	1699.416992	112.221016
9887.781383	4374.811667	1698.395508	37.014763
9887.781383	4374.811667	1697.375000	-92.004532
9887.781383	4374.811667	1696.354492	104.386070
9887.781383	4374.811667	1695.333008	-29.276014
9887.781383	4374.811667	1694.311523	21.960169
9887.781383	4374.811667	1693.290039	-81.218811
9887.781383	4374.811667	1692.267578	110.343605
9887.781383	4374.811667	1691.246094	138.144974
9887.781383	4374.811667	1690.223633	-142.682266
9887.781383	4374.811667	1689.201172	-107.828796
9887.781383	4374.811667	1688.178711	32.182980
9887.781383	4374.811667	1687.155273	-3.108513
9887.781383	4374.811667	1686.132813	197.575485
9887.781383	4374.811667	1685.109375	33.803001
9887.781383	4374.811667	1684.085938	105.963432
9887.781383	4374.811667	1683.062500	126.730652
9887.781383	4374.811667	1682.039063	149.826385
9887.781383	4374.811667	1681.014648	-86.156212
9887.781383	4374.811667	1679.990234	301.003296
9887.781383	4374.811667	1678.965820	58.088169
9887.781383	4374.811667	1677.941406	50.864079
9887.781383	4374.811667	1676.916992	27.319363
9887.781383	4374.811667	1675.891602	222.966125
9887.781383	4374.811667	1674.866211	220.383209
9887.781383	4374.811667	1673.840820	145.547211
9887.781383	4374.811667	1672.815430	61.423058
9887.781383	4374.811667	1671.790039	37.911179
9887.781383	4374.811667	1670.763672	289.287384
9887.781383	4374.811667	1669.737305	186.557251
9887.781383	4374.811667	1668.710938	-6.943224
9887.781383	4374.811667	1667.684570	58.055546
9887.781383	4374.811667	1666.658203	393.042877
9887.781383	4374.811667	1665.630859	211.257523
9887.781383	4374.811667	1664.603516	143.558533
9887.781383	4374.811667	1663.576172	224.773117
9887.781383	4374.811667	1662.548828	236.184540
9887.781383	4374.811667	1661.520508	387.117523
9887.781383	4374.811667	1660.493164	424.075195
9887.781383	4374.811667	1659.464844	458.695190
9887.781383	4374.811667	1658.436523	379.426392
9887.781383	4374.811667	1657.408203	400.107727
9887.781383	4374.811667	1656.378906	362.702606
9887.781383	4374.811667	1655.350586	141.823532
9887.781383	4374.811667	1654.321289	62.690174
9887.781383	4374.811667	1653.291992	238.993607
9887.781383	4374.811667	1652.261719	378.089813
9887.781383	4374.811667	1651.232422	324.500458
9887.781383	4374.811667	1650.202148	412.483368
9887.781383	4374.811667	1649.171875	293.953186
9887.781383	4374.811667	1648.141602	363.361176
9887.781383	4374.811667	1647.111328	328.386139
9887.781383	4374.811667	1646.080078	358.349976
9887.781383	4374.811667	1645.049805	427.719513
9887.781383	4374.811667	1644.018555	819.238037
9887.781383	4374.811667	1642.987305	434.299683
9887.781383	4374.811667	1641.955078	496.674622
9887.781383	4374.811667	1640.923828	545.134338
9887.781383	4374.811667	1639.891602	616.737549
9887.781383	4374.811667	1638.859375	470.657776
9887.781383	4374.811667	1637.827148	579.301270
9887.781383	4374.811667	1636.794922	792.067566
9887.781383	4374.811667	1635.761719	655.309875
9887.781383	4374.811667	1634.729492	481.594543
9887.781383	4374.811667	1633.696289	483.760712
9887.781383	4374.811667	1632.662109	451.237244
9887.781383	4374.811667	1631.628906	589.853088
9887.781383	4374.811667	1630.594727	675.243408
9887.781383	4374.811667	1629.561523	702.823059
9887.781383	4374.811667	1628.527344	633.330688
9887.781383	4374.811667	1627.493164	824.971924
9887.781383	4374.811667	1626.458008	877.932922
9887.781383	4374.811667	1625.423828	739.176514
9887.781383	4374.811667	1624.388672	789.838867
9887.781383	4374.811667	1623.353516	918.988708
9887.781383	4374.811667	1622.318359	863.426025
9887.781383	4374.811667	1621.282227	851.740417
9887.781383	4374.811667	1620.247070	773.152466
9887.781383	4374.811667	1619.210938	738.434021
9887.781383	4374.811667	1618.174805	858.276978
9887.781383	4374.811667	1617.137695	738.242737
9887.781383	4374.811667	1616.101563	745.078064
9887.781383	4374.811667	1615.064453	1070.037354
9887.781383	4374.811667	1614.027344	820.988281
9887.781383	4374.811667	1612.990234	991.433899
9887.781383	4374.811667	1611.953125	968.295166
9887.781383	4374.811667	1610.916016	958.995117
9887.781383	4374.811667	1609.877930	1076.368652
9887.781383	4374.811667	1608.839844	965.755066
9887.781383	4374.811667	1607.801758	875.913147
9887.781383	4374.811667	1606.763672	924.213196
9887.781383	4374.811667	1605.724609	956.393494
9887.781383	4374.811667	1604.685547	891.940674
9887.781383	4374.811667	1603.646484	919.533569
9887.781383	4374.811667	1602.607422	857.432129
9887.781383	4374.811667	1601.568359	845.951965
9887.781383	4374.811667	1600.528320	926.441650
9887.781383	4374.811667	1599.489258	848.316650
9887.781383	4374.811667	1598.449219	997.737061
9887.781383	4374.811667	1597.408203	935.728455
9887.781383	4374.811667	1596.368164	1160.901489
9887.781383	4374.811667	1595.327148	1078.236572
9887.781383	4374.811667	1594.287109	1013.988037
9887.781383	4374.811667	1593.246094	1062.268188
9887.781383	4374.811667	1592.204102	878.708008
9887.781383	4374.811667	1591.163086	1131.265747
9887.781383	4374.811667	1590.121094	1060.216064
9887.781383	4374.811667	1589.079102	1147.492432
9887.781383	4374.811667	1588.037109	1108.601196
9887.781383	4374.811667	1586.995117	1182.099976
9887.781383	4374.811667	1585.953125	1021.731201
9887.781383	4374.811667	1584.910156	1083.781128
9887.781383	4374.811667	1583.867188	1008.313416
9887.781383	4374.811667	1582.824219	1010.792053
9887.781383	4374.811667	1581.781250	1185.099121
9887.781383	4374.811667	1580.737305	850.876465
9887.781383	4374.811667	1579.693359	901.512817
9887.781383	4374.811667	1578.649414	1032.276855
9887.781383	4374.811667	1577.605469	970.721619
9887.781383	4374.811667	1576.561523	868.008362
9887.781383	4374.811667	1575.516602	589.158875
9887.781383	4374.811667	1574.472656	790.858521
9887.781383	4374.811667	1573.427734	816.370544
9887.781383	4374.811667	1572.381836	626.923828
9887.781383	4374.811667	1571.336914	785.098938
9887.781383	4374.811667	1570.291016	716.918213
9887.781383	4374.811667	1569.246094	897.898743
9887.781383	4374.811667	1568.200195	683.511047
9887.781383	4374.811667	1567.153320	754.795349
9887.781383	4374.811667	1566.107422	990.527649
9887.781383	4374.811667	1565.060547	730.619873
9887.781383	4374.811667	1564.013672	922.913635
9887.781383	4374.811667	1562.966797	880.020508
9887.781383	4374.811667	1561.919922	652.290283
9887.781383	4374.811667	1560.872070	602.653198
9887.781383	4374.811667	1559.825195	612.372314
9887.781383	4374.811667	1558.777344	578.765137
9887.781383	4374.811667	1557.729492	656.934814
9887.781383	4374.811667	1556.680664	596.004211
9887.781383	4374.811667	1555.632813	774.481262
9887.781383	4374.811667	1554.583984	770.568359
9887.781383	4374.811667	1553.535156	684.639160
9887.781383	4374.811667	1552.486328	878.995728
9887.781383	4374.811667	1551.436523	403.599701
9887.781383	4374.811667	1550.387695	317.849487
9887.781383	4374.811667	1549.337891	478.064911
9887.781383	4374.811667	1548.288086	440.178131
9887.781383	4374.811667	1547.238281	598.069214
9887.781383	4374.811667	1546.187500	610.276184
9887.781383	4374.811667	1545.136719	410.906982
9887.781383	4374.811667	1544.086914	245.757874
9887.781383	4374.811667	1543.035156	417.286407
9887.781383	4374.811667	1541.984375	481.898712
9887.781383	4374.811667	1540.933594	541.959961
9887.781383	4374.811667	1539.881836	483.824768
9887.781383	4374.811667	1538.830078	462.093048
9887.781383	4374.811667	1537.778320	481.288422
9887.781383	4374.811667	1536.725586	443.706940
9887.781383	4374.811667	1535.673828	478.839172
9887.781383	4374.811667	1534.621094	636.597290
9887.781383	4374.811667	1533.568359	444.696442
9887.781383	4374.811667	1532.515625	382.272522
9887.781383	4374.811667	1531.461914	397.053284
9887.781383	4374.811667	1530.409180	339.247894
9887.781383	4374.811667	1529.355469	397.177856
9887.781383	4374.811667	1528.301758	287.275024
9887.781383	4374.811667	1527.247070	272.677399
9887.781383	4374.811667	1526.193359	480.286255
9887.781383	4374.811667	1525.138672	467.969330
9887.781383	4374.811667	1524.083984	358.234406
9887.781383	4374.811667	1523.029297	103.558319
9887.781383	4374.811667	1521.974609	163.887482
9887.781383	4374.811667	1520.918945	251.394241
9887.781383	4374.811667	1519.863281	255.108841
9887.781383	4374.811667	1518.807617	-162.253677
9887.781383	4374.811667	1517.751953	122.269737
9887.781383	4374.811667	1516.696289	46.875576
9887.781383	4374.811667	1515.639648	-1.312552
9887.781383	4374.811667	1514.583008	-40.406128
9887.781383	4374.811667	1513.526367	29.104799
9887.781383	4374.811667	1512.469727	64.695999
9887.781383	4374.811667	1511.412109	5.343717
9887.781383	4374.811667	1510.355469	205.987625
9887.781383	4374.811667	1509.297852	-6.991219
9887.781383	4374.811667	1508.240234	58.059223
9887.781383	4374.811667	1507.181641	55.339909
9887.781383	4374.811667	1506.124023	-89.642319
9887.781383	4374.811667	1505.065430	124.506500
9887.781383	4374.811667	1504.006836	-15.861506
9887.781383	4374.811667	1502.948242	-95.199295
9887.781383	4374.811667	1501.888672	294.940338
9887.781383	4374.811667	1500.830078	21.581493
9887.781383	4374.811667	1499.770508	-28.303436
9887.781383	4374.811667	1498.710938	-12.731619
9887.781383	4374.811667	1497.650391	147.184662
9887.781383	4374.811667	1496.590820	-96.501358
9887.781383	4374.811667	1495.530273	-19.976316
9887.781383	4374.811667	1494.469727	221.067734
9887.781383	4374.811667	1493.409180	20.413162
9887.781383	4374.811667	1492.348633	54.156830
9887.781383	4374.811667	1491.287109	-62.988182
9887.781383	4374.811667	1490.225586	31.620888
9887.781383	4374.811667	1489.164063	-2.109546
9887.781383	4374.811667	1488.102539	-101.073853
9887.781383	4374.811667	1487.041016	-67.184967
9887.781383	4374.811667	1485.978516	-62.530449
9887.781383	4374.811667	1484.916016	-66.826073
9887.781383	4374.811667	1483.853516	59.330654
9887.781383	4374.811667	1482.791016	-70.868706
9887.781383	4374.811667	1481.727539	28.334095
9887.781383	4374.811667	1480.664063	-27.560041
9887.781383	4374.811667	1479.600586	62.665825
9887.781383	4374.811667	1478.537109	4.610472
9887.781383	4374.811667	1477.473633	-6.210330
9887.781383	4374.811667	1476.409180	93.011627
9887.781383	4374.811667	1475.344727	277.566132
9887.781383	4374.811667	1474.280273	102.918175
9887.781383	4374.811667	1473.215820	-111.883286
9887.781383	4374.811667	1472.151367	227.421661
9887.781383	4374.811667	1471.085938	88.967529
9887.781383	4374.811667	1470.020508	2.177751
9887.781383	4374.811667	1468.955078	437.524139
9887.781383	4374.811667	1467.888672	370.910797
9887.781383	4374.811667	1466.823242	300.019165
9887.781383	4374.811667	1465.756836	213.333191
9887.781383	4374.811667	1464.690430	26.262455
9887.781383	4374.811667	1463.624023	291.257263
9887.781383	4374.811667	1462.556641	399.110626
9887.781383	4374.811667	1461.490234	608.162720
9887.781383	4374.811667	1460.422852	336.223022
9887.781383	4374.811667	1459.355469	274.588684
9887.781383	4374.811667	1458.287109	454.201233
9887.781383	4374.811667	1457.219727	283.175018
9887.781383	4374.811667	1456.151367	384.610779
9887.781383	4374.811667	1455.083008	379.126801
9887.781383	4374.811667	1454.014648	511.641144
9887.781383	4374.811667	1452.945313	445.658966
9887.781383	4374.811667	1451.876953	360.102875
9887.781383	4374.811667	1450.807617	160.306412
9887.781383	4374.811667	1449.738281	313.673737
9887.781383	4374.811667	1448.668945	348.004761
9887.781383	4374.811667	1447.598633	224.987442
9887.781383	4374.811667	1446.528320	428.130341
9887.781383	4374.811667	1445.458008	315.349579
9887.781383	4374.811667	1444.387695	406.908905
9887.781383	4374.811667	1443.317383	180.915817
9887.781383	4374.811667	1442.246094	298.556458
9887.781383	4374.811667	1441.174805	266.247437
9887.781383	4374.811667	1440.103516	419.319855
9887.781383	4374.811667	1439.032227	379.430084
9887.781383	4374.811667	1437.960938	398.438507
9887.781383	4374.811667	1436.888672	432.864441
9887.781383	4374.811667	1435.816406	574.448547
9887.781383	4374.811667	1434.744141	446.132263
9887.781383	4374.811667	1433.670898	383.088348
9887.781383	4374.811667	1432.598633	410.648254
9887.781383	4374.811667	1431.525391	151.049072
9887.781383	4374.811667	1430.452148	661.543945
9887.781383	4374.811667	1429.378906	194.211945
9887.781383	4374.811667	1428.304688	210.139130
9887.781383	4374.811667	1427.231445	208.040405
9887.781383	4374.811667	1426.157227	53.653133
9887.781383	4374.811667	1425.083008	157.613098
9887.781383	4374.811667	1424.007813	285.275909
9887.781383	4374.811667	1422.933594	188.852341
9887.781383	4374.811667	1421.858398	227.772385
9887.781383	4374.811667	1420.783203	291.498810
9887.781383	4374.811667	1419.708008	306.850037
9887.781383	4374.811667	1418.631836	279.857574
9887.781383	4374.811667	1417.555664	266.131622
9887.781383	4374.811667	1416.479492	38.113529
9887.781383	4374.811667	1415.403320	281.066040
9887.781383	4374.811667	1414.327148	398.793823
9887.781383	4374.811667	1413.250000	242.969284
9887.781383	4374.811667	1412.173828	410.962524
9887.781383	4374.811667	1411.096680	449.085114
9887.781383	4374.811667	1410.018555	380.078400
9887.781383	4374.811667	1408.941406	445.773193
9887.781383	4374.811667	1407.863281	667.230286
9887.781383	4374.811667	1406.785156	450.285065
9887.781383	4374.811667	1405.707031	414.194275
9887.781383	4374.811667	1404.628906	365.979401
9887.781383	4374.811667	1403.549805	186.463486
9887.781383	4374.811667	1402.470703	396.750275
9887.781383	4374.811667	1401.391602	423.984253
9887.781383	4374.811667	1400.312500	463.849945
9887.781383	4374.811667	1399.233398	520.173523
9887.781383	4374.811667	1398.153320	543.442200
9887.781383	4374.811667	1397.073242	599.437317
9887.781383	4374.811667	1395.993164	389.789581
9887.781383	4374.811667	1394.913086	503.118195
9887.781383	4374.811667	1393.832031	419.446625
9887.781383	4374.811667	1392.750977	590.598999
9887.781383	4374.811667	1391.669922	457.644531
9887.781383	4374.811667	1390.588867	506.253143
9887.781383	4374.811667	1389.506836	413.593964
9887.781383	4374.811667	1388.425781	498.479858
9887.781383	4374.811667	1387.343750	537.740479
9887.781383	4374.811667	1386.261719	652.612793
9887.781383	4374.811667	1385.178711	324.690826
9887.781383	4374.811667	1384.096680	404.727661
9887.781383	4374.811667	1383.013672	381.579529
9887.781383	4374.811667	1381.930664	468.670685
9887.781383	4374.811667	1380.846680	531.473389
9887.781383	4374.811667	1379.763672	534.281250
9887.781383	4374.811667	1378.679688	359.921539
9887.781383	4374.811667	1377.595703	408.871185
9887.781383	4374.811667	1376.511719	441.714020
9887.781383	4374.811667	1375.427734	481.490967
9887.781383	4374.811667	1374.342773	457.544464
9887.781383	4374.811667	1373.257813	498.531921
9887.781383	4374.811667	1372.172852	533.120178
9887.781383	4374.811667	1371.087891	357.490814
9887.781383	4374.811667	1370.001953	475.442413
9887.781383	4374.811667	1368.916992	444.767029
9887.781383	4374.811667	1367.831055	508.228058
9887.781383	4374.811667	1366.744141	477.539398
9887.781383	4374.811667	1365.658203	396.942047
9887.781383	4374.811667	1364.571289	428.991669
9887.781383	4374.811667	1363.484375	440.126495
9887.781383	4374.811667	1362.397461	271.239990
9887.781383	4374.811667	1361.310547	390.484344
9887.781383	4374.811667	1360.222656	389.731689
9887.781383	4374.811667	1359.135742	241.063492
9887.781383	4374.811667	1358.047852	596.690979
9887.781383	4374.811667	1356.958984	294.298706
9887.781383	4374.811667	1355.871094	440.248138
9887.781383	4374.811667	1354.782227	302.119934
9887.781383	4374.811667	1353.693359	323.041443
9887.781383	4374.811667	1352.604492	343.177612
9887.781383	4374.811667	1351.515625	447.221588
9887.781383	4374.811667	1350.425781	336.535980
9887.781383	4374.811667	1349.335938	396.070374
9887.781383	4374.811667	1348.246094	366.914429
9887.781383	4374.811667	1347.156250	552.769165
9887.781383	4374.811667	1346.066406	424.047363
9887.781383	4374.811667	1344.975586	406.501556
9887.781383	4374.811667	1343.884766	599.876953
9887.781383	4374.811667	1342.793945	393.533783
9887.781383	4374.811667	1341.702148	492.199066
9887.781383	4374.811667	1340.611328	399.079193
9887.781383	4374.811667	1339.519531	423.198914
9887.781383	4374.811667	1338.427734	410.249603
9887.781383	4374.811667	1337.334961	494.258331
9887.781383	4374.811667	1336.243164	369.621582
9887.781383	4374.811667	1335.150391	259.411194
9887.781383	4374.811667	1334.057617	361.507935
9887.781383	4374.811667	1332.964844	536.434021
9887.781383	4374.811667	1331.871094	445.831848
9887.781383	4374.811667	1330.778320	539.463806
9887.781383	4374.811667	1329.684570	502.323944
9887.781383	4374.811667	1328.590820	548.037903
9887.781383	4374.811667	1327.496094	492.724762
9887.781383	4374.811667	1326.402344	640.717957
9887.781383	4374.811667	1325.307617	597.626038
9887.781383	4374.811667	1324.212891	644.764893
9887.781383	4374.811667	1323.117188	601.699097
9887.781383	4374.811667	1322.022461	698.209045
9887.781383	4374.811667	1320.926758	457.555878
9887.781383	4374.811667	1319.831055	570.320984
9887.781383	4374.811667	1318.735352	501.531525
9887.781383	4374.811667	1317.638672	458.749115
9887.781383	4374.811667	1316.542969	539.768616
9887.781383	4374.811667	1315.446289	484.810333
9887.781383	4374.811667	1314.349609	554.517090
9887.781383	4374.811667	1313.251953	455.999481
9887.781383	4374.811667	1312.155273	613.673279
9887.781383	4374.811667	1311.057617	331.011841
9887.781383	4374.811667	1309.959961	406.704803
9887.781383	4374.811667	1308.862305	479.276337
9887.781383	4374.811667	1307.763672	354.783325
9887.781383	4374.811667	1306.665039	513.737671
9887.781383	4374.811667	1305.566406	556.085388
9887.781383	4374.811667	1304.467773	457.580963
9887.781383	4374.811667	1303.369141	458.941010
9887.781383	4374.811667	1302.269531	495.637512
9887.781383	4374.811667	1301.169922	576.108032
9887.781383	4374.811667	1300.070313	563.841553
9887.781383	4374.811667	1298.970703	492.504700
9887.781383	4374.811667	1297.870117	539.870422
9887.781383	4374.811667	1296.769531	509.504059
9887.781383	4374.811667	1295.668945	373.149445
9887.781383	4374.811667	1294.568359	349.913696
9887.781383	4374.811667	1293.466797	421.090302
9887.781383	4374.811667	1292.366211	326.851074
9887.781383	4374.811667	1291.264648	238.688660
9887.781383	4374.811667	1290.162109	128.522690
9887.781383	4374.811667	1289.060547	177.999466
9887.781383	4374.811667	1287.958008	186.604874
9887.781383	4374.811667	1286.855469	82.104271
9887.781383	4374.811667	1285.752930	247.873306
9887.781383	4374.811667	1284.650391	225.102081
9887.781383	4374.811667	1283.546875	112.491455
9887.781383	4374.811667	1282.444336	224.036148
9887.781383	4374.811667	1281.339844	156.964508
9887.781383	4374.811667	1280.236328	85.130524
9887.781383	4374.811667	1279.132813	24.537798
9887.781383	4374.811667	1278.028320	64.397049
9887.781383	4374.811667	1276.923828	131.018387
9887.781383	4374.811667	1275.819336	230.399506
9887.781383	4374.811667	1274.713867	318.323425
9887.781383	4374.811667	1273.608398	183.595337
9887.781383	4374.811667	1272.503906	235.596527
9887.781383	4374.811667	1271.397461	283.416046
9887.781383	4374.811667	1270.291992	100.575493
9887.781383	4374.811667	1269.185547	120.926437
9887.781383	4374.811667	1268.080078	-16.249678
9887.781383	4374.811667	1266.972656	71.380516
9887.781383	4374.811667	1265.866211	125.766136
9887.781383	4374.811667	1264.759766	88.981277
9887.781383	4374.811667	1263.652344	-103.380379
9887.781383	4374.811667	1262.544922	43.176620
9887.781383	4374.811667	1261.436523	39.989136
9887.781383	4374.811667	1260.329102	158.214401
9887.781383	4374.811667	1259.220703	68.196426
9887.781383	4374.811667	1258.112305	70.628876
9887.781383	4374.811667	1257.003906	-84.834335
9887.781383	4374.811667	1255.895508	-115.681847
9887.781383	4374.811667	1254.786133	72.549217
9887.781383	4374.811667	1253.676758	146.878662
9887.781383	4374.811667	1252.567383	11.471128
9887.781383	4374.811667	1251.458008	91.808685
9887.781383	4374.811667	1250.347656	-26.740484
9887.781383	4374.811667	1249.237305	17.750597
9887.781383	4374.811667	1248.126953	-159.635437
9887.781383	4374.811667	1247.016602	29.218227
9887.781383	4374.811667	1245.905273	8.057725
9887.781383	4374.811667	1244.793945	24.572704
9887.781383	4374.811667	1243.682617	0.070407
9887.781383	4374.811667	1242.571289	-5.668297
9887.781383	4374.811667	1241.459961	-20.877180
9887.781383	4374.811667	1240.347656	-11.405787
9887.781383	4374.811667	1239.235352	38.074173
9887.781383	4374.811667	1238.123047	-2.068540
9887.781383	4374.811667	1237.009766	143.650528
9887.781383	4374.811667	1235.897461	60.903923
9887.781383	4374.811667	1234.784180	81.918739
9887.781383	4374.811667	1233.670898	39.423630
9887.781383	4374.811667	1232.556641	-0.370372
9887.781383	4374.811667	1231.443359	-29.653049
9887.781383	4374.811667	1230.329102	86.075172
9887.781383	4374.811667	1229.214844	-76.643585
9887.781383	4374.811667	1228.099609	-100.094383
9887.781383	4374.811667	1226.985352	-45.019741
9887.781383	4374.811667	1225.870117	86.474449
9887.781383	4374.811667	1224.754883	-78.098984
9887.781383	4374.811667	1223.639648	-27.916201
9887.781383	4374.811667	1222.523438	-9.639217
9887.781383	4374.811667	1221.408203	-38.498837
9887.781383	4374.811667	1220.291992	115.313118
9887.781383	4374.811667	1219.174805	77.533569
9887.781383	4374.811667	1218.058594	-26.641518
9887.781383	4374.811667	1216.941406	-68.823898
9887.781383	4374.811667	1215.824219	42.351807
9887.781383	4374.811667	1214.707031	85.684044
9887.781383	4374.811667	1213.589844	14.567963
9887.781383	4374.811667	1212.471680	-18.886999
9887.781383	4374.811667	1211.353516	7.485335
9887.781383	4374.811667	1210.235352	112.820335
9887.781383	4374.811667	1209.117188	-122.019081
9887.781383	4374.811667	1207.998047	-48.075825
9887.781383	4374.811667	1206.878906	44.371952
9887.781383	4374.811667	1205.759766	6.162763
9887.781383	4374.811667	1204.640625	121.024750
9887.781383	4374.811667	1203.520508	-80.186569
9887.781383	4374.811667	1202.401367	-34.991905
9887.781383	4374.811667	1201.281250	119.804497
9887.781383	4374.811667	1200.160156	124.942482
9887.781383	4374.811667	1199.040039	-82.123009
9887.781383	4374.811667	1197.918945	-140.939438
9887.781383	4374.811667	1196.797852	-4.659879
9887.781383	4374.811667	1195.676758	-57.689964
9887.781383	4374.811667	1194.555664	41.177967
9887.781383	4374.811667	1193.433594	43.499554
9887.781383	4374.811667	1192.311523	-24.741522
9887.781383	4374.811667	1191.189453	-3.486036
9887.781383	4374.811667	1190.066406	-66.944000
9887.781383	4374.811667	1188.944336	-62.569485
9887.781383	4374.811667	1187.821289	-19.210884
9887.781383	4374.811667	1186.698242	-56.815121
9887.781383	4374.811667	1185.574219	-20.281698
9887.781383	4374.811667	1184.451172	28.954941
9887.781383	4374.811667	1183.327148	-34.341373
9887.781383	4374.811667	1182.203125	72.160797
9887.781383	4374.811667	1181.078125	-35.660728
9887.781383	4374.811667	1179.954102	-66.699287
9887.781383	4374.811667	1178.829102	18.648699
9887.781383	4374.811667	1177.704102	117.580956
9887.781383	4374.811667	1176.579102	12.228011
9887.781383	4374.811667	1175.453125	-183.045074
9887.781383	4374.811667	1174.327148	-107.310081
9887.781383	4374.811667	1173.201172	-76.178650
9887.781383	4374.811667	1172.075195	44.481720
9887.781383	4374.811667	1170.949219	-56.559753
9887.781383	4374.811667	1169.822266	1.612706
9887.781383	4374.811667	1168.695313	-106.760094
9887.781383	4374.811667	1167.568359	88.987556
9887.781383	4374.811667	1166.440430	59.641502
9887.781383	4374.811667	1165.313477	-19.660896
9887.781383	4374.811667	1164.185547	64.010735
9887.781383	4374.811667	1163.057617	-5.346840
9887.781383	4374.811667	1161.928711	-20.535723
9887.781383	4374.811667	1160.800781	-47.958454
9887.781383	4374.811667	1159.671875	100.839630
9887.781383	4374.811667	1158.541992	94.388474
9887.781383	4374.811667	1157.413086	10.155766
9887.781383	4374.811667	1156.283203	-227.523071
9887.781383	4374.811667	1155.154297	-8.358974
9887.781383	4374.811667	1154.023438	-74.818527
9887.781383	4374.811667	1152.893555	-69.967911
9887.781383	4374.811667	1151.763672	-70.969666
9887.781383	4374.811667	1150.632813	-35.546951
9887.781383	4374.811667	1149.501953	79.275764
9887.781383	4374.811667	1148.370117	-89.343849
9887.781383	4374.811667	1147.239258	29.307375
9887.781383	4374.811667	1146.107422	-109.183495
9887.781383	4374.811667	1144.975586	-156.518570
9887.781383	4374.811667	1143.843750	-215.753769
9887.781383	4374.811667	1142.710938	-164.593811
9887.781383	4374.811667	1141.578125	-148.866714
9887.781383	4374.811667	1140.445313	-160.488739
9887.781383	4374.811667	1139.312500	-44.562645
9887.781383	4374.811667	1138.178711	-9.380145
9887.781383	4374.811667	1137.045898	-7.598750
9887.781383	4374.811667	1135.912109	72.668053
9887.781383	4374.811667	1134.777344	-20.665953
9887.781383	4374.811667	1133.643555	-105.589195
9887.781383	4374.811667	1132.508789	0.641165
9887.781383	4374.811667	1131.374023	-16.793880
9887.781383	4374.811667	1130.239258	84.937500
9887.781383	4374.811667	1129.104492	40.042133
9887.781383	4374.811667	1127.968750	166.428329
9887.781383	4374.811667	1126.833008	56.666847
9887.781383	4374.811667	1125.697266	2.903969
9887.781383	4374.811667	1124.560547	32.463963
9887.781383	4374.811667	1123.424805	-65.643089
9887.781383	4374.811667	1122.288086	167.504929
9887.781383	4374.811667	1121.151367	131.323654
9887.781383	4374.811667	1120.013672	111.857964
9887.781383	4374.811667	1118.876953	239.006805
9887.781383	4374.811667	1117.739258	162.638412
9887.781383	4374.811667	1116.601563	98.899986
9887.781383	4374.811667	1115.462891	104.279663
9887.781383	4374.811667	1114.324219	93.406120
9887.781383	4374.811667	1113.186523	3.663990
9887.781383	4374.811667	1112.046875	16.598001
9887.781383	4374.811667	1110.908203	13.104555
9887.781383	4374.811667	1109.769531	-54.677834
9887.781383	4374.811667	1108.629883	-89.282616
9887.781383	4374.811667	1107.490234	44.206158
9887.781383	4374.811667	1106.349609	22.370226
9887.781383	4374.811667	1105.209961	-9.746262
9887.781383	4374.811667	1104.069336	113.313232
9887.781383	4374.811667	1102.928711	235.705994
9887.781383	4374.811667	1101.787109	96.755867
9887.781383	4374.811667	1100.646484	171.392960
9887.781383	4374.811667	1099.504883	108.468140
9887.781383	4374.811667	1098.363281	82.503090
9887.781383	4374.811667	1097.221680	80.031898
9887.781383	4374.811667	1096.079102	19.236670
9887.781383	4374.811667	1094.936523	49.895031
9887.781383	4374.811667	1093.793945	-25.567312
9887.781383	4374.811667	1092.651367	188.778275
9887.781383	4374.811667	1091.507813	209.547394
9887.781383	4374.811667	1090.364258	149.554916
9887.781383	4374.811667	1089.220703	43.613289
9887.781383	4374.811667	1088.077148	227.539810
9887.781383	4374.811667	1086.933594	249.367645
9887.781383	4374.811667	1085.789063	78.025764
9887.781383	4374.811667	1084.644531	39.764729
9887.781383	4374.811667	1083.499023	83.154091
9887.781383	4374.811667	1082.354492	203.705963
9887.781383	4374.811667	1081.208984	54.823143
9887.781383	4374.811667	1080.063477	-58.421413
9887.781383	4374.811667	1078.917969	-149.481827
9887.781383	4374.811667	1077.771484	76.973038
9887.781383	4374.811667	1076.625977	-21.669395
9887.781383	4374.811667	1075.479492	182.706314
9887.781383	4374.811667	1074.332031	216.976028
9887.781383	4374.811667	1073.185547	117.481453
9887.781383	4374.811667	1072.038086	121.609344
9887.781383	4374.811667	1070.890625	156.683899
9887.781383	4374.811667	1069.743164	69.178749
9887.781383	4374.811667	1068.594727	107.055717
9887.781383	4374.811667	1067.447266	-9.797304
9887.781383	4374.811667	1066.298828	-5.262370
9887.781383	4374.811667	1065.149414	104.518860
9887.781383	4374.811667	1064.000977	156.333878
9887.781383	4374.811667	1062.851563	113.296547
9887.781383	4374.811667	1061.702148	134.860245
9887.781383	4374.811667	1060.552734	143.761322
9887.781383	4374.811667	1059.402344	238.965317
9887.781383	4374.811667	1058.252930	71.111580
9887.781383	4374.811667	1057.102539	90.534439
9887.781383	4374.811667	1055.951172	136.146957
9887.781383	4374.811667	1054.800781	201.131622
9887.781383	4374.811667	1053.649414	-4.458625
9887.781383	4374.811667	1052.498047	14.042694
9887.781383	4374.811667	1051.346680	106.194252
9887.781383	4374.811667	1050.194336	38.550259
9887.781383	4374.811667	1049.042969	127.715378
9887.781383	4374.811667	1047.890625	92.141708
9887.781383	4374.811667	1046.738281	213.005646
9887.781383	4374.811667	1045.584961	67.200195
9887.781383	4374.811667	1044.431641	133.915497
9887.781383	4374.811667	1043.278320	139.676086
9887.781383	4374.811667	1042.125000	12.899998
9887.781383	4374.811667	1040.971680	78.377403
9887.781383	4374.811667	1039.817383	58.967964
9887.781383	4374.811667	1038.663086	195.044601
9887.781383	4374.811667	1037.508789	61.920921
9887.781383	4374.811667	1036.353516	12.131312
9887.781383	4374.811667	1035.198242	139.787079
9887.781383	4374.811667	1034.042969	111.917641
9887.781383	4374.811667	1032.887695	-24.956354
9887.781383	4374.811667	1031.732422	-63.641418
9887.781383	4374.811667	1030.576172	-134.006577
9887.781383	4374.811667	1029.419922	12.434612
9887.781383	4374.811667	1028.263672	65.462570
9887.781383	4374.811667	1027.106445	126.336136
9887.781383	4374.811667	1025.949219	140.937347
9887.781383	4374.811667	1024.792969	-80.921982
9887.781383	4374.811667	1023.634766	15.622139
9887.781383	4374.811667	1022.477539	16.700191
9887.781383	4374.811667	1021.319336	-19.838421
9887.781383	4374.811667	1020.161133	43.223438
9887.781383	4374.811667	1019.002930	-0.017371
9887.781383	4374.811667	1017.843750	44.012260
9887.781383	4374.811667	1016.684570	41.634056
9887.781383	4374.811667	1015.525391	-80.931107
9887.781383	4374.811667	1014.366211	-55.121510
9887.781383	4374.811667	1013.207031	76.018105
9887.781383	4374.811667	1012.046875	74.777550
9887.781383	4374.811667	1010.886719	65.114418
9887.781383	4374.811667	1009.726563	25.174417
9887.781383	4374.811667	1008.565430	30.272682
9887.781383	4374.811667	1007.404297	115.896187
9887.781383	4374.811667	1006.243164	64.835175
9887.781383	4374.811667	1005.082031	-99.597649
9887.781383	4374.811667	1003.920898	9.689725
9887.781383	4374.811667	1002.758789	71.886353
9887.781383	4374.811667	1001.596680	151.461761
9887.781383	4374.811667	1000.433594	153.277832
9887.781383	4374.811667	999.271484	-9.468640
9887.781383	4374.811667	998.108398	-77.083435
9887.781383	4374.811667	996.945313	32.962635
9887.781383	4374.811667	995.782227	-76.221802
9887.781383	4374.811667	994.618164	-8.627502
9887.781383	4374.811667	993.454102	24.759167
9887.781383	4374.811667	992.290039	-13.978549
9887.781383	4374.811667	991.125977	-38.642178
9887.781383	4374.811667	989.960938	-230.413956
9887.781383	4374.811667	988.796875	45.625977
9887.781383	4374.811667	987.630859	16.655952
9887.781383	4374.811667	986.465820	-35.187424
9887.781383	4374.811667	985.300781	17.354021
9887.781383	4374.811667	984.134766	14.751281
9887.781383	4374.811667	982.968750	27.002569
9887.781383	4374.811667	981.801758	201.670639
9887.781383	4374.811667	980.635742	-42.536274
9887.781383	4374.811667	979.468750	116.121323
9887.781383	4374.811667	978.301758	-54.027214
9887.781383	4374.811667	977.133789	30.900139
9887.781383	4374.811667	975.966797	-124.630424
9887.781383	4374.811667	974.798828	-1.916646
9887.781383	4374.811667	973.630859	-19.743362
9887.781383	4374.811667	972.461914	87.358299
9887.781383	4374.811667	971.293945	49.293167
9887.781383	4374.811667	970.125000	6.815105
9887.781383	4374.811667	968.956055	-17.114542
9887.781383	4374.811667	967.786133	119.691780
9887.781383	4374.811667	966.617188	90.904663
9887.781383	4374.811667	965.447266	156.578629
9887.781383	4374.811667	964.276367	-3.723609
9887.781383	4374.811667	963.106445	167.574890
9887.781383	4374.811667	961.935547	129.423080
9887.781383	4374.811667	960.764648	106.180870
9887.781383	4374.811667	959.593750	-79.646591
9887.781383	4374.811667	958.422852	-27.994583
9887.781383	4374.811667	957.250977	11.083109
9887.781383	4374.811667	956.079102	119.367348
9887.781383	4374.811667	954.907227	-94.839844
9887.781383	4374.811667	953.734375	-103.046394
9887.781383	4374.811667	952.562500	-109.051071
9887.781383	4374.811667	951.389648	22.044044
9887.781383	4374.811667	950.215820	26.305588
9887.781383	4374.811667	949.042969	-77.809273
9887.781383	4374.811667	947.869141	-54.122429
9887.781383	4374.811667	946.695313	43.236938
9887.781383	4374.811667	945.521484	-128.711365
9887.781383	4374.811667	944.346680	-120.390419
9887.781383	4374.811667	943.172852	-84.279457
9887.781383	4374.811667	941.998047	79.213585
9887.781383	4374.811667	940.822266	74.757874
9887.781383	4374.811667	939.647461	85.217018
9887.781383	4374.811667	938.471680	265.763092
9887.781383	4374.811667	937.295898	10.643916
9887.781383	4374.811667	936.119141	131.576019
9887.781383	4374.811667	934.943359	82.441650
9887.781383	4374.811667	933.766602	73.759445
9887.781383	4374.811667	932.589844	43.795860
9887.781383	4374.811667	931.413086	105.099983
9887.781383	4374.811667	930.235352	232.356033
9887.781383	4374.811667	929.057617	127.920319
9887.781383	4374.811667	927.879883	204.098770
9887.781383	4374.811667	926.702148	171.934616
9887.781383	4374.811667	925.523438	48.484097
9887.781383	4374.811667	924.344727	26.940475
9887.781383	4374.811667	923.166016	-34.930370
9887.781383	4374.811667	921.987305	181.206772
9887.781383	4374.811667	920.807617	19.594614
9887.781383	4374.811667	919.627930	21.126665
9887.781383	4374.811667	919.497070	-52.701988
9887.781383	4374.811667	918.331055	82.670792
9887.781383	4374.811667	917.165039	120.444328
9887.781383	4374.811667	915.999023	-117.397736
9887.781383	4374.811667	914.833008	111.138962
9887.781383	4374.811667	913.666016	-43.974400
9887.781383	4374.811667	912.499023	61.559013
9887.781383	4374.811667	911.332031	228.470871
9887.781383	4374.811667	910.165039	117.878563
9887.781383	4374.811667	908.997070	113.192719
9887.781383	4374.811667	907.830078	-18.514673
9887.781383	4374.811667	906.661133	12.797321
9887.781383	4374.811667	905.493164	77.945618
9887.781383	4374.811667	904.325195	30.933582
9887.781383	4374.811667	903.156250	-73.174911
9887.781383	4374.811667	901.987305	23.655283
9887.781383	4374.811667	900.818359	69.697800
9887.781383	4374.811667	899.648438	-28.029396
9887.781383	4374.811667	898.478516	108.874077
9887.781383	4374.811667	897.308594	-14.187301
9887.781383	4374.811667	896.138672	27.580606
9887.781383	4374.811667	894.968750	73.550049
9887.781383	4374.811667	893.797852	-123.352844
9887.781383	4374.811667	892.626953	15.519390
9887.781383	4374.811667	891.456055	120.556564
9887.781383	4374.811667	890.284180	22.944563
9887.781383	4374.811667	889.113281	-216.003311
9887.781383	4374.811667	887.941406	87.307190
9887.781383	4374.811667	886.768555	-46.104263
9887.781383	4374.811667	885.596680	58.821747
9887.781383	4374.811667	884.423828	148.943085
9887.781383	4374.811667	883.250977	-7.594723
9887.781383	4374.811667	882.078125	6.630318
9887.781383	4374.811667	880.905273	16.633003
9887.781383	4374.811667	879.731445	-53.419403
9887.781383	4374.811667	878.557617	106.123482
9887.781383	4374.811667	877.383789	-117.641548
9887.781383	4374.811667	876.209961	136.582520
9887.781383	4374.811667	875.035156	142.328156
9887.781383	4374.811667	873.860352	-18.179085
9887.781383	4374.811667	872.685547	17.048223
9887.781383	4374.811667	871.510742	-33.986885
9887.781383	4374.811667	870.334961	123.208000
9887.781383	4374.811667	869.159180	-16.143520
9887.781383	4374.811667	867.983398	164.105133
9887.781383	4374.811667	866.807617	37.411072
9887.781383	4374.811667	865.630859	-99.739166
9887.781383	4374.811667	864.454102	-75.059494
9887.781383	4374.811667	863.277344	46.234341
9887.781383	4374.811667	862.100586	30.969555
9887.781383	4374.811667	860.922852	43.006680
9887.781383	4374.811667	859.745117	19.350542
9887.781383	4374.811667	858.567383	-86.151154
9887.781383	4374.811667	857.389648	-61.510078
9887.781383	4374.811667	856.210938	107.880379
9887.781383	4374.811667	855.032227	-205.230835
9887.781383	4374.811667	853.853516	-75.726509
9887.781383	4374.811667	852.674805	-153.846832
9887.781383	4374.811667	851.495117	-53.754772
9887.781383	4374.811667	850.315430	-81.549049
9887.781383	4374.811667	849.135742	-155.429840
9887.781383	4374.811667	847.956055	-49.116871
9887.781383	4374.811667	846.775391	-70.611977
9887.781383	4374.811667	845.595703	90.085587
9887.781383	4374.811667	844.415039	3.665499
9887.781383	4374.811667	843.233398	124.510551
9887.781383	4374.811667	842.052734	40.210346
9887.781383	4374.811667	840.871094	-129.841370
9887.781383	4374.811667	839.689453	-9.046086
9887.781383	4374.811667	838.506836	-68.169373
9887.781383	4374.811667	837.325195	-74.992729
9887.781383	4374.811667	836.142578	110.525024
9887.781383	4374.811667	834.959961	-163.880905
9887.781383	4374.811667	833.777344	-145.606110
9887.781383	4374.811667	832.593750	33.541862
9887.781383	4374.811667	831.410156	35.056965
9887.781383	4374.811667	830.226563	-188.987640
9887.781383	4374.811667	829.042969	-26.649635
9887.781383	4374.811667	827.858398	43.764347
9887.781383	4374.811667	826.673828	16.050983
9887.781383	4374.811667	825.489258	50.949440
9887.781383	4374.811667	824.304688	27.414692
9887.781383	4374.811667	823.120117	129.041351
9887.781383	4374.811667	821.934570	-63.426441
9887.781383	4374.811667	820.749023	59.025726
9887.781383	4374.811667	819.562500	66.770866
9887.781383	4374.811667	818.376953	107.857506
9887.781383	4374.811667	817.190430	-180.308075
9887.781383	4374.811667	816.003906	-132.941925
9887.781383	4374.811667	814.817383	-152.250229
9887.781383	4374.811667	813.629883	-32.028023
9887.781383	4374.811667	812.442383	-174.194458
9887.781383	4374.811667	811.254883	-10.309301
9887.781383	4374.811667	810.067383	-125.373680
9887.781383	4374.811667	808.878906	-53.125011
9887.781383	4374.811667	807.690430	31.571213
9887.781383	4374.811667	806.501953	126.627892
9887.781383	4374.811667	805.313477	175.893448
9887.781383	4374.811667	804.124023	94.156830
9887.781383	4374.811667	802.934570	-108.109604
9887.781383	4374.811667	801.745117	134.429901
9887.781383	4374.811667	800.555664	85.981148
9887.781383	4374.811667	799.365234	166.341843
9887.781383	4374.811667	798.175781	107.511642
9887.781383	4374.811667	796.985352	183.670090
9887.781383	4374.811667	795.793945	45.962456
9887.781383	4374.811667	794.603516	28.688217
9887.781383	4374.811667	793.412109	69.520035
9887.781383	4374.811667	792.220703	12.816028
9887.781383	4374.811667	791.028320	22.507576
9887.781383	4374.811667	789.836914	28.038734
9887.781383	4374.811667	788.644531	39.781307
9887.781383	4374.811667	787.452148	-203.469086
9887.781383	4374.811667	786.258789	5.196420
9887.781383	4374.811667	785.066406	25.201412
9887.781383	4374.811667	783.873047	-60.468124
9887.781383	4374.811667	782.679688	-23.905239
9887.781383	4374.811667	781.485352	172.089905
9887.781383	4374.811667	780.291992	-10.895009
9887.781383	4374.811667	779.097656	-13.722711
9887.781383	4374.811667	777.903320	227.648529
9887.781383	4374.811667	776.708008	204.061066
9887.781383	4374.811667	775.512695	81.173828
9887.781383	4374.811667	774.318359	-43.741932
9887.781383	4374.811667	773.122070	42.303379
9887.781383	4374.811667	771.926758	62.143707
9887.781383	4374.811667	770.730469	7.552889
9887.781383	4374.811667	769.534180	43.899826
9887.781383	4374.811667	768.337891	119.475174
9887.781383	4374.811667	767.141602	71.063736
9887.781383	4374.811667	765.944336	94.944275
9887.781383	4374.811667	764.747070	94.021843
9887.781383	4374.811667	763.549805	117.858559
9887.781383	4374.811667	762.351563	197.399170
9887.781383	4374.811667	761.154297	120.059700
9887.781383	4374.811667	759.956055	81.936996
9887.781383	4374.811667	758.757813	10.811159
9887.781383	4374.811667	757.558594	-2.557724
9887.781383	4374.811667	756.359375	169.627060
9887.781383	4374.811667	755.160156	158.257690
9887.781383	4374.811667	753.960938	27.338636
9887.781383	4374.811667	752.761719	90.146851
9887.781383	4374.811667	751.561523	64.326126
9887.781383	4374.811667	750.361328	122.944702
9887.781383	4374.811667	749.160156	204.171722
9887.781383	4374.811667	747.959961	139.166672
9887.781383	4374.811667	746.758789	2.125629
9887.781383	4374.811667	745.557617	85.323944
9887.781383	4374.811667	744.356445	152.005325
9887.781383	4374.811667	743.154297	196.009720
9887.781383	4374.811667	741.952148	149.479675
9887.781383	4374.811667	740.750000	88.552460
9887.781383	4374.811667	739.547852	-7.321185
9887.781383	4374.811667	738.344727	24.256212
9887.781383	4374.811667	737.142578	66.071365
9887.781383	4374.811667	735.939453	1.008523
9887.781383	4374.811667	734.735352	57.140415
9887.781383	4374.811667	733.532227	224.123016
9887.781383	4374.811667	732.328125	230.856064
9887.781383	4374.811667	731.124023	295.038910
9887.781383	4374.811667	729.918945	-61.571766
9887.781383	4374.811667	728.714844	86.722183
9887.781383	4374.811667	727.509766	239.029297
9887.781383	4374.811667	726.303711	56.915462
9887.781383	4374.811667	725.098633	-34.922043
9887.781383	4374.811667	723.892578	-36.539852
9887.781383	4374.811667	722.686523	58.156067
9887.781383	4374.811667	721.480469	91.300018
9887.781383	4374.811667	720.274414	40.391556
9887.781383	4374.811667	719.067383	9.959620
9887.781383	4374.811667	717.860352	12.278016
9887.781383	4374.811667	716.653320	30.944923
9887.781383	4374.811667	715.445313	67.997025
9887.781383	4374.811667	714.238281	119.327339
9887.781383	4374.811667	713.030273	-91.333115
9887.781383	4374.811667	711.821289	-128.033691
9887.781383	4374.811667	710.613281	127.756485
9887.781383	4374.811667	709.404297	-9.254184
9887.781383	4374.811667	708.195313	17.331364
9887.781383	4374.811667	706.986328	-27.678726
9887.781383	4374.811667	705.776367	103.060616
9887.781383	4374.811667	704.566406	72.281502
9887.781383	4374.811667	703.356445	8.791101
9887.781383	4374.811667	702.146484	-5.690317
9887.781383	4374.811667	700.935547	24.722240
9887.781383	4374.811667	699.724609	122.458275
9887.781383	4374.811667	698.513672	-41.165257
9887.781383	4374.811667	697.302734	-80.268906
9887.781383	4374.811667	696.090820	-92.872093
9887.781383	4374.811667	694.878906	-142.229752
9887.781383	4374.811667	693.666992	-132.462402
9887.781383	4374.811667	692.455078	30.192213
9887.781383	4374.811667	691.242188	-7.053008
9887.781383	4374.811667	690.029297	33.128197
9887.781383	4374.811667	688.816406	-2.149341
9887.781383	4374.811667	687.602539	70.525414
9887.781383	4374.811667	686.389648	61.648491
9887.781383	4374.811667	685.175781	274.711304
9887.781383	4374.811667	683.960938	37.662533
9887.781383	4374.811667	682.747070	171.159607
9887.781383	4374.811667	681.532227	178.370468
9887.781383	4374.811667	680.317383	73.618759
9887.781383	4374.811667	679.102539	9.551577
9887.781383	4374.811667	677.886719	51.230110
9887.781383	4374.811667	676.670898	33.870701
9887.781383	4374.811667	675.455078	79.498390
9887.781383	4374.811667	674.239258	96.602097
9887.781383	4374.811667	673.022461	54.713585
9887.781383	4374.811667	671.805664	110.321823
9887.781383	4374.811667	670.588867	52.100330
9887.781383	4374.811667	669.372070	89.308540
9887.781383	4374.811667	668.154297	126.450760
9887.781383	4374.811667	666.936523	-37.452610
9887.781383	4374.811667	665.718750	25.985834
9887.781383	4374.811667	664.500977	310.534363
9887.781383	4374.811667	663.282227	294.647308
9887.781383	4374.811667	662.063477	323.339478
9887.781383	4374.811667	660.844727	94.417160
9887.781383	4374.811667	659.625000	-4.699511
9887.781383	4374.811667	658.405273	-57.202694
9887.781383	4374.811667	657.185547	68.610497
9887.781383	4374.811667	655.965820	180.134369
9887.781383	4374.811667	654.745117	-32.574421
9887.781383	4374.811667	653.525391	66.665024
9887.781383	4374.811667	652.303711	74.683212
9887.781383	4374.811667	651.083008	80.620911
9887.781383	4374.811667	649.861328	126.983131
9887.781383	4374.811667	648.640625	-99.922913
9887.781383	4374.811667	647.417969	15.138121
9887.781383	4374.811667	646.196289	316.197174
9887.781383	4374.811667	644.973633	248.996277
9887.781383	4374.811667	643.750977	-22.449108
9887.781383	4374.811667	642.528320	201.441971
9887.781383	4374.811667	641.305664	176.586395
9887.781383	4374.811667	640.082031	196.140060
9887.781383	4374.811667	638.858398	153.000504
9887.781383	4374.811667	637.634766	53.270180
9887.781383	4374.811667	636.410156	42.376389
9887.781383	4374.811667	635.185547	154.588898
9887.781383	4374.811667	633.960938	-44.157772
9887.781383	4374.811667	632.736328	172.856079
9887.781383	4374.811667	631.510742	-80.401367
9887.781383	4374.811667	630.285156	35.549835
9887.781383	4374.811667	629.059570	6.184299
9887.781383	4374.811667	627.833984	-41.371979
9887.781383	4374.811667	626.607422	219.476990
9887.781383	4374.811667	625.380859	169.765076
9887.781383	4374.811667	624.154297	-33.131691
9887.781383	4374.811667	622.927734	-177.571625
9887.781383	4374.811667	621.700195	82.857529
9887.781383	4374.811667	620.472656	37.017033
9887.781383	4374.811667	619.245117	208.588623
9887.781383	4374.811667	618.016602	76.067513
9887.781383	4374.811667	616.788086	36.124660
9887.781383	4374.811667	615.559570	112.847145
9887.781383	4374.811667	614.331055	284.031006
9887.781383	4374.811667	613.101563	0.534630
9887.781383	4374.811667	611.872070	-115.996185
9887.781383	4374.811667	610.642578	151.459259
9887.781383	4374.811667	609.413086	-97.824387
9887.781383	4374.811667	608.182617	8.634155
9887.781383	4374.811667	606.952148	-77.884308
9887.781383	4374.811667	605.721680	-39.880501
9887.781383	4374.811667	604.491211	52.275734
9887.781383	4374.811667	603.259766	-20.307482
9887.781383	4374.811667	602.028320	43.590343
9887.781383	4374.811667	600.796875	125.471466
9887.781383	4374.811667	599.564453	96.899017
9887.781383	4374.811667	598.332031	-40.046982
9887.781383	4374.811667	597.099609	-70.683563
9887.781383	4374.811667	595.867188	-87.321892
9887.781383	4374.811667	594.633789	-59.901871
9887.781383	4374.811667	593.400391	-116.731934
9887.781383	4374.811667	592.166992	-105.452309
9887.781383	4374.811667	590.933594	-200.419022
9887.781383	4374.811667	589.699219	25.106640
9887.781383	4374.811667	588.464844	100.281281
9887.781383	4374.811667	587.230469	7.180563
9887.781383	4374.811667	585.995117	72.214012
9887.781383	4374.811667	584.760742	-64.972191
9887.781383	4374.811667	583.525391	222.067490
9887.781383	4374.811667	582.289063	-35.232937
9887.781383	4374.811667	581.053711	-34.443859
9887.781383	4374.811667	579.817383	-197.685318
9887.781383	4374.811667	578.581055	-25.017120
9887.781383	4374.811667	577.343750	53.579502
9887.781383	4374.811667	576.107422	58.156570
9887.781383	4374.811667	574.870117	38.707077
9887.781383	4374.811667	573.631836	-0.758713
9887.781383	4374.811667	572.394531	-78.194412
9887.781383	4374.811667	571.156250	87.961174
9887.781383	4374.811667	569.917969	-95.356300
9887.781383	4374.811667	568.679688	-51.102264
9887.781383	4374.811667	567.440430	40.977222
9887.781383	4374.811667	566.202148	-54.553509
9887.781383	4374.811667	564.961914	97.241798
9887.781383	4374.811667	563.722656	-26.264168
9887.781383	4374.811667	562.482422	101.456238
9887.781383	4374.811667	561.243164	93.540863
9887.781383	4374.811667	560.001953	-39.973770
9887.781383	4374.811667	558.761719	39.735607
9887.781383	4374.811667	557.520508	-85.814301
9887.781383	4374.811667	556.279297	21.676832
9887.781383	4374.811667	555.038086	47.447029
9887.781383	4374.811667	553.795898	-50.261700
9887.781383	4374.811667	552.554688	-56.400940
9887.781383	4374.811667	551.311523	60.797779
9887.781383	4374.811667	550.069336	6.820391
9887.781383	4374.811667	548.826172	0.568073
9887.781383	4374.811667	547.583984	-129.005295
9887.781383	4374.811667	546.339844	-73.655907
9887.781383	4374.811667	545.096680	3.512615
9887.781383	4374.811667	543.852539	-82.352631
9887.781383	4374.811667	542.608398	82.150536
9887.781383	4374.811667	541.364258	73.725998
9887.781383	4374.811667	540.119141	11.648773
9887.781383	4374.811667	538.875000	-42.478539
9887.781383	4374.811667	537.628906	-90.662521
9887.781383	4374.811667	536.383789	-1.890205
9887.781383	4374.811667	535.137695	-4.466892
9887.781383	4374.811667	533.892578	-46.740059
9887.781383	4374.811667	532.645508	0.233701
9887.781383	4374.811667	531.399414	-107.514893
9887.781383	4374.811667	530.152344	107.941132
9887.781383	4374.811667	528.905273	87.392784
9887.781383	4374.811667	527.658203	-6.495169
9887.781383	4374.811667	526.410156	-128.107101
9887.781383	4374.811667	525.163086	-95.159508
9887.781383	4374.811667	523.914063	24.893257
9887.781383	4374.811667	522.666016	8.251027
9887.781383	4374.811667	521.416992	82.663803
9887.781383	4374.811667	520.167969	-112.157501
9887.781383	4374.811667	518.918945	-89.231796
9887.781383	4374.811667	517.669922	-84.135628
9887.781383	4374.811667	516.419922	25.776726
9887.781383	4374.811667	515.169922	30.814774
9887.781383	4374.811667	513.919922	-132.223083
9887.781383	4374.811667	512.668945	17.121290
9887.781383	4374.811667	511.417969	-31.243023
9887.781383	4374.811667	510.166992	-14.392695
9887.781383	4374.811667	508.916016	-3.485483
9887.781383	4374.811667	507.664063	-2.473527
9887.781383	4374.811667	506.412109	51.843189
9887.781383	4374.811667	505.160156	60.720886
9887.781383	4374.811667	503.907227	-62.663773
9887.781383	4374.811667	502.655273	-59.702217
9887.781383	4374.811667	501.402344	108.971169
9887.781383	4374.811667	500.148438	-6.483247
9887.781383	4374.811667	498.895508	-41.035103
9887.781383	4374.811667	497.641602	-8.548409
9887.781383	4374.811667	496.387695	53.485188
9887.781383	4374.811667	495.132813	74.092651
9887.781383	4374.811667	493.878906	63.162586
9887.781383	4374.811667	492.624023	266.951874
9887.781383	4374.811667	491.368164	226.415527
9887.781383	4374.811667	490.113281	239.061127
9887.781383	4374.811667	488.857422	285.155182
9887.781383	4374.811667	487.601563	112.743828
9887.781383	4374.811667	486.344727	145.048920
9887.781383	4374.811667	485.088867	94.704865
9887.781383	4374.811667	483.832031	182.057938
9887.781383	4374.811667	482.575195	76.638420
9887.781383	4374.811667	481.317383	228.816376
9887.781383	4374.811667	480.059570	306.218628
9887.781383	4374.811667	478.801758	301.033966
9887.781383	4374.811667	477.543945	175.981323
9887.781383	4374.811667	476.285156	186.511536
9887.781383	4374.811667	475.027344	216.668671
9887.781383	4374.811667	473.767578	142.715790
9887.781383	4374.811667	472.508789	100.195396
9887.781383	4374.811667	471.249023	212.728302
9887.781383	4374.811667	469.989258	213.341141
9887.781383	4374.811667	468.729492	219.819702
9887.781383	4374.811667	467.469727	281.195770
9887.781383	4374.811667	466.208984	244.463272
9887.781383	4374.811667	464.948242	182.234482
9887.781383	4374.811667	463.686523	363.068573
9887.781383	4374.811667	462.425781	165.558685
9887.781383	4374.811667	461.164063	377.610779
9887.781383	4374.811667	459.901367	276.098724
9887.781383	4374.811667	458.639648	290.156525
9887.781383	4374.811667	457.376953	259.129059
9887.781383	4374.811667	456.114258	378.817413
9887.781383	4374.811667	454.851563	326.174072
9887.781383	4374.811667	453.587891	177.617447
9887.781383	4374.811667	452.324219	365.582031
9887.781383	4374.811667	451.060547	248.280762
9887.781383	4374.811667	449.796875	218.977127
9887.781383	4374.811667	448.532227	240.457001
9887.781383	4374.811667	447.267578	240.366348
9887.781383	4374.811667	446.002930	165.948746
9887.781383	4374.811667	444.737305	370.895691
9887.781383	4374.811667	443.471680	319.779602
9887.781383	4374.811667	442.206055	387.745880
9887.781383	4374.811667	440.940430	369.687866
9887.781383	4374.811667	439.673828	458.918243
9887.781383	4374.811667	438.407227	225.980576
9887.781383	4374.811667	437.140625	309.169067
9887.781383	4374.811667	435.873047	263.454803
9887.781383	4374.811667	434.605469	469.273590
9887.781383	4374.811667	433.337891	427.233490
9887.781383	4374.811667	432.070313	402.645447
9887.781383	4374.811667	430.801758	440.316376
9887.781383	4374.811667	429.533203	421.331024
9887.781383	4374.811667	428.264648	330.130554
9887.781383	4374.811667	426.996094	308.958710
9887.781383	4374.811667	425.726563	371.387665
9887.781383	4374.811667	424.457031	581.620850
9887.781383	4374.811667	423.186523	470.389923
9887.781383	4374.811667	421.916992	485.555969
9887.781383	4374.811667	420.646484	409.079865
9887.781383	4374.811667	419.375977	528.943787
9887.781383	4374.811667	418.104492	500.737274
9887.781383	4374.811667	416.833008	328.445099
9887.781383	4374.811667	415.561523	317.386902
9887.781383	4374.811667	414.290039	399.417206
9887.781383	4374.811667	413.017578	356.805450
9887.781383	4374.811667	411.746094	397.532013
9887.781383	4374.811667	410.472656	368.049103
9887.781383	4374.811667	409.200195	416.015839
9887.781383	4374.811667	407.926758	382.138153
9887.781383	4374.811667	406.653320	245.115646
9887.781383	4374.811667	405.379883	385.399384
9887.781383	4374.811667	404.105469	273.064758
9887.781383	4374.811667	402.831055	439.822784
9887.781383	4374.811667	401.556641	557.697693
9887.781383	4374.811667	400.282227	471.579590
9887.781383	4374.811667	399.006836	288.206635
9887.781383	4374.811667	397.731445	403.045135
9887.781383	4374.811667	396.456055	180.274200
9887.781383	4374.811667	395.179688	234.251999
9887.781383	4374.811667	393.903320	570.606689
9887.781383	4374.811667	392.626953	395.138184
9887.781383	4374.811667	391.350586	215.441116
9887.781383	4374.811667	390.073242	240.549438
9887.781383	4374.811667	388.795898	274.859436
9887.781383	4374.811667	387.518555	353.176300
9887.781383	4374.811667	386.240234	340.025818
9887.781383	4374.811667	384.961914	299.288330
9887.781383	4374.811667	383.683594	258.036285
9887.781383	4374.811667	382.405273	345.775177
9887.781383	4374.811667	381.125977	255.073257
9887.781383	4374.811667	379.846680	103.916016
9887.781383	4374.811667	378.567383	153.139618
9887.781383	4374.811667	377.287109	253.845520
9887.781383	4374.811667	376.006836	363.512238
9887.781383	4374.811667	374.726563	377.854248
9887.781383	4374.811667	373.446289	208.119736
9887.781383	4374.811667	372.165039	236.498749
9887.781383	4374.811667	370.883789	96.264572
9887.781383	4374.811667	369.602539	283.260406
9887.781383	4374.811667	368.320313	328.579132
9887.781383	4374.811667	367.039063	170.627106
9887.781383	4374.811667	365.755859	71.623642
9887.781383	4374.811667	364.473633	133.717300
9887.781383	4374.811667	363.190430	21.446840
9887.781383	4374.811667	361.907227	139.486847
9887.781383	4374.811667	360.624023	169.855026
9887.781383	4374.811667	359.340820	75.994217
9887.781383	4374.811667	358.056641	-16.931067
9887.781383	4374.811667	356.772461	-56.955067
9887.781383	4374.811667	355.487305	182.907959
9887.781383	4374.811667	354.202148	54.087749
9887.781383	4374.811667	352.916992	47.303001
9887.781383	4374.811667	351.631836	150.901611
9887.781383	4374.811667	350.346680	-173.584686
9887.781383	4374.811667	349.060547	202.449829
9887.781383	4374.811667	347.774414	-12.963011
9887.781383	4374.811667	346.487305	43.230152
9887.781383	4374.811667	345.200195	111.506706
9887.781383	4374.811667	343.913086	61.217754
9887.781383	4374.811667	342.625977	241.882538
9887.781383	4374.811667	341.338867	134.965805
9887.781383	4374.811667	340.050781	39.998833
9887.781383	4374.811667	338.762695	-2.732390
9887.781383	4374.811667	337.473633	-85.435066
9887.781383	4374.811667	336.184570	-73.817886
9887.781383	4374.811667	334.895508	-71.541618
9887.781383	4374.811667	333.606445	-86.313805
9887.781383	4374.811667	332.317383	46.680542
9887.781383	4374.811667	331.027344	93.442955
9887.781383	4374.811667	329.736328	30.988445
9887.781383	4374.811667	328.446289	5.022154
9887.781383	4374.811667	327.155273	13.455304
9887.781383	4374.811667	325.864258	291.781982
9887.781383	4374.811667	324.573242	119.975327
9887.781383	4374.811667	323.281250	-61.572895
9887.781383	4374.811667	321.989258	-115.084114
9887.781383	4374.811667	320.697266	-145.916550
9887.781383	4374.811667	319.405273	-100.586739
9887.781383	4374.811667	318.112305	-42.371185
9887.781383	4374.811667	316.819336	-152.900452
9887.781383	4374.811667	315.526367	-46.014801
9887.781383	4374.811667	314.232422	-14.372787
9887.781383	4374.811667	312.938477	108.301048
9887.781383	4374.811667	311.644531	-31.499256
9887.781383	4374.811667	310.349609	-110.992638
9887.781383	4374.811667	309.054688	-4.195625
9887.781383	4374.811667	307.759766	-16.726349
9887.781383	4374.811667	306.464844	194.956955
9887.781383	4374.811667	305.168945	44.768108
9887.781383	4374.811667	303.873047	-93.140366
9887.781383	4374.811667	302.577148	166.412842
9887.781383	4374.811667	301.281250	441.727814
9887.781383	4374.811667	299.984375	479.070648
