#X		#Y		#Wave		#Intensity
-15457.506915	5376.268333	1999.946289	75.002373
-15457.506915	5376.268333	1998.981445	-28.090187
-15457.506915	5376.268333	1998.017578	31.657866
-15457.506915	5376.268333	1997.052734	69.138222
-15457.506915	5376.268333	1996.088867	57.109463
-15457.506915	5376.268333	1995.124023	5.504130
-15457.506915	5376.268333	1994.159180	10.935456
-15457.506915	5376.268333	1993.193359	-60.349476
-15457.506915	5376.268333	1992.228516	-37.476166
-15457.506915	5376.268333	1991.262695	69.597878
-15457.506915	5376.268333	1990.296875	-93.085968
-15457.506915	5376.268333	1989.331055	46.217216
-15457.506915	5376.268333	1988.365234	-42.094791
-15457.506915	5376.268333	1987.398438	225.853500
-15457.506915	5376.268333	1986.432617	-33.019306
-15457.506915	5376.268333	1985.465820	66.768974
-15457.506915	5376.268333	1984.499023	-21.325291
-15457.506915	5376.268333	1983.532227	9.288710
-15457.506915	5376.268333	1982.565430	64.637856
-15457.506915	5376.268333	1981.597656	-1.068920
-15457.506915	5376.268333	1980.629883	-168.002731
-15457.506915	5376.268333	1979.662109	33.162697
-15457.506915	5376.268333	1978.694336	58.955853
-15457.506915	5376.268333	1977.726563	139.082962
-15457.506915	5376.268333	1976.758789	90.845993
-15457.506915	5376.268333	1975.790039	8.099236
-15457.506915	5376.268333	1974.821289	-44.982239
-15457.506915	5376.268333	1973.852539	67.273735
-15457.506915	5376.268333	1972.883789	75.910934
-15457.506915	5376.268333	1971.915039	-46.142078
-15457.506915	5376.268333	1970.945313	-42.379391
-15457.506915	5376.268333	1969.975586	3.310106
-15457.506915	5376.268333	1969.005859	-20.015055
-15457.506915	5376.268333	1968.036133	-127.102959
-15457.506915	5376.268333	1967.066406	-32.096699
-15457.506915	5376.268333	1966.096680	-55.356602
-15457.506915	5376.268333	1965.125977	5.146900
-15457.506915	5376.268333	1964.155273	45.940010
-15457.506915	5376.268333	1963.184570	42.411972
-15457.506915	5376.268333	1962.213867	31.511606
-15457.506915	5376.268333	1961.242188	-107.354904
-15457.506915	5376.268333	1960.271484	-5.012692
-15457.506915	5376.268333	1959.299805	-82.297920
-15457.506915	5376.268333	1958.328125	20.016851
-15457.506915	5376.268333	1957.356445	-57.230286
-15457.506915	5376.268333	1956.384766	94.231895
-15457.506915	5376.268333	1955.412109	9.635423
-15457.506915	5376.268333	1954.439453	89.757584
-15457.506915	5376.268333	1953.467773	19.946949
-15457.506915	5376.268333	1952.495117	90.216225
-15457.506915	5376.268333	1951.521484	-43.434246
-15457.506915	5376.268333	1950.548828	29.281307
-15457.506915	5376.268333	1949.575195	74.958183
-15457.506915	5376.268333	1948.601563	105.887909
-15457.506915	5376.268333	1947.627930	-39.935955
-15457.506915	5376.268333	1946.654297	-197.977844
-15457.506915	5376.268333	1945.680664	21.928692
-15457.506915	5376.268333	1944.706055	-18.305893
-15457.506915	5376.268333	1943.732422	-83.057327
-15457.506915	5376.268333	1942.757813	38.600365
-15457.506915	5376.268333	1941.783203	-16.335114
-15457.506915	5376.268333	1940.807617	-90.866341
-15457.506915	5376.268333	1939.833008	114.050949
-15457.506915	5376.268333	1938.857422	61.570320
-15457.506915	5376.268333	1937.881836	75.259354
-15457.506915	5376.268333	1936.906250	20.345181
-15457.506915	5376.268333	1935.930664	97.706787
-15457.506915	5376.268333	1934.955078	15.860386
-15457.506915	5376.268333	1933.978516	-12.098388
-15457.506915	5376.268333	1933.001953	116.612015
-15457.506915	5376.268333	1932.025391	56.813988
-15457.506915	5376.268333	1931.048828	45.970097
-15457.506915	5376.268333	1930.072266	52.248463
-15457.506915	5376.268333	1929.094727	41.393181
-15457.506915	5376.268333	1928.118164	-40.389072
-15457.506915	5376.268333	1927.140625	71.018143
-15457.506915	5376.268333	1926.163086	145.703644
-15457.506915	5376.268333	1925.184570	51.698135
-15457.506915	5376.268333	1924.207031	99.458908
-15457.506915	5376.268333	1923.228516	25.024240
-15457.506915	5376.268333	1922.250000	26.336538
-15457.506915	5376.268333	1921.271484	-77.386658
-15457.506915	5376.268333	1920.292969	50.906193
-15457.506915	5376.268333	1919.314453	-33.272434
-15457.506915	5376.268333	1918.334961	-7.582732
-15457.506915	5376.268333	1917.355469	22.967108
-15457.506915	5376.268333	1916.375977	82.775826
-15457.506915	5376.268333	1915.396484	32.764149
-15457.506915	5376.268333	1914.416992	19.347918
-15457.506915	5376.268333	1913.436523	108.353737
-15457.506915	5376.268333	1912.457031	-46.519058
-15457.506915	5376.268333	1911.476563	-28.257723
-15457.506915	5376.268333	1910.496094	-7.577829
-15457.506915	5376.268333	1909.515625	-42.968765
-15457.506915	5376.268333	1908.534180	-39.375443
-15457.506915	5376.268333	1907.552734	12.924619
-15457.506915	5376.268333	1906.572266	35.965469
-15457.506915	5376.268333	1905.590820	107.686989
-15457.506915	5376.268333	1904.608398	60.068539
-15457.506915	5376.268333	1903.626953	31.928391
-15457.506915	5376.268333	1902.644531	-91.132500
-15457.506915	5376.268333	1901.663086	121.638779
-15457.506915	5376.268333	1900.680664	190.776733
-15457.506915	5376.268333	1899.698242	94.470795
-15457.506915	5376.268333	1898.714844	61.417572
-15457.506915	5376.268333	1897.732422	38.089836
-15457.506915	5376.268333	1896.749023	-36.295856
-15457.506915	5376.268333	1895.765625	37.598419
-15457.506915	5376.268333	1894.782227	45.837563
-15457.506915	5376.268333	1893.798828	243.574860
-15457.506915	5376.268333	1892.814453	-5.755325
-15457.506915	5376.268333	1891.831055	-46.130726
-15457.506915	5376.268333	1890.846680	22.768595
-15457.506915	5376.268333	1889.862305	33.359287
-15457.506915	5376.268333	1888.877930	-31.318140
-15457.506915	5376.268333	1887.892578	-71.717064
-15457.506915	5376.268333	1886.908203	86.859749
-15457.506915	5376.268333	1885.922852	17.312677
-15457.506915	5376.268333	1884.937500	59.355335
-15457.506915	5376.268333	1883.952148	-2.913648
-15457.506915	5376.268333	1882.965820	140.924377
-15457.506915	5376.268333	1881.980469	153.786514
-15457.506915	5376.268333	1880.994141	59.981709
-15457.506915	5376.268333	1880.007813	87.364296
-15457.506915	5376.268333	1879.021484	5.693070
-15457.506915	5376.268333	1878.035156	-80.806847
-15457.506915	5376.268333	1877.047852	120.924713
-15457.506915	5376.268333	1876.061523	31.985226
-15457.506915	5376.268333	1875.074219	61.696182
-15457.506915	5376.268333	1874.086914	103.484756
-15457.506915	5376.268333	1873.098633	65.376907
-15457.506915	5376.268333	1872.111328	-38.061047
-15457.506915	5376.268333	1871.123047	-10.836794
-15457.506915	5376.268333	1870.135742	-2.986007
-15457.506915	5376.268333	1869.147461	-74.958328
-15457.506915	5376.268333	1868.158203	-38.114109
-15457.506915	5376.268333	1867.169922	126.826988
-15457.506915	5376.268333	1866.180664	132.170120
-15457.506915	5376.268333	1865.192383	89.168343
-15457.506915	5376.268333	1864.203125	188.715637
-15457.506915	5376.268333	1863.213867	-127.274818
-15457.506915	5376.268333	1862.223633	-3.601425
-15457.506915	5376.268333	1861.234375	49.985565
-15457.506915	5376.268333	1860.244141	96.295067
-15457.506915	5376.268333	1859.253906	154.642166
-15457.506915	5376.268333	1858.263672	92.286209
-15457.506915	5376.268333	1857.273438	5.810714
-15457.506915	5376.268333	1856.282227	-39.635506
-15457.506915	5376.268333	1855.291992	40.346382
-15457.506915	5376.268333	1854.300781	199.863968
-15457.506915	5376.268333	1853.309570	65.155754
-15457.506915	5376.268333	1852.317383	99.227440
-15457.506915	5376.268333	1851.326172	-37.848217
-15457.506915	5376.268333	1850.333984	-35.123394
-15457.506915	5376.268333	1849.342773	61.549919
-15457.506915	5376.268333	1848.350586	122.039917
-15457.506915	5376.268333	1847.357422	-0.543047
-15457.506915	5376.268333	1846.365234	38.238186
-15457.506915	5376.268333	1845.372070	-89.124741
-15457.506915	5376.268333	1844.379883	53.133495
-15457.506915	5376.268333	1843.386719	-28.486227
-15457.506915	5376.268333	1842.393555	70.369484
-15457.506915	5376.268333	1841.399414	51.297009
-15457.506915	5376.268333	1840.406250	8.167708
-15457.506915	5376.268333	1839.412109	130.967728
-15457.506915	5376.268333	1838.417969	90.217003
-15457.506915	5376.268333	1837.423828	102.352608
-15457.506915	5376.268333	1836.429688	15.932210
-15457.506915	5376.268333	1835.434570	8.827012
-15457.506915	5376.268333	1834.440430	-10.298991
-15457.506915	5376.268333	1833.445313	16.206203
-15457.506915	5376.268333	1832.450195	21.074528
-15457.506915	5376.268333	1831.454102	109.966682
-15457.506915	5376.268333	1830.458984	-36.452259
-15457.506915	5376.268333	1829.462891	-5.213502
-15457.506915	5376.268333	1828.466797	150.788956
-15457.506915	5376.268333	1827.470703	23.600574
-15457.506915	5376.268333	1826.474609	-33.985142
-15457.506915	5376.268333	1825.478516	30.757935
-15457.506915	5376.268333	1824.481445	-91.578918
-15457.506915	5376.268333	1823.484375	-2.900874
-15457.506915	5376.268333	1822.487305	73.746216
-15457.506915	5376.268333	1821.490234	121.592865
-15457.506915	5376.268333	1820.493164	107.109329
-15457.506915	5376.268333	1819.495117	-29.563349
-15457.506915	5376.268333	1818.498047	63.748936
-15457.506915	5376.268333	1817.500000	92.352600
-15457.506915	5376.268333	1816.500977	73.045021
-15457.506915	5376.268333	1815.502930	39.370983
-15457.506915	5376.268333	1814.504883	-104.401070
-15457.506915	5376.268333	1813.505859	46.205765
-15457.506915	5376.268333	1812.506836	79.509071
-15457.506915	5376.268333	1811.507813	115.180290
-15457.506915	5376.268333	1810.508789	55.160358
-15457.506915	5376.268333	1809.508789	-2.459116
-15457.506915	5376.268333	1808.508789	-50.505520
-15457.506915	5376.268333	1807.508789	-50.740051
-15457.506915	5376.268333	1806.508789	20.708418
-15457.506915	5376.268333	1805.508789	44.330158
-15457.506915	5376.268333	1804.508789	220.822952
-15457.506915	5376.268333	1803.507813	110.618668
-15457.506915	5376.268333	1802.506836	-30.599777
-15457.506915	5376.268333	1801.505859	28.778982
-15457.506915	5376.268333	1800.504883	111.995201
-15457.506915	5376.268333	1799.502930	149.819580
-15457.506915	5376.268333	1798.501953	20.584826
-15457.506915	5376.268333	1797.500000	3.516362
-15457.506915	5376.268333	1796.498047	-35.024609
-15457.506915	5376.268333	1795.496094	-61.638645
-15457.506915	5376.268333	1794.493164	-57.258736
-15457.506915	5376.268333	1793.491211	-57.658005
-15457.506915	5376.268333	1792.488281	-115.274727
-15457.506915	5376.268333	1791.485352	141.682037
-15457.506915	5376.268333	1790.482422	-70.842384
-15457.506915	5376.268333	1789.478516	-4.588150
-15457.506915	5376.268333	1788.475586	-33.636887
-15457.506915	5376.268333	1787.471680	49.230736
-15457.506915	5376.268333	1786.467773	36.823780
-15457.506915	5376.268333	1785.463867	167.230637
-15457.506915	5376.268333	1784.459961	-37.988129
-15457.506915	5376.268333	1783.455078	-43.269531
-15457.506915	5376.268333	1782.450195	146.516815
-15457.506915	5376.268333	1781.445313	17.495426
-15457.506915	5376.268333	1780.440430	100.161438
-15457.506915	5376.268333	1779.435547	99.567604
-15457.506915	5376.268333	1778.429688	77.565910
-15457.506915	5376.268333	1777.424805	15.158446
-15457.506915	5376.268333	1776.418945	154.745468
-15457.506915	5376.268333	1775.413086	130.335358
-15457.506915	5376.268333	1774.406250	141.552048
-15457.506915	5376.268333	1773.400391	50.633030
-15457.506915	5376.268333	1772.393555	109.327133
-15457.506915	5376.268333	1771.386719	153.743835
-15457.506915	5376.268333	1770.379883	110.309418
-15457.506915	5376.268333	1769.373047	-4.314005
-15457.506915	5376.268333	1768.365234	2.099479
-15457.506915	5376.268333	1767.358398	10.873441
-15457.506915	5376.268333	1766.350586	71.809784
-15457.506915	5376.268333	1765.342773	68.685539
-15457.506915	5376.268333	1764.334961	115.339088
-15457.506915	5376.268333	1763.326172	88.478706
-15457.506915	5376.268333	1762.318359	82.948578
-15457.506915	5376.268333	1761.309570	-15.004188
-15457.506915	5376.268333	1760.300781	-34.751926
-15457.506915	5376.268333	1759.291016	-26.082493
-15457.506915	5376.268333	1758.282227	-5.584252
-15457.506915	5376.268333	1757.272461	43.304287
-15457.506915	5376.268333	1756.262695	21.145391
-15457.506915	5376.268333	1755.252930	93.655853
-15457.506915	5376.268333	1754.243164	-42.113049
-15457.506915	5376.268333	1753.233398	-38.253120
-15457.506915	5376.268333	1752.222656	-67.524452
-15457.506915	5376.268333	1751.211914	0.168959
-15457.506915	5376.268333	1750.201172	119.845673
-15457.506915	5376.268333	1749.190430	-30.043638
-15457.506915	5376.268333	1748.179688	-52.249458
-15457.506915	5376.268333	1747.167969	-27.196970
-15457.506915	5376.268333	1746.156250	-44.694904
-15457.506915	5376.268333	1745.144531	-45.661724
-15457.506915	5376.268333	1744.132813	14.768295
-15457.506915	5376.268333	1743.121094	-83.050850
-15457.506915	5376.268333	1742.108398	69.415573
-15457.506915	5376.268333	1741.095703	82.541496
-15457.506915	5376.268333	1740.083008	69.690689
-15457.506915	5376.268333	1739.070313	-120.137825
-15457.506915	5376.268333	1738.057617	-36.243378
-15457.506915	5376.268333	1737.043945	-84.482880
-15457.506915	5376.268333	1736.030273	-21.876884
-15457.506915	5376.268333	1735.016602	-18.252537
-15457.506915	5376.268333	1734.002930	-75.932106
-15457.506915	5376.268333	1732.989258	137.442795
-15457.506915	5376.268333	1731.974609	82.085999
-15457.506915	5376.268333	1730.959961	31.450163
-15457.506915	5376.268333	1729.945313	46.777954
-15457.506915	5376.268333	1728.930664	57.377476
-15457.506915	5376.268333	1727.916016	-35.643364
-15457.506915	5376.268333	1726.900391	-3.870105
-15457.506915	5376.268333	1725.885742	-127.466644
-15457.506915	5376.268333	1724.870117	-62.765194
-15457.506915	5376.268333	1723.853516	110.127754
-15457.506915	5376.268333	1722.837891	137.096725
-15457.506915	5376.268333	1721.822266	-134.655289
-15457.506915	5376.268333	1720.805664	-74.755371
-15457.506915	5376.268333	1719.789063	-54.858189
-15457.506915	5376.268333	1718.772461	-18.526237
-15457.506915	5376.268333	1717.754883	-5.724049
-15457.506915	5376.268333	1716.738281	-159.765244
-15457.506915	5376.268333	1715.720703	-57.693142
-15457.506915	5376.268333	1714.703125	41.978752
-15457.506915	5376.268333	1713.685547	61.756794
-15457.506915	5376.268333	1712.667969	53.340206
-15457.506915	5376.268333	1711.649414	12.048085
-15457.506915	5376.268333	1710.630859	-111.385452
-15457.506915	5376.268333	1709.612305	30.376999
-15457.506915	5376.268333	1708.593750	106.382813
-15457.506915	5376.268333	1707.575195	27.533356
-15457.506915	5376.268333	1706.555664	101.138405
-15457.506915	5376.268333	1705.536133	66.844238
-15457.506915	5376.268333	1704.516602	79.437485
-15457.506915	5376.268333	1703.497070	12.322941
-15457.506915	5376.268333	1702.477539	-21.970089
-15457.506915	5376.268333	1701.457031	124.143021
-15457.506915	5376.268333	1700.437500	89.817261
-15457.506915	5376.268333	1699.416992	-31.165823
-15457.506915	5376.268333	1698.395508	32.870014
-15457.506915	5376.268333	1697.375000	-64.667740
-15457.506915	5376.268333	1696.354492	34.439323
-15457.506915	5376.268333	1695.333008	86.688370
-15457.506915	5376.268333	1694.311523	-43.599880
-15457.506915	5376.268333	1693.290039	111.552116
-15457.506915	5376.268333	1692.267578	53.788979
-15457.506915	5376.268333	1691.246094	31.115971
-15457.506915	5376.268333	1690.223633	101.957039
-15457.506915	5376.268333	1689.201172	69.906883
-15457.506915	5376.268333	1688.178711	103.295593
-15457.506915	5376.268333	1687.155273	80.577309
-15457.506915	5376.268333	1686.132813	92.901932
-15457.506915	5376.268333	1685.109375	0.097617
-15457.506915	5376.268333	1684.085938	-6.276049
-15457.506915	5376.268333	1683.062500	78.400597
-15457.506915	5376.268333	1682.039063	-16.717155
-15457.506915	5376.268333	1681.014648	-6.784104
-15457.506915	5376.268333	1679.990234	178.146591
-15457.506915	5376.268333	1678.965820	101.691170
-15457.506915	5376.268333	1677.941406	69.573296
-15457.506915	5376.268333	1676.916992	70.106491
-15457.506915	5376.268333	1675.891602	-13.317232
-15457.506915	5376.268333	1674.866211	5.855960
-15457.506915	5376.268333	1673.840820	-12.283563
-15457.506915	5376.268333	1672.815430	2.198319
-15457.506915	5376.268333	1671.790039	-4.306753
-15457.506915	5376.268333	1670.763672	119.626900
-15457.506915	5376.268333	1669.737305	57.179127
-15457.506915	5376.268333	1668.710938	64.601448
-15457.506915	5376.268333	1667.684570	137.197128
-15457.506915	5376.268333	1666.658203	-27.669050
-15457.506915	5376.268333	1665.630859	-6.308258
-15457.506915	5376.268333	1664.603516	89.489685
-15457.506915	5376.268333	1663.576172	-72.982681
-15457.506915	5376.268333	1662.548828	66.960716
-15457.506915	5376.268333	1661.520508	30.102909
-15457.506915	5376.268333	1660.493164	95.550850
-15457.506915	5376.268333	1659.464844	23.812422
-15457.506915	5376.268333	1658.436523	121.748268
-15457.506915	5376.268333	1657.408203	149.926315
-15457.506915	5376.268333	1656.378906	-10.098478
-15457.506915	5376.268333	1655.350586	87.754570
-15457.506915	5376.268333	1654.321289	190.200302
-15457.506915	5376.268333	1653.291992	162.573029
-15457.506915	5376.268333	1652.261719	144.227982
-15457.506915	5376.268333	1651.232422	44.650204
-15457.506915	5376.268333	1650.202148	237.478302
-15457.506915	5376.268333	1649.171875	200.537369
-15457.506915	5376.268333	1648.141602	89.373863
-15457.506915	5376.268333	1647.111328	98.838432
-15457.506915	5376.268333	1646.080078	43.361942
-15457.506915	5376.268333	1645.049805	180.314331
-15457.506915	5376.268333	1644.018555	101.645615
-15457.506915	5376.268333	1642.987305	118.008095
-15457.506915	5376.268333	1641.955078	148.252548
-15457.506915	5376.268333	1640.923828	159.947189
-15457.506915	5376.268333	1639.891602	213.312027
-15457.506915	5376.268333	1638.859375	222.650742
-15457.506915	5376.268333	1637.827148	81.494698
-15457.506915	5376.268333	1636.794922	234.344940
-15457.506915	5376.268333	1635.761719	139.502884
-15457.506915	5376.268333	1634.729492	30.808834
-15457.506915	5376.268333	1633.696289	169.668259
-15457.506915	5376.268333	1632.662109	266.829742
-15457.506915	5376.268333	1631.628906	248.327042
-15457.506915	5376.268333	1630.594727	338.481079
-15457.506915	5376.268333	1629.561523	273.723572
-15457.506915	5376.268333	1628.527344	144.268967
-15457.506915	5376.268333	1627.493164	215.879089
-15457.506915	5376.268333	1626.458008	372.925140
-15457.506915	5376.268333	1625.423828	241.191376
-15457.506915	5376.268333	1624.388672	250.361496
-15457.506915	5376.268333	1623.353516	377.269104
-15457.506915	5376.268333	1622.318359	294.057373
-15457.506915	5376.268333	1621.282227	404.731781
-15457.506915	5376.268333	1620.247070	404.600067
-15457.506915	5376.268333	1619.210938	358.316559
-15457.506915	5376.268333	1618.174805	295.896606
-15457.506915	5376.268333	1617.137695	233.490112
-15457.506915	5376.268333	1616.101563	486.980621
-15457.506915	5376.268333	1615.064453	378.441376
-15457.506915	5376.268333	1614.027344	343.689941
-15457.506915	5376.268333	1612.990234	504.811859
-15457.506915	5376.268333	1611.953125	361.752136
-15457.506915	5376.268333	1610.916016	453.691010
-15457.506915	5376.268333	1609.877930	527.159302
-15457.506915	5376.268333	1608.839844	384.154266
-15457.506915	5376.268333	1607.801758	402.344025
-15457.506915	5376.268333	1606.763672	436.631531
-15457.506915	5376.268333	1605.724609	390.353729
-15457.506915	5376.268333	1604.685547	364.794556
-15457.506915	5376.268333	1603.646484	334.638672
-15457.506915	5376.268333	1602.607422	361.983917
-15457.506915	5376.268333	1601.568359	492.785461
-15457.506915	5376.268333	1600.528320	409.724487
-15457.506915	5376.268333	1599.489258	423.231110
-15457.506915	5376.268333	1598.449219	314.926239
-15457.506915	5376.268333	1597.408203	268.690399
-15457.506915	5376.268333	1596.368164	229.361908
-15457.506915	5376.268333	1595.327148	275.017792
-15457.506915	5376.268333	1594.287109	329.839600
-15457.506915	5376.268333	1593.246094	347.898987
-15457.506915	5376.268333	1592.204102	393.486633
-15457.506915	5376.268333	1591.163086	425.286560
-15457.506915	5376.268333	1590.121094	225.325470
-15457.506915	5376.268333	1589.079102	268.603210
-15457.506915	5376.268333	1588.037109	362.318604
-15457.506915	5376.268333	1586.995117	224.388870
-15457.506915	5376.268333	1585.953125	285.970856
-15457.506915	5376.268333	1584.910156	459.839966
-15457.506915	5376.268333	1583.867188	406.752380
-15457.506915	5376.268333	1582.824219	312.438690
-15457.506915	5376.268333	1581.781250	389.974304
-15457.506915	5376.268333	1580.737305	428.535461
-15457.506915	5376.268333	1579.693359	357.159576
-15457.506915	5376.268333	1578.649414	375.100769
-15457.506915	5376.268333	1577.605469	427.368469
-15457.506915	5376.268333	1576.561523	431.552185
-15457.506915	5376.268333	1575.516602	412.846741
-15457.506915	5376.268333	1574.472656	362.121307
-15457.506915	5376.268333	1573.427734	368.592987
-15457.506915	5376.268333	1572.381836	365.908936
-15457.506915	5376.268333	1571.336914	356.369476
-15457.506915	5376.268333	1570.291016	442.837677
-15457.506915	5376.268333	1569.246094	177.308777
-15457.506915	5376.268333	1568.200195	247.781067
-15457.506915	5376.268333	1567.153320	377.620453
-15457.506915	5376.268333	1566.107422	422.898315
-15457.506915	5376.268333	1565.060547	121.032379
-15457.506915	5376.268333	1564.013672	511.108978
-15457.506915	5376.268333	1562.966797	293.807526
-15457.506915	5376.268333	1561.919922	384.708710
-15457.506915	5376.268333	1560.872070	363.757874
-15457.506915	5376.268333	1559.825195	244.716782
-15457.506915	5376.268333	1558.777344	273.984711
-15457.506915	5376.268333	1557.729492	232.544403
-15457.506915	5376.268333	1556.680664	327.924713
-15457.506915	5376.268333	1555.632813	174.789261
-15457.506915	5376.268333	1554.583984	165.301926
-15457.506915	5376.268333	1553.535156	265.200897
-15457.506915	5376.268333	1552.486328	203.301758
-15457.506915	5376.268333	1551.436523	157.370209
-15457.506915	5376.268333	1550.387695	364.256317
-15457.506915	5376.268333	1549.337891	368.408752
-15457.506915	5376.268333	1548.288086	283.778015
-15457.506915	5376.268333	1547.238281	167.318405
-15457.506915	5376.268333	1546.187500	160.134003
-15457.506915	5376.268333	1545.136719	212.110413
-15457.506915	5376.268333	1544.086914	195.830902
-15457.506915	5376.268333	1543.035156	159.085907
-15457.506915	5376.268333	1541.984375	179.208435
-15457.506915	5376.268333	1540.933594	360.737183
-15457.506915	5376.268333	1539.881836	228.529663
-15457.506915	5376.268333	1538.830078	337.262421
-15457.506915	5376.268333	1537.778320	343.714996
-15457.506915	5376.268333	1536.725586	311.549103
-15457.506915	5376.268333	1535.673828	272.590820
-15457.506915	5376.268333	1534.621094	333.560364
-15457.506915	5376.268333	1533.568359	271.917999
-15457.506915	5376.268333	1532.515625	328.334808
-15457.506915	5376.268333	1531.461914	273.533173
-15457.506915	5376.268333	1530.409180	302.712036
-15457.506915	5376.268333	1529.355469	191.237793
-15457.506915	5376.268333	1528.301758	218.162903
-15457.506915	5376.268333	1527.247070	313.107208
-15457.506915	5376.268333	1526.193359	344.544586
-15457.506915	5376.268333	1525.138672	373.706604
-15457.506915	5376.268333	1524.083984	409.663391
-15457.506915	5376.268333	1523.029297	239.427780
-15457.506915	5376.268333	1521.974609	422.657715
-15457.506915	5376.268333	1520.918945	365.742584
-15457.506915	5376.268333	1519.863281	186.579086
-15457.506915	5376.268333	1518.807617	193.141037
-15457.506915	5376.268333	1517.751953	321.939362
-15457.506915	5376.268333	1516.696289	305.858093
-15457.506915	5376.268333	1515.639648	273.950745
-15457.506915	5376.268333	1514.583008	226.229126
-15457.506915	5376.268333	1513.526367	192.106583
-15457.506915	5376.268333	1512.469727	153.484161
-15457.506915	5376.268333	1511.412109	268.621002
-15457.506915	5376.268333	1510.355469	139.602982
-15457.506915	5376.268333	1509.297852	198.218201
-15457.506915	5376.268333	1508.240234	209.371490
-15457.506915	5376.268333	1507.181641	188.900650
-15457.506915	5376.268333	1506.124023	215.882690
-15457.506915	5376.268333	1505.065430	188.666306
-15457.506915	5376.268333	1504.006836	330.799896
-15457.506915	5376.268333	1502.948242	211.046326
-15457.506915	5376.268333	1501.888672	102.632629
-15457.506915	5376.268333	1500.830078	125.146408
-15457.506915	5376.268333	1499.770508	179.242676
-15457.506915	5376.268333	1498.710938	14.549788
-15457.506915	5376.268333	1497.650391	111.513573
-15457.506915	5376.268333	1496.590820	100.235703
-15457.506915	5376.268333	1495.530273	34.872742
-15457.506915	5376.268333	1494.469727	147.589630
-15457.506915	5376.268333	1493.409180	100.295280
-15457.506915	5376.268333	1492.348633	1.219845
-15457.506915	5376.268333	1491.287109	5.801905
-15457.506915	5376.268333	1490.225586	64.441208
-15457.506915	5376.268333	1489.164063	-50.289776
-15457.506915	5376.268333	1488.102539	39.880142
-15457.506915	5376.268333	1487.041016	22.002428
-15457.506915	5376.268333	1485.978516	46.895603
-15457.506915	5376.268333	1484.916016	71.823120
-15457.506915	5376.268333	1483.853516	-44.999996
-15457.506915	5376.268333	1482.791016	0.181347
-15457.506915	5376.268333	1481.727539	-26.585764
-15457.506915	5376.268333	1480.664063	-62.301125
-15457.506915	5376.268333	1479.600586	-26.082712
-15457.506915	5376.268333	1478.537109	-25.818512
-15457.506915	5376.268333	1477.473633	91.284630
-15457.506915	5376.268333	1476.409180	35.417450
-15457.506915	5376.268333	1475.344727	-83.240257
-15457.506915	5376.268333	1474.280273	-8.787905
-15457.506915	5376.268333	1473.215820	94.805939
-15457.506915	5376.268333	1472.151367	-26.001997
-15457.506915	5376.268333	1471.085938	-12.204001
-15457.506915	5376.268333	1470.020508	-74.248787
-15457.506915	5376.268333	1468.955078	-69.371513
-15457.506915	5376.268333	1467.888672	-12.918427
-15457.506915	5376.268333	1466.823242	-10.226749
-15457.506915	5376.268333	1465.756836	34.893677
-15457.506915	5376.268333	1464.690430	40.281162
-15457.506915	5376.268333	1463.624023	-80.244293
-15457.506915	5376.268333	1462.556641	-34.841831
-15457.506915	5376.268333	1461.490234	-96.886948
-15457.506915	5376.268333	1460.422852	53.735008
-15457.506915	5376.268333	1459.355469	-75.157768
-15457.506915	5376.268333	1458.287109	-36.697990
-15457.506915	5376.268333	1457.219727	22.111258
-15457.506915	5376.268333	1456.151367	111.877449
-15457.506915	5376.268333	1455.083008	46.003170
-15457.506915	5376.268333	1454.014648	-46.933292
-15457.506915	5376.268333	1452.945313	22.832428
-15457.506915	5376.268333	1451.876953	8.140288
-15457.506915	5376.268333	1450.807617	11.726873
-15457.506915	5376.268333	1449.738281	-14.667943
-15457.506915	5376.268333	1448.668945	9.487738
-15457.506915	5376.268333	1447.598633	24.940313
-15457.506915	5376.268333	1446.528320	-34.262306
-15457.506915	5376.268333	1445.458008	-126.528168
-15457.506915	5376.268333	1444.387695	-121.806335
-15457.506915	5376.268333	1443.317383	68.739784
-15457.506915	5376.268333	1442.246094	36.647682
-15457.506915	5376.268333	1441.174805	121.888023
-15457.506915	5376.268333	1440.103516	49.665539
-15457.506915	5376.268333	1439.032227	-59.956142
-15457.506915	5376.268333	1437.960938	-38.721992
-15457.506915	5376.268333	1436.888672	143.183929
-15457.506915	5376.268333	1435.816406	137.831757
-15457.506915	5376.268333	1434.744141	224.264114
-15457.506915	5376.268333	1433.670898	166.067993
-15457.506915	5376.268333	1432.598633	91.242210
-15457.506915	5376.268333	1431.525391	162.714066
-15457.506915	5376.268333	1430.452148	76.935883
-15457.506915	5376.268333	1429.378906	50.038666
-15457.506915	5376.268333	1428.304688	160.233536
-15457.506915	5376.268333	1427.231445	96.537628
-15457.506915	5376.268333	1426.157227	23.056190
-15457.506915	5376.268333	1425.083008	90.218971
-15457.506915	5376.268333	1424.007813	29.266979
-15457.506915	5376.268333	1422.933594	22.867523
-15457.506915	5376.268333	1421.858398	244.472244
-15457.506915	5376.268333	1420.783203	98.618683
-15457.506915	5376.268333	1419.708008	92.639977
-15457.506915	5376.268333	1418.631836	48.676170
-15457.506915	5376.268333	1417.555664	69.625580
-15457.506915	5376.268333	1416.479492	219.142136
-15457.506915	5376.268333	1415.403320	206.372894
-15457.506915	5376.268333	1414.327148	109.705681
-15457.506915	5376.268333	1413.250000	70.214241
-15457.506915	5376.268333	1412.173828	211.967712
-15457.506915	5376.268333	1411.096680	146.271240
-15457.506915	5376.268333	1410.018555	66.303223
-15457.506915	5376.268333	1408.941406	60.827946
-15457.506915	5376.268333	1407.863281	50.920231
-15457.506915	5376.268333	1406.785156	5.831154
-15457.506915	5376.268333	1405.707031	-75.507561
-15457.506915	5376.268333	1404.628906	-30.530382
-15457.506915	5376.268333	1403.549805	-107.685326
-15457.506915	5376.268333	1402.470703	16.626230
-15457.506915	5376.268333	1401.391602	-27.864676
-15457.506915	5376.268333	1400.312500	13.340572
-15457.506915	5376.268333	1399.233398	-3.384901
-15457.506915	5376.268333	1398.153320	22.163366
-15457.506915	5376.268333	1397.073242	-37.591934
-15457.506915	5376.268333	1395.993164	76.187653
-15457.506915	5376.268333	1394.913086	88.971428
-15457.506915	5376.268333	1393.832031	-15.273841
-15457.506915	5376.268333	1392.750977	-124.187584
-15457.506915	5376.268333	1391.669922	-4.578821
-15457.506915	5376.268333	1390.588867	-84.430405
-15457.506915	5376.268333	1389.506836	52.472580
-15457.506915	5376.268333	1388.425781	115.458313
-15457.506915	5376.268333	1387.343750	31.932180
-15457.506915	5376.268333	1386.261719	10.542163
-15457.506915	5376.268333	1385.178711	32.160988
-15457.506915	5376.268333	1384.096680	137.668869
-15457.506915	5376.268333	1383.013672	27.221371
-15457.506915	5376.268333	1381.930664	116.813553
-15457.506915	5376.268333	1380.846680	-0.707160
-15457.506915	5376.268333	1379.763672	192.284821
-15457.506915	5376.268333	1378.679688	187.385223
-15457.506915	5376.268333	1377.595703	191.837509
-15457.506915	5376.268333	1376.511719	158.995224
-15457.506915	5376.268333	1375.427734	23.685045
-15457.506915	5376.268333	1374.342773	-13.818183
-15457.506915	5376.268333	1373.257813	123.924187
-15457.506915	5376.268333	1372.172852	219.229553
-15457.506915	5376.268333	1371.087891	144.153107
-15457.506915	5376.268333	1370.001953	86.536186
-15457.506915	5376.268333	1368.916992	235.345123
-15457.506915	5376.268333	1367.831055	214.649796
-15457.506915	5376.268333	1366.744141	191.755478
-15457.506915	5376.268333	1365.658203	181.172256
-15457.506915	5376.268333	1364.571289	218.595688
-15457.506915	5376.268333	1363.484375	93.614510
-15457.506915	5376.268333	1362.397461	51.402084
-15457.506915	5376.268333	1361.310547	160.614151
-15457.506915	5376.268333	1360.222656	136.895035
-15457.506915	5376.268333	1359.135742	166.995178
-15457.506915	5376.268333	1358.047852	174.230576
-15457.506915	5376.268333	1356.958984	59.491413
-15457.506915	5376.268333	1355.871094	130.153473
-15457.506915	5376.268333	1354.782227	65.885452
-15457.506915	5376.268333	1353.693359	-69.215393
-15457.506915	5376.268333	1352.604492	150.284042
-15457.506915	5376.268333	1351.515625	141.060959
-15457.506915	5376.268333	1350.425781	122.631958
-15457.506915	5376.268333	1349.335938	178.901337
-15457.506915	5376.268333	1348.246094	196.849533
-15457.506915	5376.268333	1347.156250	217.932571
-15457.506915	5376.268333	1346.066406	231.487808
-15457.506915	5376.268333	1344.975586	301.385956
-15457.506915	5376.268333	1343.884766	373.552673
-15457.506915	5376.268333	1342.793945	348.712494
-15457.506915	5376.268333	1341.702148	344.312897
-15457.506915	5376.268333	1340.611328	366.166809
-15457.506915	5376.268333	1339.519531	310.083344
-15457.506915	5376.268333	1338.427734	272.863464
-15457.506915	5376.268333	1337.334961	331.439056
-15457.506915	5376.268333	1336.243164	313.770813
-15457.506915	5376.268333	1335.150391	266.385834
-15457.506915	5376.268333	1334.057617	30.787533
-15457.506915	5376.268333	1332.964844	154.394333
-15457.506915	5376.268333	1331.871094	117.617294
-15457.506915	5376.268333	1330.778320	164.604309
-15457.506915	5376.268333	1329.684570	152.112167
-15457.506915	5376.268333	1328.590820	-56.030113
-15457.506915	5376.268333	1327.496094	12.421651
-15457.506915	5376.268333	1326.402344	-7.282831
-15457.506915	5376.268333	1325.307617	-78.242508
-15457.506915	5376.268333	1324.212891	43.913013
-15457.506915	5376.268333	1323.117188	47.961216
-15457.506915	5376.268333	1322.022461	-20.432886
-15457.506915	5376.268333	1320.926758	25.246216
-15457.506915	5376.268333	1319.831055	-135.549164
-15457.506915	5376.268333	1318.735352	-54.773697
-15457.506915	5376.268333	1317.638672	-56.921787
-15457.506915	5376.268333	1316.542969	-41.590889
-15457.506915	5376.268333	1315.446289	-15.425883
-15457.506915	5376.268333	1314.349609	-52.763176
-15457.506915	5376.268333	1313.251953	-88.229370
-15457.506915	5376.268333	1312.155273	-109.361610
-15457.506915	5376.268333	1311.057617	-33.602425
-15457.506915	5376.268333	1309.959961	-103.073975
-15457.506915	5376.268333	1308.862305	-0.391616
-15457.506915	5376.268333	1307.763672	-5.697959
-15457.506915	5376.268333	1306.665039	-0.722665
-15457.506915	5376.268333	1305.566406	60.258751
-15457.506915	5376.268333	1304.467773	100.644104
-15457.506915	5376.268333	1303.369141	51.198391
-15457.506915	5376.268333	1302.269531	45.791824
-15457.506915	5376.268333	1301.169922	8.940692
-15457.506915	5376.268333	1300.070313	-44.064129
-15457.506915	5376.268333	1298.970703	-50.365356
-15457.506915	5376.268333	1297.870117	-5.928155
-15457.506915	5376.268333	1296.769531	-0.884773
-15457.506915	5376.268333	1295.668945	64.965324
-15457.506915	5376.268333	1294.568359	140.014084
-15457.506915	5376.268333	1293.466797	177.105988
-15457.506915	5376.268333	1292.366211	-47.665665
-15457.506915	5376.268333	1291.264648	-30.000391
-15457.506915	5376.268333	1290.162109	129.220856
-15457.506915	5376.268333	1289.060547	79.116631
-15457.506915	5376.268333	1287.958008	55.718979
-15457.506915	5376.268333	1286.855469	165.845627
-15457.506915	5376.268333	1285.752930	109.590141
-15457.506915	5376.268333	1284.650391	29.797102
-15457.506915	5376.268333	1283.546875	-32.943707
-15457.506915	5376.268333	1282.444336	127.340462
-15457.506915	5376.268333	1281.339844	-17.291531
-15457.506915	5376.268333	1280.236328	8.050320
-15457.506915	5376.268333	1279.132813	-35.265366
-15457.506915	5376.268333	1278.028320	40.712635
-15457.506915	5376.268333	1276.923828	77.260811
-15457.506915	5376.268333	1275.819336	16.724184
-15457.506915	5376.268333	1274.713867	71.247406
-15457.506915	5376.268333	1273.608398	76.776306
-15457.506915	5376.268333	1272.503906	32.356270
-15457.506915	5376.268333	1271.397461	28.601397
-15457.506915	5376.268333	1270.291992	57.379128
-15457.506915	5376.268333	1269.185547	-6.597104
-15457.506915	5376.268333	1268.080078	-61.284328
-15457.506915	5376.268333	1266.972656	-8.883143
-15457.506915	5376.268333	1265.866211	93.253426
-15457.506915	5376.268333	1264.759766	-17.085831
-15457.506915	5376.268333	1263.652344	94.526146
-15457.506915	5376.268333	1262.544922	72.178040
-15457.506915	5376.268333	1261.436523	67.450745
-15457.506915	5376.268333	1260.329102	180.692612
-15457.506915	5376.268333	1259.220703	9.643779
-15457.506915	5376.268333	1258.112305	-23.164764
-15457.506915	5376.268333	1257.003906	93.071457
-15457.506915	5376.268333	1255.895508	135.450363
-15457.506915	5376.268333	1254.786133	84.871811
-15457.506915	5376.268333	1253.676758	148.163086
-15457.506915	5376.268333	1252.567383	-6.554921
-15457.506915	5376.268333	1251.458008	-4.721902
-15457.506915	5376.268333	1250.347656	74.416550
-15457.506915	5376.268333	1249.237305	53.811192
-15457.506915	5376.268333	1248.126953	79.457886
-15457.506915	5376.268333	1247.016602	99.722618
-15457.506915	5376.268333	1245.905273	3.259760
-15457.506915	5376.268333	1244.793945	8.665981
-15457.506915	5376.268333	1243.682617	87.639297
-15457.506915	5376.268333	1242.571289	107.554466
-15457.506915	5376.268333	1241.459961	97.754044
-15457.506915	5376.268333	1240.347656	105.237679
-15457.506915	5376.268333	1239.235352	48.209866
-15457.506915	5376.268333	1238.123047	64.252884
-15457.506915	5376.268333	1237.009766	30.609606
-15457.506915	5376.268333	1235.897461	118.868797
-15457.506915	5376.268333	1234.784180	33.877766
-15457.506915	5376.268333	1233.670898	-36.331444
-15457.506915	5376.268333	1232.556641	82.610062
-15457.506915	5376.268333	1231.443359	69.416428
-15457.506915	5376.268333	1230.329102	117.638672
-15457.506915	5376.268333	1229.214844	176.658890
-15457.506915	5376.268333	1228.099609	127.886543
-15457.506915	5376.268333	1226.985352	300.606964
-15457.506915	5376.268333	1225.870117	323.763855
-15457.506915	5376.268333	1224.754883	286.955048
-15457.506915	5376.268333	1223.639648	410.039673
-15457.506915	5376.268333	1222.523438	439.834015
-15457.506915	5376.268333	1221.408203	430.033417
-15457.506915	5376.268333	1220.291992	518.650024
-15457.506915	5376.268333	1219.174805	496.868774
-15457.506915	5376.268333	1218.058594	444.342346
-15457.506915	5376.268333	1216.941406	434.665100
-15457.506915	5376.268333	1215.824219	409.295105
-15457.506915	5376.268333	1214.707031	353.429871
-15457.506915	5376.268333	1213.589844	349.520782
-15457.506915	5376.268333	1212.471680	425.155212
-15457.506915	5376.268333	1211.353516	375.411346
-15457.506915	5376.268333	1210.235352	427.308899
-15457.506915	5376.268333	1209.117188	288.521027
-15457.506915	5376.268333	1207.998047	303.150208
-15457.506915	5376.268333	1206.878906	334.462555
-15457.506915	5376.268333	1205.759766	301.879211
-15457.506915	5376.268333	1204.640625	183.267120
-15457.506915	5376.268333	1203.520508	190.683411
-15457.506915	5376.268333	1202.401367	126.281586
-15457.506915	5376.268333	1201.281250	108.045837
-15457.506915	5376.268333	1200.160156	237.616058
-15457.506915	5376.268333	1199.040039	65.486031
-15457.506915	5376.268333	1197.918945	78.288429
-15457.506915	5376.268333	1196.797852	52.119366
-15457.506915	5376.268333	1195.676758	148.629471
-15457.506915	5376.268333	1194.555664	6.908817
-15457.506915	5376.268333	1193.433594	19.979452
-15457.506915	5376.268333	1192.311523	40.020477
-15457.506915	5376.268333	1191.189453	62.595116
-15457.506915	5376.268333	1190.066406	10.705413
-15457.506915	5376.268333	1188.944336	-56.343929
-15457.506915	5376.268333	1187.821289	11.556432
-15457.506915	5376.268333	1186.698242	-14.302612
-15457.506915	5376.268333	1185.574219	46.241161
-15457.506915	5376.268333	1184.451172	-41.479263
-15457.506915	5376.268333	1183.327148	66.560051
-15457.506915	5376.268333	1182.203125	-0.087340
-15457.506915	5376.268333	1181.078125	35.035252
-15457.506915	5376.268333	1179.954102	87.603050
-15457.506915	5376.268333	1178.829102	60.943253
-15457.506915	5376.268333	1177.704102	143.610870
-15457.506915	5376.268333	1176.579102	155.555359
-15457.506915	5376.268333	1175.453125	116.014664
-15457.506915	5376.268333	1174.327148	96.729332
-15457.506915	5376.268333	1173.201172	21.325092
-15457.506915	5376.268333	1172.075195	21.403738
-15457.506915	5376.268333	1170.949219	8.059743
-15457.506915	5376.268333	1169.822266	-8.576357
-15457.506915	5376.268333	1168.695313	-100.452492
-15457.506915	5376.268333	1167.568359	-45.396553
-15457.506915	5376.268333	1166.440430	-65.032883
-15457.506915	5376.268333	1165.313477	-61.100849
-15457.506915	5376.268333	1164.185547	-159.353760
-15457.506915	5376.268333	1163.057617	-70.287422
-15457.506915	5376.268333	1161.928711	-19.860138
-15457.506915	5376.268333	1160.800781	-6.260015
-15457.506915	5376.268333	1159.671875	49.762077
-15457.506915	5376.268333	1158.541992	22.230793
-15457.506915	5376.268333	1157.413086	-115.944794
-15457.506915	5376.268333	1156.283203	-76.480888
-15457.506915	5376.268333	1155.154297	30.279642
-15457.506915	5376.268333	1154.023438	-50.850677
-15457.506915	5376.268333	1152.893555	9.258007
-15457.506915	5376.268333	1151.763672	48.752365
-15457.506915	5376.268333	1150.632813	-110.914803
-15457.506915	5376.268333	1149.501953	56.785645
-15457.506915	5376.268333	1148.370117	-33.059212
-15457.506915	5376.268333	1147.239258	-3.434306
-15457.506915	5376.268333	1146.107422	-83.968948
-15457.506915	5376.268333	1144.975586	-140.913773
-15457.506915	5376.268333	1143.843750	-56.968731
-15457.506915	5376.268333	1142.710938	-22.013041
-15457.506915	5376.268333	1141.578125	39.162624
-15457.506915	5376.268333	1140.445313	-127.853584
-15457.506915	5376.268333	1139.312500	-106.463249
-15457.506915	5376.268333	1138.178711	-93.586647
-15457.506915	5376.268333	1137.045898	-57.306290
-15457.506915	5376.268333	1135.912109	-5.115307
-15457.506915	5376.268333	1134.777344	38.746811
-15457.506915	5376.268333	1133.643555	14.904602
-15457.506915	5376.268333	1132.508789	15.782886
-15457.506915	5376.268333	1131.374023	-35.073994
-15457.506915	5376.268333	1130.239258	-78.169182
-15457.506915	5376.268333	1129.104492	-103.824669
-15457.506915	5376.268333	1127.968750	100.797554
-15457.506915	5376.268333	1126.833008	48.895672
-15457.506915	5376.268333	1125.697266	-25.333755
-15457.506915	5376.268333	1124.560547	32.499519
-15457.506915	5376.268333	1123.424805	-34.851433
-15457.506915	5376.268333	1122.288086	-52.031708
-15457.506915	5376.268333	1121.151367	27.891291
-15457.506915	5376.268333	1120.013672	-42.731770
-15457.506915	5376.268333	1118.876953	-23.144337
-15457.506915	5376.268333	1117.739258	78.623680
-15457.506915	5376.268333	1116.601563	-31.307590
-15457.506915	5376.268333	1115.462891	-62.692974
-15457.506915	5376.268333	1114.324219	8.525671
-15457.506915	5376.268333	1113.186523	-13.651108
-15457.506915	5376.268333	1112.046875	70.972031
-15457.506915	5376.268333	1110.908203	22.332684
-15457.506915	5376.268333	1109.769531	54.992905
-15457.506915	5376.268333	1108.629883	-11.803143
-15457.506915	5376.268333	1107.490234	67.828423
-15457.506915	5376.268333	1106.349609	-49.979092
-15457.506915	5376.268333	1105.209961	-47.911289
-15457.506915	5376.268333	1104.069336	14.178487
-15457.506915	5376.268333	1102.928711	44.226418
-15457.506915	5376.268333	1101.787109	-119.837845
-15457.506915	5376.268333	1100.646484	-33.816509
-15457.506915	5376.268333	1099.504883	-4.630369
-15457.506915	5376.268333	1098.363281	-36.898869
-15457.506915	5376.268333	1097.221680	145.573151
-15457.506915	5376.268333	1096.079102	116.430138
-15457.506915	5376.268333	1094.936523	53.439419
-15457.506915	5376.268333	1093.793945	8.502201
-15457.506915	5376.268333	1092.651367	49.733082
-15457.506915	5376.268333	1091.507813	27.411257
-15457.506915	5376.268333	1090.364258	109.340218
-15457.506915	5376.268333	1089.220703	234.087692
-15457.506915	5376.268333	1088.077148	11.939678
-15457.506915	5376.268333	1086.933594	202.734406
-15457.506915	5376.268333	1085.789063	75.151421
-15457.506915	5376.268333	1084.644531	27.144672
-15457.506915	5376.268333	1083.499023	111.037247
-15457.506915	5376.268333	1082.354492	61.149364
-15457.506915	5376.268333	1081.208984	115.979851
-15457.506915	5376.268333	1080.063477	-15.069036
-15457.506915	5376.268333	1078.917969	-28.334343
-15457.506915	5376.268333	1077.771484	-22.845575
-15457.506915	5376.268333	1076.625977	38.117531
-15457.506915	5376.268333	1075.479492	-118.578140
-15457.506915	5376.268333	1074.332031	-68.262337
-15457.506915	5376.268333	1073.185547	-68.224968
-15457.506915	5376.268333	1072.038086	-43.371185
-15457.506915	5376.268333	1070.890625	16.732128
-15457.506915	5376.268333	1069.743164	-59.462486
-15457.506915	5376.268333	1068.594727	-17.182377
-15457.506915	5376.268333	1067.447266	70.398415
-15457.506915	5376.268333	1066.298828	13.652436
-15457.506915	5376.268333	1065.149414	32.915985
-15457.506915	5376.268333	1064.000977	44.256805
-15457.506915	5376.268333	1062.851563	-4.232898
-15457.506915	5376.268333	1061.702148	29.646729
-15457.506915	5376.268333	1060.552734	19.978121
-15457.506915	5376.268333	1059.402344	-21.914885
-15457.506915	5376.268333	1058.252930	16.643517
-15457.506915	5376.268333	1057.102539	86.068649
-15457.506915	5376.268333	1055.951172	52.915085
-15457.506915	5376.268333	1054.800781	56.873363
-15457.506915	5376.268333	1053.649414	-31.881983
-15457.506915	5376.268333	1052.498047	25.246975
-15457.506915	5376.268333	1051.346680	105.144447
-15457.506915	5376.268333	1050.194336	8.380774
-15457.506915	5376.268333	1049.042969	19.768221
-15457.506915	5376.268333	1047.890625	14.569570
-15457.506915	5376.268333	1046.738281	36.499046
-15457.506915	5376.268333	1045.584961	131.096176
-15457.506915	5376.268333	1044.431641	-46.512680
-15457.506915	5376.268333	1043.278320	27.811113
-15457.506915	5376.268333	1042.125000	57.443974
-15457.506915	5376.268333	1040.971680	-161.982788
-15457.506915	5376.268333	1039.817383	52.788063
-15457.506915	5376.268333	1038.663086	42.779461
-15457.506915	5376.268333	1037.508789	-32.362621
-15457.506915	5376.268333	1036.353516	44.965687
-15457.506915	5376.268333	1035.198242	-6.115943
-15457.506915	5376.268333	1034.042969	164.973526
-15457.506915	5376.268333	1032.887695	131.666672
-15457.506915	5376.268333	1031.732422	162.531860
-15457.506915	5376.268333	1030.576172	108.609421
-15457.506915	5376.268333	1029.419922	75.735420
-15457.506915	5376.268333	1028.263672	68.653488
-15457.506915	5376.268333	1027.106445	33.928848
-15457.506915	5376.268333	1025.949219	157.111465
-15457.506915	5376.268333	1024.792969	41.715767
-15457.506915	5376.268333	1023.634766	218.943146
-15457.506915	5376.268333	1022.477539	23.797766
-15457.506915	5376.268333	1021.319336	65.755653
-15457.506915	5376.268333	1020.161133	48.775574
-15457.506915	5376.268333	1019.002930	148.497192
-15457.506915	5376.268333	1017.843750	-55.055416
-15457.506915	5376.268333	1016.684570	19.834881
-15457.506915	5376.268333	1015.525391	82.540161
-15457.506915	5376.268333	1014.366211	19.633202
-15457.506915	5376.268333	1013.207031	28.607676
-15457.506915	5376.268333	1012.046875	-52.480160
-15457.506915	5376.268333	1010.886719	136.690414
-15457.506915	5376.268333	1009.726563	-20.198448
-15457.506915	5376.268333	1008.565430	-4.924019
-15457.506915	5376.268333	1007.404297	24.991695
-15457.506915	5376.268333	1006.243164	-14.142185
-15457.506915	5376.268333	1005.082031	44.358459
-15457.506915	5376.268333	1003.920898	29.581558
-15457.506915	5376.268333	1002.758789	19.534935
-15457.506915	5376.268333	1001.596680	-94.060165
-15457.506915	5376.268333	1000.433594	179.231781
-15457.506915	5376.268333	999.271484	22.385551
-15457.506915	5376.268333	998.108398	107.175476
-15457.506915	5376.268333	996.945313	127.364357
-15457.506915	5376.268333	995.782227	86.367302
-15457.506915	5376.268333	994.618164	103.822411
-15457.506915	5376.268333	993.454102	224.182495
-15457.506915	5376.268333	992.290039	68.458839
-15457.506915	5376.268333	991.125977	121.282860
-15457.506915	5376.268333	989.960938	164.943512
-15457.506915	5376.268333	988.796875	-34.932323
-15457.506915	5376.268333	987.630859	39.571327
-15457.506915	5376.268333	986.465820	205.708084
-15457.506915	5376.268333	985.300781	203.578888
-15457.506915	5376.268333	984.134766	136.934036
-15457.506915	5376.268333	982.968750	89.235779
-15457.506915	5376.268333	981.801758	17.305180
-15457.506915	5376.268333	980.635742	63.052563
-15457.506915	5376.268333	979.468750	75.343636
-15457.506915	5376.268333	978.301758	79.743721
-15457.506915	5376.268333	977.133789	65.501091
-15457.506915	5376.268333	975.966797	-45.482121
-15457.506915	5376.268333	974.798828	-0.511201
-15457.506915	5376.268333	973.630859	-31.707783
-15457.506915	5376.268333	972.461914	-68.722069
-15457.506915	5376.268333	971.293945	104.213913
-15457.506915	5376.268333	970.125000	-10.645170
-15457.506915	5376.268333	968.956055	24.631353
-15457.506915	5376.268333	967.786133	94.263847
-15457.506915	5376.268333	966.617188	46.301632
-15457.506915	5376.268333	965.447266	48.824486
-15457.506915	5376.268333	964.276367	78.637161
-15457.506915	5376.268333	963.106445	-13.572742
-15457.506915	5376.268333	961.935547	-67.787056
-15457.506915	5376.268333	960.764648	-0.563780
-15457.506915	5376.268333	959.593750	69.360397
-15457.506915	5376.268333	958.422852	40.853256
-15457.506915	5376.268333	957.250977	-37.977722
-15457.506915	5376.268333	956.079102	-17.172413
-15457.506915	5376.268333	954.907227	73.390396
-15457.506915	5376.268333	953.734375	68.313759
-15457.506915	5376.268333	952.562500	34.264488
-15457.506915	5376.268333	951.389648	18.180975
-15457.506915	5376.268333	950.215820	124.893387
-15457.506915	5376.268333	949.042969	-10.010963
-15457.506915	5376.268333	947.869141	-18.257826
-15457.506915	5376.268333	946.695313	51.725822
-15457.506915	5376.268333	945.521484	-25.867990
-15457.506915	5376.268333	944.346680	64.684799
-15457.506915	5376.268333	943.172852	15.272383
-15457.506915	5376.268333	941.998047	17.787580
-15457.506915	5376.268333	940.822266	-88.717262
-15457.506915	5376.268333	939.647461	-52.806519
-15457.506915	5376.268333	938.471680	1.673308
-15457.506915	5376.268333	937.295898	11.921305
-15457.506915	5376.268333	936.119141	86.842628
-15457.506915	5376.268333	934.943359	112.580498
-15457.506915	5376.268333	933.766602	148.654556
-15457.506915	5376.268333	932.589844	-71.783440
-15457.506915	5376.268333	931.413086	148.227600
-15457.506915	5376.268333	930.235352	85.796875
-15457.506915	5376.268333	929.057617	7.780300
-15457.506915	5376.268333	927.879883	155.207306
-15457.506915	5376.268333	926.702148	110.892006
-15457.506915	5376.268333	925.523438	177.946503
-15457.506915	5376.268333	924.344727	128.431808
-15457.506915	5376.268333	923.166016	229.101517
-15457.506915	5376.268333	921.987305	117.451340
-15457.506915	5376.268333	920.807617	-1.928105
-15457.506915	5376.268333	919.627930	-1.213080
-15457.506915	5376.268333	919.497070	-12.504818
-15457.506915	5376.268333	918.331055	10.459684
-15457.506915	5376.268333	917.165039	48.925442
-15457.506915	5376.268333	915.999023	-83.319313
-15457.506915	5376.268333	914.833008	63.727024
-15457.506915	5376.268333	913.666016	78.864952
-15457.506915	5376.268333	912.499023	19.035938
-15457.506915	5376.268333	911.332031	21.238668
-15457.506915	5376.268333	910.165039	69.935196
-15457.506915	5376.268333	908.997070	-93.200966
-15457.506915	5376.268333	907.830078	45.867851
-15457.506915	5376.268333	906.661133	-29.427954
-15457.506915	5376.268333	905.493164	1.136291
-15457.506915	5376.268333	904.325195	88.459679
-15457.506915	5376.268333	903.156250	-20.367802
-15457.506915	5376.268333	901.987305	54.009441
-15457.506915	5376.268333	900.818359	9.700931
-15457.506915	5376.268333	899.648438	-166.114990
-15457.506915	5376.268333	898.478516	24.245899
-15457.506915	5376.268333	897.308594	46.969296
-15457.506915	5376.268333	896.138672	-66.915367
-15457.506915	5376.268333	894.968750	-49.349842
-15457.506915	5376.268333	893.797852	151.108826
-15457.506915	5376.268333	892.626953	-27.138300
-15457.506915	5376.268333	891.456055	-89.440208
-15457.506915	5376.268333	890.284180	-125.976524
-15457.506915	5376.268333	889.113281	12.530862
-15457.506915	5376.268333	887.941406	-29.170988
-15457.506915	5376.268333	886.768555	44.923416
-15457.506915	5376.268333	885.596680	57.242100
-15457.506915	5376.268333	884.423828	-123.346321
-15457.506915	5376.268333	883.250977	-26.152662
-15457.506915	5376.268333	882.078125	-67.833046
-15457.506915	5376.268333	880.905273	13.876326
-15457.506915	5376.268333	879.731445	95.547256
-15457.506915	5376.268333	878.557617	7.604286
-15457.506915	5376.268333	877.383789	-62.326481
-15457.506915	5376.268333	876.209961	127.161819
-15457.506915	5376.268333	875.035156	90.606789
-15457.506915	5376.268333	873.860352	133.645874
-15457.506915	5376.268333	872.685547	22.660536
-15457.506915	5376.268333	871.510742	27.194359
-15457.506915	5376.268333	870.334961	126.650642
-15457.506915	5376.268333	869.159180	49.068699
-15457.506915	5376.268333	867.983398	-13.097739
-15457.506915	5376.268333	866.807617	47.832592
-15457.506915	5376.268333	865.630859	54.899696
-15457.506915	5376.268333	864.454102	-96.946953
-15457.506915	5376.268333	863.277344	17.763948
-15457.506915	5376.268333	862.100586	78.623329
-15457.506915	5376.268333	860.922852	-103.883026
-15457.506915	5376.268333	859.745117	74.772003
-15457.506915	5376.268333	858.567383	35.716934
-15457.506915	5376.268333	857.389648	14.593473
-15457.506915	5376.268333	856.210938	1.153993
-15457.506915	5376.268333	855.032227	8.187819
-15457.506915	5376.268333	853.853516	130.339096
-15457.506915	5376.268333	852.674805	73.393547
-15457.506915	5376.268333	851.495117	-37.233364
-15457.506915	5376.268333	850.315430	-145.260620
-15457.506915	5376.268333	849.135742	-51.306789
-15457.506915	5376.268333	847.956055	9.382130
-15457.506915	5376.268333	846.775391	-80.709106
-15457.506915	5376.268333	845.595703	-17.489214
-15457.506915	5376.268333	844.415039	-13.041015
-15457.506915	5376.268333	843.233398	50.135567
-15457.506915	5376.268333	842.052734	39.245579
-15457.506915	5376.268333	840.871094	0.280413
-15457.506915	5376.268333	839.689453	-74.398338
-15457.506915	5376.268333	838.506836	70.378136
-15457.506915	5376.268333	837.325195	69.689407
-15457.506915	5376.268333	836.142578	-30.466814
-15457.506915	5376.268333	834.959961	-110.184502
-15457.506915	5376.268333	833.777344	-47.106178
-15457.506915	5376.268333	832.593750	49.079540
-15457.506915	5376.268333	831.410156	-56.092422
-15457.506915	5376.268333	830.226563	-8.355412
-15457.506915	5376.268333	829.042969	-44.698635
-15457.506915	5376.268333	827.858398	-50.467468
-15457.506915	5376.268333	826.673828	-23.134310
-15457.506915	5376.268333	825.489258	19.460056
-15457.506915	5376.268333	824.304688	-128.851318
-15457.506915	5376.268333	823.120117	15.530727
-15457.506915	5376.268333	821.934570	-74.205994
-15457.506915	5376.268333	820.749023	-41.814667
-15457.506915	5376.268333	819.562500	-50.126514
-15457.506915	5376.268333	818.376953	38.180195
-15457.506915	5376.268333	817.190430	19.685143
-15457.506915	5376.268333	816.003906	79.983284
-15457.506915	5376.268333	814.817383	-149.415100
-15457.506915	5376.268333	813.629883	55.696331
-15457.506915	5376.268333	812.442383	19.429623
-15457.506915	5376.268333	811.254883	-93.004280
-15457.506915	5376.268333	810.067383	53.571388
-15457.506915	5376.268333	808.878906	30.017262
-15457.506915	5376.268333	807.690430	-84.890083
-15457.506915	5376.268333	806.501953	-4.378664
-15457.506915	5376.268333	805.313477	-38.056404
-15457.506915	5376.268333	804.124023	6.902649
-15457.506915	5376.268333	802.934570	-19.158037
-15457.506915	5376.268333	801.745117	23.241505
-15457.506915	5376.268333	800.555664	-35.764462
-15457.506915	5376.268333	799.365234	-23.790432
-15457.506915	5376.268333	798.175781	-6.755423
-15457.506915	5376.268333	796.985352	-15.059314
-15457.506915	5376.268333	795.793945	29.823256
-15457.506915	5376.268333	794.603516	-8.871457
-15457.506915	5376.268333	793.412109	61.304306
-15457.506915	5376.268333	792.220703	27.678864
-15457.506915	5376.268333	791.028320	-13.524914
-15457.506915	5376.268333	789.836914	114.793488
-15457.506915	5376.268333	788.644531	-60.473370
-15457.506915	5376.268333	787.452148	-101.636826
-15457.506915	5376.268333	786.258789	-130.142975
-15457.506915	5376.268333	785.066406	51.172668
-15457.506915	5376.268333	783.873047	-27.902828
-15457.506915	5376.268333	782.679688	-23.562166
-15457.506915	5376.268333	781.485352	195.508316
-15457.506915	5376.268333	780.291992	65.932083
-15457.506915	5376.268333	779.097656	62.670010
-15457.506915	5376.268333	777.903320	51.832607
-15457.506915	5376.268333	776.708008	25.853155
-15457.506915	5376.268333	775.512695	80.640015
-15457.506915	5376.268333	774.318359	67.276360
-15457.506915	5376.268333	773.122070	13.555317
-15457.506915	5376.268333	771.926758	-40.146008
-15457.506915	5376.268333	770.730469	153.285568
-15457.506915	5376.268333	769.534180	26.463005
-15457.506915	5376.268333	768.337891	61.002888
-15457.506915	5376.268333	767.141602	-50.632965
-15457.506915	5376.268333	765.944336	16.656656
-15457.506915	5376.268333	764.747070	31.017885
-15457.506915	5376.268333	763.549805	70.554138
-15457.506915	5376.268333	762.351563	105.035049
-15457.506915	5376.268333	761.154297	114.324799
-15457.506915	5376.268333	759.956055	-39.987404
-15457.506915	5376.268333	758.757813	9.582946
-15457.506915	5376.268333	757.558594	154.729797
-15457.506915	5376.268333	756.359375	211.777496
-15457.506915	5376.268333	755.160156	135.516464
-15457.506915	5376.268333	753.960938	-31.229242
-15457.506915	5376.268333	752.761719	50.947006
-15457.506915	5376.268333	751.561523	32.557468
-15457.506915	5376.268333	750.361328	167.443604
-15457.506915	5376.268333	749.160156	159.077118
-15457.506915	5376.268333	747.959961	62.803699
-15457.506915	5376.268333	746.758789	61.986355
-15457.506915	5376.268333	745.557617	282.093506
-15457.506915	5376.268333	744.356445	135.638641
-15457.506915	5376.268333	743.154297	94.639397
-15457.506915	5376.268333	741.952148	-6.563776
-15457.506915	5376.268333	740.750000	-17.426104
-15457.506915	5376.268333	739.547852	132.218262
-15457.506915	5376.268333	738.344727	-6.557933
-15457.506915	5376.268333	737.142578	137.995804
-15457.506915	5376.268333	735.939453	74.454803
-15457.506915	5376.268333	734.735352	53.532742
-15457.506915	5376.268333	733.532227	132.825851
-15457.506915	5376.268333	732.328125	-43.409931
-15457.506915	5376.268333	731.124023	43.369034
-15457.506915	5376.268333	729.918945	-57.676186
-15457.506915	5376.268333	728.714844	41.570683
-15457.506915	5376.268333	727.509766	-1.884944
-15457.506915	5376.268333	726.303711	77.276550
-15457.506915	5376.268333	725.098633	-23.722569
-15457.506915	5376.268333	723.892578	-22.140604
-15457.506915	5376.268333	722.686523	-45.574528
-15457.506915	5376.268333	721.480469	10.995971
-15457.506915	5376.268333	720.274414	-69.942001
-15457.506915	5376.268333	719.067383	-40.897850
-15457.506915	5376.268333	717.860352	-21.868441
-15457.506915	5376.268333	716.653320	-10.351044
-15457.506915	5376.268333	715.445313	-23.822386
-15457.506915	5376.268333	714.238281	60.082966
-15457.506915	5376.268333	713.030273	4.143197
-15457.506915	5376.268333	711.821289	-59.271320
-15457.506915	5376.268333	710.613281	24.557917
-15457.506915	5376.268333	709.404297	-6.422014
-15457.506915	5376.268333	708.195313	-7.468174
-15457.506915	5376.268333	706.986328	-50.919643
-15457.506915	5376.268333	705.776367	-156.696579
-15457.506915	5376.268333	704.566406	9.270133
-15457.506915	5376.268333	703.356445	-61.607109
-15457.506915	5376.268333	702.146484	-80.140533
-15457.506915	5376.268333	700.935547	-16.469593
-15457.506915	5376.268333	699.724609	57.125278
-15457.506915	5376.268333	698.513672	6.168757
-15457.506915	5376.268333	697.302734	67.253891
-15457.506915	5376.268333	696.090820	21.268536
-15457.506915	5376.268333	694.878906	12.618320
-15457.506915	5376.268333	693.666992	13.909467
-15457.506915	5376.268333	692.455078	-96.751793
-15457.506915	5376.268333	691.242188	93.546265
-15457.506915	5376.268333	690.029297	0.290873
-15457.506915	5376.268333	688.816406	-30.790665
-15457.506915	5376.268333	687.602539	77.310532
-15457.506915	5376.268333	686.389648	43.710800
-15457.506915	5376.268333	685.175781	-69.390259
-15457.506915	5376.268333	683.960938	1.346456
-15457.506915	5376.268333	682.747070	14.920662
-15457.506915	5376.268333	681.532227	21.024559
-15457.506915	5376.268333	680.317383	44.486271
-15457.506915	5376.268333	679.102539	75.366615
-15457.506915	5376.268333	677.886719	19.372616
-15457.506915	5376.268333	676.670898	79.980377
-15457.506915	5376.268333	675.455078	73.579346
-15457.506915	5376.268333	674.239258	99.399765
-15457.506915	5376.268333	673.022461	75.608070
-15457.506915	5376.268333	671.805664	148.475372
-15457.506915	5376.268333	670.588867	47.825657
-15457.506915	5376.268333	669.372070	-25.546345
-15457.506915	5376.268333	668.154297	203.297226
-15457.506915	5376.268333	666.936523	13.487399
-15457.506915	5376.268333	665.718750	123.338898
-15457.506915	5376.268333	664.500977	134.104462
-15457.506915	5376.268333	663.282227	172.070526
-15457.506915	5376.268333	662.063477	284.234406
-15457.506915	5376.268333	660.844727	213.259933
-15457.506915	5376.268333	659.625000	35.937462
-15457.506915	5376.268333	658.405273	185.092438
-15457.506915	5376.268333	657.185547	143.790604
-15457.506915	5376.268333	655.965820	206.303726
-15457.506915	5376.268333	654.745117	231.698929
-15457.506915	5376.268333	653.525391	145.876068
-15457.506915	5376.268333	652.303711	190.992889
-15457.506915	5376.268333	651.083008	75.534836
-15457.506915	5376.268333	649.861328	290.981476
-15457.506915	5376.268333	648.640625	219.944733
-15457.506915	5376.268333	647.417969	203.214462
-15457.506915	5376.268333	646.196289	196.340805
-15457.506915	5376.268333	644.973633	236.322708
-15457.506915	5376.268333	643.750977	81.400932
-15457.506915	5376.268333	642.528320	47.361439
-15457.506915	5376.268333	641.305664	70.022438
-15457.506915	5376.268333	640.082031	117.300003
-15457.506915	5376.268333	638.858398	78.275284
-15457.506915	5376.268333	637.634766	51.563854
-15457.506915	5376.268333	636.410156	-2.259071
-15457.506915	5376.268333	635.185547	271.493195
-15457.506915	5376.268333	633.960938	94.475784
-15457.506915	5376.268333	632.736328	43.067970
-15457.506915	5376.268333	631.510742	97.497734
-15457.506915	5376.268333	630.285156	63.287788
-15457.506915	5376.268333	629.059570	-29.980927
-15457.506915	5376.268333	627.833984	-15.001392
-15457.506915	5376.268333	626.607422	152.425018
-15457.506915	5376.268333	625.380859	243.532043
-15457.506915	5376.268333	624.154297	66.621849
-15457.506915	5376.268333	622.927734	194.524887
-15457.506915	5376.268333	621.700195	133.139938
-15457.506915	5376.268333	620.472656	49.644691
-15457.506915	5376.268333	619.245117	-53.489750
-15457.506915	5376.268333	618.016602	-51.013096
-15457.506915	5376.268333	616.788086	-1.915069
-15457.506915	5376.268333	615.559570	-65.776779
-15457.506915	5376.268333	614.331055	20.064310
-15457.506915	5376.268333	613.101563	54.315948
-15457.506915	5376.268333	611.872070	-95.452888
-15457.506915	5376.268333	610.642578	17.238710
-15457.506915	5376.268333	609.413086	51.391697
-15457.506915	5376.268333	608.182617	24.214731
-15457.506915	5376.268333	606.952148	-10.329552
-15457.506915	5376.268333	605.721680	65.385788
-15457.506915	5376.268333	604.491211	23.445692
-15457.506915	5376.268333	603.259766	69.674995
-15457.506915	5376.268333	602.028320	37.492962
-15457.506915	5376.268333	600.796875	-168.536423
-15457.506915	5376.268333	599.564453	14.704582
-15457.506915	5376.268333	598.332031	99.947838
-15457.506915	5376.268333	597.099609	28.531754
-15457.506915	5376.268333	595.867188	-62.450382
-15457.506915	5376.268333	594.633789	7.999993
-15457.506915	5376.268333	593.400391	22.152922
-15457.506915	5376.268333	592.166992	31.384436
-15457.506915	5376.268333	590.933594	135.910904
-15457.506915	5376.268333	589.699219	120.623413
-15457.506915	5376.268333	588.464844	141.964462
-15457.506915	5376.268333	587.230469	-24.814379
-15457.506915	5376.268333	585.995117	86.854179
-15457.506915	5376.268333	584.760742	-165.349762
-15457.506915	5376.268333	583.525391	-34.221874
-15457.506915	5376.268333	582.289063	192.005493
-15457.506915	5376.268333	581.053711	-91.859039
-15457.506915	5376.268333	579.817383	36.651970
-15457.506915	5376.268333	578.581055	150.448547
-15457.506915	5376.268333	577.343750	120.298584
-15457.506915	5376.268333	576.107422	34.064621
-15457.506915	5376.268333	574.870117	-91.158592
-15457.506915	5376.268333	573.631836	163.806778
-15457.506915	5376.268333	572.394531	206.672516
-15457.506915	5376.268333	571.156250	54.622162
-15457.506915	5376.268333	569.917969	14.639141
-15457.506915	5376.268333	568.679688	52.564949
-15457.506915	5376.268333	567.440430	-65.349197
-15457.506915	5376.268333	566.202148	55.278614
-15457.506915	5376.268333	564.961914	71.196243
-15457.506915	5376.268333	563.722656	72.488281
-15457.506915	5376.268333	562.482422	90.780930
-15457.506915	5376.268333	561.243164	50.682835
-15457.506915	5376.268333	560.001953	134.566666
-15457.506915	5376.268333	558.761719	26.369307
-15457.506915	5376.268333	557.520508	156.350632
-15457.506915	5376.268333	556.279297	21.422079
-15457.506915	5376.268333	555.038086	-135.333084
-15457.506915	5376.268333	553.795898	28.532524
-15457.506915	5376.268333	552.554688	102.468651
-15457.506915	5376.268333	551.311523	-22.713354
-15457.506915	5376.268333	550.069336	34.168873
-15457.506915	5376.268333	548.826172	69.164589
-15457.506915	5376.268333	547.583984	123.535690
-15457.506915	5376.268333	546.339844	10.499130
-15457.506915	5376.268333	545.096680	4.192557
-15457.506915	5376.268333	543.852539	65.752045
-15457.506915	5376.268333	542.608398	158.777252
-15457.506915	5376.268333	541.364258	-80.265686
-15457.506915	5376.268333	540.119141	-115.702919
-15457.506915	5376.268333	538.875000	-25.177090
-15457.506915	5376.268333	537.628906	-41.274734
-15457.506915	5376.268333	536.383789	-115.493134
-15457.506915	5376.268333	535.137695	-95.287186
-15457.506915	5376.268333	533.892578	41.070202
-15457.506915	5376.268333	532.645508	29.740408
-15457.506915	5376.268333	531.399414	-51.757565
-15457.506915	5376.268333	530.152344	-113.888466
-15457.506915	5376.268333	528.905273	22.286406
-15457.506915	5376.268333	527.658203	32.666344
-15457.506915	5376.268333	526.410156	-31.908386
-15457.506915	5376.268333	525.163086	-21.550844
-15457.506915	5376.268333	523.914063	-64.372803
-15457.506915	5376.268333	522.666016	-61.290089
-15457.506915	5376.268333	521.416992	-19.583004
-15457.506915	5376.268333	520.167969	-132.441666
-15457.506915	5376.268333	518.918945	-134.217255
-15457.506915	5376.268333	517.669922	-63.596912
-15457.506915	5376.268333	516.419922	-14.739461
-15457.506915	5376.268333	515.169922	-67.240730
-15457.506915	5376.268333	513.919922	-42.546642
-15457.506915	5376.268333	512.668945	-184.270142
-15457.506915	5376.268333	511.417969	-19.749231
-15457.506915	5376.268333	510.166992	98.891937
-15457.506915	5376.268333	508.916016	-11.472246
-15457.506915	5376.268333	507.664063	-59.155941
-15457.506915	5376.268333	506.412109	54.567810
-15457.506915	5376.268333	505.160156	40.589008
-15457.506915	5376.268333	503.907227	62.723351
-15457.506915	5376.268333	502.655273	-57.191765
-15457.506915	5376.268333	501.402344	-75.978424
-15457.506915	5376.268333	500.148438	54.424244
-15457.506915	5376.268333	498.895508	11.548456
-15457.506915	5376.268333	497.641602	-67.397636
-15457.506915	5376.268333	496.387695	46.064388
-15457.506915	5376.268333	495.132813	-6.424160
-15457.506915	5376.268333	493.878906	78.118652
-15457.506915	5376.268333	492.624023	56.875034
-15457.506915	5376.268333	491.368164	143.753937
-15457.506915	5376.268333	490.113281	19.201151
-15457.506915	5376.268333	488.857422	29.186920
-15457.506915	5376.268333	487.601563	7.948897
-15457.506915	5376.268333	486.344727	17.921268
-15457.506915	5376.268333	485.088867	11.085929
-15457.506915	5376.268333	483.832031	119.427208
-15457.506915	5376.268333	482.575195	222.920029
-15457.506915	5376.268333	481.317383	148.868118
-15457.506915	5376.268333	480.059570	5.301569
-15457.506915	5376.268333	478.801758	82.365021
-15457.506915	5376.268333	477.543945	41.938488
-15457.506915	5376.268333	476.285156	68.625443
-15457.506915	5376.268333	475.027344	179.158646
-15457.506915	5376.268333	473.767578	-5.005204
-15457.506915	5376.268333	472.508789	43.218792
-15457.506915	5376.268333	471.249023	-23.515816
-15457.506915	5376.268333	469.989258	67.772545
-15457.506915	5376.268333	468.729492	-56.386860
-15457.506915	5376.268333	467.469727	-10.602006
-15457.506915	5376.268333	466.208984	90.181076
-15457.506915	5376.268333	464.948242	166.999039
-15457.506915	5376.268333	463.686523	117.037140
-15457.506915	5376.268333	462.425781	248.796951
-15457.506915	5376.268333	461.164063	60.194489
-15457.506915	5376.268333	459.901367	189.505875
-15457.506915	5376.268333	458.639648	96.558792
-15457.506915	5376.268333	457.376953	56.196854
-15457.506915	5376.268333	456.114258	154.363724
-15457.506915	5376.268333	454.851563	123.546341
-15457.506915	5376.268333	453.587891	73.636215
-15457.506915	5376.268333	452.324219	200.355209
-15457.506915	5376.268333	451.060547	181.456268
-15457.506915	5376.268333	449.796875	0.334834
-15457.506915	5376.268333	448.532227	-25.686111
-15457.506915	5376.268333	447.267578	127.141510
-15457.506915	5376.268333	446.002930	184.529449
-15457.506915	5376.268333	444.737305	55.960644
-15457.506915	5376.268333	443.471680	96.634247
-15457.506915	5376.268333	442.206055	1.473269
-15457.506915	5376.268333	440.940430	92.138939
-15457.506915	5376.268333	439.673828	-26.823986
-15457.506915	5376.268333	438.407227	125.684303
-15457.506915	5376.268333	437.140625	23.398621
-15457.506915	5376.268333	435.873047	25.856663
-15457.506915	5376.268333	434.605469	178.201569
-15457.506915	5376.268333	433.337891	125.872536
-15457.506915	5376.268333	432.070313	-4.942252
-15457.506915	5376.268333	430.801758	275.653473
-15457.506915	5376.268333	429.533203	97.267014
-15457.506915	5376.268333	428.264648	187.520889
-15457.506915	5376.268333	426.996094	111.363731
-15457.506915	5376.268333	425.726563	158.753006
-15457.506915	5376.268333	424.457031	92.076019
-15457.506915	5376.268333	423.186523	-19.728039
-15457.506915	5376.268333	421.916992	120.162102
-15457.506915	5376.268333	420.646484	55.807541
-15457.506915	5376.268333	419.375977	15.176423
-15457.506915	5376.268333	418.104492	185.695770
-15457.506915	5376.268333	416.833008	123.619247
-15457.506915	5376.268333	415.561523	89.986542
-15457.506915	5376.268333	414.290039	106.117538
-15457.506915	5376.268333	413.017578	131.672165
-15457.506915	5376.268333	411.746094	107.392807
-15457.506915	5376.268333	410.472656	147.045135
-15457.506915	5376.268333	409.200195	158.195923
-15457.506915	5376.268333	407.926758	171.646851
-15457.506915	5376.268333	406.653320	125.825867
-15457.506915	5376.268333	405.379883	226.750381
-15457.506915	5376.268333	404.105469	41.138805
-15457.506915	5376.268333	402.831055	144.258743
-15457.506915	5376.268333	401.556641	190.470978
-15457.506915	5376.268333	400.282227	170.347641
-15457.506915	5376.268333	399.006836	91.019524
-15457.506915	5376.268333	397.731445	56.563503
-15457.506915	5376.268333	396.456055	-22.885706
-15457.506915	5376.268333	395.179688	72.499847
-15457.506915	5376.268333	393.903320	122.846153
-15457.506915	5376.268333	392.626953	-39.557693
-15457.506915	5376.268333	391.350586	17.662695
-15457.506915	5376.268333	390.073242	-14.994714
-15457.506915	5376.268333	388.795898	75.011314
-15457.506915	5376.268333	387.518555	214.422897
-15457.506915	5376.268333	386.240234	150.687943
-15457.506915	5376.268333	384.961914	46.735653
-15457.506915	5376.268333	383.683594	4.019581
-15457.506915	5376.268333	382.405273	192.296829
-15457.506915	5376.268333	381.125977	116.254913
-15457.506915	5376.268333	379.846680	89.592323
-15457.506915	5376.268333	378.567383	124.054886
-15457.506915	5376.268333	377.287109	82.923958
-15457.506915	5376.268333	376.006836	-7.838038
-15457.506915	5376.268333	374.726563	-6.888648
-15457.506915	5376.268333	373.446289	43.319946
-15457.506915	5376.268333	372.165039	62.697151
-15457.506915	5376.268333	370.883789	168.949295
-15457.506915	5376.268333	369.602539	96.094307
-15457.506915	5376.268333	368.320313	-66.360397
-15457.506915	5376.268333	367.039063	-31.380331
-15457.506915	5376.268333	365.755859	-88.383415
-15457.506915	5376.268333	364.473633	61.304279
-15457.506915	5376.268333	363.190430	13.206911
-15457.506915	5376.268333	361.907227	-49.234715
-15457.506915	5376.268333	360.624023	57.253571
-15457.506915	5376.268333	359.340820	139.920807
-15457.506915	5376.268333	358.056641	-3.217297
-15457.506915	5376.268333	356.772461	132.831177
-15457.506915	5376.268333	355.487305	26.694725
-15457.506915	5376.268333	354.202148	147.950134
-15457.506915	5376.268333	352.916992	-94.904388
-15457.506915	5376.268333	351.631836	53.797592
-15457.506915	5376.268333	350.346680	98.873108
-15457.506915	5376.268333	349.060547	-58.124260
-15457.506915	5376.268333	347.774414	-13.802450
-15457.506915	5376.268333	346.487305	81.665848
-15457.506915	5376.268333	345.200195	-31.887411
-15457.506915	5376.268333	343.913086	-9.914748
-15457.506915	5376.268333	342.625977	-21.178061
-15457.506915	5376.268333	341.338867	37.378319
-15457.506915	5376.268333	340.050781	79.048256
-15457.506915	5376.268333	338.762695	-123.233788
-15457.506915	5376.268333	337.473633	-80.180229
-15457.506915	5376.268333	336.184570	-91.467461
-15457.506915	5376.268333	334.895508	128.336441
-15457.506915	5376.268333	333.606445	-59.462936
-15457.506915	5376.268333	332.317383	28.203804
-15457.506915	5376.268333	331.027344	-29.698368
-15457.506915	5376.268333	329.736328	-83.499062
-15457.506915	5376.268333	328.446289	121.533188
-15457.506915	5376.268333	327.155273	40.804615
-15457.506915	5376.268333	325.864258	-10.158281
-15457.506915	5376.268333	324.573242	94.715508
-15457.506915	5376.268333	323.281250	177.839859
-15457.506915	5376.268333	321.989258	47.810299
-15457.506915	5376.268333	320.697266	115.501266
-15457.506915	5376.268333	319.405273	-67.234680
-15457.506915	5376.268333	318.112305	52.602779
-15457.506915	5376.268333	316.819336	-98.932961
-15457.506915	5376.268333	315.526367	49.602558
-15457.506915	5376.268333	314.232422	-42.886253
-15457.506915	5376.268333	312.938477	-61.590816
-15457.506915	5376.268333	311.644531	-99.791702
-15457.506915	5376.268333	310.349609	122.045898
-15457.506915	5376.268333	309.054688	312.595703
-15457.506915	5376.268333	307.759766	115.557579
-15457.506915	5376.268333	306.464844	257.566467
-15457.506915	5376.268333	305.168945	35.378372
-15457.506915	5376.268333	303.873047	184.627640
-15457.506915	5376.268333	302.577148	262.972504
-15457.506915	5376.268333	301.281250	247.170303
-15457.506915	5376.268333	299.984375	262.812561
