#X		#Y		#Wave		#Intensity
9919.112766	4051.631667	1999.946289	125.609184
9919.112766	4051.631667	1998.981445	-18.275112
9919.112766	4051.631667	1998.017578	-10.247895
9919.112766	4051.631667	1997.052734	118.921951
9919.112766	4051.631667	1996.088867	-94.161606
9919.112766	4051.631667	1995.124023	-15.125816
9919.112766	4051.631667	1994.159180	43.798225
9919.112766	4051.631667	1993.193359	52.918903
9919.112766	4051.631667	1992.228516	-151.144913
9919.112766	4051.631667	1991.262695	77.810905
9919.112766	4051.631667	1990.296875	73.799026
9919.112766	4051.631667	1989.331055	54.705772
9919.112766	4051.631667	1988.365234	52.707378
9919.112766	4051.631667	1987.398438	60.384014
9919.112766	4051.631667	1986.432617	-142.374161
9919.112766	4051.631667	1985.465820	10.789181
9919.112766	4051.631667	1984.499023	-68.692574
9919.112766	4051.631667	1983.532227	-69.251167
9919.112766	4051.631667	1982.565430	11.544842
9919.112766	4051.631667	1981.597656	-117.890800
9919.112766	4051.631667	1980.629883	409.639374
9919.112766	4051.631667	1979.662109	35.297920
9919.112766	4051.631667	1978.694336	-74.853729
9919.112766	4051.631667	1977.726563	-4.901264
9919.112766	4051.631667	1976.758789	146.320526
9919.112766	4051.631667	1975.790039	72.738876
9919.112766	4051.631667	1974.821289	68.121086
9919.112766	4051.631667	1973.852539	6.612056
9919.112766	4051.631667	1972.883789	-15.554054
9919.112766	4051.631667	1971.915039	-47.717403
9919.112766	4051.631667	1970.945313	117.253632
9919.112766	4051.631667	1969.975586	8.386421
9919.112766	4051.631667	1969.005859	-63.596958
9919.112766	4051.631667	1968.036133	113.221771
9919.112766	4051.631667	1967.066406	361.307678
9919.112766	4051.631667	1966.096680	219.962646
9919.112766	4051.631667	1965.125977	-51.979820
9919.112766	4051.631667	1964.155273	195.662201
9919.112766	4051.631667	1963.184570	135.349518
9919.112766	4051.631667	1962.213867	-45.660728
9919.112766	4051.631667	1961.242188	199.077515
9919.112766	4051.631667	1960.271484	74.527084
9919.112766	4051.631667	1959.299805	139.369675
9919.112766	4051.631667	1958.328125	189.342529
9919.112766	4051.631667	1957.356445	-11.637944
9919.112766	4051.631667	1956.384766	158.662949
9919.112766	4051.631667	1955.412109	218.194656
9919.112766	4051.631667	1954.439453	196.516800
9919.112766	4051.631667	1953.467773	160.030914
9919.112766	4051.631667	1952.495117	138.231033
9919.112766	4051.631667	1951.521484	5.826849
9919.112766	4051.631667	1950.548828	50.249855
9919.112766	4051.631667	1949.575195	141.252228
9919.112766	4051.631667	1948.601563	94.671379
9919.112766	4051.631667	1947.627930	-59.956860
9919.112766	4051.631667	1946.654297	-47.688049
9919.112766	4051.631667	1945.680664	153.470535
9919.112766	4051.631667	1944.706055	91.993820
9919.112766	4051.631667	1943.732422	175.217422
9919.112766	4051.631667	1942.757813	135.742432
9919.112766	4051.631667	1941.783203	155.089310
9919.112766	4051.631667	1940.807617	-16.832865
9919.112766	4051.631667	1939.833008	-14.698620
9919.112766	4051.631667	1938.857422	65.818649
9919.112766	4051.631667	1937.881836	-22.789965
9919.112766	4051.631667	1936.906250	50.285595
9919.112766	4051.631667	1935.930664	130.652695
9919.112766	4051.631667	1934.955078	32.198910
9919.112766	4051.631667	1933.978516	-41.761486
9919.112766	4051.631667	1933.001953	229.435333
9919.112766	4051.631667	1932.025391	177.446320
9919.112766	4051.631667	1931.048828	30.023600
9919.112766	4051.631667	1930.072266	-4.822939
9919.112766	4051.631667	1929.094727	94.858795
9919.112766	4051.631667	1928.118164	-59.855259
9919.112766	4051.631667	1927.140625	181.588318
9919.112766	4051.631667	1926.163086	48.888317
9919.112766	4051.631667	1925.184570	43.325199
9919.112766	4051.631667	1924.207031	-81.990509
9919.112766	4051.631667	1923.228516	117.693558
9919.112766	4051.631667	1922.250000	73.006714
9919.112766	4051.631667	1921.271484	-76.694885
9919.112766	4051.631667	1920.292969	-60.292435
9919.112766	4051.631667	1919.314453	127.005180
9919.112766	4051.631667	1918.334961	9.094794
9919.112766	4051.631667	1917.355469	-33.115643
9919.112766	4051.631667	1916.375977	41.815258
9919.112766	4051.631667	1915.396484	63.044189
9919.112766	4051.631667	1914.416992	-54.771717
9919.112766	4051.631667	1913.436523	0.609402
9919.112766	4051.631667	1912.457031	99.863571
9919.112766	4051.631667	1911.476563	162.512650
9919.112766	4051.631667	1910.496094	198.330521
9919.112766	4051.631667	1909.515625	-70.482384
9919.112766	4051.631667	1908.534180	87.197952
9919.112766	4051.631667	1907.552734	98.660934
9919.112766	4051.631667	1906.572266	85.771118
9919.112766	4051.631667	1905.590820	72.891029
9919.112766	4051.631667	1904.608398	103.845459
9919.112766	4051.631667	1903.626953	120.191864
9919.112766	4051.631667	1902.644531	-119.008034
9919.112766	4051.631667	1901.663086	38.523342
9919.112766	4051.631667	1900.680664	79.225609
9919.112766	4051.631667	1899.698242	-91.699036
9919.112766	4051.631667	1898.714844	39.012363
9919.112766	4051.631667	1897.732422	-51.581059
9919.112766	4051.631667	1896.749023	125.284027
9919.112766	4051.631667	1895.765625	78.478104
9919.112766	4051.631667	1894.782227	80.303680
9919.112766	4051.631667	1893.798828	-19.906969
9919.112766	4051.631667	1892.814453	52.405422
9919.112766	4051.631667	1891.831055	-62.312618
9919.112766	4051.631667	1890.846680	172.701248
9919.112766	4051.631667	1889.862305	82.304611
9919.112766	4051.631667	1888.877930	-95.433563
9919.112766	4051.631667	1887.892578	44.837437
9919.112766	4051.631667	1886.908203	138.966263
9919.112766	4051.631667	1885.922852	-104.150963
9919.112766	4051.631667	1884.937500	-17.283754
9919.112766	4051.631667	1883.952148	-15.316390
9919.112766	4051.631667	1882.965820	190.334732
9919.112766	4051.631667	1881.980469	151.075134
9919.112766	4051.631667	1880.994141	109.417221
9919.112766	4051.631667	1880.007813	-70.342796
9919.112766	4051.631667	1879.021484	57.681725
9919.112766	4051.631667	1878.035156	59.704060
9919.112766	4051.631667	1877.047852	27.829264
9919.112766	4051.631667	1876.061523	-117.832314
9919.112766	4051.631667	1875.074219	-84.269684
9919.112766	4051.631667	1874.086914	-241.936813
9919.112766	4051.631667	1873.098633	50.614590
9919.112766	4051.631667	1872.111328	-145.711319
9919.112766	4051.631667	1871.123047	153.991974
9919.112766	4051.631667	1870.135742	98.031845
9919.112766	4051.631667	1869.147461	-88.487877
9919.112766	4051.631667	1868.158203	-86.333519
9919.112766	4051.631667	1867.169922	17.363228
9919.112766	4051.631667	1866.180664	-43.324562
9919.112766	4051.631667	1865.192383	-137.810379
9919.112766	4051.631667	1864.203125	-135.609985
9919.112766	4051.631667	1863.213867	-48.854874
9919.112766	4051.631667	1862.223633	163.464294
9919.112766	4051.631667	1861.234375	1.432416
9919.112766	4051.631667	1860.244141	71.236900
9919.112766	4051.631667	1859.253906	46.884857
9919.112766	4051.631667	1858.263672	-13.651406
9919.112766	4051.631667	1857.273438	36.835270
9919.112766	4051.631667	1856.282227	41.472355
9919.112766	4051.631667	1855.291992	50.938858
9919.112766	4051.631667	1854.300781	-77.051422
9919.112766	4051.631667	1853.309570	144.619385
9919.112766	4051.631667	1852.317383	-65.292366
9919.112766	4051.631667	1851.326172	-113.637527
9919.112766	4051.631667	1850.333984	86.240608
9919.112766	4051.631667	1849.342773	165.584396
9919.112766	4051.631667	1848.350586	206.360596
9919.112766	4051.631667	1847.357422	-102.090881
9919.112766	4051.631667	1846.365234	3.738907
9919.112766	4051.631667	1845.372070	37.305973
9919.112766	4051.631667	1844.379883	-61.522373
9919.112766	4051.631667	1843.386719	65.902763
9919.112766	4051.631667	1842.393555	48.914455
9919.112766	4051.631667	1841.399414	135.375015
9919.112766	4051.631667	1840.406250	22.172239
9919.112766	4051.631667	1839.412109	-4.418533
9919.112766	4051.631667	1838.417969	127.682831
9919.112766	4051.631667	1837.423828	60.214149
9919.112766	4051.631667	1836.429688	-137.014023
9919.112766	4051.631667	1835.434570	7.045180
9919.112766	4051.631667	1834.440430	-98.809830
9919.112766	4051.631667	1833.445313	78.810051
9919.112766	4051.631667	1832.450195	-15.019452
9919.112766	4051.631667	1831.454102	104.881310
9919.112766	4051.631667	1830.458984	159.915268
9919.112766	4051.631667	1829.462891	37.304501
9919.112766	4051.631667	1828.466797	169.110580
9919.112766	4051.631667	1827.470703	231.279785
9919.112766	4051.631667	1826.474609	142.290665
9919.112766	4051.631667	1825.478516	182.841949
9919.112766	4051.631667	1824.481445	-47.601131
9919.112766	4051.631667	1823.484375	218.319427
9919.112766	4051.631667	1822.487305	19.101194
9919.112766	4051.631667	1821.490234	198.612823
9919.112766	4051.631667	1820.493164	-58.053394
9919.112766	4051.631667	1819.495117	-43.919544
9919.112766	4051.631667	1818.498047	-29.800800
9919.112766	4051.631667	1817.500000	-121.070465
9919.112766	4051.631667	1816.500977	-71.052765
9919.112766	4051.631667	1815.502930	144.113953
9919.112766	4051.631667	1814.504883	162.924164
9919.112766	4051.631667	1813.505859	18.990036
9919.112766	4051.631667	1812.506836	99.994843
9919.112766	4051.631667	1811.507813	25.469387
9919.112766	4051.631667	1810.508789	127.938591
9919.112766	4051.631667	1809.508789	-37.459576
9919.112766	4051.631667	1808.508789	38.653072
9919.112766	4051.631667	1807.508789	23.889858
9919.112766	4051.631667	1806.508789	157.285004
9919.112766	4051.631667	1805.508789	13.446449
9919.112766	4051.631667	1804.508789	130.036865
9919.112766	4051.631667	1803.507813	24.435823
9919.112766	4051.631667	1802.506836	121.838043
9919.112766	4051.631667	1801.505859	130.845139
9919.112766	4051.631667	1800.504883	-43.977879
9919.112766	4051.631667	1799.502930	-39.755867
9919.112766	4051.631667	1798.501953	62.280121
9919.112766	4051.631667	1797.500000	219.128830
9919.112766	4051.631667	1796.498047	20.485590
9919.112766	4051.631667	1795.496094	36.533585
9919.112766	4051.631667	1794.493164	-92.896545
9919.112766	4051.631667	1793.491211	218.733398
9919.112766	4051.631667	1792.488281	96.423958
9919.112766	4051.631667	1791.485352	90.908165
9919.112766	4051.631667	1790.482422	56.778912
9919.112766	4051.631667	1789.478516	84.573784
9919.112766	4051.631667	1788.475586	90.900551
9919.112766	4051.631667	1787.471680	28.142384
9919.112766	4051.631667	1786.467773	96.327370
9919.112766	4051.631667	1785.463867	83.528885
9919.112766	4051.631667	1784.459961	139.727554
9919.112766	4051.631667	1783.455078	-32.549873
9919.112766	4051.631667	1782.450195	-19.226372
9919.112766	4051.631667	1781.445313	120.127914
9919.112766	4051.631667	1780.440430	-71.151878
9919.112766	4051.631667	1779.435547	30.062836
9919.112766	4051.631667	1778.429688	21.859751
9919.112766	4051.631667	1777.424805	130.093811
9919.112766	4051.631667	1776.418945	105.183853
9919.112766	4051.631667	1775.413086	66.000572
9919.112766	4051.631667	1774.406250	145.571030
9919.112766	4051.631667	1773.400391	-83.657303
9919.112766	4051.631667	1772.393555	57.589191
9919.112766	4051.631667	1771.386719	-3.040808
9919.112766	4051.631667	1770.379883	2.783012
9919.112766	4051.631667	1769.373047	34.678570
9919.112766	4051.631667	1768.365234	-85.321342
9919.112766	4051.631667	1767.358398	69.873207
9919.112766	4051.631667	1766.350586	70.811417
9919.112766	4051.631667	1765.342773	-20.764563
9919.112766	4051.631667	1764.334961	-43.581505
9919.112766	4051.631667	1763.326172	37.874718
9919.112766	4051.631667	1762.318359	14.992210
9919.112766	4051.631667	1761.309570	-7.916408
9919.112766	4051.631667	1760.300781	2.318436
9919.112766	4051.631667	1759.291016	-82.230141
9919.112766	4051.631667	1758.282227	-72.050232
9919.112766	4051.631667	1757.272461	44.637859
9919.112766	4051.631667	1756.262695	23.947699
9919.112766	4051.631667	1755.252930	161.807846
9919.112766	4051.631667	1754.243164	-31.708578
9919.112766	4051.631667	1753.233398	72.919762
9919.112766	4051.631667	1752.222656	87.585648
9919.112766	4051.631667	1751.211914	156.605957
9919.112766	4051.631667	1750.201172	-8.524779
9919.112766	4051.631667	1749.190430	126.615685
9919.112766	4051.631667	1748.179688	53.667404
9919.112766	4051.631667	1747.167969	56.333084
9919.112766	4051.631667	1746.156250	-61.536995
9919.112766	4051.631667	1745.144531	40.297325
9919.112766	4051.631667	1744.132813	78.289108
9919.112766	4051.631667	1743.121094	104.423645
9919.112766	4051.631667	1742.108398	-8.785434
9919.112766	4051.631667	1741.095703	29.085581
9919.112766	4051.631667	1740.083008	78.708527
9919.112766	4051.631667	1739.070313	147.153702
9919.112766	4051.631667	1738.057617	-84.075523
9919.112766	4051.631667	1737.043945	47.987007
9919.112766	4051.631667	1736.030273	57.334049
9919.112766	4051.631667	1735.016602	80.789337
9919.112766	4051.631667	1734.002930	2.834314
9919.112766	4051.631667	1732.989258	21.508064
9919.112766	4051.631667	1731.974609	113.185287
9919.112766	4051.631667	1730.959961	89.347717
9919.112766	4051.631667	1729.945313	131.440704
9919.112766	4051.631667	1728.930664	166.416428
9919.112766	4051.631667	1727.916016	20.035681
9919.112766	4051.631667	1726.900391	57.300003
9919.112766	4051.631667	1725.885742	-30.230045
9919.112766	4051.631667	1724.870117	-14.220427
9919.112766	4051.631667	1723.853516	-130.014420
9919.112766	4051.631667	1722.837891	-81.126930
9919.112766	4051.631667	1721.822266	97.064148
9919.112766	4051.631667	1720.805664	150.518692
9919.112766	4051.631667	1719.789063	39.343853
9919.112766	4051.631667	1718.772461	-15.407512
9919.112766	4051.631667	1717.754883	-180.634003
9919.112766	4051.631667	1716.738281	-66.212402
9919.112766	4051.631667	1715.720703	184.383682
9919.112766	4051.631667	1714.703125	51.994511
9919.112766	4051.631667	1713.685547	84.006950
9919.112766	4051.631667	1712.667969	-222.125229
9919.112766	4051.631667	1711.649414	-25.822247
9919.112766	4051.631667	1710.630859	57.715282
9919.112766	4051.631667	1709.612305	138.841537
9919.112766	4051.631667	1708.593750	-87.437439
9919.112766	4051.631667	1707.575195	-67.368538
9919.112766	4051.631667	1706.555664	-35.618679
9919.112766	4051.631667	1705.536133	-116.461037
9919.112766	4051.631667	1704.516602	-70.713768
9919.112766	4051.631667	1703.497070	87.489548
9919.112766	4051.631667	1702.477539	6.571977
9919.112766	4051.631667	1701.457031	-20.463587
9919.112766	4051.631667	1700.437500	102.405060
9919.112766	4051.631667	1699.416992	37.826046
9919.112766	4051.631667	1698.395508	-57.205360
9919.112766	4051.631667	1697.375000	-110.085709
9919.112766	4051.631667	1696.354492	-167.658813
9919.112766	4051.631667	1695.333008	-63.766651
9919.112766	4051.631667	1694.311523	126.628540
9919.112766	4051.631667	1693.290039	33.857101
9919.112766	4051.631667	1692.267578	233.451019
9919.112766	4051.631667	1691.246094	21.373497
9919.112766	4051.631667	1690.223633	85.228256
9919.112766	4051.631667	1689.201172	209.807114
9919.112766	4051.631667	1688.178711	-46.641582
9919.112766	4051.631667	1687.155273	31.119139
9919.112766	4051.631667	1686.132813	13.041024
9919.112766	4051.631667	1685.109375	-9.734329
9919.112766	4051.631667	1684.085938	60.882900
9919.112766	4051.631667	1683.062500	-48.338413
9919.112766	4051.631667	1682.039063	75.896988
9919.112766	4051.631667	1681.014648	151.039825
9919.112766	4051.631667	1679.990234	76.781593
9919.112766	4051.631667	1678.965820	46.854088
9919.112766	4051.631667	1677.941406	19.244959
9919.112766	4051.631667	1676.916992	7.945770
9919.112766	4051.631667	1675.891602	176.164001
9919.112766	4051.631667	1674.866211	327.973114
9919.112766	4051.631667	1673.840820	-154.284729
9919.112766	4051.631667	1672.815430	27.775629
9919.112766	4051.631667	1671.790039	-172.364990
9919.112766	4051.631667	1670.763672	223.887543
9919.112766	4051.631667	1669.737305	2.773807
9919.112766	4051.631667	1668.710938	261.408447
9919.112766	4051.631667	1667.684570	112.498909
9919.112766	4051.631667	1666.658203	-36.375332
9919.112766	4051.631667	1665.630859	203.428604
9919.112766	4051.631667	1664.603516	-178.130814
9919.112766	4051.631667	1663.576172	163.923386
9919.112766	4051.631667	1662.548828	308.126801
9919.112766	4051.631667	1661.520508	122.037239
9919.112766	4051.631667	1660.493164	240.577362
9919.112766	4051.631667	1659.464844	194.006989
9919.112766	4051.631667	1658.436523	293.852112
9919.112766	4051.631667	1657.408203	286.752777
9919.112766	4051.631667	1656.378906	168.120331
9919.112766	4051.631667	1655.350586	207.467407
9919.112766	4051.631667	1654.321289	146.918915
9919.112766	4051.631667	1653.291992	316.239227
9919.112766	4051.631667	1652.261719	381.009552
9919.112766	4051.631667	1651.232422	225.255341
9919.112766	4051.631667	1650.202148	187.885590
9919.112766	4051.631667	1649.171875	245.636414
9919.112766	4051.631667	1648.141602	372.938934
9919.112766	4051.631667	1647.111328	307.689117
9919.112766	4051.631667	1646.080078	145.059921
9919.112766	4051.631667	1645.049805	265.312286
9919.112766	4051.631667	1644.018555	223.254501
9919.112766	4051.631667	1642.987305	290.114990
9919.112766	4051.631667	1641.955078	329.131104
9919.112766	4051.631667	1640.923828	435.302155
9919.112766	4051.631667	1639.891602	284.339722
9919.112766	4051.631667	1638.859375	399.714386
9919.112766	4051.631667	1637.827148	477.992126
9919.112766	4051.631667	1636.794922	373.373566
9919.112766	4051.631667	1635.761719	497.886078
9919.112766	4051.631667	1634.729492	416.423645
9919.112766	4051.631667	1633.696289	381.245605
9919.112766	4051.631667	1632.662109	459.398315
9919.112766	4051.631667	1631.628906	398.774811
9919.112766	4051.631667	1630.594727	391.337524
9919.112766	4051.631667	1629.561523	527.215881
9919.112766	4051.631667	1628.527344	554.411255
9919.112766	4051.631667	1627.493164	528.446228
9919.112766	4051.631667	1626.458008	550.994568
9919.112766	4051.631667	1625.423828	529.651489
9919.112766	4051.631667	1624.388672	519.854065
9919.112766	4051.631667	1623.353516	528.527039
9919.112766	4051.631667	1622.318359	537.194458
9919.112766	4051.631667	1621.282227	723.561340
9919.112766	4051.631667	1620.247070	662.959229
9919.112766	4051.631667	1619.210938	692.348572
9919.112766	4051.631667	1618.174805	629.462891
9919.112766	4051.631667	1617.137695	656.534546
9919.112766	4051.631667	1616.101563	732.021057
9919.112766	4051.631667	1615.064453	749.842896
9919.112766	4051.631667	1614.027344	783.793091
9919.112766	4051.631667	1612.990234	856.905212
9919.112766	4051.631667	1611.953125	646.613525
9919.112766	4051.631667	1610.916016	648.322693
9919.112766	4051.631667	1609.877930	811.237976
9919.112766	4051.631667	1608.839844	937.253784
9919.112766	4051.631667	1607.801758	757.046448
9919.112766	4051.631667	1606.763672	744.934875
9919.112766	4051.631667	1605.724609	622.371277
9919.112766	4051.631667	1604.685547	865.677795
9919.112766	4051.631667	1603.646484	653.439087
9919.112766	4051.631667	1602.607422	632.177002
9919.112766	4051.631667	1601.568359	652.319824
9919.112766	4051.631667	1600.528320	723.033691
9919.112766	4051.631667	1599.489258	646.631470
9919.112766	4051.631667	1598.449219	740.316895
9919.112766	4051.631667	1597.408203	824.780029
9919.112766	4051.631667	1596.368164	649.648071
9919.112766	4051.631667	1595.327148	766.270386
9919.112766	4051.631667	1594.287109	848.419678
9919.112766	4051.631667	1593.246094	760.654358
9919.112766	4051.631667	1592.204102	700.473999
9919.112766	4051.631667	1591.163086	807.863098
9919.112766	4051.631667	1590.121094	867.034485
9919.112766	4051.631667	1589.079102	871.140320
9919.112766	4051.631667	1588.037109	813.332397
9919.112766	4051.631667	1586.995117	870.217712
9919.112766	4051.631667	1585.953125	913.339722
9919.112766	4051.631667	1584.910156	844.136230
9919.112766	4051.631667	1583.867188	690.181213
9919.112766	4051.631667	1582.824219	751.686951
9919.112766	4051.631667	1581.781250	735.296631
9919.112766	4051.631667	1580.737305	734.956909
9919.112766	4051.631667	1579.693359	757.536560
9919.112766	4051.631667	1578.649414	569.489136
9919.112766	4051.631667	1577.605469	463.941101
9919.112766	4051.631667	1576.561523	617.068726
9919.112766	4051.631667	1575.516602	557.352051
9919.112766	4051.631667	1574.472656	591.479919
9919.112766	4051.631667	1573.427734	659.920715
9919.112766	4051.631667	1572.381836	744.358459
9919.112766	4051.631667	1571.336914	623.015259
9919.112766	4051.631667	1570.291016	492.594849
9919.112766	4051.631667	1569.246094	583.944092
9919.112766	4051.631667	1568.200195	499.329407
9919.112766	4051.631667	1567.153320	624.949585
9919.112766	4051.631667	1566.107422	684.308533
9919.112766	4051.631667	1565.060547	570.104431
9919.112766	4051.631667	1564.013672	558.715515
9919.112766	4051.631667	1562.966797	551.923340
9919.112766	4051.631667	1561.919922	533.748047
9919.112766	4051.631667	1560.872070	536.139526
9919.112766	4051.631667	1559.825195	511.184479
9919.112766	4051.631667	1558.777344	486.262054
9919.112766	4051.631667	1557.729492	449.974792
9919.112766	4051.631667	1556.680664	593.854919
9919.112766	4051.631667	1555.632813	484.668488
9919.112766	4051.631667	1554.583984	462.161072
9919.112766	4051.631667	1553.535156	667.568909
9919.112766	4051.631667	1552.486328	645.094604
9919.112766	4051.631667	1551.436523	470.037994
9919.112766	4051.631667	1550.387695	411.234192
9919.112766	4051.631667	1549.337891	566.516968
9919.112766	4051.631667	1548.288086	578.348999
9919.112766	4051.631667	1547.238281	462.749176
9919.112766	4051.631667	1546.187500	597.542969
9919.112766	4051.631667	1545.136719	379.663574
9919.112766	4051.631667	1544.086914	487.194550
9919.112766	4051.631667	1543.035156	681.132019
9919.112766	4051.631667	1541.984375	372.514801
9919.112766	4051.631667	1540.933594	427.795288
9919.112766	4051.631667	1539.881836	517.179993
9919.112766	4051.631667	1538.830078	361.136047
9919.112766	4051.631667	1537.778320	573.260559
9919.112766	4051.631667	1536.725586	337.830353
9919.112766	4051.631667	1535.673828	404.596588
9919.112766	4051.631667	1534.621094	416.873352
9919.112766	4051.631667	1533.568359	386.047607
9919.112766	4051.631667	1532.515625	586.792542
9919.112766	4051.631667	1531.461914	397.163544
9919.112766	4051.631667	1530.409180	237.148605
9919.112766	4051.631667	1529.355469	369.863007
9919.112766	4051.631667	1528.301758	479.884857
9919.112766	4051.631667	1527.247070	324.594910
9919.112766	4051.631667	1526.193359	396.121399
9919.112766	4051.631667	1525.138672	161.657120
9919.112766	4051.631667	1524.083984	240.065170
9919.112766	4051.631667	1523.029297	223.320465
9919.112766	4051.631667	1521.974609	288.176239
9919.112766	4051.631667	1520.918945	332.660889
9919.112766	4051.631667	1519.863281	200.545517
9919.112766	4051.631667	1518.807617	390.010132
9919.112766	4051.631667	1517.751953	237.649780
9919.112766	4051.631667	1516.696289	196.284042
9919.112766	4051.631667	1515.639648	399.339935
9919.112766	4051.631667	1514.583008	136.349106
9919.112766	4051.631667	1513.526367	131.345047
9919.112766	4051.631667	1512.469727	207.793823
9919.112766	4051.631667	1511.412109	211.907791
9919.112766	4051.631667	1510.355469	222.850037
9919.112766	4051.631667	1509.297852	141.171921
9919.112766	4051.631667	1508.240234	-39.846169
9919.112766	4051.631667	1507.181641	111.332466
9919.112766	4051.631667	1506.124023	305.412567
9919.112766	4051.631667	1505.065430	255.579620
9919.112766	4051.631667	1504.006836	269.029816
9919.112766	4051.631667	1502.948242	167.401108
9919.112766	4051.631667	1501.888672	194.496002
9919.112766	4051.631667	1500.830078	269.013885
9919.112766	4051.631667	1499.770508	194.657242
9919.112766	4051.631667	1498.710938	21.137703
9919.112766	4051.631667	1497.650391	131.866333
9919.112766	4051.631667	1496.590820	71.254036
9919.112766	4051.631667	1495.530273	366.865021
9919.112766	4051.631667	1494.469727	180.120605
9919.112766	4051.631667	1493.409180	304.444824
9919.112766	4051.631667	1492.348633	14.257797
9919.112766	4051.631667	1491.287109	224.253067
9919.112766	4051.631667	1490.225586	179.750214
9919.112766	4051.631667	1489.164063	97.042366
9919.112766	4051.631667	1488.102539	185.492020
9919.112766	4051.631667	1487.041016	246.951843
9919.112766	4051.631667	1485.978516	105.927162
9919.112766	4051.631667	1484.916016	46.003887
9919.112766	4051.631667	1483.853516	168.326691
9919.112766	4051.631667	1482.791016	29.802937
9919.112766	4051.631667	1481.727539	197.152954
9919.112766	4051.631667	1480.664063	20.564005
9919.112766	4051.631667	1479.600586	232.885834
9919.112766	4051.631667	1478.537109	202.523819
9919.112766	4051.631667	1477.473633	77.892151
9919.112766	4051.631667	1476.409180	85.870544
9919.112766	4051.631667	1475.344727	-47.509266
9919.112766	4051.631667	1474.280273	95.208870
9919.112766	4051.631667	1473.215820	29.269190
9919.112766	4051.631667	1472.151367	270.715729
9919.112766	4051.631667	1471.085938	68.094452
9919.112766	4051.631667	1470.020508	139.387985
9919.112766	4051.631667	1468.955078	-110.158485
9919.112766	4051.631667	1467.888672	3.589043
9919.112766	4051.631667	1466.823242	106.217339
9919.112766	4051.631667	1465.756836	226.563675
9919.112766	4051.631667	1464.690430	-138.545837
9919.112766	4051.631667	1463.624023	-92.211723
9919.112766	4051.631667	1462.556641	86.785172
9919.112766	4051.631667	1461.490234	88.633652
9919.112766	4051.631667	1460.422852	303.043549
9919.112766	4051.631667	1459.355469	262.267426
9919.112766	4051.631667	1458.287109	217.788361
9919.112766	4051.631667	1457.219727	363.018311
9919.112766	4051.631667	1456.151367	289.009277
9919.112766	4051.631667	1455.083008	159.583969
9919.112766	4051.631667	1454.014648	275.518738
9919.112766	4051.631667	1452.945313	258.098633
9919.112766	4051.631667	1451.876953	218.072006
9919.112766	4051.631667	1450.807617	258.458160
9919.112766	4051.631667	1449.738281	431.476959
9919.112766	4051.631667	1448.668945	324.221130
9919.112766	4051.631667	1447.598633	134.420303
9919.112766	4051.631667	1446.528320	208.275589
9919.112766	4051.631667	1445.458008	301.477386
9919.112766	4051.631667	1444.387695	180.592087
9919.112766	4051.631667	1443.317383	223.270035
9919.112766	4051.631667	1442.246094	250.111145
9919.112766	4051.631667	1441.174805	345.121948
9919.112766	4051.631667	1440.103516	314.317047
9919.112766	4051.631667	1439.032227	306.353607
9919.112766	4051.631667	1437.960938	311.692535
9919.112766	4051.631667	1436.888672	181.390961
9919.112766	4051.631667	1435.816406	185.245209
9919.112766	4051.631667	1434.744141	350.085266
9919.112766	4051.631667	1433.670898	210.747787
9919.112766	4051.631667	1432.598633	233.683334
9919.112766	4051.631667	1431.525391	54.262524
9919.112766	4051.631667	1430.452148	51.858543
9919.112766	4051.631667	1429.378906	145.010345
9919.112766	4051.631667	1428.304688	-49.634666
9919.112766	4051.631667	1427.231445	8.148954
9919.112766	4051.631667	1426.157227	-96.001083
9919.112766	4051.631667	1425.083008	-89.763634
9919.112766	4051.631667	1424.007813	1.394606
9919.112766	4051.631667	1422.933594	-140.897018
9919.112766	4051.631667	1421.858398	-237.011169
9919.112766	4051.631667	1420.783203	-73.095665
9919.112766	4051.631667	1419.708008	-136.904556
9919.112766	4051.631667	1418.631836	-4.155288
9919.112766	4051.631667	1417.555664	-55.789783
9919.112766	4051.631667	1416.479492	-29.412685
9919.112766	4051.631667	1415.403320	103.468033
9919.112766	4051.631667	1414.327148	9.616864
9919.112766	4051.631667	1413.250000	-32.824032
9919.112766	4051.631667	1412.173828	-16.366961
9919.112766	4051.631667	1411.096680	164.518692
9919.112766	4051.631667	1410.018555	22.591700
9919.112766	4051.631667	1408.941406	99.412682
9919.112766	4051.631667	1407.863281	132.406082
9919.112766	4051.631667	1406.785156	94.924377
9919.112766	4051.631667	1405.707031	48.750576
9919.112766	4051.631667	1404.628906	181.098343
9919.112766	4051.631667	1403.549805	128.036987
9919.112766	4051.631667	1402.470703	275.584778
9919.112766	4051.631667	1401.391602	244.575531
9919.112766	4051.631667	1400.312500	446.544128
9919.112766	4051.631667	1399.233398	219.868332
9919.112766	4051.631667	1398.153320	231.793427
9919.112766	4051.631667	1397.073242	200.846222
9919.112766	4051.631667	1395.993164	288.178833
9919.112766	4051.631667	1394.913086	469.817413
9919.112766	4051.631667	1393.832031	198.602158
9919.112766	4051.631667	1392.750977	172.182693
9919.112766	4051.631667	1391.669922	309.920135
9919.112766	4051.631667	1390.588867	349.733185
9919.112766	4051.631667	1389.506836	323.193665
9919.112766	4051.631667	1388.425781	252.366196
9919.112766	4051.631667	1387.343750	216.702332
9919.112766	4051.631667	1386.261719	279.554535
9919.112766	4051.631667	1385.178711	208.299515
9919.112766	4051.631667	1384.096680	435.207581
9919.112766	4051.631667	1383.013672	197.845825
9919.112766	4051.631667	1381.930664	169.578293
9919.112766	4051.631667	1380.846680	193.091339
9919.112766	4051.631667	1379.763672	345.450897
9919.112766	4051.631667	1378.679688	230.322006
9919.112766	4051.631667	1377.595703	148.073410
9919.112766	4051.631667	1376.511719	393.744873
9919.112766	4051.631667	1375.427734	308.124146
9919.112766	4051.631667	1374.342773	254.392990
9919.112766	4051.631667	1373.257813	115.567413
9919.112766	4051.631667	1372.172852	157.957657
9919.112766	4051.631667	1371.087891	229.302673
9919.112766	4051.631667	1370.001953	166.616379
9919.112766	4051.631667	1368.916992	213.419876
9919.112766	4051.631667	1367.831055	277.970825
9919.112766	4051.631667	1366.744141	243.414536
9919.112766	4051.631667	1365.658203	335.068726
9919.112766	4051.631667	1364.571289	210.943268
9919.112766	4051.631667	1363.484375	302.232452
9919.112766	4051.631667	1362.397461	312.966248
9919.112766	4051.631667	1361.310547	221.390411
9919.112766	4051.631667	1360.222656	271.095367
9919.112766	4051.631667	1359.135742	232.134689
9919.112766	4051.631667	1358.047852	358.731537
9919.112766	4051.631667	1356.958984	389.270477
9919.112766	4051.631667	1355.871094	381.576324
9919.112766	4051.631667	1354.782227	280.204498
9919.112766	4051.631667	1353.693359	490.494476
9919.112766	4051.631667	1352.604492	463.077759
9919.112766	4051.631667	1351.515625	223.357300
9919.112766	4051.631667	1350.425781	260.157196
9919.112766	4051.631667	1349.335938	354.490662
9919.112766	4051.631667	1348.246094	188.128754
9919.112766	4051.631667	1347.156250	339.532104
9919.112766	4051.631667	1346.066406	236.191528
9919.112766	4051.631667	1344.975586	292.020203
9919.112766	4051.631667	1343.884766	302.265411
9919.112766	4051.631667	1342.793945	314.821411
9919.112766	4051.631667	1341.702148	401.008545
9919.112766	4051.631667	1340.611328	381.759155
9919.112766	4051.631667	1339.519531	195.217422
9919.112766	4051.631667	1338.427734	338.322906
9919.112766	4051.631667	1337.334961	108.299522
9919.112766	4051.631667	1336.243164	181.896606
9919.112766	4051.631667	1335.150391	241.707870
9919.112766	4051.631667	1334.057617	379.980347
9919.112766	4051.631667	1332.964844	346.004700
9919.112766	4051.631667	1331.871094	246.772491
9919.112766	4051.631667	1330.778320	195.670517
9919.112766	4051.631667	1329.684570	266.984131
9919.112766	4051.631667	1328.590820	147.617493
9919.112766	4051.631667	1327.496094	202.064224
9919.112766	4051.631667	1326.402344	151.919876
9919.112766	4051.631667	1325.307617	242.293274
9919.112766	4051.631667	1324.212891	245.610870
9919.112766	4051.631667	1323.117188	78.623283
9919.112766	4051.631667	1322.022461	239.713898
9919.112766	4051.631667	1320.926758	137.168503
9919.112766	4051.631667	1319.831055	306.724030
9919.112766	4051.631667	1318.735352	270.396637
9919.112766	4051.631667	1317.638672	47.997616
9919.112766	4051.631667	1316.542969	154.413040
9919.112766	4051.631667	1315.446289	183.837158
9919.112766	4051.631667	1314.349609	197.178589
9919.112766	4051.631667	1313.251953	196.513382
9919.112766	4051.631667	1312.155273	143.692215
9919.112766	4051.631667	1311.057617	320.842133
9919.112766	4051.631667	1309.959961	200.184235
9919.112766	4051.631667	1308.862305	256.625275
9919.112766	4051.631667	1307.763672	-41.319107
9919.112766	4051.631667	1306.665039	-18.771736
9919.112766	4051.631667	1305.566406	0.206457
9919.112766	4051.631667	1304.467773	103.564285
9919.112766	4051.631667	1303.369141	140.394119
9919.112766	4051.631667	1302.269531	149.592514
9919.112766	4051.631667	1301.169922	162.981857
9919.112766	4051.631667	1300.070313	206.332275
9919.112766	4051.631667	1298.970703	112.980293
9919.112766	4051.631667	1297.870117	96.881088
9919.112766	4051.631667	1296.769531	17.281830
9919.112766	4051.631667	1295.668945	57.005348
9919.112766	4051.631667	1294.568359	132.279755
9919.112766	4051.631667	1293.466797	251.137482
9919.112766	4051.631667	1292.366211	113.275177
9919.112766	4051.631667	1291.264648	47.216110
9919.112766	4051.631667	1290.162109	-36.108425
9919.112766	4051.631667	1289.060547	-199.803619
9919.112766	4051.631667	1287.958008	-11.079521
9919.112766	4051.631667	1286.855469	46.874355
9919.112766	4051.631667	1285.752930	21.091787
9919.112766	4051.631667	1284.650391	123.408310
9919.112766	4051.631667	1283.546875	11.996125
9919.112766	4051.631667	1282.444336	54.380730
9919.112766	4051.631667	1281.339844	-140.122559
9919.112766	4051.631667	1280.236328	29.486542
9919.112766	4051.631667	1279.132813	-35.340443
9919.112766	4051.631667	1278.028320	10.791417
9919.112766	4051.631667	1276.923828	-4.677645
9919.112766	4051.631667	1275.819336	-38.780251
9919.112766	4051.631667	1274.713867	11.994772
9919.112766	4051.631667	1273.608398	-65.207291
9919.112766	4051.631667	1272.503906	31.161137
9919.112766	4051.631667	1271.397461	67.344406
9919.112766	4051.631667	1270.291992	126.331757
9919.112766	4051.631667	1269.185547	1.885263
9919.112766	4051.631667	1268.080078	18.987169
9919.112766	4051.631667	1266.972656	69.167091
9919.112766	4051.631667	1265.866211	90.748138
9919.112766	4051.631667	1264.759766	-6.268202
9919.112766	4051.631667	1263.652344	88.998482
9919.112766	4051.631667	1262.544922	54.662132
9919.112766	4051.631667	1261.436523	-52.279629
9919.112766	4051.631667	1260.329102	164.338928
9919.112766	4051.631667	1259.220703	42.625721
9919.112766	4051.631667	1258.112305	-87.080704
9919.112766	4051.631667	1257.003906	129.113800
9919.112766	4051.631667	1255.895508	-37.641739
9919.112766	4051.631667	1254.786133	113.585899
9919.112766	4051.631667	1253.676758	157.701614
9919.112766	4051.631667	1252.567383	76.751938
9919.112766	4051.631667	1251.458008	47.420055
9919.112766	4051.631667	1250.347656	-59.876408
9919.112766	4051.631667	1249.237305	26.116081
9919.112766	4051.631667	1248.126953	145.259460
9919.112766	4051.631667	1247.016602	-2.715204
9919.112766	4051.631667	1245.905273	132.098007
9919.112766	4051.631667	1244.793945	101.122536
9919.112766	4051.631667	1243.682617	-71.370491
9919.112766	4051.631667	1242.571289	117.801186
9919.112766	4051.631667	1241.459961	-9.412601
9919.112766	4051.631667	1240.347656	11.066922
9919.112766	4051.631667	1239.235352	132.026489
9919.112766	4051.631667	1238.123047	74.400307
9919.112766	4051.631667	1237.009766	-10.693774
9919.112766	4051.631667	1235.897461	3.382516
9919.112766	4051.631667	1234.784180	155.989227
9919.112766	4051.631667	1233.670898	-5.667945
9919.112766	4051.631667	1232.556641	-103.375465
9919.112766	4051.631667	1231.443359	8.751052
9919.112766	4051.631667	1230.329102	-216.911743
9919.112766	4051.631667	1229.214844	44.245178
9919.112766	4051.631667	1228.099609	-39.221874
9919.112766	4051.631667	1226.985352	24.828346
9919.112766	4051.631667	1225.870117	-79.812485
9919.112766	4051.631667	1224.754883	96.131676
9919.112766	4051.631667	1223.639648	50.579430
9919.112766	4051.631667	1222.523438	-8.411924
9919.112766	4051.631667	1221.408203	45.734447
9919.112766	4051.631667	1220.291992	7.162744
9919.112766	4051.631667	1219.174805	-42.302174
9919.112766	4051.631667	1218.058594	98.773987
9919.112766	4051.631667	1216.941406	-42.346432
9919.112766	4051.631667	1215.824219	63.757172
9919.112766	4051.631667	1214.707031	-47.758274
9919.112766	4051.631667	1213.589844	-59.026867
9919.112766	4051.631667	1212.471680	55.808460
9919.112766	4051.631667	1211.353516	-89.072861
9919.112766	4051.631667	1210.235352	-52.951405
9919.112766	4051.631667	1209.117188	-19.233709
9919.112766	4051.631667	1207.998047	101.129646
9919.112766	4051.631667	1206.878906	113.472443
9919.112766	4051.631667	1205.759766	69.101013
9919.112766	4051.631667	1204.640625	128.560013
9919.112766	4051.631667	1203.520508	147.678146
9919.112766	4051.631667	1202.401367	126.084251
9919.112766	4051.631667	1201.281250	83.281723
9919.112766	4051.631667	1200.160156	-1.529532
9919.112766	4051.631667	1199.040039	80.350677
9919.112766	4051.631667	1197.918945	45.108318
9919.112766	4051.631667	1196.797852	14.902444
9919.112766	4051.631667	1195.676758	85.566780
9919.112766	4051.631667	1194.555664	-17.125496
9919.112766	4051.631667	1193.433594	-45.157265
9919.112766	4051.631667	1192.311523	-51.001255
9919.112766	4051.631667	1191.189453	8.403810
9919.112766	4051.631667	1190.066406	12.845528
9919.112766	4051.631667	1188.944336	-62.322849
9919.112766	4051.631667	1187.821289	17.250969
9919.112766	4051.631667	1186.698242	37.912205
9919.112766	4051.631667	1185.574219	-53.651680
9919.112766	4051.631667	1184.451172	-53.464771
9919.112766	4051.631667	1183.327148	27.696728
9919.112766	4051.631667	1182.203125	93.058464
9919.112766	4051.631667	1181.078125	77.205803
9919.112766	4051.631667	1179.954102	26.572794
9919.112766	4051.631667	1178.829102	-59.382496
9919.112766	4051.631667	1177.704102	10.361061
9919.112766	4051.631667	1176.579102	41.146507
9919.112766	4051.631667	1175.453125	-62.103424
9919.112766	4051.631667	1174.327148	-76.224510
9919.112766	4051.631667	1173.201172	-102.025047
9919.112766	4051.631667	1172.075195	-46.416859
9919.112766	4051.631667	1170.949219	-95.054932
9919.112766	4051.631667	1169.822266	-8.545397
9919.112766	4051.631667	1168.695313	-60.363590
9919.112766	4051.631667	1167.568359	-135.109314
9919.112766	4051.631667	1166.440430	-121.351120
9919.112766	4051.631667	1165.313477	-18.547663
9919.112766	4051.631667	1164.185547	-56.187958
9919.112766	4051.631667	1163.057617	-150.334167
9919.112766	4051.631667	1161.928711	-127.530487
9919.112766	4051.631667	1160.800781	-150.005432
9919.112766	4051.631667	1159.671875	-55.120232
9919.112766	4051.631667	1158.541992	-39.774979
9919.112766	4051.631667	1157.413086	-52.354824
9919.112766	4051.631667	1156.283203	-70.796745
9919.112766	4051.631667	1155.154297	-92.124001
9919.112766	4051.631667	1154.023438	-170.227463
9919.112766	4051.631667	1152.893555	-92.034416
9919.112766	4051.631667	1151.763672	-177.050583
9919.112766	4051.631667	1150.632813	-104.592766
9919.112766	4051.631667	1149.501953	-10.149152
9919.112766	4051.631667	1148.370117	-30.441372
9919.112766	4051.631667	1147.239258	-9.484108
9919.112766	4051.631667	1146.107422	-97.822052
9919.112766	4051.631667	1144.975586	-22.906197
9919.112766	4051.631667	1143.843750	-29.081884
9919.112766	4051.631667	1142.710938	-40.633797
9919.112766	4051.631667	1141.578125	-5.805348
9919.112766	4051.631667	1140.445313	86.607933
9919.112766	4051.631667	1139.312500	2.124991
9919.112766	4051.631667	1138.178711	34.994762
9919.112766	4051.631667	1137.045898	15.513463
9919.112766	4051.631667	1135.912109	-82.016235
9919.112766	4051.631667	1134.777344	-35.166759
9919.112766	4051.631667	1133.643555	6.062335
9919.112766	4051.631667	1132.508789	79.880348
9919.112766	4051.631667	1131.374023	88.607544
9919.112766	4051.631667	1130.239258	103.153008
9919.112766	4051.631667	1129.104492	70.123108
9919.112766	4051.631667	1127.968750	82.095261
9919.112766	4051.631667	1126.833008	38.647617
9919.112766	4051.631667	1125.697266	-15.507971
9919.112766	4051.631667	1124.560547	26.967577
9919.112766	4051.631667	1123.424805	81.553093
9919.112766	4051.631667	1122.288086	97.132858
9919.112766	4051.631667	1121.151367	190.211411
9919.112766	4051.631667	1120.013672	25.732271
9919.112766	4051.631667	1118.876953	110.377060
9919.112766	4051.631667	1117.739258	-13.844091
9919.112766	4051.631667	1116.601563	22.799994
9919.112766	4051.631667	1115.462891	95.875809
9919.112766	4051.631667	1114.324219	115.570648
9919.112766	4051.631667	1113.186523	39.191025
9919.112766	4051.631667	1112.046875	112.359726
9919.112766	4051.631667	1110.908203	-65.632538
9919.112766	4051.631667	1109.769531	14.208934
9919.112766	4051.631667	1108.629883	100.460777
9919.112766	4051.631667	1107.490234	39.505730
9919.112766	4051.631667	1106.349609	117.990723
9919.112766	4051.631667	1105.209961	-71.562752
9919.112766	4051.631667	1104.069336	10.198734
9919.112766	4051.631667	1102.928711	99.890923
9919.112766	4051.631667	1101.787109	60.822285
9919.112766	4051.631667	1100.646484	35.744476
9919.112766	4051.631667	1099.504883	-9.125948
9919.112766	4051.631667	1098.363281	44.001648
9919.112766	4051.631667	1097.221680	-80.814629
9919.112766	4051.631667	1096.079102	159.393280
9919.112766	4051.631667	1094.936523	113.524467
9919.112766	4051.631667	1093.793945	130.735199
9919.112766	4051.631667	1092.651367	-32.759659
9919.112766	4051.631667	1091.507813	22.928274
9919.112766	4051.631667	1090.364258	135.322708
9919.112766	4051.631667	1089.220703	86.488113
9919.112766	4051.631667	1088.077148	193.684280
9919.112766	4051.631667	1086.933594	182.242294
9919.112766	4051.631667	1085.789063	127.676430
9919.112766	4051.631667	1084.644531	95.133560
9919.112766	4051.631667	1083.499023	156.067871
9919.112766	4051.631667	1082.354492	130.594009
9919.112766	4051.631667	1081.208984	285.203339
9919.112766	4051.631667	1080.063477	106.243462
9919.112766	4051.631667	1078.917969	6.874599
9919.112766	4051.631667	1077.771484	56.424389
9919.112766	4051.631667	1076.625977	62.197620
9919.112766	4051.631667	1075.479492	246.499420
9919.112766	4051.631667	1074.332031	186.194534
9919.112766	4051.631667	1073.185547	116.174309
9919.112766	4051.631667	1072.038086	274.756927
9919.112766	4051.631667	1070.890625	99.456726
9919.112766	4051.631667	1069.743164	7.935368
9919.112766	4051.631667	1068.594727	113.274269
9919.112766	4051.631667	1067.447266	162.096436
9919.112766	4051.631667	1066.298828	117.099258
9919.112766	4051.631667	1065.149414	73.118698
9919.112766	4051.631667	1064.000977	96.063026
9919.112766	4051.631667	1062.851563	-34.352386
9919.112766	4051.631667	1061.702148	109.317612
9919.112766	4051.631667	1060.552734	-26.395174
9919.112766	4051.631667	1059.402344	25.354700
9919.112766	4051.631667	1058.252930	2.489378
9919.112766	4051.631667	1057.102539	167.232834
9919.112766	4051.631667	1055.951172	-62.205917
9919.112766	4051.631667	1054.800781	82.005051
9919.112766	4051.631667	1053.649414	17.252214
9919.112766	4051.631667	1052.498047	19.545340
9919.112766	4051.631667	1051.346680	-74.798096
9919.112766	4051.631667	1050.194336	65.414856
9919.112766	4051.631667	1049.042969	55.120823
9919.112766	4051.631667	1047.890625	108.032265
9919.112766	4051.631667	1046.738281	45.665398
9919.112766	4051.631667	1045.584961	41.435768
9919.112766	4051.631667	1044.431641	221.221954
9919.112766	4051.631667	1043.278320	24.339954
9919.112766	4051.631667	1042.125000	-28.737452
9919.112766	4051.631667	1040.971680	97.373138
9919.112766	4051.631667	1039.817383	52.527611
9919.112766	4051.631667	1038.663086	53.634418
9919.112766	4051.631667	1037.508789	66.681473
9919.112766	4051.631667	1036.353516	95.429382
9919.112766	4051.631667	1035.198242	66.021049
9919.112766	4051.631667	1034.042969	24.418982
9919.112766	4051.631667	1032.887695	122.952393
9919.112766	4051.631667	1031.732422	71.075508
9919.112766	4051.631667	1030.576172	32.603073
9919.112766	4051.631667	1029.419922	-17.780924
9919.112766	4051.631667	1028.263672	149.566208
9919.112766	4051.631667	1027.106445	71.274620
9919.112766	4051.631667	1025.949219	-59.361797
9919.112766	4051.631667	1024.792969	-47.226803
9919.112766	4051.631667	1023.634766	67.988121
9919.112766	4051.631667	1022.477539	39.559181
9919.112766	4051.631667	1021.319336	70.584785
9919.112766	4051.631667	1020.161133	220.214890
9919.112766	4051.631667	1019.002930	119.774818
9919.112766	4051.631667	1017.843750	46.303753
9919.112766	4051.631667	1016.684570	127.485390
9919.112766	4051.631667	1015.525391	194.258835
9919.112766	4051.631667	1014.366211	176.566086
9919.112766	4051.631667	1013.207031	-83.727463
9919.112766	4051.631667	1012.046875	-49.563179
9919.112766	4051.631667	1010.886719	-50.365685
9919.112766	4051.631667	1009.726563	-47.983967
9919.112766	4051.631667	1008.565430	-102.576218
9919.112766	4051.631667	1007.404297	-33.942017
9919.112766	4051.631667	1006.243164	-45.894215
9919.112766	4051.631667	1005.082031	44.811951
9919.112766	4051.631667	1003.920898	-24.868795
9919.112766	4051.631667	1002.758789	59.360359
9919.112766	4051.631667	1001.596680	-69.083778
9919.112766	4051.631667	1000.433594	54.684452
9919.112766	4051.631667	999.271484	85.316498
9919.112766	4051.631667	998.108398	35.678238
9919.112766	4051.631667	996.945313	123.695328
9919.112766	4051.631667	995.782227	-58.704838
9919.112766	4051.631667	994.618164	-31.682098
9919.112766	4051.631667	993.454102	-3.452351
9919.112766	4051.631667	992.290039	-7.495440
9919.112766	4051.631667	991.125977	38.213673
9919.112766	4051.631667	989.960938	12.132298
9919.112766	4051.631667	988.796875	177.455109
9919.112766	4051.631667	987.630859	30.541977
9919.112766	4051.631667	986.465820	152.073837
9919.112766	4051.631667	985.300781	109.174957
9919.112766	4051.631667	984.134766	20.610209
9919.112766	4051.631667	982.968750	44.236557
9919.112766	4051.631667	981.801758	116.211411
9919.112766	4051.631667	980.635742	43.951794
9919.112766	4051.631667	979.468750	206.188873
9919.112766	4051.631667	978.301758	-114.935158
9919.112766	4051.631667	977.133789	23.844961
9919.112766	4051.631667	975.966797	4.517628
9919.112766	4051.631667	974.798828	30.541958
9919.112766	4051.631667	973.630859	-46.171764
9919.112766	4051.631667	972.461914	-1.900306
9919.112766	4051.631667	971.293945	14.284277
9919.112766	4051.631667	970.125000	-96.322571
9919.112766	4051.631667	968.956055	55.071796
9919.112766	4051.631667	967.786133	68.913231
9919.112766	4051.631667	966.617188	19.307978
9919.112766	4051.631667	965.447266	-12.403687
9919.112766	4051.631667	964.276367	-101.810043
9919.112766	4051.631667	963.106445	-31.462992
9919.112766	4051.631667	961.935547	-71.341652
9919.112766	4051.631667	960.764648	-93.992653
9919.112766	4051.631667	959.593750	-57.617050
9919.112766	4051.631667	958.422852	-115.915398
9919.112766	4051.631667	957.250977	-42.721252
9919.112766	4051.631667	956.079102	75.556488
9919.112766	4051.631667	954.907227	-22.534691
9919.112766	4051.631667	953.734375	-21.637465
9919.112766	4051.631667	952.562500	68.896652
9919.112766	4051.631667	951.389648	224.418900
9919.112766	4051.631667	950.215820	73.643242
9919.112766	4051.631667	949.042969	195.889099
9919.112766	4051.631667	947.869141	112.183945
9919.112766	4051.631667	946.695313	-34.182823
9919.112766	4051.631667	945.521484	6.018894
9919.112766	4051.631667	944.346680	-9.871238
9919.112766	4051.631667	943.172852	-69.348640
9919.112766	4051.631667	941.998047	-41.800014
9919.112766	4051.631667	940.822266	-81.780472
9919.112766	4051.631667	939.647461	20.765905
9919.112766	4051.631667	938.471680	-154.635544
9919.112766	4051.631667	937.295898	3.343704
9919.112766	4051.631667	936.119141	-17.239941
9919.112766	4051.631667	934.943359	39.359425
9919.112766	4051.631667	933.766602	50.052319
9919.112766	4051.631667	932.589844	60.650711
9919.112766	4051.631667	931.413086	230.826569
9919.112766	4051.631667	930.235352	-31.477537
9919.112766	4051.631667	929.057617	17.781832
9919.112766	4051.631667	927.879883	146.799591
9919.112766	4051.631667	926.702148	26.990362
9919.112766	4051.631667	925.523438	189.697083
9919.112766	4051.631667	924.344727	110.965172
9919.112766	4051.631667	923.166016	133.610611
9919.112766	4051.631667	921.987305	-5.439258
9919.112766	4051.631667	920.807617	-6.919683
9919.112766	4051.631667	919.627930	-4.523504
9919.112766	4051.631667	919.497070	1.506928
9919.112766	4051.631667	918.331055	-12.077439
9919.112766	4051.631667	917.165039	65.961739
9919.112766	4051.631667	915.999023	57.174828
9919.112766	4051.631667	914.833008	106.228882
9919.112766	4051.631667	913.666016	-206.206131
9919.112766	4051.631667	912.499023	-207.727295
9919.112766	4051.631667	911.332031	-67.138290
9919.112766	4051.631667	910.165039	80.609787
9919.112766	4051.631667	908.997070	9.182973
9919.112766	4051.631667	907.830078	-28.522617
9919.112766	4051.631667	906.661133	70.971451
9919.112766	4051.631667	905.493164	54.911945
9919.112766	4051.631667	904.325195	151.925339
9919.112766	4051.631667	903.156250	275.351929
9919.112766	4051.631667	901.987305	182.283630
9919.112766	4051.631667	900.818359	115.694115
9919.112766	4051.631667	899.648438	82.779610
9919.112766	4051.631667	898.478516	52.274628
9919.112766	4051.631667	897.308594	153.933090
9919.112766	4051.631667	896.138672	75.362968
9919.112766	4051.631667	894.968750	-17.594414
9919.112766	4051.631667	893.797852	-2.455748
9919.112766	4051.631667	892.626953	-20.943548
9919.112766	4051.631667	891.456055	-85.039719
9919.112766	4051.631667	890.284180	-9.918212
9919.112766	4051.631667	889.113281	-83.603134
9919.112766	4051.631667	887.941406	125.814911
9919.112766	4051.631667	886.768555	13.745593
9919.112766	4051.631667	885.596680	-62.317593
9919.112766	4051.631667	884.423828	55.842323
9919.112766	4051.631667	883.250977	114.021904
9919.112766	4051.631667	882.078125	57.136681
9919.112766	4051.631667	880.905273	12.247708
9919.112766	4051.631667	879.731445	228.485153
9919.112766	4051.631667	878.557617	90.159760
9919.112766	4051.631667	877.383789	-119.953568
9919.112766	4051.631667	876.209961	148.825836
9919.112766	4051.631667	875.035156	202.067566
9919.112766	4051.631667	873.860352	116.480804
9919.112766	4051.631667	872.685547	54.847298
9919.112766	4051.631667	871.510742	108.053261
9919.112766	4051.631667	870.334961	34.475388
9919.112766	4051.631667	869.159180	1.569954
9919.112766	4051.631667	867.983398	47.561558
9919.112766	4051.631667	866.807617	-119.196793
9919.112766	4051.631667	865.630859	-61.264473
9919.112766	4051.631667	864.454102	-0.974255
9919.112766	4051.631667	863.277344	164.385757
9919.112766	4051.631667	862.100586	71.745224
9919.112766	4051.631667	860.922852	10.177058
9919.112766	4051.631667	859.745117	184.960815
9919.112766	4051.631667	858.567383	-100.972878
9919.112766	4051.631667	857.389648	-150.559586
9919.112766	4051.631667	856.210938	-97.545311
9919.112766	4051.631667	855.032227	129.562927
9919.112766	4051.631667	853.853516	-127.537163
9919.112766	4051.631667	852.674805	135.232498
9919.112766	4051.631667	851.495117	26.017021
9919.112766	4051.631667	850.315430	140.868454
9919.112766	4051.631667	849.135742	69.805786
9919.112766	4051.631667	847.956055	-53.647579
9919.112766	4051.631667	846.775391	-50.819241
9919.112766	4051.631667	845.595703	-59.909168
9919.112766	4051.631667	844.415039	92.896255
9919.112766	4051.631667	843.233398	43.301048
9919.112766	4051.631667	842.052734	-30.082708
9919.112766	4051.631667	840.871094	91.666458
9919.112766	4051.631667	839.689453	-169.644943
9919.112766	4051.631667	838.506836	-2.743515
9919.112766	4051.631667	837.325195	21.404278
9919.112766	4051.631667	836.142578	40.779408
9919.112766	4051.631667	834.959961	29.238203
9919.112766	4051.631667	833.777344	-63.107113
9919.112766	4051.631667	832.593750	-0.984135
9919.112766	4051.631667	831.410156	61.103607
9919.112766	4051.631667	830.226563	180.156036
9919.112766	4051.631667	829.042969	-40.401627
9919.112766	4051.631667	827.858398	45.369469
9919.112766	4051.631667	826.673828	-37.423820
9919.112766	4051.631667	825.489258	67.276527
9919.112766	4051.631667	824.304688	-13.133583
9919.112766	4051.631667	823.120117	51.173885
9919.112766	4051.631667	821.934570	-143.052673
9919.112766	4051.631667	820.749023	-121.442238
9919.112766	4051.631667	819.562500	151.431305
9919.112766	4051.631667	818.376953	85.258446
9919.112766	4051.631667	817.190430	-44.875156
9919.112766	4051.631667	816.003906	26.408413
9919.112766	4051.631667	814.817383	24.225266
9919.112766	4051.631667	813.629883	-165.048843
9919.112766	4051.631667	812.442383	-65.403175
9919.112766	4051.631667	811.254883	31.823305
9919.112766	4051.631667	810.067383	57.998650
9919.112766	4051.631667	808.878906	-109.873009
9919.112766	4051.631667	807.690430	100.823105
9919.112766	4051.631667	806.501953	86.727516
9919.112766	4051.631667	805.313477	212.143326
9919.112766	4051.631667	804.124023	84.526276
9919.112766	4051.631667	802.934570	27.862282
9919.112766	4051.631667	801.745117	56.285992
9919.112766	4051.631667	800.555664	6.715259
9919.112766	4051.631667	799.365234	-104.264328
9919.112766	4051.631667	798.175781	188.651764
9919.112766	4051.631667	796.985352	42.236389
9919.112766	4051.631667	795.793945	127.228645
9919.112766	4051.631667	794.603516	-101.748993
9919.112766	4051.631667	793.412109	82.324295
9919.112766	4051.631667	792.220703	112.952560
9919.112766	4051.631667	791.028320	63.356075
9919.112766	4051.631667	789.836914	32.632004
9919.112766	4051.631667	788.644531	-47.606148
9919.112766	4051.631667	787.452148	-21.742476
9919.112766	4051.631667	786.258789	86.588272
9919.112766	4051.631667	785.066406	168.939392
9919.112766	4051.631667	783.873047	93.397926
9919.112766	4051.631667	782.679688	-43.366451
9919.112766	4051.631667	781.485352	50.695045
9919.112766	4051.631667	780.291992	-111.931091
9919.112766	4051.631667	779.097656	104.482727
9919.112766	4051.631667	777.903320	-131.072510
9919.112766	4051.631667	776.708008	-124.186737
9919.112766	4051.631667	775.512695	7.362511
9919.112766	4051.631667	774.318359	-96.358505
9919.112766	4051.631667	773.122070	91.537834
9919.112766	4051.631667	771.926758	154.735428
9919.112766	4051.631667	770.730469	173.232681
9919.112766	4051.631667	769.534180	50.704269
9919.112766	4051.631667	768.337891	19.843904
9919.112766	4051.631667	767.141602	120.527924
9919.112766	4051.631667	765.944336	141.303497
9919.112766	4051.631667	764.747070	305.287720
9919.112766	4051.631667	763.549805	-40.241207
9919.112766	4051.631667	762.351563	330.226227
9919.112766	4051.631667	761.154297	146.719925
9919.112766	4051.631667	759.956055	249.502670
9919.112766	4051.631667	758.757813	73.094002
9919.112766	4051.631667	757.558594	152.364227
9919.112766	4051.631667	756.359375	201.104370
9919.112766	4051.631667	755.160156	261.527679
9919.112766	4051.631667	753.960938	228.160919
9919.112766	4051.631667	752.761719	117.464867
9919.112766	4051.631667	751.561523	170.788300
9919.112766	4051.631667	750.361328	186.595657
9919.112766	4051.631667	749.160156	164.911957
9919.112766	4051.631667	747.959961	147.901138
9919.112766	4051.631667	746.758789	189.398514
9919.112766	4051.631667	745.557617	209.798248
9919.112766	4051.631667	744.356445	176.356094
9919.112766	4051.631667	743.154297	86.766907
9919.112766	4051.631667	741.952148	217.044067
9919.112766	4051.631667	740.750000	139.138153
9919.112766	4051.631667	739.547852	133.718460
9919.112766	4051.631667	738.344727	189.053070
9919.112766	4051.631667	737.142578	45.712940
9919.112766	4051.631667	735.939453	217.822647
9919.112766	4051.631667	734.735352	95.521706
9919.112766	4051.631667	733.532227	97.027168
9919.112766	4051.631667	732.328125	84.503571
9919.112766	4051.631667	731.124023	78.968346
9919.112766	4051.631667	729.918945	36.073711
9919.112766	4051.631667	728.714844	221.853287
9919.112766	4051.631667	727.509766	-82.383987
9919.112766	4051.631667	726.303711	-27.314533
9919.112766	4051.631667	725.098633	18.383459
9919.112766	4051.631667	723.892578	-29.217495
9919.112766	4051.631667	722.686523	53.717056
9919.112766	4051.631667	721.480469	162.231949
9919.112766	4051.631667	720.274414	165.829544
9919.112766	4051.631667	719.067383	-7.639336
9919.112766	4051.631667	717.860352	54.176933
9919.112766	4051.631667	716.653320	15.818799
9919.112766	4051.631667	715.445313	-41.168613
9919.112766	4051.631667	714.238281	-79.533501
9919.112766	4051.631667	713.030273	-180.734390
9919.112766	4051.631667	711.821289	-249.341202
9919.112766	4051.631667	710.613281	28.650398
9919.112766	4051.631667	709.404297	-46.991631
9919.112766	4051.631667	708.195313	77.338379
9919.112766	4051.631667	706.986328	-123.856682
9919.112766	4051.631667	705.776367	-69.330650
9919.112766	4051.631667	704.566406	-3.230714
9919.112766	4051.631667	703.356445	21.002165
9919.112766	4051.631667	702.146484	-63.964088
9919.112766	4051.631667	700.935547	118.138618
9919.112766	4051.631667	699.724609	21.534761
9919.112766	4051.631667	698.513672	143.146667
9919.112766	4051.631667	697.302734	-183.220535
9919.112766	4051.631667	696.090820	-12.935493
9919.112766	4051.631667	694.878906	117.819580
9919.112766	4051.631667	693.666992	79.188721
9919.112766	4051.631667	692.455078	42.871120
9919.112766	4051.631667	691.242188	-46.774899
9919.112766	4051.631667	690.029297	28.159864
9919.112766	4051.631667	688.816406	1.078238
9919.112766	4051.631667	687.602539	189.452744
9919.112766	4051.631667	686.389648	48.801697
9919.112766	4051.631667	685.175781	88.825989
9919.112766	4051.631667	683.960938	114.918167
9919.112766	4051.631667	682.747070	78.475052
9919.112766	4051.631667	681.532227	-18.150673
9919.112766	4051.631667	680.317383	35.647625
9919.112766	4051.631667	679.102539	77.833839
9919.112766	4051.631667	677.886719	99.162621
9919.112766	4051.631667	676.670898	-106.162170
9919.112766	4051.631667	675.455078	72.366844
9919.112766	4051.631667	674.239258	58.944023
9919.112766	4051.631667	673.022461	29.326897
9919.112766	4051.631667	671.805664	263.099304
9919.112766	4051.631667	670.588867	-120.028244
9919.112766	4051.631667	669.372070	132.109329
9919.112766	4051.631667	668.154297	40.067848
9919.112766	4051.631667	666.936523	-68.117104
9919.112766	4051.631667	665.718750	-12.403955
9919.112766	4051.631667	664.500977	-2.888825
9919.112766	4051.631667	663.282227	80.427406
9919.112766	4051.631667	662.063477	-83.122223
9919.112766	4051.631667	660.844727	106.214813
9919.112766	4051.631667	659.625000	177.861420
9919.112766	4051.631667	658.405273	226.404129
9919.112766	4051.631667	657.185547	21.389898
9919.112766	4051.631667	655.965820	81.422844
9919.112766	4051.631667	654.745117	76.904823
9919.112766	4051.631667	653.525391	88.490433
9919.112766	4051.631667	652.303711	182.947021
9919.112766	4051.631667	651.083008	74.745262
9919.112766	4051.631667	649.861328	74.750740
9919.112766	4051.631667	648.640625	166.786636
9919.112766	4051.631667	647.417969	194.339371
9919.112766	4051.631667	646.196289	-58.775936
9919.112766	4051.631667	644.973633	132.058136
9919.112766	4051.631667	643.750977	79.062637
9919.112766	4051.631667	642.528320	-24.505449
9919.112766	4051.631667	641.305664	81.100616
9919.112766	4051.631667	640.082031	39.577480
9919.112766	4051.631667	638.858398	25.620888
9919.112766	4051.631667	637.634766	41.509811
9919.112766	4051.631667	636.410156	94.114700
9919.112766	4051.631667	635.185547	-25.516602
9919.112766	4051.631667	633.960938	66.063362
9919.112766	4051.631667	632.736328	52.018341
9919.112766	4051.631667	631.510742	161.860352
9919.112766	4051.631667	630.285156	104.176872
9919.112766	4051.631667	629.059570	18.977375
9919.112766	4051.631667	627.833984	96.598976
9919.112766	4051.631667	626.607422	130.610794
9919.112766	4051.631667	625.380859	75.200928
9919.112766	4051.631667	624.154297	93.125977
9919.112766	4051.631667	622.927734	-53.929771
9919.112766	4051.631667	621.700195	-22.276644
9919.112766	4051.631667	620.472656	39.116825
9919.112766	4051.631667	619.245117	63.833878
9919.112766	4051.631667	618.016602	24.427441
9919.112766	4051.631667	616.788086	-97.369308
9919.112766	4051.631667	615.559570	60.022968
9919.112766	4051.631667	614.331055	-13.720659
9919.112766	4051.631667	613.101563	47.493225
9919.112766	4051.631667	611.872070	140.679596
9919.112766	4051.631667	610.642578	53.201023
9919.112766	4051.631667	609.413086	-102.826996
9919.112766	4051.631667	608.182617	-64.559601
9919.112766	4051.631667	606.952148	-14.899232
9919.112766	4051.631667	605.721680	-70.350014
9919.112766	4051.631667	604.491211	-86.967331
9919.112766	4051.631667	603.259766	-55.642677
9919.112766	4051.631667	602.028320	-26.628052
9919.112766	4051.631667	600.796875	-29.590647
9919.112766	4051.631667	599.564453	-12.029887
9919.112766	4051.631667	598.332031	-167.871078
9919.112766	4051.631667	597.099609	-104.695938
9919.112766	4051.631667	595.867188	-160.138947
9919.112766	4051.631667	594.633789	-140.334320
9919.112766	4051.631667	593.400391	29.890850
9919.112766	4051.631667	592.166992	-55.206799
9919.112766	4051.631667	590.933594	-220.023438
9919.112766	4051.631667	589.699219	143.702209
9919.112766	4051.631667	588.464844	-27.941395
9919.112766	4051.631667	587.230469	116.978676
9919.112766	4051.631667	585.995117	-27.288042
9919.112766	4051.631667	584.760742	46.995186
9919.112766	4051.631667	583.525391	78.001442
9919.112766	4051.631667	582.289063	113.534729
9919.112766	4051.631667	581.053711	-103.428925
9919.112766	4051.631667	579.817383	4.882171
9919.112766	4051.631667	578.581055	72.214729
9919.112766	4051.631667	577.343750	3.124417
9919.112766	4051.631667	576.107422	104.503807
9919.112766	4051.631667	574.870117	24.061554
9919.112766	4051.631667	573.631836	-13.192753
9919.112766	4051.631667	572.394531	106.274117
9919.112766	4051.631667	571.156250	173.457397
9919.112766	4051.631667	569.917969	172.501328
9919.112766	4051.631667	568.679688	51.246075
9919.112766	4051.631667	567.440430	32.151554
9919.112766	4051.631667	566.202148	101.542534
9919.112766	4051.631667	564.961914	14.387984
9919.112766	4051.631667	563.722656	108.689308
9919.112766	4051.631667	562.482422	-28.317095
9919.112766	4051.631667	561.243164	16.077345
9919.112766	4051.631667	560.001953	46.848900
9919.112766	4051.631667	558.761719	-47.013729
9919.112766	4051.631667	557.520508	97.020782
9919.112766	4051.631667	556.279297	9.976050
9919.112766	4051.631667	555.038086	-65.710609
9919.112766	4051.631667	553.795898	42.007122
9919.112766	4051.631667	552.554688	158.732819
9919.112766	4051.631667	551.311523	53.638992
9919.112766	4051.631667	550.069336	120.536133
9919.112766	4051.631667	548.826172	33.590294
9919.112766	4051.631667	547.583984	71.064201
9919.112766	4051.631667	546.339844	-131.144531
9919.112766	4051.631667	545.096680	73.625122
9919.112766	4051.631667	543.852539	70.385399
9919.112766	4051.631667	542.608398	-16.454870
9919.112766	4051.631667	541.364258	-78.406677
9919.112766	4051.631667	540.119141	-92.901283
9919.112766	4051.631667	538.875000	95.840576
9919.112766	4051.631667	537.628906	4.558812
9919.112766	4051.631667	536.383789	46.489544
9919.112766	4051.631667	535.137695	31.988260
9919.112766	4051.631667	533.892578	40.058285
9919.112766	4051.631667	532.645508	93.238846
9919.112766	4051.631667	531.399414	4.324597
9919.112766	4051.631667	530.152344	-163.463272
9919.112766	4051.631667	528.905273	-44.891346
9919.112766	4051.631667	527.658203	-68.351074
9919.112766	4051.631667	526.410156	-139.116058
9919.112766	4051.631667	525.163086	-47.646965
9919.112766	4051.631667	523.914063	-41.802013
9919.112766	4051.631667	522.666016	-92.249107
9919.112766	4051.631667	521.416992	-54.870117
9919.112766	4051.631667	520.167969	-91.779869
9919.112766	4051.631667	518.918945	-90.413849
9919.112766	4051.631667	517.669922	0.951156
9919.112766	4051.631667	516.419922	-101.166542
9919.112766	4051.631667	515.169922	-97.537613
9919.112766	4051.631667	513.919922	103.954643
9919.112766	4051.631667	512.668945	-184.684174
9919.112766	4051.631667	511.417969	-138.325378
9919.112766	4051.631667	510.166992	-20.078882
9919.112766	4051.631667	508.916016	17.248138
9919.112766	4051.631667	507.664063	83.760345
9919.112766	4051.631667	506.412109	17.763092
9919.112766	4051.631667	505.160156	-187.393646
9919.112766	4051.631667	503.907227	87.874756
9919.112766	4051.631667	502.655273	62.324947
9919.112766	4051.631667	501.402344	74.929459
9919.112766	4051.631667	500.148438	65.100700
9919.112766	4051.631667	498.895508	23.883842
9919.112766	4051.631667	497.641602	2.866101
9919.112766	4051.631667	496.387695	-197.471603
9919.112766	4051.631667	495.132813	99.818497
9919.112766	4051.631667	493.878906	25.029963
9919.112766	4051.631667	492.624023	24.201611
9919.112766	4051.631667	491.368164	-7.982334
9919.112766	4051.631667	490.113281	56.137821
9919.112766	4051.631667	488.857422	50.828365
9919.112766	4051.631667	487.601563	-5.957814
9919.112766	4051.631667	486.344727	-80.623711
9919.112766	4051.631667	485.088867	3.593264
9919.112766	4051.631667	483.832031	7.245432
9919.112766	4051.631667	482.575195	1.949625
9919.112766	4051.631667	481.317383	-63.715343
9919.112766	4051.631667	480.059570	-51.116592
9919.112766	4051.631667	478.801758	32.990841
9919.112766	4051.631667	477.543945	14.274247
9919.112766	4051.631667	476.285156	-75.925491
9919.112766	4051.631667	475.027344	1.418140
9919.112766	4051.631667	473.767578	-19.530737
9919.112766	4051.631667	472.508789	73.380516
9919.112766	4051.631667	471.249023	190.795151
9919.112766	4051.631667	469.989258	-33.273861
9919.112766	4051.631667	468.729492	-76.541298
9919.112766	4051.631667	467.469727	49.722813
9919.112766	4051.631667	466.208984	-24.788450
9919.112766	4051.631667	464.948242	119.220970
9919.112766	4051.631667	463.686523	22.407900
9919.112766	4051.631667	462.425781	86.085220
9919.112766	4051.631667	461.164063	-30.763950
9919.112766	4051.631667	459.901367	108.602287
9919.112766	4051.631667	458.639648	0.671549
9919.112766	4051.631667	457.376953	-2.578146
9919.112766	4051.631667	456.114258	-8.074126
9919.112766	4051.631667	454.851563	17.569883
9919.112766	4051.631667	453.587891	-19.130394
9919.112766	4051.631667	452.324219	68.747704
9919.112766	4051.631667	451.060547	5.306602
9919.112766	4051.631667	449.796875	135.337646
9919.112766	4051.631667	448.532227	140.771805
9919.112766	4051.631667	447.267578	152.840179
9919.112766	4051.631667	446.002930	53.749474
9919.112766	4051.631667	444.737305	152.413315
9919.112766	4051.631667	443.471680	133.260956
9919.112766	4051.631667	442.206055	194.030167
9919.112766	4051.631667	440.940430	63.771191
9919.112766	4051.631667	439.673828	186.600388
9919.112766	4051.631667	438.407227	249.403427
9919.112766	4051.631667	437.140625	34.752319
9919.112766	4051.631667	435.873047	208.386185
9919.112766	4051.631667	434.605469	166.739410
9919.112766	4051.631667	433.337891	253.673859
9919.112766	4051.631667	432.070313	89.980011
9919.112766	4051.631667	430.801758	229.971237
9919.112766	4051.631667	429.533203	199.194626
9919.112766	4051.631667	428.264648	132.914566
9919.112766	4051.631667	426.996094	166.276718
9919.112766	4051.631667	425.726563	86.600327
9919.112766	4051.631667	424.457031	175.163788
9919.112766	4051.631667	423.186523	124.142517
9919.112766	4051.631667	421.916992	13.306453
9919.112766	4051.631667	420.646484	59.538467
9919.112766	4051.631667	419.375977	178.668152
9919.112766	4051.631667	418.104492	264.475311
9919.112766	4051.631667	416.833008	146.706451
9919.112766	4051.631667	415.561523	130.590027
9919.112766	4051.631667	414.290039	235.949127
9919.112766	4051.631667	413.017578	135.633179
9919.112766	4051.631667	411.746094	161.190414
9919.112766	4051.631667	410.472656	100.468559
9919.112766	4051.631667	409.200195	218.543732
9919.112766	4051.631667	407.926758	58.236336
9919.112766	4051.631667	406.653320	145.113098
9919.112766	4051.631667	405.379883	200.923218
9919.112766	4051.631667	404.105469	-1.595541
9919.112766	4051.631667	402.831055	-1.207516
9919.112766	4051.631667	401.556641	199.744858
9919.112766	4051.631667	400.282227	-58.202530
9919.112766	4051.631667	399.006836	131.345413
9919.112766	4051.631667	397.731445	192.810898
9919.112766	4051.631667	396.456055	66.772934
9919.112766	4051.631667	395.179688	92.637138
9919.112766	4051.631667	393.903320	191.005417
9919.112766	4051.631667	392.626953	143.803116
9919.112766	4051.631667	391.350586	283.584869
9919.112766	4051.631667	390.073242	145.748947
9919.112766	4051.631667	388.795898	95.807449
9919.112766	4051.631667	387.518555	173.303406
9919.112766	4051.631667	386.240234	54.765129
9919.112766	4051.631667	384.961914	118.610039
9919.112766	4051.631667	383.683594	10.692336
9919.112766	4051.631667	382.405273	162.005707
9919.112766	4051.631667	381.125977	-139.761612
9919.112766	4051.631667	379.846680	-123.008453
9919.112766	4051.631667	378.567383	40.686699
9919.112766	4051.631667	377.287109	61.275742
9919.112766	4051.631667	376.006836	79.397064
9919.112766	4051.631667	374.726563	57.720318
9919.112766	4051.631667	373.446289	-27.881399
9919.112766	4051.631667	372.165039	26.715265
9919.112766	4051.631667	370.883789	-37.487312
9919.112766	4051.631667	369.602539	16.493883
9919.112766	4051.631667	368.320313	-63.648628
9919.112766	4051.631667	367.039063	-104.597267
9919.112766	4051.631667	365.755859	62.388615
9919.112766	4051.631667	364.473633	77.746689
9919.112766	4051.631667	363.190430	-21.198910
9919.112766	4051.631667	361.907227	-72.256828
9919.112766	4051.631667	360.624023	9.953761
9919.112766	4051.631667	359.340820	89.568413
9919.112766	4051.631667	358.056641	46.155643
9919.112766	4051.631667	356.772461	-65.482948
9919.112766	4051.631667	355.487305	-72.440445
9919.112766	4051.631667	354.202148	25.214355
9919.112766	4051.631667	352.916992	72.095612
9919.112766	4051.631667	351.631836	20.113209
9919.112766	4051.631667	350.346680	39.866783
9919.112766	4051.631667	349.060547	-98.243668
9919.112766	4051.631667	347.774414	21.134594
9919.112766	4051.631667	346.487305	-21.719168
9919.112766	4051.631667	345.200195	-32.271755
9919.112766	4051.631667	343.913086	22.206358
9919.112766	4051.631667	342.625977	-89.802559
9919.112766	4051.631667	341.338867	79.341278
9919.112766	4051.631667	340.050781	-62.073570
9919.112766	4051.631667	338.762695	-33.762096
9919.112766	4051.631667	337.473633	-86.759758
9919.112766	4051.631667	336.184570	-39.969170
9919.112766	4051.631667	334.895508	-43.941078
9919.112766	4051.631667	333.606445	112.832657
9919.112766	4051.631667	332.317383	-27.526754
9919.112766	4051.631667	331.027344	-179.363770
9919.112766	4051.631667	329.736328	-85.581512
9919.112766	4051.631667	328.446289	55.449032
9919.112766	4051.631667	327.155273	-8.992400
9919.112766	4051.631667	325.864258	-32.716820
9919.112766	4051.631667	324.573242	43.010811
9919.112766	4051.631667	323.281250	-38.734589
9919.112766	4051.631667	321.989258	70.315353
9919.112766	4051.631667	320.697266	-12.874103
9919.112766	4051.631667	319.405273	75.041946
9919.112766	4051.631667	318.112305	14.247955
9919.112766	4051.631667	316.819336	20.084261
9919.112766	4051.631667	315.526367	-29.232943
9919.112766	4051.631667	314.232422	18.410812
9919.112766	4051.631667	312.938477	-23.891233
9919.112766	4051.631667	311.644531	-17.077988
9919.112766	4051.631667	310.349609	-65.468407
9919.112766	4051.631667	309.054688	-66.970161
9919.112766	4051.631667	307.759766	136.834427
9919.112766	4051.631667	306.464844	9.727021
9919.112766	4051.631667	305.168945	11.879890
9919.112766	4051.631667	303.873047	156.232590
9919.112766	4051.631667	302.577148	232.291504
9919.112766	4051.631667	301.281250	229.238495
9919.112766	4051.631667	299.984375	251.134232
