#X		#Y		#Wave		#Intensity
-15739.489362	5138.780000	1999.946289	-273.391815
-15739.489362	5138.780000	1998.981445	-146.882935
-15739.489362	5138.780000	1998.017578	-193.864777
-15739.489362	5138.780000	1997.052734	83.575150
-15739.489362	5138.780000	1996.088867	-206.707047
-15739.489362	5138.780000	1995.124023	102.382568
-15739.489362	5138.780000	1994.159180	9.908294
-15739.489362	5138.780000	1993.193359	68.313629
-15739.489362	5138.780000	1992.228516	109.154289
-15739.489362	5138.780000	1991.262695	30.966396
-15739.489362	5138.780000	1990.296875	-39.964584
-15739.489362	5138.780000	1989.331055	106.690918
-15739.489362	5138.780000	1988.365234	99.718422
-15739.489362	5138.780000	1987.398438	189.039139
-15739.489362	5138.780000	1986.432617	30.840446
-15739.489362	5138.780000	1985.465820	95.067657
-15739.489362	5138.780000	1984.499023	102.245125
-15739.489362	5138.780000	1983.532227	96.899078
-15739.489362	5138.780000	1982.565430	-7.451140
-15739.489362	5138.780000	1981.597656	-32.846821
-15739.489362	5138.780000	1980.629883	-23.798460
-15739.489362	5138.780000	1979.662109	-12.426655
-15739.489362	5138.780000	1978.694336	295.126434
-15739.489362	5138.780000	1977.726563	138.270294
-15739.489362	5138.780000	1976.758789	122.044235
-15739.489362	5138.780000	1975.790039	31.658552
-15739.489362	5138.780000	1974.821289	42.351147
-15739.489362	5138.780000	1973.852539	311.965759
-15739.489362	5138.780000	1972.883789	-8.163722
-15739.489362	5138.780000	1971.915039	160.017212
-15739.489362	5138.780000	1970.945313	143.098724
-15739.489362	5138.780000	1969.975586	-53.883194
-15739.489362	5138.780000	1969.005859	-115.330330
-15739.489362	5138.780000	1968.036133	20.293930
-15739.489362	5138.780000	1967.066406	64.608177
-15739.489362	5138.780000	1966.096680	229.521912
-15739.489362	5138.780000	1965.125977	96.266861
-15739.489362	5138.780000	1964.155273	12.223884
-15739.489362	5138.780000	1963.184570	216.190964
-15739.489362	5138.780000	1962.213867	284.613434
-15739.489362	5138.780000	1961.242188	242.181427
-15739.489362	5138.780000	1960.271484	175.082901
-15739.489362	5138.780000	1959.299805	7.068929
-15739.489362	5138.780000	1958.328125	148.978485
-15739.489362	5138.780000	1957.356445	-9.267819
-15739.489362	5138.780000	1956.384766	-7.693776
-15739.489362	5138.780000	1955.412109	87.238533
-15739.489362	5138.780000	1954.439453	277.935486
-15739.489362	5138.780000	1953.467773	205.551666
-15739.489362	5138.780000	1952.495117	2.917858
-15739.489362	5138.780000	1951.521484	-57.210899
-15739.489362	5138.780000	1950.548828	162.628418
-15739.489362	5138.780000	1949.575195	31.179182
-15739.489362	5138.780000	1948.601563	54.410252
-15739.489362	5138.780000	1947.627930	222.418381
-15739.489362	5138.780000	1946.654297	299.512207
-15739.489362	5138.780000	1945.680664	123.792244
-15739.489362	5138.780000	1944.706055	-24.912746
-15739.489362	5138.780000	1943.732422	-82.842636
-15739.489362	5138.780000	1942.757813	-0.995268
-15739.489362	5138.780000	1941.783203	227.908676
-15739.489362	5138.780000	1940.807617	123.284500
-15739.489362	5138.780000	1939.833008	180.441238
-15739.489362	5138.780000	1938.857422	16.990942
-15739.489362	5138.780000	1937.881836	-26.367226
-15739.489362	5138.780000	1936.906250	42.952183
-15739.489362	5138.780000	1935.930664	-34.734974
-15739.489362	5138.780000	1934.955078	-225.062088
-15739.489362	5138.780000	1933.978516	-48.086060
-15739.489362	5138.780000	1933.001953	-37.653698
-15739.489362	5138.780000	1932.025391	-44.377060
-15739.489362	5138.780000	1931.048828	-144.101639
-15739.489362	5138.780000	1930.072266	-43.190559
-15739.489362	5138.780000	1929.094727	82.128090
-15739.489362	5138.780000	1928.118164	160.917252
-15739.489362	5138.780000	1927.140625	92.953903
-15739.489362	5138.780000	1926.163086	27.447725
-15739.489362	5138.780000	1925.184570	-228.697769
-15739.489362	5138.780000	1924.207031	-15.550548
-15739.489362	5138.780000	1923.228516	-37.053600
-15739.489362	5138.780000	1922.250000	-14.586236
-15739.489362	5138.780000	1921.271484	93.349396
-15739.489362	5138.780000	1920.292969	57.160290
-15739.489362	5138.780000	1919.314453	84.455559
-15739.489362	5138.780000	1918.334961	-181.192627
-15739.489362	5138.780000	1917.355469	24.289396
-15739.489362	5138.780000	1916.375977	-63.128029
-15739.489362	5138.780000	1915.396484	-145.639648
-15739.489362	5138.780000	1914.416992	98.734596
-15739.489362	5138.780000	1913.436523	-30.121817
-15739.489362	5138.780000	1912.457031	77.586159
-15739.489362	5138.780000	1911.476563	-29.283241
-15739.489362	5138.780000	1910.496094	36.942093
-15739.489362	5138.780000	1909.515625	86.081886
-15739.489362	5138.780000	1908.534180	135.202103
-15739.489362	5138.780000	1907.552734	284.180847
-15739.489362	5138.780000	1906.572266	106.731102
-15739.489362	5138.780000	1905.590820	58.411152
-15739.489362	5138.780000	1904.608398	-191.972137
-15739.489362	5138.780000	1903.626953	32.415115
-15739.489362	5138.780000	1902.644531	35.243366
-15739.489362	5138.780000	1901.663086	-5.728758
-15739.489362	5138.780000	1900.680664	-78.313263
-15739.489362	5138.780000	1899.698242	-65.734810
-15739.489362	5138.780000	1898.714844	-213.670837
-15739.489362	5138.780000	1897.732422	59.100040
-15739.489362	5138.780000	1896.749023	-241.958847
-15739.489362	5138.780000	1895.765625	-139.425781
-15739.489362	5138.780000	1894.782227	184.212921
-15739.489362	5138.780000	1893.798828	14.504145
-15739.489362	5138.780000	1892.814453	-79.834183
-15739.489362	5138.780000	1891.831055	-127.989983
-15739.489362	5138.780000	1890.846680	-86.279343
-15739.489362	5138.780000	1889.862305	-5.737696
-15739.489362	5138.780000	1888.877930	1.952241
-15739.489362	5138.780000	1887.892578	-51.035637
-15739.489362	5138.780000	1886.908203	-150.107117
-15739.489362	5138.780000	1885.922852	-132.690674
-15739.489362	5138.780000	1884.937500	81.192810
-15739.489362	5138.780000	1883.952148	292.569519
-15739.489362	5138.780000	1882.965820	312.317383
-15739.489362	5138.780000	1881.980469	-17.034937
-15739.489362	5138.780000	1880.994141	104.559624
-15739.489362	5138.780000	1880.007813	12.853534
-15739.489362	5138.780000	1879.021484	61.707874
-15739.489362	5138.780000	1878.035156	93.584274
-15739.489362	5138.780000	1877.047852	96.383026
-15739.489362	5138.780000	1876.061523	-4.946343
-15739.489362	5138.780000	1875.074219	63.232933
-15739.489362	5138.780000	1874.086914	34.559021
-15739.489362	5138.780000	1873.098633	114.800316
-15739.489362	5138.780000	1872.111328	195.006897
-15739.489362	5138.780000	1871.123047	-48.998985
-15739.489362	5138.780000	1870.135742	149.719467
-15739.489362	5138.780000	1869.147461	-40.993065
-15739.489362	5138.780000	1868.158203	-219.549103
-15739.489362	5138.780000	1867.169922	25.004757
-15739.489362	5138.780000	1866.180664	175.199646
-15739.489362	5138.780000	1865.192383	267.334686
-15739.489362	5138.780000	1864.203125	67.083542
-15739.489362	5138.780000	1863.213867	-41.306305
-15739.489362	5138.780000	1862.223633	84.608170
-15739.489362	5138.780000	1861.234375	191.148575
-15739.489362	5138.780000	1860.244141	-153.825989
-15739.489362	5138.780000	1859.253906	375.116577
-15739.489362	5138.780000	1858.263672	-5.982254
-15739.489362	5138.780000	1857.273438	66.675911
-15739.489362	5138.780000	1856.282227	153.772278
-15739.489362	5138.780000	1855.291992	197.407806
-15739.489362	5138.780000	1854.300781	81.853592
-15739.489362	5138.780000	1853.309570	123.050499
-15739.489362	5138.780000	1852.317383	111.186516
-15739.489362	5138.780000	1851.326172	58.340206
-15739.489362	5138.780000	1850.333984	17.548189
-15739.489362	5138.780000	1849.342773	-54.563076
-15739.489362	5138.780000	1848.350586	-80.893555
-15739.489362	5138.780000	1847.357422	-8.487755
-15739.489362	5138.780000	1846.365234	75.915627
-15739.489362	5138.780000	1845.372070	114.527863
-15739.489362	5138.780000	1844.379883	160.331009
-15739.489362	5138.780000	1843.386719	227.757935
-15739.489362	5138.780000	1842.393555	90.621689
-15739.489362	5138.780000	1841.399414	-41.669231
-15739.489362	5138.780000	1840.406250	88.236504
-15739.489362	5138.780000	1839.412109	-48.852402
-15739.489362	5138.780000	1838.417969	25.667200
-15739.489362	5138.780000	1837.423828	76.100441
-15739.489362	5138.780000	1836.429688	-8.097150
-15739.489362	5138.780000	1835.434570	35.070690
-15739.489362	5138.780000	1834.440430	-29.910690
-15739.489362	5138.780000	1833.445313	85.260345
-15739.489362	5138.780000	1832.450195	94.695847
-15739.489362	5138.780000	1831.454102	-92.789642
-15739.489362	5138.780000	1830.458984	187.903656
-15739.489362	5138.780000	1829.462891	151.635788
-15739.489362	5138.780000	1828.466797	-119.821899
-15739.489362	5138.780000	1827.470703	263.811310
-15739.489362	5138.780000	1826.474609	121.920616
-15739.489362	5138.780000	1825.478516	30.423502
-15739.489362	5138.780000	1824.481445	130.770065
-15739.489362	5138.780000	1823.484375	39.248383
-15739.489362	5138.780000	1822.487305	-25.898911
-15739.489362	5138.780000	1821.490234	-172.536575
-15739.489362	5138.780000	1820.493164	23.501879
-15739.489362	5138.780000	1819.495117	-127.941956
-15739.489362	5138.780000	1818.498047	135.019470
-15739.489362	5138.780000	1817.500000	-2.081552
-15739.489362	5138.780000	1816.500977	157.734879
-15739.489362	5138.780000	1815.502930	30.192421
-15739.489362	5138.780000	1814.504883	98.926590
-15739.489362	5138.780000	1813.505859	52.737785
-15739.489362	5138.780000	1812.506836	78.307983
-15739.489362	5138.780000	1811.507813	-37.298836
-15739.489362	5138.780000	1810.508789	-59.623180
-15739.489362	5138.780000	1809.508789	181.054199
-15739.489362	5138.780000	1808.508789	22.352917
-15739.489362	5138.780000	1807.508789	-145.885681
-15739.489362	5138.780000	1806.508789	-29.708929
-15739.489362	5138.780000	1805.508789	119.837822
-15739.489362	5138.780000	1804.508789	47.121326
-15739.489362	5138.780000	1803.507813	151.138962
-15739.489362	5138.780000	1802.506836	64.036957
-15739.489362	5138.780000	1801.505859	43.779724
-15739.489362	5138.780000	1800.504883	99.879555
-15739.489362	5138.780000	1799.502930	134.436249
-15739.489362	5138.780000	1798.501953	216.663986
-15739.489362	5138.780000	1797.500000	5.371150
-15739.489362	5138.780000	1796.498047	-19.829962
-15739.489362	5138.780000	1795.496094	-152.381134
-15739.489362	5138.780000	1794.493164	-65.561653
-15739.489362	5138.780000	1793.491211	66.479820
-15739.489362	5138.780000	1792.488281	55.416542
-15739.489362	5138.780000	1791.485352	-5.729791
-15739.489362	5138.780000	1790.482422	56.997505
-15739.489362	5138.780000	1789.478516	169.681290
-15739.489362	5138.780000	1788.475586	41.728035
-15739.489362	5138.780000	1787.471680	9.026421
-15739.489362	5138.780000	1786.467773	-161.795166
-15739.489362	5138.780000	1785.463867	91.104782
-15739.489362	5138.780000	1784.459961	20.197615
-15739.489362	5138.780000	1783.455078	39.687080
-15739.489362	5138.780000	1782.450195	-116.922249
-15739.489362	5138.780000	1781.445313	-52.315231
-15739.489362	5138.780000	1780.440430	123.990280
-15739.489362	5138.780000	1779.435547	45.774292
-15739.489362	5138.780000	1778.429688	-11.067256
-15739.489362	5138.780000	1777.424805	98.438568
-15739.489362	5138.780000	1776.418945	127.058472
-15739.489362	5138.780000	1775.413086	-210.259247
-15739.489362	5138.780000	1774.406250	-198.319962
-15739.489362	5138.780000	1773.400391	-3.561500
-15739.489362	5138.780000	1772.393555	29.606752
-15739.489362	5138.780000	1771.386719	41.345211
-15739.489362	5138.780000	1770.379883	41.162468
-15739.489362	5138.780000	1769.373047	50.421619
-15739.489362	5138.780000	1768.365234	130.805328
-15739.489362	5138.780000	1767.358398	132.826584
-15739.489362	5138.780000	1766.350586	146.652634
-15739.489362	5138.780000	1765.342773	-138.364365
-15739.489362	5138.780000	1764.334961	62.705124
-15739.489362	5138.780000	1763.326172	81.120712
-15739.489362	5138.780000	1762.318359	149.250412
-15739.489362	5138.780000	1761.309570	89.345978
-15739.489362	5138.780000	1760.300781	-65.350494
-15739.489362	5138.780000	1759.291016	73.665558
-15739.489362	5138.780000	1758.282227	72.857292
-15739.489362	5138.780000	1757.272461	-197.925247
-15739.489362	5138.780000	1756.262695	2.428402
-15739.489362	5138.780000	1755.252930	39.343967
-15739.489362	5138.780000	1754.243164	194.510834
-15739.489362	5138.780000	1753.233398	-178.033966
-15739.489362	5138.780000	1752.222656	-115.246063
-15739.489362	5138.780000	1751.211914	-24.155350
-15739.489362	5138.780000	1750.201172	26.650265
-15739.489362	5138.780000	1749.190430	-99.924950
-15739.489362	5138.780000	1748.179688	12.224474
-15739.489362	5138.780000	1747.167969	131.364334
-15739.489362	5138.780000	1746.156250	-94.556427
-15739.489362	5138.780000	1745.144531	104.770798
-15739.489362	5138.780000	1744.132813	-64.481117
-15739.489362	5138.780000	1743.121094	115.766953
-15739.489362	5138.780000	1742.108398	71.598000
-15739.489362	5138.780000	1741.095703	-180.331711
-15739.489362	5138.780000	1740.083008	-163.171555
-15739.489362	5138.780000	1739.070313	-23.371639
-15739.489362	5138.780000	1738.057617	161.146210
-15739.489362	5138.780000	1737.043945	69.567329
-15739.489362	5138.780000	1736.030273	-158.809158
-15739.489362	5138.780000	1735.016602	44.328362
-15739.489362	5138.780000	1734.002930	72.891136
-15739.489362	5138.780000	1732.989258	-23.526007
-15739.489362	5138.780000	1731.974609	75.622414
-15739.489362	5138.780000	1730.959961	-119.821220
-15739.489362	5138.780000	1729.945313	-136.219070
-15739.489362	5138.780000	1728.930664	14.548128
-15739.489362	5138.780000	1727.916016	-143.252853
-15739.489362	5138.780000	1726.900391	-25.608957
-15739.489362	5138.780000	1725.885742	84.880913
-15739.489362	5138.780000	1724.870117	-47.118664
-15739.489362	5138.780000	1723.853516	-73.244362
-15739.489362	5138.780000	1722.837891	-42.950230
-15739.489362	5138.780000	1721.822266	76.655632
-15739.489362	5138.780000	1720.805664	-123.645409
-15739.489362	5138.780000	1719.789063	96.918350
-15739.489362	5138.780000	1718.772461	-75.204628
-15739.489362	5138.780000	1717.754883	-148.611008
-15739.489362	5138.780000	1716.738281	38.782879
-15739.489362	5138.780000	1715.720703	-84.051559
-15739.489362	5138.780000	1714.703125	16.246525
-15739.489362	5138.780000	1713.685547	-181.783539
-15739.489362	5138.780000	1712.667969	54.574329
-15739.489362	5138.780000	1711.649414	-84.806053
-15739.489362	5138.780000	1710.630859	45.724449
-15739.489362	5138.780000	1709.612305	-35.035046
-15739.489362	5138.780000	1708.593750	165.721436
-15739.489362	5138.780000	1707.575195	2.775437
-15739.489362	5138.780000	1706.555664	-197.683975
-15739.489362	5138.780000	1705.536133	-32.333580
-15739.489362	5138.780000	1704.516602	93.053513
-15739.489362	5138.780000	1703.497070	173.812607
-15739.489362	5138.780000	1702.477539	127.948914
-15739.489362	5138.780000	1701.457031	157.025345
-15739.489362	5138.780000	1700.437500	57.213032
-15739.489362	5138.780000	1699.416992	-126.927071
-15739.489362	5138.780000	1698.395508	-1.955257
-15739.489362	5138.780000	1697.375000	38.646538
-15739.489362	5138.780000	1696.354492	-28.483643
-15739.489362	5138.780000	1695.333008	-60.535046
-15739.489362	5138.780000	1694.311523	326.208649
-15739.489362	5138.780000	1693.290039	39.023273
-15739.489362	5138.780000	1692.267578	177.580765
-15739.489362	5138.780000	1691.246094	110.263985
-15739.489362	5138.780000	1690.223633	31.233812
-15739.489362	5138.780000	1689.201172	178.935333
-15739.489362	5138.780000	1688.178711	-124.524559
-15739.489362	5138.780000	1687.155273	48.764229
-15739.489362	5138.780000	1686.132813	-11.668583
-15739.489362	5138.780000	1685.109375	105.391289
-15739.489362	5138.780000	1684.085938	147.637177
-15739.489362	5138.780000	1683.062500	59.074417
-15739.489362	5138.780000	1682.039063	75.555069
-15739.489362	5138.780000	1681.014648	103.654091
-15739.489362	5138.780000	1679.990234	297.384308
-15739.489362	5138.780000	1678.965820	222.698395
-15739.489362	5138.780000	1677.941406	262.302856
-15739.489362	5138.780000	1676.916992	199.239243
-15739.489362	5138.780000	1675.891602	213.103867
-15739.489362	5138.780000	1674.866211	149.994705
-15739.489362	5138.780000	1673.840820	175.446457
-15739.489362	5138.780000	1672.815430	252.121750
-15739.489362	5138.780000	1671.790039	298.442993
-15739.489362	5138.780000	1670.763672	207.267120
-15739.489362	5138.780000	1669.737305	-7.344793
-15739.489362	5138.780000	1668.710938	250.793320
-15739.489362	5138.780000	1667.684570	201.486694
-15739.489362	5138.780000	1666.658203	273.207550
-15739.489362	5138.780000	1665.630859	282.025635
-15739.489362	5138.780000	1664.603516	286.157440
-15739.489362	5138.780000	1663.576172	227.445297
-15739.489362	5138.780000	1662.548828	319.909302
-15739.489362	5138.780000	1661.520508	342.537109
-15739.489362	5138.780000	1660.493164	204.712570
-15739.489362	5138.780000	1659.464844	276.112488
-15739.489362	5138.780000	1658.436523	73.216217
-15739.489362	5138.780000	1657.408203	290.949158
-15739.489362	5138.780000	1656.378906	506.241180
-15739.489362	5138.780000	1655.350586	454.316315
-15739.489362	5138.780000	1654.321289	753.044495
-15739.489362	5138.780000	1653.291992	559.404175
-15739.489362	5138.780000	1652.261719	389.019592
-15739.489362	5138.780000	1651.232422	532.012329
-15739.489362	5138.780000	1650.202148	210.821579
-15739.489362	5138.780000	1649.171875	539.343872
-15739.489362	5138.780000	1648.141602	464.109100
-15739.489362	5138.780000	1647.111328	428.307404
-15739.489362	5138.780000	1646.080078	441.183899
-15739.489362	5138.780000	1645.049805	653.412231
-15739.489362	5138.780000	1644.018555	624.481140
-15739.489362	5138.780000	1642.987305	583.956238
-15739.489362	5138.780000	1641.955078	434.527100
-15739.489362	5138.780000	1640.923828	581.650513
-15739.489362	5138.780000	1639.891602	353.501801
-15739.489362	5138.780000	1638.859375	507.491302
-15739.489362	5138.780000	1637.827148	612.787659
-15739.489362	5138.780000	1636.794922	569.891541
-15739.489362	5138.780000	1635.761719	654.270630
-15739.489362	5138.780000	1634.729492	544.256104
-15739.489362	5138.780000	1633.696289	536.048340
-15739.489362	5138.780000	1632.662109	532.450806
-15739.489362	5138.780000	1631.628906	734.653931
-15739.489362	5138.780000	1630.594727	613.086670
-15739.489362	5138.780000	1629.561523	600.204285
-15739.489362	5138.780000	1628.527344	716.728638
-15739.489362	5138.780000	1627.493164	736.153259
-15739.489362	5138.780000	1626.458008	568.432190
-15739.489362	5138.780000	1625.423828	853.478760
-15739.489362	5138.780000	1624.388672	833.577209
-15739.489362	5138.780000	1623.353516	783.662598
-15739.489362	5138.780000	1622.318359	597.568604
-15739.489362	5138.780000	1621.282227	1057.750244
-15739.489362	5138.780000	1620.247070	816.285828
-15739.489362	5138.780000	1619.210938	644.114929
-15739.489362	5138.780000	1618.174805	744.183411
-15739.489362	5138.780000	1617.137695	943.366089
-15739.489362	5138.780000	1616.101563	916.521606
-15739.489362	5138.780000	1615.064453	891.983154
-15739.489362	5138.780000	1614.027344	892.806824
-15739.489362	5138.780000	1612.990234	826.804810
-15739.489362	5138.780000	1611.953125	707.841125
-15739.489362	5138.780000	1610.916016	1093.375366
-15739.489362	5138.780000	1609.877930	1064.218994
-15739.489362	5138.780000	1608.839844	873.898865
-15739.489362	5138.780000	1607.801758	932.280823
-15739.489362	5138.780000	1606.763672	1038.979858
-15739.489362	5138.780000	1605.724609	699.204041
-15739.489362	5138.780000	1604.685547	690.873535
-15739.489362	5138.780000	1603.646484	976.989136
-15739.489362	5138.780000	1602.607422	1053.714478
-15739.489362	5138.780000	1601.568359	1084.430298
-15739.489362	5138.780000	1600.528320	938.115906
-15739.489362	5138.780000	1599.489258	973.457031
-15739.489362	5138.780000	1598.449219	886.989136
-15739.489362	5138.780000	1597.408203	913.141663
-15739.489362	5138.780000	1596.368164	732.558105
-15739.489362	5138.780000	1595.327148	1089.478149
-15739.489362	5138.780000	1594.287109	725.255127
-15739.489362	5138.780000	1593.246094	932.835022
-15739.489362	5138.780000	1592.204102	779.970398
-15739.489362	5138.780000	1591.163086	955.358337
-15739.489362	5138.780000	1590.121094	839.289429
-15739.489362	5138.780000	1589.079102	837.982666
-15739.489362	5138.780000	1588.037109	644.033447
-15739.489362	5138.780000	1586.995117	860.644592
-15739.489362	5138.780000	1585.953125	891.483704
-15739.489362	5138.780000	1584.910156	858.139954
-15739.489362	5138.780000	1583.867188	804.202271
-15739.489362	5138.780000	1582.824219	786.966248
-15739.489362	5138.780000	1581.781250	1090.479370
-15739.489362	5138.780000	1580.737305	915.190430
-15739.489362	5138.780000	1579.693359	934.639221
-15739.489362	5138.780000	1578.649414	931.208313
-15739.489362	5138.780000	1577.605469	948.403259
-15739.489362	5138.780000	1576.561523	542.218811
-15739.489362	5138.780000	1575.516602	927.922119
-15739.489362	5138.780000	1574.472656	997.799133
-15739.489362	5138.780000	1573.427734	848.087708
-15739.489362	5138.780000	1572.381836	753.339233
-15739.489362	5138.780000	1571.336914	846.146301
-15739.489362	5138.780000	1570.291016	849.784851
-15739.489362	5138.780000	1569.246094	876.313110
-15739.489362	5138.780000	1568.200195	875.432983
-15739.489362	5138.780000	1567.153320	929.405823
-15739.489362	5138.780000	1566.107422	1015.372742
-15739.489362	5138.780000	1565.060547	747.357056
-15739.489362	5138.780000	1564.013672	867.629761
-15739.489362	5138.780000	1562.966797	1049.524414
-15739.489362	5138.780000	1561.919922	955.214661
-15739.489362	5138.780000	1560.872070	1041.240234
-15739.489362	5138.780000	1559.825195	1124.990845
-15739.489362	5138.780000	1558.777344	1001.165161
-15739.489362	5138.780000	1557.729492	1137.406860
-15739.489362	5138.780000	1556.680664	1068.415161
-15739.489362	5138.780000	1555.632813	1138.552246
-15739.489362	5138.780000	1554.583984	1115.245361
-15739.489362	5138.780000	1553.535156	1201.365723
-15739.489362	5138.780000	1552.486328	1396.849365
-15739.489362	5138.780000	1551.436523	1154.938843
-15739.489362	5138.780000	1550.387695	1127.246582
-15739.489362	5138.780000	1549.337891	1072.274536
-15739.489362	5138.780000	1548.288086	1254.124268
-15739.489362	5138.780000	1547.238281	989.833374
-15739.489362	5138.780000	1546.187500	875.872925
-15739.489362	5138.780000	1545.136719	925.813110
-15739.489362	5138.780000	1544.086914	821.100647
-15739.489362	5138.780000	1543.035156	957.534912
-15739.489362	5138.780000	1541.984375	721.056946
-15739.489362	5138.780000	1540.933594	775.710144
-15739.489362	5138.780000	1539.881836	439.435699
-15739.489362	5138.780000	1538.830078	591.925354
-15739.489362	5138.780000	1537.778320	587.630920
-15739.489362	5138.780000	1536.725586	683.328430
-15739.489362	5138.780000	1535.673828	438.370575
-15739.489362	5138.780000	1534.621094	579.569885
-15739.489362	5138.780000	1533.568359	784.328857
-15739.489362	5138.780000	1532.515625	875.566101
-15739.489362	5138.780000	1531.461914	515.210266
-15739.489362	5138.780000	1530.409180	740.429749
-15739.489362	5138.780000	1529.355469	600.384399
-15739.489362	5138.780000	1528.301758	512.609253
-15739.489362	5138.780000	1527.247070	461.195374
-15739.489362	5138.780000	1526.193359	539.086121
-15739.489362	5138.780000	1525.138672	456.058929
-15739.489362	5138.780000	1524.083984	506.825348
-15739.489362	5138.780000	1523.029297	609.738403
-15739.489362	5138.780000	1521.974609	372.865875
-15739.489362	5138.780000	1520.918945	493.986603
-15739.489362	5138.780000	1519.863281	472.455566
-15739.489362	5138.780000	1518.807617	258.551483
-15739.489362	5138.780000	1517.751953	302.829498
-15739.489362	5138.780000	1516.696289	342.621033
-15739.489362	5138.780000	1515.639648	343.983490
-15739.489362	5138.780000	1514.583008	51.318413
-15739.489362	5138.780000	1513.526367	353.665253
-15739.489362	5138.780000	1512.469727	400.423828
-15739.489362	5138.780000	1511.412109	252.786484
-15739.489362	5138.780000	1510.355469	105.270111
-15739.489362	5138.780000	1509.297852	165.783493
-15739.489362	5138.780000	1508.240234	190.179947
-15739.489362	5138.780000	1507.181641	-36.131172
-15739.489362	5138.780000	1506.124023	69.726913
-15739.489362	5138.780000	1505.065430	155.275726
-15739.489362	5138.780000	1504.006836	168.606598
-15739.489362	5138.780000	1502.948242	191.022629
-15739.489362	5138.780000	1501.888672	299.247894
-15739.489362	5138.780000	1500.830078	89.348953
-15739.489362	5138.780000	1499.770508	342.054932
-15739.489362	5138.780000	1498.710938	195.506683
-15739.489362	5138.780000	1497.650391	125.747810
-15739.489362	5138.780000	1496.590820	186.849274
-15739.489362	5138.780000	1495.530273	157.821915
-15739.489362	5138.780000	1494.469727	221.272125
-15739.489362	5138.780000	1493.409180	104.503883
-15739.489362	5138.780000	1492.348633	330.270416
-15739.489362	5138.780000	1491.287109	42.478008
-15739.489362	5138.780000	1490.225586	40.855808
-15739.489362	5138.780000	1489.164063	250.935333
-15739.489362	5138.780000	1488.102539	-61.231396
-15739.489362	5138.780000	1487.041016	153.420319
-15739.489362	5138.780000	1485.978516	183.544128
-15739.489362	5138.780000	1484.916016	148.453796
-15739.489362	5138.780000	1483.853516	196.722809
-15739.489362	5138.780000	1482.791016	-4.598799
-15739.489362	5138.780000	1481.727539	59.523693
-15739.489362	5138.780000	1480.664063	231.547348
-15739.489362	5138.780000	1479.600586	82.238960
-15739.489362	5138.780000	1478.537109	-102.901253
-15739.489362	5138.780000	1477.473633	-22.850630
-15739.489362	5138.780000	1476.409180	-10.077075
-15739.489362	5138.780000	1475.344727	43.100716
-15739.489362	5138.780000	1474.280273	60.436825
-15739.489362	5138.780000	1473.215820	163.121857
-15739.489362	5138.780000	1472.151367	-247.999283
-15739.489362	5138.780000	1471.085938	-17.263342
-15739.489362	5138.780000	1470.020508	-75.968872
-15739.489362	5138.780000	1468.955078	-9.031742
-15739.489362	5138.780000	1467.888672	114.050362
-15739.489362	5138.780000	1466.823242	230.237183
-15739.489362	5138.780000	1465.756836	237.026413
-15739.489362	5138.780000	1464.690430	205.458008
-15739.489362	5138.780000	1463.624023	288.808441
-15739.489362	5138.780000	1462.556641	539.514893
-15739.489362	5138.780000	1461.490234	150.233704
-15739.489362	5138.780000	1460.422852	249.175095
-15739.489362	5138.780000	1459.355469	251.067139
-15739.489362	5138.780000	1458.287109	291.655853
-15739.489362	5138.780000	1457.219727	327.828430
-15739.489362	5138.780000	1456.151367	447.358124
-15739.489362	5138.780000	1455.083008	431.360413
-15739.489362	5138.780000	1454.014648	278.837280
-15739.489362	5138.780000	1452.945313	206.137650
-15739.489362	5138.780000	1451.876953	149.434082
-15739.489362	5138.780000	1450.807617	263.546417
-15739.489362	5138.780000	1449.738281	129.893463
-15739.489362	5138.780000	1448.668945	94.551407
-15739.489362	5138.780000	1447.598633	100.304016
-15739.489362	5138.780000	1446.528320	62.623581
-15739.489362	5138.780000	1445.458008	-31.837551
-15739.489362	5138.780000	1444.387695	209.373749
-15739.489362	5138.780000	1443.317383	283.021179
-15739.489362	5138.780000	1442.246094	25.677862
-15739.489362	5138.780000	1441.174805	-123.732147
-15739.489362	5138.780000	1440.103516	133.166138
-15739.489362	5138.780000	1439.032227	157.086563
-15739.489362	5138.780000	1437.960938	-119.713074
-15739.489362	5138.780000	1436.888672	133.444183
-15739.489362	5138.780000	1435.816406	42.258381
-15739.489362	5138.780000	1434.744141	6.173817
-15739.489362	5138.780000	1433.670898	-38.884300
-15739.489362	5138.780000	1432.598633	19.870232
-15739.489362	5138.780000	1431.525391	185.641464
-15739.489362	5138.780000	1430.452148	95.259918
-15739.489362	5138.780000	1429.378906	69.331001
-15739.489362	5138.780000	1428.304688	72.161079
-15739.489362	5138.780000	1427.231445	69.897957
-15739.489362	5138.780000	1426.157227	-213.844482
-15739.489362	5138.780000	1425.083008	-169.943115
-15739.489362	5138.780000	1424.007813	15.539560
-15739.489362	5138.780000	1422.933594	106.332779
-15739.489362	5138.780000	1421.858398	15.158387
-15739.489362	5138.780000	1420.783203	-81.876419
-15739.489362	5138.780000	1419.708008	-128.321579
-15739.489362	5138.780000	1418.631836	8.584956
-15739.489362	5138.780000	1417.555664	-22.457081
-15739.489362	5138.780000	1416.479492	57.446705
-15739.489362	5138.780000	1415.403320	-49.948959
-15739.489362	5138.780000	1414.327148	78.096008
-15739.489362	5138.780000	1413.250000	-121.420692
-15739.489362	5138.780000	1412.173828	-70.942139
-15739.489362	5138.780000	1411.096680	-46.769604
-15739.489362	5138.780000	1410.018555	16.787371
-15739.489362	5138.780000	1408.941406	-237.585800
-15739.489362	5138.780000	1407.863281	-25.225164
-15739.489362	5138.780000	1406.785156	14.887638
-15739.489362	5138.780000	1405.707031	239.442841
-15739.489362	5138.780000	1404.628906	24.880655
-15739.489362	5138.780000	1403.549805	-75.626831
-15739.489362	5138.780000	1402.470703	15.871061
-15739.489362	5138.780000	1401.391602	-109.293854
-15739.489362	5138.780000	1400.312500	-28.106184
-15739.489362	5138.780000	1399.233398	-44.157948
-15739.489362	5138.780000	1398.153320	-123.824623
-15739.489362	5138.780000	1397.073242	-55.842415
-15739.489362	5138.780000	1395.993164	-96.090462
-15739.489362	5138.780000	1394.913086	-0.608077
-15739.489362	5138.780000	1393.832031	47.081055
-15739.489362	5138.780000	1392.750977	-249.115005
-15739.489362	5138.780000	1391.669922	0.277112
-15739.489362	5138.780000	1390.588867	-205.037781
-15739.489362	5138.780000	1389.506836	-354.013794
-15739.489362	5138.780000	1388.425781	-160.373383
-15739.489362	5138.780000	1387.343750	-27.349600
-15739.489362	5138.780000	1386.261719	109.624374
-15739.489362	5138.780000	1385.178711	111.466736
-15739.489362	5138.780000	1384.096680	-84.762276
-15739.489362	5138.780000	1383.013672	22.586582
-15739.489362	5138.780000	1381.930664	47.120880
-15739.489362	5138.780000	1380.846680	211.267838
-15739.489362	5138.780000	1379.763672	-12.759507
-15739.489362	5138.780000	1378.679688	-49.221584
-15739.489362	5138.780000	1377.595703	51.679340
-15739.489362	5138.780000	1376.511719	94.197815
-15739.489362	5138.780000	1375.427734	96.027855
-15739.489362	5138.780000	1374.342773	168.757141
-15739.489362	5138.780000	1373.257813	118.270096
-15739.489362	5138.780000	1372.172852	4.508729
-15739.489362	5138.780000	1371.087891	115.606491
-15739.489362	5138.780000	1370.001953	-10.731508
-15739.489362	5138.780000	1368.916992	82.980965
-15739.489362	5138.780000	1367.831055	234.060776
-15739.489362	5138.780000	1366.744141	64.014580
-15739.489362	5138.780000	1365.658203	156.200317
-15739.489362	5138.780000	1364.571289	112.509399
-15739.489362	5138.780000	1363.484375	230.567871
-15739.489362	5138.780000	1362.397461	152.086258
-15739.489362	5138.780000	1361.310547	177.891342
-15739.489362	5138.780000	1360.222656	188.050995
-15739.489362	5138.780000	1359.135742	80.219360
-15739.489362	5138.780000	1358.047852	264.150818
-15739.489362	5138.780000	1356.958984	225.693726
-15739.489362	5138.780000	1355.871094	296.203094
-15739.489362	5138.780000	1354.782227	455.999969
-15739.489362	5138.780000	1353.693359	355.073151
-15739.489362	5138.780000	1352.604492	336.040405
-15739.489362	5138.780000	1351.515625	480.606354
-15739.489362	5138.780000	1350.425781	689.690918
-15739.489362	5138.780000	1349.335938	444.580444
-15739.489362	5138.780000	1348.246094	426.849792
-15739.489362	5138.780000	1347.156250	638.981873
-15739.489362	5138.780000	1346.066406	485.885406
-15739.489362	5138.780000	1344.975586	503.855591
-15739.489362	5138.780000	1343.884766	641.588684
-15739.489362	5138.780000	1342.793945	829.761963
-15739.489362	5138.780000	1341.702148	925.923645
-15739.489362	5138.780000	1340.611328	831.450623
-15739.489362	5138.780000	1339.519531	882.833374
-15739.489362	5138.780000	1338.427734	682.107788
-15739.489362	5138.780000	1337.334961	853.895386
-15739.489362	5138.780000	1336.243164	775.452698
-15739.489362	5138.780000	1335.150391	842.666931
-15739.489362	5138.780000	1334.057617	734.731995
-15739.489362	5138.780000	1332.964844	750.637634
-15739.489362	5138.780000	1331.871094	883.612183
-15739.489362	5138.780000	1330.778320	613.933960
-15739.489362	5138.780000	1329.684570	608.308105
-15739.489362	5138.780000	1328.590820	712.077759
-15739.489362	5138.780000	1327.496094	692.248596
-15739.489362	5138.780000	1326.402344	623.313538
-15739.489362	5138.780000	1325.307617	861.442932
-15739.489362	5138.780000	1324.212891	967.290161
-15739.489362	5138.780000	1323.117188	809.124817
-15739.489362	5138.780000	1322.022461	737.113281
-15739.489362	5138.780000	1320.926758	688.255249
-15739.489362	5138.780000	1319.831055	655.810486
-15739.489362	5138.780000	1318.735352	474.326263
-15739.489362	5138.780000	1317.638672	591.612488
-15739.489362	5138.780000	1316.542969	370.680817
-15739.489362	5138.780000	1315.446289	319.811615
-15739.489362	5138.780000	1314.349609	238.479218
-15739.489362	5138.780000	1313.251953	253.134262
-15739.489362	5138.780000	1312.155273	154.182571
-15739.489362	5138.780000	1311.057617	197.795502
-15739.489362	5138.780000	1309.959961	490.739197
-15739.489362	5138.780000	1308.862305	260.738708
-15739.489362	5138.780000	1307.763672	193.193146
-15739.489362	5138.780000	1306.665039	91.681946
-15739.489362	5138.780000	1305.566406	142.301300
-15739.489362	5138.780000	1304.467773	112.620026
-15739.489362	5138.780000	1303.369141	241.567307
-15739.489362	5138.780000	1302.269531	273.533569
-15739.489362	5138.780000	1301.169922	170.733902
-15739.489362	5138.780000	1300.070313	117.956795
-15739.489362	5138.780000	1298.970703	107.432236
-15739.489362	5138.780000	1297.870117	48.584969
-15739.489362	5138.780000	1296.769531	180.225601
-15739.489362	5138.780000	1295.668945	336.011810
-15739.489362	5138.780000	1294.568359	92.781944
-15739.489362	5138.780000	1293.466797	187.081009
-15739.489362	5138.780000	1292.366211	373.911255
-15739.489362	5138.780000	1291.264648	465.907104
-15739.489362	5138.780000	1290.162109	492.578918
-15739.489362	5138.780000	1289.060547	260.778381
-15739.489362	5138.780000	1287.958008	394.297302
-15739.489362	5138.780000	1286.855469	303.724396
-15739.489362	5138.780000	1285.752930	413.669434
-15739.489362	5138.780000	1284.650391	469.805786
-15739.489362	5138.780000	1283.546875	284.941315
-15739.489362	5138.780000	1282.444336	-10.928046
-15739.489362	5138.780000	1281.339844	166.860886
-15739.489362	5138.780000	1280.236328	193.428040
-15739.489362	5138.780000	1279.132813	230.363602
-15739.489362	5138.780000	1278.028320	207.477600
-15739.489362	5138.780000	1276.923828	229.982452
-15739.489362	5138.780000	1275.819336	-38.318657
-15739.489362	5138.780000	1274.713867	300.864838
-15739.489362	5138.780000	1273.608398	-93.576973
-15739.489362	5138.780000	1272.503906	-29.817564
-15739.489362	5138.780000	1271.397461	99.501244
-15739.489362	5138.780000	1270.291992	73.734108
-15739.489362	5138.780000	1269.185547	-161.104599
-15739.489362	5138.780000	1268.080078	-169.085007
-15739.489362	5138.780000	1266.972656	-72.380920
-15739.489362	5138.780000	1265.866211	-53.472908
-15739.489362	5138.780000	1264.759766	2.859411
-15739.489362	5138.780000	1263.652344	-114.640083
-15739.489362	5138.780000	1262.544922	109.903854
-15739.489362	5138.780000	1261.436523	50.687290
-15739.489362	5138.780000	1260.329102	-6.330886
-15739.489362	5138.780000	1259.220703	85.149208
-15739.489362	5138.780000	1258.112305	-16.065601
-15739.489362	5138.780000	1257.003906	207.407959
-15739.489362	5138.780000	1255.895508	47.727596
-15739.489362	5138.780000	1254.786133	-30.545301
-15739.489362	5138.780000	1253.676758	241.103058
-15739.489362	5138.780000	1252.567383	113.633118
-15739.489362	5138.780000	1251.458008	142.490662
-15739.489362	5138.780000	1250.347656	157.157074
-15739.489362	5138.780000	1249.237305	141.502518
-15739.489362	5138.780000	1248.126953	191.028473
-15739.489362	5138.780000	1247.016602	340.937561
-15739.489362	5138.780000	1245.905273	351.025665
-15739.489362	5138.780000	1244.793945	407.652191
-15739.489362	5138.780000	1243.682617	500.421112
-15739.489362	5138.780000	1242.571289	457.827087
-15739.489362	5138.780000	1241.459961	672.269043
-15739.489362	5138.780000	1240.347656	765.340759
-15739.489362	5138.780000	1239.235352	639.728760
-15739.489362	5138.780000	1238.123047	605.417847
-15739.489362	5138.780000	1237.009766	648.826172
-15739.489362	5138.780000	1235.897461	874.402283
-15739.489362	5138.780000	1234.784180	879.892883
-15739.489362	5138.780000	1233.670898	981.974792
-15739.489362	5138.780000	1232.556641	1007.157776
-15739.489362	5138.780000	1231.443359	1088.288818
-15739.489362	5138.780000	1230.329102	982.923462
-15739.489362	5138.780000	1229.214844	1097.552734
-15739.489362	5138.780000	1228.099609	870.372986
-15739.489362	5138.780000	1226.985352	694.534058
-15739.489362	5138.780000	1225.870117	740.603088
-15739.489362	5138.780000	1224.754883	648.305542
-15739.489362	5138.780000	1223.639648	683.440796
-15739.489362	5138.780000	1222.523438	556.708252
-15739.489362	5138.780000	1221.408203	671.546570
-15739.489362	5138.780000	1220.291992	480.062073
-15739.489362	5138.780000	1219.174805	243.862717
-15739.489362	5138.780000	1218.058594	403.497620
-15739.489362	5138.780000	1216.941406	380.753662
-15739.489362	5138.780000	1215.824219	433.224548
-15739.489362	5138.780000	1214.707031	459.820984
-15739.489362	5138.780000	1213.589844	577.080627
-15739.489362	5138.780000	1212.471680	348.286835
-15739.489362	5138.780000	1211.353516	492.133881
-15739.489362	5138.780000	1210.235352	670.255188
-15739.489362	5138.780000	1209.117188	547.516479
-15739.489362	5138.780000	1207.998047	674.675781
-15739.489362	5138.780000	1206.878906	421.725281
-15739.489362	5138.780000	1205.759766	429.350037
-15739.489362	5138.780000	1204.640625	475.181519
-15739.489362	5138.780000	1203.520508	478.101715
-15739.489362	5138.780000	1202.401367	401.408905
-15739.489362	5138.780000	1201.281250	345.877228
-15739.489362	5138.780000	1200.160156	505.197754
-15739.489362	5138.780000	1199.040039	505.278076
-15739.489362	5138.780000	1197.918945	470.091583
-15739.489362	5138.780000	1196.797852	401.177399
-15739.489362	5138.780000	1195.676758	524.436462
-15739.489362	5138.780000	1194.555664	384.621368
-15739.489362	5138.780000	1193.433594	387.067200
-15739.489362	5138.780000	1192.311523	245.820923
-15739.489362	5138.780000	1191.189453	368.948547
-15739.489362	5138.780000	1190.066406	130.630875
-15739.489362	5138.780000	1188.944336	153.162415
-15739.489362	5138.780000	1187.821289	206.346573
-15739.489362	5138.780000	1186.698242	-134.883926
-15739.489362	5138.780000	1185.574219	-24.822929
-15739.489362	5138.780000	1184.451172	76.051712
-15739.489362	5138.780000	1183.327148	16.508158
-15739.489362	5138.780000	1182.203125	-20.309872
-15739.489362	5138.780000	1181.078125	3.395570
-15739.489362	5138.780000	1179.954102	-36.729275
-15739.489362	5138.780000	1178.829102	-15.195595
-15739.489362	5138.780000	1177.704102	11.548576
-15739.489362	5138.780000	1176.579102	8.840806
-15739.489362	5138.780000	1175.453125	19.731932
-15739.489362	5138.780000	1174.327148	133.947800
-15739.489362	5138.780000	1173.201172	-54.160355
-15739.489362	5138.780000	1172.075195	-4.074275
-15739.489362	5138.780000	1170.949219	189.096359
-15739.489362	5138.780000	1169.822266	97.898415
-15739.489362	5138.780000	1168.695313	52.279514
-15739.489362	5138.780000	1167.568359	240.309662
-15739.489362	5138.780000	1166.440430	91.924393
-15739.489362	5138.780000	1165.313477	181.030075
-15739.489362	5138.780000	1164.185547	301.842804
-15739.489362	5138.780000	1163.057617	337.775055
-15739.489362	5138.780000	1161.928711	154.189133
-15739.489362	5138.780000	1160.800781	207.744431
-15739.489362	5138.780000	1159.671875	30.967482
-15739.489362	5138.780000	1158.541992	15.087455
-15739.489362	5138.780000	1157.413086	27.891832
-15739.489362	5138.780000	1156.283203	-175.330276
-15739.489362	5138.780000	1155.154297	-108.729774
-15739.489362	5138.780000	1154.023438	51.063519
-15739.489362	5138.780000	1152.893555	29.570517
-15739.489362	5138.780000	1151.763672	0.425851
-15739.489362	5138.780000	1150.632813	-102.407784
-15739.489362	5138.780000	1149.501953	1.179657
-15739.489362	5138.780000	1148.370117	-35.184128
-15739.489362	5138.780000	1147.239258	10.551381
-15739.489362	5138.780000	1146.107422	-5.295680
-15739.489362	5138.780000	1144.975586	26.279343
-15739.489362	5138.780000	1143.843750	-79.280411
-15739.489362	5138.780000	1142.710938	-71.396126
-15739.489362	5138.780000	1141.578125	42.122459
-15739.489362	5138.780000	1140.445313	132.386459
-15739.489362	5138.780000	1139.312500	165.003113
-15739.489362	5138.780000	1138.178711	29.651737
-15739.489362	5138.780000	1137.045898	92.135178
-15739.489362	5138.780000	1135.912109	176.966583
-15739.489362	5138.780000	1134.777344	280.337097
-15739.489362	5138.780000	1133.643555	395.010651
-15739.489362	5138.780000	1132.508789	234.924103
-15739.489362	5138.780000	1131.374023	374.590179
-15739.489362	5138.780000	1130.239258	332.198181
-15739.489362	5138.780000	1129.104492	263.276245
-15739.489362	5138.780000	1127.968750	229.997711
-15739.489362	5138.780000	1126.833008	230.645905
-15739.489362	5138.780000	1125.697266	266.115234
-15739.489362	5138.780000	1124.560547	110.190262
-15739.489362	5138.780000	1123.424805	42.164627
-15739.489362	5138.780000	1122.288086	3.195547
-15739.489362	5138.780000	1121.151367	-0.010658
-15739.489362	5138.780000	1120.013672	73.590302
-15739.489362	5138.780000	1118.876953	34.830322
-15739.489362	5138.780000	1117.739258	124.830330
-15739.489362	5138.780000	1116.601563	32.599487
-15739.489362	5138.780000	1115.462891	150.746460
-15739.489362	5138.780000	1114.324219	-25.019339
-15739.489362	5138.780000	1113.186523	171.834824
-15739.489362	5138.780000	1112.046875	-81.092453
-15739.489362	5138.780000	1110.908203	-63.038654
-15739.489362	5138.780000	1109.769531	-112.959587
-15739.489362	5138.780000	1108.629883	-80.473259
-15739.489362	5138.780000	1107.490234	-75.514633
-15739.489362	5138.780000	1106.349609	-8.359961
-15739.489362	5138.780000	1105.209961	-18.919931
-15739.489362	5138.780000	1104.069336	16.374130
-15739.489362	5138.780000	1102.928711	-135.755417
-15739.489362	5138.780000	1101.787109	-158.528244
-15739.489362	5138.780000	1100.646484	-5.429074
-15739.489362	5138.780000	1099.504883	-96.913818
-15739.489362	5138.780000	1098.363281	-26.506090
-15739.489362	5138.780000	1097.221680	61.544037
-15739.489362	5138.780000	1096.079102	77.757019
-15739.489362	5138.780000	1094.936523	172.904236
-15739.489362	5138.780000	1093.793945	38.993431
-15739.489362	5138.780000	1092.651367	167.653473
-15739.489362	5138.780000	1091.507813	121.087357
-15739.489362	5138.780000	1090.364258	91.483551
-15739.489362	5138.780000	1089.220703	44.498260
-15739.489362	5138.780000	1088.077148	-50.489639
-15739.489362	5138.780000	1086.933594	-131.064163
-15739.489362	5138.780000	1085.789063	-54.845680
-15739.489362	5138.780000	1084.644531	-87.472717
-15739.489362	5138.780000	1083.499023	72.459717
-15739.489362	5138.780000	1082.354492	-14.374083
-15739.489362	5138.780000	1081.208984	62.345642
-15739.489362	5138.780000	1080.063477	-22.560556
-15739.489362	5138.780000	1078.917969	-45.028233
-15739.489362	5138.780000	1077.771484	-121.426918
-15739.489362	5138.780000	1076.625977	-188.423859
-15739.489362	5138.780000	1075.479492	-121.450478
-15739.489362	5138.780000	1074.332031	-50.716843
-15739.489362	5138.780000	1073.185547	1.609982
-15739.489362	5138.780000	1072.038086	12.364029
-15739.489362	5138.780000	1070.890625	-250.211075
-15739.489362	5138.780000	1069.743164	1.791904
-15739.489362	5138.780000	1068.594727	-82.868797
-15739.489362	5138.780000	1067.447266	136.019867
-15739.489362	5138.780000	1066.298828	141.560272
-15739.489362	5138.780000	1065.149414	67.518967
-15739.489362	5138.780000	1064.000977	68.090591
-15739.489362	5138.780000	1062.851563	224.639114
-15739.489362	5138.780000	1061.702148	132.728668
-15739.489362	5138.780000	1060.552734	124.533119
-15739.489362	5138.780000	1059.402344	225.130844
-15739.489362	5138.780000	1058.252930	166.602493
-15739.489362	5138.780000	1057.102539	221.518799
-15739.489362	5138.780000	1055.951172	427.297729
-15739.489362	5138.780000	1054.800781	329.875519
-15739.489362	5138.780000	1053.649414	563.104065
-15739.489362	5138.780000	1052.498047	579.432434
-15739.489362	5138.780000	1051.346680	378.320740
-15739.489362	5138.780000	1050.194336	552.620544
-15739.489362	5138.780000	1049.042969	567.141418
-15739.489362	5138.780000	1047.890625	432.223297
-15739.489362	5138.780000	1046.738281	729.251953
-15739.489362	5138.780000	1045.584961	613.157104
-15739.489362	5138.780000	1044.431641	747.066711
-15739.489362	5138.780000	1043.278320	798.943726
-15739.489362	5138.780000	1042.125000	645.598816
-15739.489362	5138.780000	1040.971680	507.735138
-15739.489362	5138.780000	1039.817383	587.953186
-15739.489362	5138.780000	1038.663086	530.773682
-15739.489362	5138.780000	1037.508789	364.352936
-15739.489362	5138.780000	1036.353516	322.386078
-15739.489362	5138.780000	1035.198242	345.334351
-15739.489362	5138.780000	1034.042969	263.629486
-15739.489362	5138.780000	1032.887695	325.379913
-15739.489362	5138.780000	1031.732422	577.065247
-15739.489362	5138.780000	1030.576172	272.850281
-15739.489362	5138.780000	1029.419922	417.090820
-15739.489362	5138.780000	1028.263672	170.923691
-15739.489362	5138.780000	1027.106445	235.670837
-15739.489362	5138.780000	1025.949219	59.847374
-15739.489362	5138.780000	1024.792969	164.010513
-15739.489362	5138.780000	1023.634766	-33.678001
-15739.489362	5138.780000	1022.477539	98.527504
-15739.489362	5138.780000	1021.319336	-69.097542
-15739.489362	5138.780000	1020.161133	25.754108
-15739.489362	5138.780000	1019.002930	132.625519
-15739.489362	5138.780000	1017.843750	-76.746521
-15739.489362	5138.780000	1016.684570	-67.690445
-15739.489362	5138.780000	1015.525391	-65.631927
-15739.489362	5138.780000	1014.366211	-35.824776
-15739.489362	5138.780000	1013.207031	-82.075531
-15739.489362	5138.780000	1012.046875	-60.759815
-15739.489362	5138.780000	1010.886719	150.914185
-15739.489362	5138.780000	1009.726563	13.683853
-15739.489362	5138.780000	1008.565430	18.892277
-15739.489362	5138.780000	1007.404297	-32.691143
-15739.489362	5138.780000	1006.243164	19.982525
-15739.489362	5138.780000	1005.082031	86.456360
-15739.489362	5138.780000	1003.920898	108.573250
-15739.489362	5138.780000	1002.758789	-30.380503
-15739.489362	5138.780000	1001.596680	122.402718
-15739.489362	5138.780000	1000.433594	9.864460
-15739.489362	5138.780000	999.271484	173.182480
-15739.489362	5138.780000	998.108398	183.550278
-15739.489362	5138.780000	996.945313	-41.746899
-15739.489362	5138.780000	995.782227	119.669960
-15739.489362	5138.780000	994.618164	251.965942
-15739.489362	5138.780000	993.454102	305.387268
-15739.489362	5138.780000	992.290039	327.445740
-15739.489362	5138.780000	991.125977	452.718658
-15739.489362	5138.780000	989.960938	346.589783
-15739.489362	5138.780000	988.796875	523.695190
-15739.489362	5138.780000	987.630859	302.229828
-15739.489362	5138.780000	986.465820	281.319305
-15739.489362	5138.780000	985.300781	425.370789
-15739.489362	5138.780000	984.134766	185.135101
-15739.489362	5138.780000	982.968750	291.833282
-15739.489362	5138.780000	981.801758	194.228790
-15739.489362	5138.780000	980.635742	281.382874
-15739.489362	5138.780000	979.468750	101.568466
-15739.489362	5138.780000	978.301758	74.393379
-15739.489362	5138.780000	977.133789	158.925720
-15739.489362	5138.780000	975.966797	72.136986
-15739.489362	5138.780000	974.798828	92.254089
-15739.489362	5138.780000	973.630859	-177.253754
-15739.489362	5138.780000	972.461914	-158.340988
-15739.489362	5138.780000	971.293945	91.289238
-15739.489362	5138.780000	970.125000	-61.240810
-15739.489362	5138.780000	968.956055	1.392636
-15739.489362	5138.780000	967.786133	-171.297150
-15739.489362	5138.780000	966.617188	-142.935074
-15739.489362	5138.780000	965.447266	-61.333576
-15739.489362	5138.780000	964.276367	58.101131
-15739.489362	5138.780000	963.106445	56.912231
-15739.489362	5138.780000	961.935547	-15.622024
-15739.489362	5138.780000	960.764648	-34.818363
-15739.489362	5138.780000	959.593750	-17.258732
-15739.489362	5138.780000	958.422852	-77.182297
-15739.489362	5138.780000	957.250977	15.003137
-15739.489362	5138.780000	956.079102	55.311954
-15739.489362	5138.780000	954.907227	89.865334
-15739.489362	5138.780000	953.734375	-16.131302
-15739.489362	5138.780000	952.562500	121.637024
-15739.489362	5138.780000	951.389648	-86.817398
-15739.489362	5138.780000	950.215820	-55.254299
-15739.489362	5138.780000	949.042969	14.607212
-15739.489362	5138.780000	947.869141	-120.871063
-15739.489362	5138.780000	946.695313	-80.229301
-15739.489362	5138.780000	945.521484	-20.125628
-15739.489362	5138.780000	944.346680	45.425495
-15739.489362	5138.780000	943.172852	90.276413
-15739.489362	5138.780000	941.998047	54.615902
-15739.489362	5138.780000	940.822266	17.563105
-15739.489362	5138.780000	939.647461	-46.585190
-15739.489362	5138.780000	938.471680	-86.124702
-15739.489362	5138.780000	937.295898	34.162331
-15739.489362	5138.780000	936.119141	90.126556
-15739.489362	5138.780000	934.943359	54.944756
-15739.489362	5138.780000	933.766602	215.320099
-15739.489362	5138.780000	932.589844	35.503624
-15739.489362	5138.780000	931.413086	244.826416
-15739.489362	5138.780000	930.235352	382.850952
-15739.489362	5138.780000	929.057617	0.700339
-15739.489362	5138.780000	927.879883	200.941055
-15739.489362	5138.780000	926.702148	61.085838
-15739.489362	5138.780000	925.523438	236.783966
-15739.489362	5138.780000	924.344727	243.581512
-15739.489362	5138.780000	923.166016	376.950165
-15739.489362	5138.780000	921.987305	208.246414
-15739.489362	5138.780000	920.807617	239.410507
-15739.489362	5138.780000	919.627930	243.864502
-15739.489362	5138.780000	919.497070	-19.758963
-15739.489362	5138.780000	918.331055	57.953037
-15739.489362	5138.780000	917.165039	-59.647095
-15739.489362	5138.780000	915.999023	120.053940
-15739.489362	5138.780000	914.833008	-6.420400
-15739.489362	5138.780000	913.666016	55.634655
-15739.489362	5138.780000	912.499023	64.435211
-15739.489362	5138.780000	911.332031	144.147308
-15739.489362	5138.780000	910.165039	186.133224
-15739.489362	5138.780000	908.997070	190.418976
-15739.489362	5138.780000	907.830078	181.390060
-15739.489362	5138.780000	906.661133	438.135132
-15739.489362	5138.780000	905.493164	479.957123
-15739.489362	5138.780000	904.325195	293.707214
-15739.489362	5138.780000	903.156250	322.227661
-15739.489362	5138.780000	901.987305	140.478897
-15739.489362	5138.780000	900.818359	113.667900
-15739.489362	5138.780000	899.648438	164.276566
-15739.489362	5138.780000	898.478516	416.111023
-15739.489362	5138.780000	897.308594	316.236694
-15739.489362	5138.780000	896.138672	534.737488
-15739.489362	5138.780000	894.968750	342.007935
-15739.489362	5138.780000	893.797852	469.775909
-15739.489362	5138.780000	892.626953	522.351563
-15739.489362	5138.780000	891.456055	572.678162
-15739.489362	5138.780000	890.284180	642.845825
-15739.489362	5138.780000	889.113281	653.344116
-15739.489362	5138.780000	887.941406	670.445129
-15739.489362	5138.780000	886.768555	634.551025
-15739.489362	5138.780000	885.596680	567.755981
-15739.489362	5138.780000	884.423828	492.146423
-15739.489362	5138.780000	883.250977	495.958282
-15739.489362	5138.780000	882.078125	424.765778
-15739.489362	5138.780000	880.905273	287.436005
-15739.489362	5138.780000	879.731445	260.369476
-15739.489362	5138.780000	878.557617	253.131332
-15739.489362	5138.780000	877.383789	250.283035
-15739.489362	5138.780000	876.209961	223.181915
-15739.489362	5138.780000	875.035156	339.248962
-15739.489362	5138.780000	873.860352	228.420425
-15739.489362	5138.780000	872.685547	179.266541
-15739.489362	5138.780000	871.510742	244.581177
-15739.489362	5138.780000	870.334961	195.406296
-15739.489362	5138.780000	869.159180	232.047379
-15739.489362	5138.780000	867.983398	136.655716
-15739.489362	5138.780000	866.807617	124.864006
-15739.489362	5138.780000	865.630859	306.577423
-15739.489362	5138.780000	864.454102	169.396423
-15739.489362	5138.780000	863.277344	293.831665
-15739.489362	5138.780000	862.100586	73.154510
-15739.489362	5138.780000	860.922852	215.098175
-15739.489362	5138.780000	859.745117	146.067871
-15739.489362	5138.780000	858.567383	171.488281
-15739.489362	5138.780000	857.389648	104.648376
-15739.489362	5138.780000	856.210938	231.017593
-15739.489362	5138.780000	855.032227	245.368393
-15739.489362	5138.780000	853.853516	101.682106
-15739.489362	5138.780000	852.674805	6.304310
-15739.489362	5138.780000	851.495117	-10.082736
-15739.489362	5138.780000	850.315430	-140.532669
-15739.489362	5138.780000	849.135742	-176.662827
-15739.489362	5138.780000	847.956055	94.123352
-15739.489362	5138.780000	846.775391	60.108624
-15739.489362	5138.780000	845.595703	6.360833
-15739.489362	5138.780000	844.415039	-34.239937
-15739.489362	5138.780000	843.233398	10.584434
-15739.489362	5138.780000	842.052734	-143.930130
-15739.489362	5138.780000	840.871094	43.176403
-15739.489362	5138.780000	839.689453	-19.381878
-15739.489362	5138.780000	838.506836	-132.275482
-15739.489362	5138.780000	837.325195	65.583206
-15739.489362	5138.780000	836.142578	-141.406464
-15739.489362	5138.780000	834.959961	-15.856533
-15739.489362	5138.780000	833.777344	89.935013
-15739.489362	5138.780000	832.593750	27.303387
-15739.489362	5138.780000	831.410156	122.064377
-15739.489362	5138.780000	830.226563	194.906281
-15739.489362	5138.780000	829.042969	226.175644
-15739.489362	5138.780000	827.858398	145.991760
-15739.489362	5138.780000	826.673828	113.867744
-15739.489362	5138.780000	825.489258	238.961655
-15739.489362	5138.780000	824.304688	-66.132957
-15739.489362	5138.780000	823.120117	303.372833
-15739.489362	5138.780000	821.934570	-32.213341
-15739.489362	5138.780000	820.749023	40.336620
-15739.489362	5138.780000	819.562500	14.664323
-15739.489362	5138.780000	818.376953	-194.234711
-15739.489362	5138.780000	817.190430	-4.022436
-15739.489362	5138.780000	816.003906	77.076195
-15739.489362	5138.780000	814.817383	-194.997604
-15739.489362	5138.780000	813.629883	-116.125771
-15739.489362	5138.780000	812.442383	-48.208019
-15739.489362	5138.780000	811.254883	-19.558016
-15739.489362	5138.780000	810.067383	-97.664223
-15739.489362	5138.780000	808.878906	28.914566
-15739.489362	5138.780000	807.690430	-77.526947
-15739.489362	5138.780000	806.501953	53.290359
-15739.489362	5138.780000	805.313477	-138.038010
-15739.489362	5138.780000	804.124023	-18.196909
-15739.489362	5138.780000	802.934570	-20.247021
-15739.489362	5138.780000	801.745117	192.974564
-15739.489362	5138.780000	800.555664	190.822128
-15739.489362	5138.780000	799.365234	97.340225
-15739.489362	5138.780000	798.175781	-52.643799
-15739.489362	5138.780000	796.985352	73.369415
-15739.489362	5138.780000	795.793945	179.748749
-15739.489362	5138.780000	794.603516	16.717216
-15739.489362	5138.780000	793.412109	-254.856827
-15739.489362	5138.780000	792.220703	-92.119751
-15739.489362	5138.780000	791.028320	213.785263
-15739.489362	5138.780000	789.836914	11.692792
-15739.489362	5138.780000	788.644531	-44.971413
-15739.489362	5138.780000	787.452148	-162.385849
-15739.489362	5138.780000	786.258789	84.592346
-15739.489362	5138.780000	785.066406	64.713966
-15739.489362	5138.780000	783.873047	-87.436249
-15739.489362	5138.780000	782.679688	76.906647
-15739.489362	5138.780000	781.485352	61.279961
-15739.489362	5138.780000	780.291992	130.123184
-15739.489362	5138.780000	779.097656	205.403641
-15739.489362	5138.780000	777.903320	42.387379
-15739.489362	5138.780000	776.708008	273.489532
-15739.489362	5138.780000	775.512695	164.579712
-15739.489362	5138.780000	774.318359	343.544281
-15739.489362	5138.780000	773.122070	277.874878
-15739.489362	5138.780000	771.926758	101.858818
-15739.489362	5138.780000	770.730469	165.979645
-15739.489362	5138.780000	769.534180	301.404968
-15739.489362	5138.780000	768.337891	326.467682
-15739.489362	5138.780000	767.141602	265.016205
-15739.489362	5138.780000	765.944336	430.486938
-15739.489362	5138.780000	764.747070	280.374786
-15739.489362	5138.780000	763.549805	424.096527
-15739.489362	5138.780000	762.351563	682.197876
-15739.489362	5138.780000	761.154297	305.274536
-15739.489362	5138.780000	759.956055	444.473602
-15739.489362	5138.780000	758.757813	341.820404
-15739.489362	5138.780000	757.558594	351.393677
-15739.489362	5138.780000	756.359375	322.087982
-15739.489362	5138.780000	755.160156	545.150269
-15739.489362	5138.780000	753.960938	448.880157
-15739.489362	5138.780000	752.761719	315.956268
-15739.489362	5138.780000	751.561523	510.740448
-15739.489362	5138.780000	750.361328	287.255280
-15739.489362	5138.780000	749.160156	410.774628
-15739.489362	5138.780000	747.959961	167.935013
-15739.489362	5138.780000	746.758789	297.812531
-15739.489362	5138.780000	745.557617	184.237595
-15739.489362	5138.780000	744.356445	415.177856
-15739.489362	5138.780000	743.154297	153.011566
-15739.489362	5138.780000	741.952148	321.367065
-15739.489362	5138.780000	740.750000	70.009903
-15739.489362	5138.780000	739.547852	270.504425
-15739.489362	5138.780000	738.344727	122.427963
-15739.489362	5138.780000	737.142578	290.491791
-15739.489362	5138.780000	735.939453	118.742264
-15739.489362	5138.780000	734.735352	366.190918
-15739.489362	5138.780000	733.532227	297.575562
-15739.489362	5138.780000	732.328125	293.409210
-15739.489362	5138.780000	731.124023	366.539215
-15739.489362	5138.780000	729.918945	108.842598
-15739.489362	5138.780000	728.714844	203.373856
-15739.489362	5138.780000	727.509766	145.396667
-15739.489362	5138.780000	726.303711	254.823990
-15739.489362	5138.780000	725.098633	72.313118
-15739.489362	5138.780000	723.892578	224.539658
-15739.489362	5138.780000	722.686523	338.049530
-15739.489362	5138.780000	721.480469	-80.396484
-15739.489362	5138.780000	720.274414	170.276764
-15739.489362	5138.780000	719.067383	227.867874
-15739.489362	5138.780000	717.860352	-27.525322
-15739.489362	5138.780000	716.653320	25.715372
-15739.489362	5138.780000	715.445313	162.446075
-15739.489362	5138.780000	714.238281	132.007309
-15739.489362	5138.780000	713.030273	152.935501
-15739.489362	5138.780000	711.821289	17.518675
-15739.489362	5138.780000	710.613281	16.974535
-15739.489362	5138.780000	709.404297	-7.151891
-15739.489362	5138.780000	708.195313	37.161388
-15739.489362	5138.780000	706.986328	55.744522
-15739.489362	5138.780000	705.776367	33.640919
-15739.489362	5138.780000	704.566406	103.454720
-15739.489362	5138.780000	703.356445	-74.797379
-15739.489362	5138.780000	702.146484	-34.996147
-15739.489362	5138.780000	700.935547	-93.554321
-15739.489362	5138.780000	699.724609	-124.352959
-15739.489362	5138.780000	698.513672	-71.870445
-15739.489362	5138.780000	697.302734	-139.048080
-15739.489362	5138.780000	696.090820	-63.179539
-15739.489362	5138.780000	694.878906	4.078880
-15739.489362	5138.780000	693.666992	-97.342010
-15739.489362	5138.780000	692.455078	18.893894
-15739.489362	5138.780000	691.242188	-46.299194
-15739.489362	5138.780000	690.029297	-245.882095
-15739.489362	5138.780000	688.816406	-238.565552
-15739.489362	5138.780000	687.602539	-73.520386
-15739.489362	5138.780000	686.389648	-34.346813
-15739.489362	5138.780000	685.175781	-39.985287
-15739.489362	5138.780000	683.960938	60.874870
-15739.489362	5138.780000	682.747070	61.533051
-15739.489362	5138.780000	681.532227	91.968575
-15739.489362	5138.780000	680.317383	64.859596
-15739.489362	5138.780000	679.102539	31.338215
-15739.489362	5138.780000	677.886719	44.617233
-15739.489362	5138.780000	676.670898	153.616135
-15739.489362	5138.780000	675.455078	119.982674
-15739.489362	5138.780000	674.239258	99.090157
-15739.489362	5138.780000	673.022461	265.316376
-15739.489362	5138.780000	671.805664	269.841705
-15739.489362	5138.780000	670.588867	382.744568
-15739.489362	5138.780000	669.372070	310.660034
-15739.489362	5138.780000	668.154297	289.565460
-15739.489362	5138.780000	666.936523	232.328842
-15739.489362	5138.780000	665.718750	591.385071
-15739.489362	5138.780000	664.500977	589.251160
-15739.489362	5138.780000	663.282227	565.852539
-15739.489362	5138.780000	662.063477	478.749817
-15739.489362	5138.780000	660.844727	584.770447
-15739.489362	5138.780000	659.625000	493.388733
-15739.489362	5138.780000	658.405273	569.595032
-15739.489362	5138.780000	657.185547	232.169983
-15739.489362	5138.780000	655.965820	304.094482
-15739.489362	5138.780000	654.745117	490.432617
-15739.489362	5138.780000	653.525391	360.855347
-15739.489362	5138.780000	652.303711	316.060760
-15739.489362	5138.780000	651.083008	158.969864
-15739.489362	5138.780000	649.861328	334.467041
-15739.489362	5138.780000	648.640625	465.389618
-15739.489362	5138.780000	647.417969	284.984161
-15739.489362	5138.780000	646.196289	494.125153
-15739.489362	5138.780000	644.973633	453.413666
-15739.489362	5138.780000	643.750977	313.243713
-15739.489362	5138.780000	642.528320	391.000610
-15739.489362	5138.780000	641.305664	343.910431
-15739.489362	5138.780000	640.082031	491.354462
-15739.489362	5138.780000	638.858398	590.085266
-15739.489362	5138.780000	637.634766	754.274292
-15739.489362	5138.780000	636.410156	736.626953
-15739.489362	5138.780000	635.185547	518.246521
-15739.489362	5138.780000	633.960938	709.732239
-15739.489362	5138.780000	632.736328	708.929321
-15739.489362	5138.780000	631.510742	520.182861
-15739.489362	5138.780000	630.285156	553.150940
-15739.489362	5138.780000	629.059570	833.019592
-15739.489362	5138.780000	627.833984	688.615723
-15739.489362	5138.780000	626.607422	645.514709
-15739.489362	5138.780000	625.380859	579.210754
-15739.489362	5138.780000	624.154297	628.898682
-15739.489362	5138.780000	622.927734	621.623047
-15739.489362	5138.780000	621.700195	498.396027
-15739.489362	5138.780000	620.472656	499.543610
-15739.489362	5138.780000	619.245117	412.180817
-15739.489362	5138.780000	618.016602	577.621338
-15739.489362	5138.780000	616.788086	570.277283
-15739.489362	5138.780000	615.559570	495.541046
-15739.489362	5138.780000	614.331055	612.395630
-15739.489362	5138.780000	613.101563	634.472168
-15739.489362	5138.780000	611.872070	572.353699
-15739.489362	5138.780000	610.642578	630.169983
-15739.489362	5138.780000	609.413086	721.605164
-15739.489362	5138.780000	608.182617	367.160492
-15739.489362	5138.780000	606.952148	523.768799
-15739.489362	5138.780000	605.721680	428.051758
-15739.489362	5138.780000	604.491211	536.226013
-15739.489362	5138.780000	603.259766	427.922577
-15739.489362	5138.780000	602.028320	193.614319
-15739.489362	5138.780000	600.796875	501.271698
-15739.489362	5138.780000	599.564453	183.040421
-15739.489362	5138.780000	598.332031	320.505676
-15739.489362	5138.780000	597.099609	287.895721
-15739.489362	5138.780000	595.867188	286.772766
-15739.489362	5138.780000	594.633789	224.801147
-15739.489362	5138.780000	593.400391	221.587494
-15739.489362	5138.780000	592.166992	19.144253
-15739.489362	5138.780000	590.933594	9.684042
-15739.489362	5138.780000	589.699219	-121.357353
-15739.489362	5138.780000	588.464844	126.999771
-15739.489362	5138.780000	587.230469	92.378204
-15739.489362	5138.780000	585.995117	172.992035
-15739.489362	5138.780000	584.760742	132.097794
-15739.489362	5138.780000	583.525391	273.402283
-15739.489362	5138.780000	582.289063	92.237236
-15739.489362	5138.780000	581.053711	130.936325
-15739.489362	5138.780000	579.817383	-75.223335
-15739.489362	5138.780000	578.581055	70.209579
-15739.489362	5138.780000	577.343750	-31.247107
-15739.489362	5138.780000	576.107422	241.701111
-15739.489362	5138.780000	574.870117	129.812805
-15739.489362	5138.780000	573.631836	-145.077316
-15739.489362	5138.780000	572.394531	-74.985413
-15739.489362	5138.780000	571.156250	89.115707
-15739.489362	5138.780000	569.917969	102.740746
-15739.489362	5138.780000	568.679688	30.736023
-15739.489362	5138.780000	567.440430	38.124249
-15739.489362	5138.780000	566.202148	164.528793
-15739.489362	5138.780000	564.961914	121.814453
-15739.489362	5138.780000	563.722656	212.694717
-15739.489362	5138.780000	562.482422	207.572845
-15739.489362	5138.780000	561.243164	77.310310
-15739.489362	5138.780000	560.001953	-19.516062
-15739.489362	5138.780000	558.761719	44.270866
-15739.489362	5138.780000	557.520508	-25.373857
-15739.489362	5138.780000	556.279297	-167.918243
-15739.489362	5138.780000	555.038086	-108.258331
-15739.489362	5138.780000	553.795898	-6.941716
-15739.489362	5138.780000	552.554688	208.910339
-15739.489362	5138.780000	551.311523	22.775227
-15739.489362	5138.780000	550.069336	207.335495
-15739.489362	5138.780000	548.826172	175.354874
-15739.489362	5138.780000	547.583984	-27.241253
-15739.489362	5138.780000	546.339844	-113.216576
-15739.489362	5138.780000	545.096680	-284.422058
-15739.489362	5138.780000	543.852539	-83.257050
-15739.489362	5138.780000	542.608398	51.305157
-15739.489362	5138.780000	541.364258	42.388760
-15739.489362	5138.780000	540.119141	39.731232
-15739.489362	5138.780000	538.875000	-16.929003
-15739.489362	5138.780000	537.628906	115.508804
-15739.489362	5138.780000	536.383789	46.436260
-15739.489362	5138.780000	535.137695	8.562477
-15739.489362	5138.780000	533.892578	111.910751
-15739.489362	5138.780000	532.645508	-75.372177
-15739.489362	5138.780000	531.399414	125.531670
-15739.489362	5138.780000	530.152344	-78.229118
-15739.489362	5138.780000	528.905273	43.803185
-15739.489362	5138.780000	527.658203	-37.443886
-15739.489362	5138.780000	526.410156	38.950539
-15739.489362	5138.780000	525.163086	-56.731022
-15739.489362	5138.780000	523.914063	-83.955994
-15739.489362	5138.780000	522.666016	-111.148277
-15739.489362	5138.780000	521.416992	-11.932795
-15739.489362	5138.780000	520.167969	-18.377651
-15739.489362	5138.780000	518.918945	118.088898
-15739.489362	5138.780000	517.669922	-116.088409
-15739.489362	5138.780000	516.419922	10.025678
-15739.489362	5138.780000	515.169922	-236.412613
-15739.489362	5138.780000	513.919922	-13.045607
-15739.489362	5138.780000	512.668945	-135.224335
-15739.489362	5138.780000	511.417969	234.894730
-15739.489362	5138.780000	510.166992	234.742310
-15739.489362	5138.780000	508.916016	-9.338859
-15739.489362	5138.780000	507.664063	137.331284
-15739.489362	5138.780000	506.412109	73.175041
-15739.489362	5138.780000	505.160156	199.124802
-15739.489362	5138.780000	503.907227	252.734482
-15739.489362	5138.780000	502.655273	231.986191
-15739.489362	5138.780000	501.402344	297.966370
-15739.489362	5138.780000	500.148438	184.335678
-15739.489362	5138.780000	498.895508	227.603317
-15739.489362	5138.780000	497.641602	126.420952
-15739.489362	5138.780000	496.387695	472.921143
-15739.489362	5138.780000	495.132813	233.543015
-15739.489362	5138.780000	493.878906	478.827667
-15739.489362	5138.780000	492.624023	433.323853
-15739.489362	5138.780000	491.368164	325.996307
-15739.489362	5138.780000	490.113281	416.528503
-15739.489362	5138.780000	488.857422	605.896606
-15739.489362	5138.780000	487.601563	434.710052
-15739.489362	5138.780000	486.344727	430.382935
-15739.489362	5138.780000	485.088867	489.863983
-15739.489362	5138.780000	483.832031	448.432556
-15739.489362	5138.780000	482.575195	322.614838
-15739.489362	5138.780000	481.317383	396.403381
-15739.489362	5138.780000	480.059570	605.896423
-15739.489362	5138.780000	478.801758	480.030334
-15739.489362	5138.780000	477.543945	592.700317
-15739.489362	5138.780000	476.285156	703.222656
-15739.489362	5138.780000	475.027344	538.242859
-15739.489362	5138.780000	473.767578	697.952148
-15739.489362	5138.780000	472.508789	732.221436
-15739.489362	5138.780000	471.249023	965.655457
-15739.489362	5138.780000	469.989258	862.146606
-15739.489362	5138.780000	468.729492	777.097046
-15739.489362	5138.780000	467.469727	940.387390
-15739.489362	5138.780000	466.208984	812.118591
-15739.489362	5138.780000	464.948242	644.842773
-15739.489362	5138.780000	463.686523	1010.901794
-15739.489362	5138.780000	462.425781	1067.033447
-15739.489362	5138.780000	461.164063	870.842529
-15739.489362	5138.780000	459.901367	1101.036743
-15739.489362	5138.780000	458.639648	1136.324341
-15739.489362	5138.780000	457.376953	1196.075195
-15739.489362	5138.780000	456.114258	1249.539795
-15739.489362	5138.780000	454.851563	1255.753540
-15739.489362	5138.780000	453.587891	1052.961426
-15739.489362	5138.780000	452.324219	1165.416016
-15739.489362	5138.780000	451.060547	1120.072998
-15739.489362	5138.780000	449.796875	947.724670
-15739.489362	5138.780000	448.532227	914.425476
-15739.489362	5138.780000	447.267578	944.395447
-15739.489362	5138.780000	446.002930	994.637329
-15739.489362	5138.780000	444.737305	952.671326
-15739.489362	5138.780000	443.471680	1110.878418
-15739.489362	5138.780000	442.206055	1133.937378
-15739.489362	5138.780000	440.940430	1167.008423
-15739.489362	5138.780000	439.673828	1044.593872
-15739.489362	5138.780000	438.407227	944.486389
-15739.489362	5138.780000	437.140625	1224.020264
-15739.489362	5138.780000	435.873047	1147.961304
-15739.489362	5138.780000	434.605469	1039.036499
-15739.489362	5138.780000	433.337891	1219.691772
-15739.489362	5138.780000	432.070313	1322.480347
-15739.489362	5138.780000	430.801758	1067.980591
-15739.489362	5138.780000	429.533203	1180.402954
-15739.489362	5138.780000	428.264648	1041.697021
-15739.489362	5138.780000	426.996094	931.292175
-15739.489362	5138.780000	425.726563	1044.805908
-15739.489362	5138.780000	424.457031	903.246094
-15739.489362	5138.780000	423.186523	928.457886
-15739.489362	5138.780000	421.916992	861.667297
-15739.489362	5138.780000	420.646484	1199.765381
-15739.489362	5138.780000	419.375977	1154.608521
-15739.489362	5138.780000	418.104492	1090.763184
-15739.489362	5138.780000	416.833008	1109.985229
-15739.489362	5138.780000	415.561523	1189.828247
-15739.489362	5138.780000	414.290039	1397.363037
-15739.489362	5138.780000	413.017578	1156.963135
-15739.489362	5138.780000	411.746094	997.556396
-15739.489362	5138.780000	410.472656	994.259460
-15739.489362	5138.780000	409.200195	1006.755371
-15739.489362	5138.780000	407.926758	969.977417
-15739.489362	5138.780000	406.653320	1101.316284
-15739.489362	5138.780000	405.379883	1095.997803
-15739.489362	5138.780000	404.105469	716.506836
-15739.489362	5138.780000	402.831055	1067.465576
-15739.489362	5138.780000	401.556641	879.835205
-15739.489362	5138.780000	400.282227	1012.313721
-15739.489362	5138.780000	399.006836	949.349609
-15739.489362	5138.780000	397.731445	1082.536011
-15739.489362	5138.780000	396.456055	1064.954712
-15739.489362	5138.780000	395.179688	892.614990
-15739.489362	5138.780000	393.903320	985.206848
-15739.489362	5138.780000	392.626953	1127.720947
-15739.489362	5138.780000	391.350586	929.057922
-15739.489362	5138.780000	390.073242	924.189087
-15739.489362	5138.780000	388.795898	1108.933716
-15739.489362	5138.780000	387.518555	1055.906982
-15739.489362	5138.780000	386.240234	1107.346680
-15739.489362	5138.780000	384.961914	973.753296
-15739.489362	5138.780000	383.683594	1124.680908
-15739.489362	5138.780000	382.405273	955.023193
-15739.489362	5138.780000	381.125977	1013.075989
-15739.489362	5138.780000	379.846680	942.781860
-15739.489362	5138.780000	378.567383	1191.007568
-15739.489362	5138.780000	377.287109	1058.121704
-15739.489362	5138.780000	376.006836	1114.255981
-15739.489362	5138.780000	374.726563	941.033203
-15739.489362	5138.780000	373.446289	1077.912231
-15739.489362	5138.780000	372.165039	1151.020020
-15739.489362	5138.780000	370.883789	1029.155273
-15739.489362	5138.780000	369.602539	926.395020
-15739.489362	5138.780000	368.320313	1088.893555
-15739.489362	5138.780000	367.039063	1070.573730
-15739.489362	5138.780000	365.755859	1121.584839
-15739.489362	5138.780000	364.473633	1191.520996
-15739.489362	5138.780000	363.190430	1205.663574
-15739.489362	5138.780000	361.907227	1093.488159
-15739.489362	5138.780000	360.624023	1125.135620
-15739.489362	5138.780000	359.340820	990.145203
-15739.489362	5138.780000	358.056641	1079.409668
-15739.489362	5138.780000	356.772461	991.943359
-15739.489362	5138.780000	355.487305	1017.778076
-15739.489362	5138.780000	354.202148	939.397705
-15739.489362	5138.780000	352.916992	793.065186
-15739.489362	5138.780000	351.631836	1039.657959
-15739.489362	5138.780000	350.346680	938.434875
-15739.489362	5138.780000	349.060547	829.506348
-15739.489362	5138.780000	347.774414	885.846008
-15739.489362	5138.780000	346.487305	652.825195
-15739.489362	5138.780000	345.200195	490.487915
-15739.489362	5138.780000	343.913086	527.380493
-15739.489362	5138.780000	342.625977	654.818970
-15739.489362	5138.780000	341.338867	462.863983
-15739.489362	5138.780000	340.050781	319.196289
-15739.489362	5138.780000	338.762695	541.077148
-15739.489362	5138.780000	337.473633	300.992340
-15739.489362	5138.780000	336.184570	408.181091
-15739.489362	5138.780000	334.895508	190.084793
-15739.489362	5138.780000	333.606445	198.623657
-15739.489362	5138.780000	332.317383	206.930984
-15739.489362	5138.780000	331.027344	108.597702
-15739.489362	5138.780000	329.736328	124.198517
-15739.489362	5138.780000	328.446289	-6.858427
-15739.489362	5138.780000	327.155273	-12.099089
-15739.489362	5138.780000	325.864258	128.450745
-15739.489362	5138.780000	324.573242	74.076538
-15739.489362	5138.780000	323.281250	85.149872
-15739.489362	5138.780000	321.989258	-234.838531
-15739.489362	5138.780000	320.697266	-32.871487
-15739.489362	5138.780000	319.405273	-21.906347
-15739.489362	5138.780000	318.112305	-9.853883
-15739.489362	5138.780000	316.819336	-74.718155
-15739.489362	5138.780000	315.526367	43.525040
-15739.489362	5138.780000	314.232422	-9.366832
-15739.489362	5138.780000	312.938477	90.645653
-15739.489362	5138.780000	311.644531	-104.364487
-15739.489362	5138.780000	310.349609	-24.792383
-15739.489362	5138.780000	309.054688	-82.390793
-15739.489362	5138.780000	307.759766	-43.412033
-15739.489362	5138.780000	306.464844	-283.460968
-15739.489362	5138.780000	305.168945	-97.674500
-15739.489362	5138.780000	303.873047	230.226517
-15739.489362	5138.780000	302.577148	69.374176
-15739.489362	5138.780000	301.281250	246.137833
-15739.489362	5138.780000	299.984375	343.141754
