#X		#Y		#Wave		#Intensity
10215.260106	5367.248333	1999.946289	407.066345
10215.260106	5367.248333	1998.981445	211.447647
10215.260106	5367.248333	1998.017578	46.280098
10215.260106	5367.248333	1997.052734	-54.022480
10215.260106	5367.248333	1996.088867	-52.325596
10215.260106	5367.248333	1995.124023	83.490669
10215.260106	5367.248333	1994.159180	-8.253637
10215.260106	5367.248333	1993.193359	-72.395081
10215.260106	5367.248333	1992.228516	79.219299
10215.260106	5367.248333	1991.262695	60.289253
10215.260106	5367.248333	1990.296875	-228.090363
10215.260106	5367.248333	1989.331055	171.829254
10215.260106	5367.248333	1988.365234	-115.876724
10215.260106	5367.248333	1987.398438	46.977741
10215.260106	5367.248333	1986.432617	-101.557472
10215.260106	5367.248333	1985.465820	128.524918
10215.260106	5367.248333	1984.499023	-152.958206
10215.260106	5367.248333	1983.532227	13.281192
10215.260106	5367.248333	1982.565430	-79.785034
10215.260106	5367.248333	1981.597656	-16.935026
10215.260106	5367.248333	1980.629883	48.580399
10215.260106	5367.248333	1979.662109	183.438675
10215.260106	5367.248333	1978.694336	71.510811
10215.260106	5367.248333	1977.726563	-0.677755
10215.260106	5367.248333	1976.758789	-104.741043
10215.260106	5367.248333	1975.790039	-50.635612
10215.260106	5367.248333	1974.821289	-119.754158
10215.260106	5367.248333	1973.852539	-48.054935
10215.260106	5367.248333	1972.883789	132.309616
10215.260106	5367.248333	1971.915039	-54.701466
10215.260106	5367.248333	1970.945313	-187.252121
10215.260106	5367.248333	1969.975586	-58.294716
10215.260106	5367.248333	1969.005859	55.959370
10215.260106	5367.248333	1968.036133	128.406296
10215.260106	5367.248333	1967.066406	-195.739243
10215.260106	5367.248333	1966.096680	140.552979
10215.260106	5367.248333	1965.125977	13.789597
10215.260106	5367.248333	1964.155273	-2.008074
10215.260106	5367.248333	1963.184570	208.809769
10215.260106	5367.248333	1962.213867	102.097183
10215.260106	5367.248333	1961.242188	-243.219376
10215.260106	5367.248333	1960.271484	24.390190
10215.260106	5367.248333	1959.299805	117.301949
10215.260106	5367.248333	1958.328125	-11.125674
10215.260106	5367.248333	1957.356445	-55.818283
10215.260106	5367.248333	1956.384766	93.821106
10215.260106	5367.248333	1955.412109	132.837326
10215.260106	5367.248333	1954.439453	4.754979
10215.260106	5367.248333	1953.467773	14.393501
10215.260106	5367.248333	1952.495117	92.872894
10215.260106	5367.248333	1951.521484	-118.507957
10215.260106	5367.248333	1950.548828	-219.244476
10215.260106	5367.248333	1949.575195	31.253702
10215.260106	5367.248333	1948.601563	60.722446
10215.260106	5367.248333	1947.627930	-15.342795
10215.260106	5367.248333	1946.654297	146.711731
10215.260106	5367.248333	1945.680664	-140.322449
10215.260106	5367.248333	1944.706055	-42.049286
10215.260106	5367.248333	1943.732422	70.920853
10215.260106	5367.248333	1942.757813	164.242859
10215.260106	5367.248333	1941.783203	201.144348
10215.260106	5367.248333	1940.807617	12.496328
10215.260106	5367.248333	1939.833008	240.609634
10215.260106	5367.248333	1938.857422	125.551720
10215.260106	5367.248333	1937.881836	-16.417313
10215.260106	5367.248333	1936.906250	-70.145714
10215.260106	5367.248333	1935.930664	37.791779
10215.260106	5367.248333	1934.955078	135.885941
10215.260106	5367.248333	1933.978516	52.754467
10215.260106	5367.248333	1933.001953	82.244827
10215.260106	5367.248333	1932.025391	74.997437
10215.260106	5367.248333	1931.048828	9.008255
10215.260106	5367.248333	1930.072266	43.332897
10215.260106	5367.248333	1929.094727	-105.831535
10215.260106	5367.248333	1928.118164	155.901138
10215.260106	5367.248333	1927.140625	209.672287
10215.260106	5367.248333	1926.163086	-91.086044
10215.260106	5367.248333	1925.184570	-37.343571
10215.260106	5367.248333	1924.207031	-135.165787
10215.260106	5367.248333	1923.228516	30.898275
10215.260106	5367.248333	1922.250000	11.208786
10215.260106	5367.248333	1921.271484	157.576828
10215.260106	5367.248333	1920.292969	-72.208908
10215.260106	5367.248333	1919.314453	-62.676067
10215.260106	5367.248333	1918.334961	68.866951
10215.260106	5367.248333	1917.355469	188.119614
10215.260106	5367.248333	1916.375977	-24.574469
10215.260106	5367.248333	1915.396484	-88.407768
10215.260106	5367.248333	1914.416992	8.729061
10215.260106	5367.248333	1913.436523	35.060886
10215.260106	5367.248333	1912.457031	15.012039
10215.260106	5367.248333	1911.476563	-39.206951
10215.260106	5367.248333	1910.496094	50.356960
10215.260106	5367.248333	1909.515625	203.201050
10215.260106	5367.248333	1908.534180	129.343170
10215.260106	5367.248333	1907.552734	-285.581726
10215.260106	5367.248333	1906.572266	-154.826157
10215.260106	5367.248333	1905.590820	70.800613
10215.260106	5367.248333	1904.608398	57.691422
10215.260106	5367.248333	1903.626953	68.881218
10215.260106	5367.248333	1902.644531	111.652351
10215.260106	5367.248333	1901.663086	98.390610
10215.260106	5367.248333	1900.680664	63.183891
10215.260106	5367.248333	1899.698242	10.911983
10215.260106	5367.248333	1898.714844	53.451042
10215.260106	5367.248333	1897.732422	-25.653393
10215.260106	5367.248333	1896.749023	70.252693
10215.260106	5367.248333	1895.765625	-25.948610
10215.260106	5367.248333	1894.782227	-58.984051
10215.260106	5367.248333	1893.798828	-198.967072
10215.260106	5367.248333	1892.814453	-32.871239
10215.260106	5367.248333	1891.831055	79.676941
10215.260106	5367.248333	1890.846680	-21.566420
10215.260106	5367.248333	1889.862305	-205.374985
10215.260106	5367.248333	1888.877930	21.064693
10215.260106	5367.248333	1887.892578	41.070919
10215.260106	5367.248333	1886.908203	-116.118858
10215.260106	5367.248333	1885.922852	105.158279
10215.260106	5367.248333	1884.937500	57.055828
10215.260106	5367.248333	1883.952148	115.622719
10215.260106	5367.248333	1882.965820	198.357758
10215.260106	5367.248333	1881.980469	60.404308
10215.260106	5367.248333	1880.994141	26.667074
10215.260106	5367.248333	1880.007813	53.472763
10215.260106	5367.248333	1879.021484	17.219046
10215.260106	5367.248333	1878.035156	19.683493
10215.260106	5367.248333	1877.047852	89.905731
10215.260106	5367.248333	1876.061523	-103.893959
10215.260106	5367.248333	1875.074219	162.324341
10215.260106	5367.248333	1874.086914	-55.731365
10215.260106	5367.248333	1873.098633	-65.627075
10215.260106	5367.248333	1872.111328	-68.310982
10215.260106	5367.248333	1871.123047	226.519196
10215.260106	5367.248333	1870.135742	-61.739788
10215.260106	5367.248333	1869.147461	-122.620789
10215.260106	5367.248333	1868.158203	9.897917
10215.260106	5367.248333	1867.169922	287.364777
10215.260106	5367.248333	1866.180664	339.894135
10215.260106	5367.248333	1865.192383	-28.117666
10215.260106	5367.248333	1864.203125	193.476746
10215.260106	5367.248333	1863.213867	-60.938190
10215.260106	5367.248333	1862.223633	5.908074
10215.260106	5367.248333	1861.234375	7.485516
10215.260106	5367.248333	1860.244141	-19.959209
10215.260106	5367.248333	1859.253906	189.110916
10215.260106	5367.248333	1858.263672	-89.441353
10215.260106	5367.248333	1857.273438	146.011444
10215.260106	5367.248333	1856.282227	125.606796
10215.260106	5367.248333	1855.291992	73.811356
10215.260106	5367.248333	1854.300781	-96.179497
10215.260106	5367.248333	1853.309570	276.344421
10215.260106	5367.248333	1852.317383	79.769447
10215.260106	5367.248333	1851.326172	-25.184441
10215.260106	5367.248333	1850.333984	110.826248
10215.260106	5367.248333	1849.342773	174.467911
10215.260106	5367.248333	1848.350586	187.454025
10215.260106	5367.248333	1847.357422	99.239075
10215.260106	5367.248333	1846.365234	-68.442894
10215.260106	5367.248333	1845.372070	86.493416
10215.260106	5367.248333	1844.379883	-42.691429
10215.260106	5367.248333	1843.386719	-65.984550
10215.260106	5367.248333	1842.393555	237.922348
10215.260106	5367.248333	1841.399414	-302.711700
10215.260106	5367.248333	1840.406250	102.066551
10215.260106	5367.248333	1839.412109	44.937645
10215.260106	5367.248333	1838.417969	-36.248940
10215.260106	5367.248333	1837.423828	48.422359
10215.260106	5367.248333	1836.429688	101.782158
10215.260106	5367.248333	1835.434570	-34.751553
10215.260106	5367.248333	1834.440430	78.593239
10215.260106	5367.248333	1833.445313	-103.593170
10215.260106	5367.248333	1832.450195	88.900223
10215.260106	5367.248333	1831.454102	144.419006
10215.260106	5367.248333	1830.458984	34.240307
10215.260106	5367.248333	1829.462891	108.882904
10215.260106	5367.248333	1828.466797	111.471947
10215.260106	5367.248333	1827.470703	162.013824
10215.260106	5367.248333	1826.474609	-82.554451
10215.260106	5367.248333	1825.478516	116.644585
10215.260106	5367.248333	1824.481445	99.916260
10215.260106	5367.248333	1823.484375	294.144653
10215.260106	5367.248333	1822.487305	80.770721
10215.260106	5367.248333	1821.490234	-70.240242
10215.260106	5367.248333	1820.493164	-5.569391
10215.260106	5367.248333	1819.495117	63.834560
10215.260106	5367.248333	1818.498047	82.889992
10215.260106	5367.248333	1817.500000	34.851280
10215.260106	5367.248333	1816.500977	-25.171799
10215.260106	5367.248333	1815.502930	-78.013664
10215.260106	5367.248333	1814.504883	46.253830
10215.260106	5367.248333	1813.505859	124.976723
10215.260106	5367.248333	1812.506836	-11.684321
10215.260106	5367.248333	1811.507813	45.441059
10215.260106	5367.248333	1810.508789	47.512474
10215.260106	5367.248333	1809.508789	123.680527
10215.260106	5367.248333	1808.508789	44.398922
10215.260106	5367.248333	1807.508789	82.248154
10215.260106	5367.248333	1806.508789	69.873161
10215.260106	5367.248333	1805.508789	131.550690
10215.260106	5367.248333	1804.508789	61.792873
10215.260106	5367.248333	1803.507813	-53.346531
10215.260106	5367.248333	1802.506836	-61.003574
10215.260106	5367.248333	1801.505859	272.743988
10215.260106	5367.248333	1800.504883	16.727570
10215.260106	5367.248333	1799.502930	-36.352661
10215.260106	5367.248333	1798.501953	206.464371
10215.260106	5367.248333	1797.500000	-42.303246
10215.260106	5367.248333	1796.498047	-62.006340
10215.260106	5367.248333	1795.496094	154.380814
10215.260106	5367.248333	1794.493164	110.761368
10215.260106	5367.248333	1793.491211	9.929554
10215.260106	5367.248333	1792.488281	214.202087
10215.260106	5367.248333	1791.485352	-148.787445
10215.260106	5367.248333	1790.482422	0.601874
10215.260106	5367.248333	1789.478516	52.243809
10215.260106	5367.248333	1788.475586	34.785217
10215.260106	5367.248333	1787.471680	-201.763992
10215.260106	5367.248333	1786.467773	-52.550472
10215.260106	5367.248333	1785.463867	198.944580
10215.260106	5367.248333	1784.459961	-4.230720
10215.260106	5367.248333	1783.455078	97.217171
10215.260106	5367.248333	1782.450195	127.242218
10215.260106	5367.248333	1781.445313	104.912018
10215.260106	5367.248333	1780.440430	-10.169687
10215.260106	5367.248333	1779.435547	-65.781990
10215.260106	5367.248333	1778.429688	75.912529
10215.260106	5367.248333	1777.424805	-219.775024
10215.260106	5367.248333	1776.418945	-113.778450
10215.260106	5367.248333	1775.413086	34.929482
10215.260106	5367.248333	1774.406250	-63.478935
10215.260106	5367.248333	1773.400391	-114.360489
10215.260106	5367.248333	1772.393555	-91.632507
10215.260106	5367.248333	1771.386719	-66.552887
10215.260106	5367.248333	1770.379883	-96.088303
10215.260106	5367.248333	1769.373047	7.269208
10215.260106	5367.248333	1768.365234	60.741638
10215.260106	5367.248333	1767.358398	-99.313858
10215.260106	5367.248333	1766.350586	82.208672
10215.260106	5367.248333	1765.342773	-101.534599
10215.260106	5367.248333	1764.334961	110.714233
10215.260106	5367.248333	1763.326172	-136.996735
10215.260106	5367.248333	1762.318359	-76.525146
10215.260106	5367.248333	1761.309570	-205.656769
10215.260106	5367.248333	1760.300781	-90.737381
10215.260106	5367.248333	1759.291016	83.335732
10215.260106	5367.248333	1758.282227	-48.158287
10215.260106	5367.248333	1757.272461	-134.634232
10215.260106	5367.248333	1756.262695	41.678341
10215.260106	5367.248333	1755.252930	0.163271
10215.260106	5367.248333	1754.243164	20.177034
10215.260106	5367.248333	1753.233398	-186.956131
10215.260106	5367.248333	1752.222656	140.565613
10215.260106	5367.248333	1751.211914	-102.017563
10215.260106	5367.248333	1750.201172	-20.574778
10215.260106	5367.248333	1749.190430	11.177166
10215.260106	5367.248333	1748.179688	217.816391
10215.260106	5367.248333	1747.167969	-3.383675
10215.260106	5367.248333	1746.156250	231.501740
10215.260106	5367.248333	1745.144531	107.213829
10215.260106	5367.248333	1744.132813	77.436157
10215.260106	5367.248333	1743.121094	-205.014908
10215.260106	5367.248333	1742.108398	32.035374
10215.260106	5367.248333	1741.095703	37.652397
10215.260106	5367.248333	1740.083008	-70.028137
10215.260106	5367.248333	1739.070313	-321.615662
10215.260106	5367.248333	1738.057617	-75.338730
10215.260106	5367.248333	1737.043945	-17.870369
10215.260106	5367.248333	1736.030273	-83.066040
10215.260106	5367.248333	1735.016602	-20.928743
10215.260106	5367.248333	1734.002930	-34.264217
10215.260106	5367.248333	1732.989258	-219.661423
10215.260106	5367.248333	1731.974609	-58.607876
10215.260106	5367.248333	1730.959961	45.827106
10215.260106	5367.248333	1729.945313	-80.636841
10215.260106	5367.248333	1728.930664	-16.301577
10215.260106	5367.248333	1727.916016	165.727325
10215.260106	5367.248333	1726.900391	51.037460
10215.260106	5367.248333	1725.885742	51.717953
10215.260106	5367.248333	1724.870117	5.311264
10215.260106	5367.248333	1723.853516	67.133644
10215.260106	5367.248333	1722.837891	124.219597
10215.260106	5367.248333	1721.822266	61.318775
10215.260106	5367.248333	1720.805664	285.305786
10215.260106	5367.248333	1719.789063	123.618256
10215.260106	5367.248333	1718.772461	-63.877762
10215.260106	5367.248333	1717.754883	-107.964920
10215.260106	5367.248333	1716.738281	50.031036
10215.260106	5367.248333	1715.720703	-1.138672
10215.260106	5367.248333	1714.703125	-322.416290
10215.260106	5367.248333	1713.685547	140.763458
10215.260106	5367.248333	1712.667969	-37.228474
10215.260106	5367.248333	1711.649414	202.672821
10215.260106	5367.248333	1710.630859	8.270239
10215.260106	5367.248333	1709.612305	-150.876785
10215.260106	5367.248333	1708.593750	102.936646
10215.260106	5367.248333	1707.575195	-37.435123
10215.260106	5367.248333	1706.555664	-98.038589
10215.260106	5367.248333	1705.536133	26.599127
10215.260106	5367.248333	1704.516602	-69.192055
10215.260106	5367.248333	1703.497070	179.582809
10215.260106	5367.248333	1702.477539	27.521196
10215.260106	5367.248333	1701.457031	144.934952
10215.260106	5367.248333	1700.437500	-42.234715
10215.260106	5367.248333	1699.416992	44.663376
10215.260106	5367.248333	1698.395508	37.839943
10215.260106	5367.248333	1697.375000	-29.863321
10215.260106	5367.248333	1696.354492	-43.723480
10215.260106	5367.248333	1695.333008	145.998932
10215.260106	5367.248333	1694.311523	185.881454
10215.260106	5367.248333	1693.290039	157.888733
10215.260106	5367.248333	1692.267578	132.218201
10215.260106	5367.248333	1691.246094	62.115059
10215.260106	5367.248333	1690.223633	120.602272
10215.260106	5367.248333	1689.201172	132.295517
10215.260106	5367.248333	1688.178711	108.907501
10215.260106	5367.248333	1687.155273	22.410980
10215.260106	5367.248333	1686.132813	279.357941
10215.260106	5367.248333	1685.109375	-22.069645
10215.260106	5367.248333	1684.085938	38.571152
10215.260106	5367.248333	1683.062500	-26.915174
10215.260106	5367.248333	1682.039063	26.657724
10215.260106	5367.248333	1681.014648	-64.524612
10215.260106	5367.248333	1679.990234	19.319651
10215.260106	5367.248333	1678.965820	145.105377
10215.260106	5367.248333	1677.941406	-27.754507
10215.260106	5367.248333	1676.916992	100.278870
10215.260106	5367.248333	1675.891602	284.195648
10215.260106	5367.248333	1674.866211	321.147888
10215.260106	5367.248333	1673.840820	302.123688
10215.260106	5367.248333	1672.815430	133.939316
10215.260106	5367.248333	1671.790039	173.159012
10215.260106	5367.248333	1670.763672	177.392014
10215.260106	5367.248333	1669.737305	249.141022
10215.260106	5367.248333	1668.710938	227.694962
10215.260106	5367.248333	1667.684570	262.108368
10215.260106	5367.248333	1666.658203	245.275589
10215.260106	5367.248333	1665.630859	472.776459
10215.260106	5367.248333	1664.603516	255.750504
10215.260106	5367.248333	1663.576172	343.531586
10215.260106	5367.248333	1662.548828	319.612732
10215.260106	5367.248333	1661.520508	442.172302
10215.260106	5367.248333	1660.493164	383.317902
10215.260106	5367.248333	1659.464844	426.732635
10215.260106	5367.248333	1658.436523	386.438965
10215.260106	5367.248333	1657.408203	350.781525
10215.260106	5367.248333	1656.378906	498.636810
10215.260106	5367.248333	1655.350586	358.395905
10215.260106	5367.248333	1654.321289	531.684998
10215.260106	5367.248333	1653.291992	407.685913
10215.260106	5367.248333	1652.261719	441.555389
10215.260106	5367.248333	1651.232422	531.093811
10215.260106	5367.248333	1650.202148	620.564026
10215.260106	5367.248333	1649.171875	357.327545
10215.260106	5367.248333	1648.141602	623.030762
10215.260106	5367.248333	1647.111328	341.287903
10215.260106	5367.248333	1646.080078	625.379517
10215.260106	5367.248333	1645.049805	515.240173
10215.260106	5367.248333	1644.018555	516.362854
10215.260106	5367.248333	1642.987305	598.564331
10215.260106	5367.248333	1641.955078	771.056885
10215.260106	5367.248333	1640.923828	640.008606
10215.260106	5367.248333	1639.891602	768.366333
10215.260106	5367.248333	1638.859375	769.291809
10215.260106	5367.248333	1637.827148	971.602356
10215.260106	5367.248333	1636.794922	729.393555
10215.260106	5367.248333	1635.761719	827.429321
10215.260106	5367.248333	1634.729492	781.954224
10215.260106	5367.248333	1633.696289	866.005676
10215.260106	5367.248333	1632.662109	919.921509
10215.260106	5367.248333	1631.628906	959.921082
10215.260106	5367.248333	1630.594727	921.261414
10215.260106	5367.248333	1629.561523	834.053650
10215.260106	5367.248333	1628.527344	825.419922
10215.260106	5367.248333	1627.493164	992.367065
10215.260106	5367.248333	1626.458008	1173.073730
10215.260106	5367.248333	1625.423828	981.825867
10215.260106	5367.248333	1624.388672	1125.457520
10215.260106	5367.248333	1623.353516	1070.447388
10215.260106	5367.248333	1622.318359	1003.886963
10215.260106	5367.248333	1621.282227	1098.869141
10215.260106	5367.248333	1620.247070	1152.260132
10215.260106	5367.248333	1619.210938	1198.671143
10215.260106	5367.248333	1618.174805	1258.875854
10215.260106	5367.248333	1617.137695	1233.692261
10215.260106	5367.248333	1616.101563	1199.275269
10215.260106	5367.248333	1615.064453	1217.854736
10215.260106	5367.248333	1614.027344	1300.931030
10215.260106	5367.248333	1612.990234	1314.816650
10215.260106	5367.248333	1611.953125	1151.269409
10215.260106	5367.248333	1610.916016	1321.753418
10215.260106	5367.248333	1609.877930	1132.869751
10215.260106	5367.248333	1608.839844	1100.602295
10215.260106	5367.248333	1607.801758	964.725525
10215.260106	5367.248333	1606.763672	1252.374268
10215.260106	5367.248333	1605.724609	1139.466064
10215.260106	5367.248333	1604.685547	1077.190918
10215.260106	5367.248333	1603.646484	1327.750122
10215.260106	5367.248333	1602.607422	1267.704346
10215.260106	5367.248333	1601.568359	1318.024292
10215.260106	5367.248333	1600.528320	1021.148010
10215.260106	5367.248333	1599.489258	1402.423462
10215.260106	5367.248333	1598.449219	1353.779175
10215.260106	5367.248333	1597.408203	1272.950806
10215.260106	5367.248333	1596.368164	980.797913
10215.260106	5367.248333	1595.327148	1219.258911
10215.260106	5367.248333	1594.287109	1230.279541
10215.260106	5367.248333	1593.246094	1206.823364
10215.260106	5367.248333	1592.204102	1139.727661
10215.260106	5367.248333	1591.163086	1157.551392
10215.260106	5367.248333	1590.121094	1237.283447
10215.260106	5367.248333	1589.079102	1144.906372
10215.260106	5367.248333	1588.037109	1350.700562
10215.260106	5367.248333	1586.995117	1139.042114
10215.260106	5367.248333	1585.953125	1314.900024
10215.260106	5367.248333	1584.910156	1288.939575
10215.260106	5367.248333	1583.867188	1313.381592
10215.260106	5367.248333	1582.824219	1184.270142
10215.260106	5367.248333	1581.781250	1490.448364
10215.260106	5367.248333	1580.737305	1233.029541
10215.260106	5367.248333	1579.693359	1504.669312
10215.260106	5367.248333	1578.649414	1373.221313
10215.260106	5367.248333	1577.605469	1138.791382
10215.260106	5367.248333	1576.561523	1190.506592
10215.260106	5367.248333	1575.516602	1445.817261
10215.260106	5367.248333	1574.472656	1522.568604
10215.260106	5367.248333	1573.427734	1425.424805
10215.260106	5367.248333	1572.381836	1325.998291
10215.260106	5367.248333	1571.336914	1388.930176
10215.260106	5367.248333	1570.291016	1454.091675
10215.260106	5367.248333	1569.246094	1324.946167
10215.260106	5367.248333	1568.200195	1250.660522
10215.260106	5367.248333	1567.153320	1151.243042
10215.260106	5367.248333	1566.107422	805.163879
10215.260106	5367.248333	1565.060547	961.601807
10215.260106	5367.248333	1564.013672	1129.373657
10215.260106	5367.248333	1562.966797	1192.049927
10215.260106	5367.248333	1561.919922	1163.386108
10215.260106	5367.248333	1560.872070	1098.193604
10215.260106	5367.248333	1559.825195	1035.296387
10215.260106	5367.248333	1558.777344	1132.065674
10215.260106	5367.248333	1557.729492	1071.418701
10215.260106	5367.248333	1556.680664	987.966003
10215.260106	5367.248333	1555.632813	1032.196899
10215.260106	5367.248333	1554.583984	1110.571899
10215.260106	5367.248333	1553.535156	1143.321289
10215.260106	5367.248333	1552.486328	1349.192505
10215.260106	5367.248333	1551.436523	1049.269287
10215.260106	5367.248333	1550.387695	1116.119507
10215.260106	5367.248333	1549.337891	1194.303101
10215.260106	5367.248333	1548.288086	1229.186157
10215.260106	5367.248333	1547.238281	1332.320801
10215.260106	5367.248333	1546.187500	1305.678589
10215.260106	5367.248333	1545.136719	1126.595459
10215.260106	5367.248333	1544.086914	1241.016479
10215.260106	5367.248333	1543.035156	1159.771729
10215.260106	5367.248333	1541.984375	1237.721558
10215.260106	5367.248333	1540.933594	1058.734863
10215.260106	5367.248333	1539.881836	970.713989
10215.260106	5367.248333	1538.830078	937.253662
10215.260106	5367.248333	1537.778320	1124.183350
10215.260106	5367.248333	1536.725586	1011.167053
10215.260106	5367.248333	1535.673828	900.464050
10215.260106	5367.248333	1534.621094	1071.350098
10215.260106	5367.248333	1533.568359	833.513611
10215.260106	5367.248333	1532.515625	895.374146
10215.260106	5367.248333	1531.461914	916.343567
10215.260106	5367.248333	1530.409180	721.757507
10215.260106	5367.248333	1529.355469	819.861389
10215.260106	5367.248333	1528.301758	899.774353
10215.260106	5367.248333	1527.247070	1142.902710
10215.260106	5367.248333	1526.193359	796.487061
10215.260106	5367.248333	1525.138672	728.991821
10215.260106	5367.248333	1524.083984	847.346741
10215.260106	5367.248333	1523.029297	473.975983
10215.260106	5367.248333	1521.974609	596.853821
10215.260106	5367.248333	1520.918945	998.247681
10215.260106	5367.248333	1519.863281	586.548340
10215.260106	5367.248333	1518.807617	795.339233
10215.260106	5367.248333	1517.751953	474.376831
10215.260106	5367.248333	1516.696289	642.364685
10215.260106	5367.248333	1515.639648	597.585938
10215.260106	5367.248333	1514.583008	306.244873
10215.260106	5367.248333	1513.526367	539.740356
10215.260106	5367.248333	1512.469727	415.859161
10215.260106	5367.248333	1511.412109	624.360901
10215.260106	5367.248333	1510.355469	636.135986
10215.260106	5367.248333	1509.297852	627.556885
10215.260106	5367.248333	1508.240234	548.938049
10215.260106	5367.248333	1507.181641	542.632141
10215.260106	5367.248333	1506.124023	430.186676
10215.260106	5367.248333	1505.065430	654.243652
10215.260106	5367.248333	1504.006836	550.848083
10215.260106	5367.248333	1502.948242	668.708618
10215.260106	5367.248333	1501.888672	782.003906
10215.260106	5367.248333	1500.830078	644.811768
10215.260106	5367.248333	1499.770508	647.537964
10215.260106	5367.248333	1498.710938	499.151398
10215.260106	5367.248333	1497.650391	801.825928
10215.260106	5367.248333	1496.590820	791.011292
10215.260106	5367.248333	1495.530273	642.698364
10215.260106	5367.248333	1494.469727	582.345276
10215.260106	5367.248333	1493.409180	643.699524
10215.260106	5367.248333	1492.348633	736.578186
10215.260106	5367.248333	1491.287109	574.907227
10215.260106	5367.248333	1490.225586	627.240356
10215.260106	5367.248333	1489.164063	389.127899
10215.260106	5367.248333	1488.102539	387.475769
10215.260106	5367.248333	1487.041016	484.861664
10215.260106	5367.248333	1485.978516	408.954803
10215.260106	5367.248333	1484.916016	207.154572
10215.260106	5367.248333	1483.853516	338.245697
10215.260106	5367.248333	1482.791016	138.782455
10215.260106	5367.248333	1481.727539	-128.034546
10215.260106	5367.248333	1480.664063	30.106039
10215.260106	5367.248333	1479.600586	203.947006
10215.260106	5367.248333	1478.537109	-60.391926
10215.260106	5367.248333	1477.473633	216.779282
10215.260106	5367.248333	1476.409180	129.979660
10215.260106	5367.248333	1475.344727	299.101563
10215.260106	5367.248333	1474.280273	192.293030
10215.260106	5367.248333	1473.215820	206.535110
10215.260106	5367.248333	1472.151367	463.163361
10215.260106	5367.248333	1471.085938	172.421555
10215.260106	5367.248333	1470.020508	99.422600
10215.260106	5367.248333	1468.955078	127.240349
10215.260106	5367.248333	1467.888672	260.757294
10215.260106	5367.248333	1466.823242	84.763962
10215.260106	5367.248333	1465.756836	171.040390
10215.260106	5367.248333	1464.690430	192.515808
10215.260106	5367.248333	1463.624023	224.195694
10215.260106	5367.248333	1462.556641	178.216599
10215.260106	5367.248333	1461.490234	253.496658
10215.260106	5367.248333	1460.422852	308.501770
10215.260106	5367.248333	1459.355469	187.066315
10215.260106	5367.248333	1458.287109	279.468536
10215.260106	5367.248333	1457.219727	529.116577
10215.260106	5367.248333	1456.151367	446.776367
10215.260106	5367.248333	1455.083008	-11.668037
10215.260106	5367.248333	1454.014648	362.344482
10215.260106	5367.248333	1452.945313	283.567963
10215.260106	5367.248333	1451.876953	195.647491
10215.260106	5367.248333	1450.807617	217.221420
10215.260106	5367.248333	1449.738281	468.978302
10215.260106	5367.248333	1448.668945	389.690186
10215.260106	5367.248333	1447.598633	33.820251
10215.260106	5367.248333	1446.528320	143.362595
10215.260106	5367.248333	1445.458008	247.392990
10215.260106	5367.248333	1444.387695	221.913971
10215.260106	5367.248333	1443.317383	304.538391
10215.260106	5367.248333	1442.246094	145.901474
10215.260106	5367.248333	1441.174805	182.441498
10215.260106	5367.248333	1440.103516	372.070129
10215.260106	5367.248333	1439.032227	82.472504
10215.260106	5367.248333	1437.960938	338.220459
10215.260106	5367.248333	1436.888672	407.468018
10215.260106	5367.248333	1435.816406	97.183426
10215.260106	5367.248333	1434.744141	503.659271
10215.260106	5367.248333	1433.670898	250.991028
10215.260106	5367.248333	1432.598633	337.553864
10215.260106	5367.248333	1431.525391	144.943497
10215.260106	5367.248333	1430.452148	-18.602407
10215.260106	5367.248333	1429.378906	213.021164
10215.260106	5367.248333	1428.304688	150.714600
10215.260106	5367.248333	1427.231445	208.045959
10215.260106	5367.248333	1426.157227	129.148544
10215.260106	5367.248333	1425.083008	254.905228
10215.260106	5367.248333	1424.007813	123.983208
10215.260106	5367.248333	1422.933594	197.348557
10215.260106	5367.248333	1421.858398	65.627151
10215.260106	5367.248333	1420.783203	210.534683
10215.260106	5367.248333	1419.708008	-82.214478
10215.260106	5367.248333	1418.631836	-13.312297
10215.260106	5367.248333	1417.555664	39.207745
10215.260106	5367.248333	1416.479492	198.992630
10215.260106	5367.248333	1415.403320	-178.441528
10215.260106	5367.248333	1414.327148	19.134289
10215.260106	5367.248333	1413.250000	196.844742
10215.260106	5367.248333	1412.173828	-5.808965
10215.260106	5367.248333	1411.096680	2.616394
10215.260106	5367.248333	1410.018555	132.319702
10215.260106	5367.248333	1408.941406	96.352592
10215.260106	5367.248333	1407.863281	-39.779854
10215.260106	5367.248333	1406.785156	-188.719101
10215.260106	5367.248333	1405.707031	-36.410984
10215.260106	5367.248333	1404.628906	-90.748596
10215.260106	5367.248333	1403.549805	144.086548
10215.260106	5367.248333	1402.470703	251.817001
10215.260106	5367.248333	1401.391602	-91.233536
10215.260106	5367.248333	1400.312500	25.028130
10215.260106	5367.248333	1399.233398	116.602432
10215.260106	5367.248333	1398.153320	233.333527
10215.260106	5367.248333	1397.073242	144.929001
10215.260106	5367.248333	1395.993164	247.266220
10215.260106	5367.248333	1394.913086	-23.284256
10215.260106	5367.248333	1393.832031	42.404133
10215.260106	5367.248333	1392.750977	-52.034496
10215.260106	5367.248333	1391.669922	-19.222792
10215.260106	5367.248333	1390.588867	-125.867393
10215.260106	5367.248333	1389.506836	-77.428413
10215.260106	5367.248333	1388.425781	126.643524
10215.260106	5367.248333	1387.343750	-172.205933
10215.260106	5367.248333	1386.261719	-121.702446
10215.260106	5367.248333	1385.178711	-145.226776
10215.260106	5367.248333	1384.096680	-109.516235
10215.260106	5367.248333	1383.013672	-93.378571
10215.260106	5367.248333	1381.930664	-95.774094
10215.260106	5367.248333	1380.846680	78.693008
10215.260106	5367.248333	1379.763672	-22.893780
10215.260106	5367.248333	1378.679688	-113.161079
10215.260106	5367.248333	1377.595703	-294.897614
10215.260106	5367.248333	1376.511719	-168.468246
10215.260106	5367.248333	1375.427734	53.676109
10215.260106	5367.248333	1374.342773	-109.556625
10215.260106	5367.248333	1373.257813	-160.362671
10215.260106	5367.248333	1372.172852	-109.253433
10215.260106	5367.248333	1371.087891	-85.005005
10215.260106	5367.248333	1370.001953	69.674545
10215.260106	5367.248333	1368.916992	-37.327988
10215.260106	5367.248333	1367.831055	-154.176056
10215.260106	5367.248333	1366.744141	36.147408
10215.260106	5367.248333	1365.658203	17.844208
10215.260106	5367.248333	1364.571289	-47.272156
10215.260106	5367.248333	1363.484375	-246.533325
10215.260106	5367.248333	1362.397461	-294.723206
10215.260106	5367.248333	1361.310547	-231.768372
10215.260106	5367.248333	1360.222656	-117.404617
10215.260106	5367.248333	1359.135742	44.762344
10215.260106	5367.248333	1358.047852	106.897377
10215.260106	5367.248333	1356.958984	87.058525
10215.260106	5367.248333	1355.871094	-43.638668
10215.260106	5367.248333	1354.782227	275.276733
10215.260106	5367.248333	1353.693359	386.115967
10215.260106	5367.248333	1352.604492	47.407532
10215.260106	5367.248333	1351.515625	225.076431
10215.260106	5367.248333	1350.425781	-92.606766
10215.260106	5367.248333	1349.335938	203.763611
10215.260106	5367.248333	1348.246094	342.032471
10215.260106	5367.248333	1347.156250	99.307358
10215.260106	5367.248333	1346.066406	111.326706
10215.260106	5367.248333	1344.975586	280.134857
10215.260106	5367.248333	1343.884766	270.790436
10215.260106	5367.248333	1342.793945	252.740829
10215.260106	5367.248333	1341.702148	437.179962
10215.260106	5367.248333	1340.611328	279.437164
10215.260106	5367.248333	1339.519531	293.210815
10215.260106	5367.248333	1338.427734	282.884338
10215.260106	5367.248333	1337.334961	241.046463
10215.260106	5367.248333	1336.243164	110.031769
10215.260106	5367.248333	1335.150391	271.001099
10215.260106	5367.248333	1334.057617	180.614914
10215.260106	5367.248333	1332.964844	248.144745
10215.260106	5367.248333	1331.871094	243.147430
10215.260106	5367.248333	1330.778320	153.528061
10215.260106	5367.248333	1329.684570	228.948212
10215.260106	5367.248333	1328.590820	372.398956
10215.260106	5367.248333	1327.496094	232.309494
10215.260106	5367.248333	1326.402344	223.710251
10215.260106	5367.248333	1325.307617	170.303391
10215.260106	5367.248333	1324.212891	185.385361
10215.260106	5367.248333	1323.117188	136.431488
10215.260106	5367.248333	1322.022461	171.077103
10215.260106	5367.248333	1320.926758	204.051254
10215.260106	5367.248333	1319.831055	62.076843
10215.260106	5367.248333	1318.735352	324.441895
10215.260106	5367.248333	1317.638672	102.576225
10215.260106	5367.248333	1316.542969	182.939545
10215.260106	5367.248333	1315.446289	74.060471
10215.260106	5367.248333	1314.349609	-0.108072
10215.260106	5367.248333	1313.251953	93.206741
10215.260106	5367.248333	1312.155273	26.948414
10215.260106	5367.248333	1311.057617	71.855080
10215.260106	5367.248333	1309.959961	-34.477074
10215.260106	5367.248333	1308.862305	-7.545219
10215.260106	5367.248333	1307.763672	296.388641
10215.260106	5367.248333	1306.665039	149.506378
10215.260106	5367.248333	1305.566406	-24.135483
10215.260106	5367.248333	1304.467773	-63.718685
10215.260106	5367.248333	1303.369141	-79.431839
10215.260106	5367.248333	1302.269531	-162.439957
10215.260106	5367.248333	1301.169922	-182.175797
10215.260106	5367.248333	1300.070313	-89.914909
10215.260106	5367.248333	1298.970703	-96.383026
10215.260106	5367.248333	1297.870117	-19.576923
10215.260106	5367.248333	1296.769531	-61.349617
10215.260106	5367.248333	1295.668945	-52.546982
10215.260106	5367.248333	1294.568359	-97.870369
10215.260106	5367.248333	1293.466797	99.344841
10215.260106	5367.248333	1292.366211	107.100960
10215.260106	5367.248333	1291.264648	136.389557
10215.260106	5367.248333	1290.162109	195.808319
10215.260106	5367.248333	1289.060547	271.649109
10215.260106	5367.248333	1287.958008	228.731125
10215.260106	5367.248333	1286.855469	15.581453
10215.260106	5367.248333	1285.752930	77.925484
10215.260106	5367.248333	1284.650391	209.526627
10215.260106	5367.248333	1283.546875	318.130188
10215.260106	5367.248333	1282.444336	461.540802
10215.260106	5367.248333	1281.339844	301.509674
10215.260106	5367.248333	1280.236328	284.272400
10215.260106	5367.248333	1279.132813	284.772552
10215.260106	5367.248333	1278.028320	356.503754
10215.260106	5367.248333	1276.923828	181.327454
10215.260106	5367.248333	1275.819336	374.625183
10215.260106	5367.248333	1274.713867	267.904388
10215.260106	5367.248333	1273.608398	250.560501
10215.260106	5367.248333	1272.503906	123.977875
10215.260106	5367.248333	1271.397461	127.861534
10215.260106	5367.248333	1270.291992	305.533173
10215.260106	5367.248333	1269.185547	211.725281
10215.260106	5367.248333	1268.080078	112.024872
10215.260106	5367.248333	1266.972656	124.356529
10215.260106	5367.248333	1265.866211	174.933685
10215.260106	5367.248333	1264.759766	321.104980
10215.260106	5367.248333	1263.652344	191.619705
10215.260106	5367.248333	1262.544922	211.049271
10215.260106	5367.248333	1261.436523	155.580597
10215.260106	5367.248333	1260.329102	122.760712
10215.260106	5367.248333	1259.220703	68.448212
10215.260106	5367.248333	1258.112305	114.690804
10215.260106	5367.248333	1257.003906	190.021301
10215.260106	5367.248333	1255.895508	94.335808
10215.260106	5367.248333	1254.786133	46.821564
10215.260106	5367.248333	1253.676758	81.525024
10215.260106	5367.248333	1252.567383	79.980942
10215.260106	5367.248333	1251.458008	-110.929253
10215.260106	5367.248333	1250.347656	-204.532745
10215.260106	5367.248333	1249.237305	-38.417141
10215.260106	5367.248333	1248.126953	-191.074066
10215.260106	5367.248333	1247.016602	-145.120178
10215.260106	5367.248333	1245.905273	-269.206635
10215.260106	5367.248333	1244.793945	-60.468174
10215.260106	5367.248333	1243.682617	-87.392563
10215.260106	5367.248333	1242.571289	97.073471
10215.260106	5367.248333	1241.459961	69.047630
10215.260106	5367.248333	1240.347656	87.318466
10215.260106	5367.248333	1239.235352	136.873962
10215.260106	5367.248333	1238.123047	179.803513
10215.260106	5367.248333	1237.009766	131.483688
10215.260106	5367.248333	1235.897461	334.508575
10215.260106	5367.248333	1234.784180	212.374069
10215.260106	5367.248333	1233.670898	297.505371
10215.260106	5367.248333	1232.556641	120.587837
10215.260106	5367.248333	1231.443359	299.970001
10215.260106	5367.248333	1230.329102	246.608139
10215.260106	5367.248333	1229.214844	196.922302
10215.260106	5367.248333	1228.099609	196.595139
10215.260106	5367.248333	1226.985352	228.480606
10215.260106	5367.248333	1225.870117	185.034378
10215.260106	5367.248333	1224.754883	344.140167
10215.260106	5367.248333	1223.639648	387.836548
10215.260106	5367.248333	1222.523438	395.583710
10215.260106	5367.248333	1221.408203	503.228271
10215.260106	5367.248333	1220.291992	430.771301
10215.260106	5367.248333	1219.174805	523.082520
10215.260106	5367.248333	1218.058594	410.518982
10215.260106	5367.248333	1216.941406	500.590820
10215.260106	5367.248333	1215.824219	444.427460
10215.260106	5367.248333	1214.707031	477.631836
10215.260106	5367.248333	1213.589844	403.010040
10215.260106	5367.248333	1212.471680	294.199463
10215.260106	5367.248333	1211.353516	219.561737
10215.260106	5367.248333	1210.235352	144.841400
10215.260106	5367.248333	1209.117188	98.423622
10215.260106	5367.248333	1207.998047	144.879578
10215.260106	5367.248333	1206.878906	82.151726
10215.260106	5367.248333	1205.759766	30.993395
10215.260106	5367.248333	1204.640625	158.275116
10215.260106	5367.248333	1203.520508	229.481293
10215.260106	5367.248333	1202.401367	19.569176
10215.260106	5367.248333	1201.281250	-5.880479
10215.260106	5367.248333	1200.160156	-111.621056
10215.260106	5367.248333	1199.040039	45.751701
10215.260106	5367.248333	1197.918945	-67.557190
10215.260106	5367.248333	1196.797852	91.362091
10215.260106	5367.248333	1195.676758	255.286316
10215.260106	5367.248333	1194.555664	75.190460
10215.260106	5367.248333	1193.433594	154.666718
10215.260106	5367.248333	1192.311523	5.176510
10215.260106	5367.248333	1191.189453	-14.289558
10215.260106	5367.248333	1190.066406	104.710411
10215.260106	5367.248333	1188.944336	49.365116
10215.260106	5367.248333	1187.821289	184.695679
10215.260106	5367.248333	1186.698242	175.700439
10215.260106	5367.248333	1185.574219	241.306778
10215.260106	5367.248333	1184.451172	3.335901
10215.260106	5367.248333	1183.327148	139.722305
10215.260106	5367.248333	1182.203125	128.170242
10215.260106	5367.248333	1181.078125	115.162872
10215.260106	5367.248333	1179.954102	222.581696
10215.260106	5367.248333	1178.829102	166.832169
10215.260106	5367.248333	1177.704102	8.532465
10215.260106	5367.248333	1176.579102	91.774750
10215.260106	5367.248333	1175.453125	97.951523
10215.260106	5367.248333	1174.327148	-8.248814
10215.260106	5367.248333	1173.201172	-16.642303
10215.260106	5367.248333	1172.075195	15.980419
10215.260106	5367.248333	1170.949219	-186.075577
10215.260106	5367.248333	1169.822266	-80.708679
10215.260106	5367.248333	1168.695313	-161.964996
10215.260106	5367.248333	1167.568359	-168.911560
10215.260106	5367.248333	1166.440430	50.329731
10215.260106	5367.248333	1165.313477	-232.389694
10215.260106	5367.248333	1164.185547	62.169384
10215.260106	5367.248333	1163.057617	22.216549
10215.260106	5367.248333	1161.928711	69.455170
10215.260106	5367.248333	1160.800781	65.454285
10215.260106	5367.248333	1159.671875	19.907391
10215.260106	5367.248333	1158.541992	79.020012
10215.260106	5367.248333	1157.413086	73.268265
10215.260106	5367.248333	1156.283203	-93.434479
10215.260106	5367.248333	1155.154297	210.505005
10215.260106	5367.248333	1154.023438	264.237488
10215.260106	5367.248333	1152.893555	54.449871
10215.260106	5367.248333	1151.763672	-11.508800
10215.260106	5367.248333	1150.632813	142.963486
10215.260106	5367.248333	1149.501953	137.799728
10215.260106	5367.248333	1148.370117	381.384186
10215.260106	5367.248333	1147.239258	206.483673
10215.260106	5367.248333	1146.107422	232.382019
10215.260106	5367.248333	1144.975586	360.353943
10215.260106	5367.248333	1143.843750	321.294373
10215.260106	5367.248333	1142.710938	114.226341
10215.260106	5367.248333	1141.578125	180.697968
10215.260106	5367.248333	1140.445313	156.914734
10215.260106	5367.248333	1139.312500	193.623154
10215.260106	5367.248333	1138.178711	241.152954
10215.260106	5367.248333	1137.045898	184.249237
10215.260106	5367.248333	1135.912109	194.713654
10215.260106	5367.248333	1134.777344	335.377747
10215.260106	5367.248333	1133.643555	409.637878
10215.260106	5367.248333	1132.508789	295.257721
10215.260106	5367.248333	1131.374023	355.802856
10215.260106	5367.248333	1130.239258	346.762970
10215.260106	5367.248333	1129.104492	143.443176
10215.260106	5367.248333	1127.968750	48.191940
10215.260106	5367.248333	1126.833008	56.266186
10215.260106	5367.248333	1125.697266	-23.027000
10215.260106	5367.248333	1124.560547	30.528040
10215.260106	5367.248333	1123.424805	40.236694
10215.260106	5367.248333	1122.288086	78.487854
10215.260106	5367.248333	1121.151367	-40.035786
10215.260106	5367.248333	1120.013672	-37.174191
10215.260106	5367.248333	1118.876953	-148.713806
10215.260106	5367.248333	1117.739258	-126.745178
10215.260106	5367.248333	1116.601563	-167.507492
10215.260106	5367.248333	1115.462891	-74.052582
10215.260106	5367.248333	1114.324219	181.081512
10215.260106	5367.248333	1113.186523	160.426132
10215.260106	5367.248333	1112.046875	109.732979
10215.260106	5367.248333	1110.908203	67.496437
10215.260106	5367.248333	1109.769531	-109.171280
10215.260106	5367.248333	1108.629883	209.398727
10215.260106	5367.248333	1107.490234	242.662598
10215.260106	5367.248333	1106.349609	-42.099449
10215.260106	5367.248333	1105.209961	55.732353
10215.260106	5367.248333	1104.069336	161.767776
10215.260106	5367.248333	1102.928711	254.650452
10215.260106	5367.248333	1101.787109	183.802246
10215.260106	5367.248333	1100.646484	-42.368019
10215.260106	5367.248333	1099.504883	57.512150
10215.260106	5367.248333	1098.363281	54.987774
10215.260106	5367.248333	1097.221680	-47.286312
10215.260106	5367.248333	1096.079102	79.983818
10215.260106	5367.248333	1094.936523	-44.510307
10215.260106	5367.248333	1093.793945	49.846127
10215.260106	5367.248333	1092.651367	218.947220
10215.260106	5367.248333	1091.507813	-35.159176
10215.260106	5367.248333	1090.364258	-83.729759
10215.260106	5367.248333	1089.220703	-261.466095
10215.260106	5367.248333	1088.077148	-57.019966
10215.260106	5367.248333	1086.933594	-40.588047
10215.260106	5367.248333	1085.789063	-140.428177
10215.260106	5367.248333	1084.644531	-81.240341
10215.260106	5367.248333	1083.499023	-47.879059
10215.260106	5367.248333	1082.354492	-252.391342
10215.260106	5367.248333	1081.208984	-117.824684
10215.260106	5367.248333	1080.063477	-162.671036
10215.260106	5367.248333	1078.917969	14.052645
10215.260106	5367.248333	1077.771484	-113.437866
10215.260106	5367.248333	1076.625977	-86.416031
10215.260106	5367.248333	1075.479492	27.623323
10215.260106	5367.248333	1074.332031	123.955215
10215.260106	5367.248333	1073.185547	-126.314842
10215.260106	5367.248333	1072.038086	160.246979
10215.260106	5367.248333	1070.890625	206.588318
10215.260106	5367.248333	1069.743164	187.377792
10215.260106	5367.248333	1068.594727	44.166103
10215.260106	5367.248333	1067.447266	117.287407
10215.260106	5367.248333	1066.298828	257.560242
10215.260106	5367.248333	1065.149414	-40.295036
10215.260106	5367.248333	1064.000977	121.741356
10215.260106	5367.248333	1062.851563	-27.958382
10215.260106	5367.248333	1061.702148	210.746841
10215.260106	5367.248333	1060.552734	193.273758
10215.260106	5367.248333	1059.402344	15.821452
10215.260106	5367.248333	1058.252930	188.411804
10215.260106	5367.248333	1057.102539	228.414948
10215.260106	5367.248333	1055.951172	149.790558
10215.260106	5367.248333	1054.800781	164.162170
10215.260106	5367.248333	1053.649414	317.949677
10215.260106	5367.248333	1052.498047	175.010117
10215.260106	5367.248333	1051.346680	287.489777
10215.260106	5367.248333	1050.194336	185.075943
10215.260106	5367.248333	1049.042969	409.284912
10215.260106	5367.248333	1047.890625	16.522758
10215.260106	5367.248333	1046.738281	265.319519
10215.260106	5367.248333	1045.584961	110.770676
10215.260106	5367.248333	1044.431641	42.209011
10215.260106	5367.248333	1043.278320	-89.370560
10215.260106	5367.248333	1042.125000	83.357948
10215.260106	5367.248333	1040.971680	14.110173
10215.260106	5367.248333	1039.817383	23.837984
10215.260106	5367.248333	1038.663086	271.150635
10215.260106	5367.248333	1037.508789	98.319458
10215.260106	5367.248333	1036.353516	371.929108
10215.260106	5367.248333	1035.198242	314.722656
10215.260106	5367.248333	1034.042969	326.697052
10215.260106	5367.248333	1032.887695	449.233032
10215.260106	5367.248333	1031.732422	693.972961
10215.260106	5367.248333	1030.576172	192.323761
10215.260106	5367.248333	1029.419922	616.770813
10215.260106	5367.248333	1028.263672	414.611877
10215.260106	5367.248333	1027.106445	179.407059
10215.260106	5367.248333	1025.949219	402.207275
10215.260106	5367.248333	1024.792969	45.118191
10215.260106	5367.248333	1023.634766	126.087029
10215.260106	5367.248333	1022.477539	84.117523
10215.260106	5367.248333	1021.319336	-113.456123
10215.260106	5367.248333	1020.161133	51.243279
10215.260106	5367.248333	1019.002930	140.988098
10215.260106	5367.248333	1017.843750	-93.890121
10215.260106	5367.248333	1016.684570	-36.310036
10215.260106	5367.248333	1015.525391	-67.030502
10215.260106	5367.248333	1014.366211	-51.158028
10215.260106	5367.248333	1013.207031	-23.421196
10215.260106	5367.248333	1012.046875	108.530022
10215.260106	5367.248333	1010.886719	-31.172127
10215.260106	5367.248333	1009.726563	-199.743515
10215.260106	5367.248333	1008.565430	-57.205235
10215.260106	5367.248333	1007.404297	134.887512
10215.260106	5367.248333	1006.243164	53.483929
10215.260106	5367.248333	1005.082031	-135.536148
10215.260106	5367.248333	1003.920898	194.823349
10215.260106	5367.248333	1002.758789	-116.622795
10215.260106	5367.248333	1001.596680	342.025421
10215.260106	5367.248333	1000.433594	356.186218
10215.260106	5367.248333	999.271484	363.030884
10215.260106	5367.248333	998.108398	643.219177
10215.260106	5367.248333	996.945313	581.939209
10215.260106	5367.248333	995.782227	567.051453
10215.260106	5367.248333	994.618164	676.360718
10215.260106	5367.248333	993.454102	784.524048
10215.260106	5367.248333	992.290039	864.640076
10215.260106	5367.248333	991.125977	722.165894
10215.260106	5367.248333	989.960938	886.463867
10215.260106	5367.248333	988.796875	725.268188
10215.260106	5367.248333	987.630859	854.388794
10215.260106	5367.248333	986.465820	891.778503
10215.260106	5367.248333	985.300781	803.885681
10215.260106	5367.248333	984.134766	559.410706
10215.260106	5367.248333	982.968750	678.733276
10215.260106	5367.248333	981.801758	683.615295
10215.260106	5367.248333	980.635742	613.818481
10215.260106	5367.248333	979.468750	367.296906
10215.260106	5367.248333	978.301758	114.716728
10215.260106	5367.248333	977.133789	565.740967
10215.260106	5367.248333	975.966797	188.085724
10215.260106	5367.248333	974.798828	403.712708
10215.260106	5367.248333	973.630859	339.972748
10215.260106	5367.248333	972.461914	246.210419
10215.260106	5367.248333	971.293945	308.398773
10215.260106	5367.248333	970.125000	220.981903
10215.260106	5367.248333	968.956055	-15.538966
10215.260106	5367.248333	967.786133	11.640703
10215.260106	5367.248333	966.617188	7.825127
10215.260106	5367.248333	965.447266	16.178989
10215.260106	5367.248333	964.276367	-79.648254
10215.260106	5367.248333	963.106445	112.825455
10215.260106	5367.248333	961.935547	-15.014605
10215.260106	5367.248333	960.764648	-0.509855
10215.260106	5367.248333	959.593750	263.247040
10215.260106	5367.248333	958.422852	73.796188
10215.260106	5367.248333	957.250977	-72.422211
10215.260106	5367.248333	956.079102	22.436995
10215.260106	5367.248333	954.907227	154.760635
10215.260106	5367.248333	953.734375	-118.726982
10215.260106	5367.248333	952.562500	-163.365753
10215.260106	5367.248333	951.389648	-59.865414
10215.260106	5367.248333	950.215820	63.157902
10215.260106	5367.248333	949.042969	156.843903
10215.260106	5367.248333	947.869141	-110.486000
10215.260106	5367.248333	946.695313	177.130707
10215.260106	5367.248333	945.521484	232.334763
10215.260106	5367.248333	944.346680	-109.914307
10215.260106	5367.248333	943.172852	-65.245186
10215.260106	5367.248333	941.998047	-95.071945
10215.260106	5367.248333	940.822266	114.794937
10215.260106	5367.248333	939.647461	51.221012
10215.260106	5367.248333	938.471680	60.230583
10215.260106	5367.248333	937.295898	63.600735
10215.260106	5367.248333	936.119141	33.663944
10215.260106	5367.248333	934.943359	86.056381
10215.260106	5367.248333	933.766602	301.177246
10215.260106	5367.248333	932.589844	92.836868
10215.260106	5367.248333	931.413086	-81.931419
10215.260106	5367.248333	930.235352	166.727234
10215.260106	5367.248333	929.057617	20.458197
10215.260106	5367.248333	927.879883	168.328949
10215.260106	5367.248333	926.702148	135.517349
10215.260106	5367.248333	925.523438	469.104767
10215.260106	5367.248333	924.344727	418.186798
10215.260106	5367.248333	923.166016	119.718620
10215.260106	5367.248333	921.987305	210.681808
10215.260106	5367.248333	920.807617	-23.217329
10215.260106	5367.248333	919.627930	-17.164408
10215.260106	5367.248333	919.497070	-114.604134
10215.260106	5367.248333	918.331055	164.378098
10215.260106	5367.248333	917.165039	18.114756
10215.260106	5367.248333	915.999023	124.339348
10215.260106	5367.248333	914.833008	-93.996857
10215.260106	5367.248333	913.666016	220.748871
10215.260106	5367.248333	912.499023	118.305077
10215.260106	5367.248333	911.332031	54.495083
10215.260106	5367.248333	910.165039	-117.381203
10215.260106	5367.248333	908.997070	-178.567841
10215.260106	5367.248333	907.830078	-160.007126
10215.260106	5367.248333	906.661133	198.013885
10215.260106	5367.248333	905.493164	46.765804
10215.260106	5367.248333	904.325195	-19.600897
10215.260106	5367.248333	903.156250	-34.545185
10215.260106	5367.248333	901.987305	63.566837
10215.260106	5367.248333	900.818359	164.195206
10215.260106	5367.248333	899.648438	272.479553
10215.260106	5367.248333	898.478516	-19.915932
10215.260106	5367.248333	897.308594	65.226593
10215.260106	5367.248333	896.138672	50.207001
10215.260106	5367.248333	894.968750	309.796844
10215.260106	5367.248333	893.797852	233.126831
10215.260106	5367.248333	892.626953	238.570251
10215.260106	5367.248333	891.456055	246.563660
10215.260106	5367.248333	890.284180	77.599075
10215.260106	5367.248333	889.113281	349.676941
10215.260106	5367.248333	887.941406	260.199219
10215.260106	5367.248333	886.768555	270.700104
10215.260106	5367.248333	885.596680	301.679077
10215.260106	5367.248333	884.423828	212.230453
10215.260106	5367.248333	883.250977	281.605438
10215.260106	5367.248333	882.078125	48.769855
10215.260106	5367.248333	880.905273	281.978607
10215.260106	5367.248333	879.731445	277.031250
10215.260106	5367.248333	878.557617	315.578400
10215.260106	5367.248333	877.383789	305.482391
10215.260106	5367.248333	876.209961	379.795959
10215.260106	5367.248333	875.035156	93.445480
10215.260106	5367.248333	873.860352	275.148071
10215.260106	5367.248333	872.685547	88.617607
10215.260106	5367.248333	871.510742	129.637238
10215.260106	5367.248333	870.334961	162.965332
10215.260106	5367.248333	869.159180	-74.562798
10215.260106	5367.248333	867.983398	53.282303
10215.260106	5367.248333	866.807617	-97.318756
10215.260106	5367.248333	865.630859	-33.379150
10215.260106	5367.248333	864.454102	132.636627
10215.260106	5367.248333	863.277344	-38.343723
10215.260106	5367.248333	862.100586	178.616241
10215.260106	5367.248333	860.922852	155.650711
10215.260106	5367.248333	859.745117	-15.265279
10215.260106	5367.248333	858.567383	38.299812
10215.260106	5367.248333	857.389648	-127.450974
10215.260106	5367.248333	856.210938	76.497353
10215.260106	5367.248333	855.032227	124.875679
10215.260106	5367.248333	853.853516	7.587235
10215.260106	5367.248333	852.674805	254.649475
10215.260106	5367.248333	851.495117	-163.206848
10215.260106	5367.248333	850.315430	251.841934
10215.260106	5367.248333	849.135742	-53.842964
10215.260106	5367.248333	847.956055	106.424850
10215.260106	5367.248333	846.775391	91.006889
10215.260106	5367.248333	845.595703	103.565437
10215.260106	5367.248333	844.415039	179.707413
10215.260106	5367.248333	843.233398	202.394547
10215.260106	5367.248333	842.052734	176.734482
10215.260106	5367.248333	840.871094	-75.204025
10215.260106	5367.248333	839.689453	209.291443
10215.260106	5367.248333	838.506836	-45.119884
10215.260106	5367.248333	837.325195	173.156067
10215.260106	5367.248333	836.142578	277.014069
10215.260106	5367.248333	834.959961	248.740814
10215.260106	5367.248333	833.777344	-48.704937
10215.260106	5367.248333	832.593750	141.405289
10215.260106	5367.248333	831.410156	80.131622
10215.260106	5367.248333	830.226563	168.592010
10215.260106	5367.248333	829.042969	432.065491
10215.260106	5367.248333	827.858398	66.315643
10215.260106	5367.248333	826.673828	-136.986069
10215.260106	5367.248333	825.489258	60.408157
10215.260106	5367.248333	824.304688	95.455101
10215.260106	5367.248333	823.120117	163.417191
10215.260106	5367.248333	821.934570	-9.402121
10215.260106	5367.248333	820.749023	-58.025620
10215.260106	5367.248333	819.562500	-131.976074
10215.260106	5367.248333	818.376953	-31.177565
10215.260106	5367.248333	817.190430	74.626373
10215.260106	5367.248333	816.003906	28.477461
10215.260106	5367.248333	814.817383	-121.441994
10215.260106	5367.248333	813.629883	-79.006454
10215.260106	5367.248333	812.442383	196.140289
10215.260106	5367.248333	811.254883	129.684433
10215.260106	5367.248333	810.067383	-159.306000
10215.260106	5367.248333	808.878906	-20.907711
10215.260106	5367.248333	807.690430	-64.593552
10215.260106	5367.248333	806.501953	-168.940048
10215.260106	5367.248333	805.313477	-151.983688
10215.260106	5367.248333	804.124023	-117.370621
10215.260106	5367.248333	802.934570	18.231045
10215.260106	5367.248333	801.745117	-25.538437
10215.260106	5367.248333	800.555664	41.769772
10215.260106	5367.248333	799.365234	164.559204
10215.260106	5367.248333	798.175781	-177.079956
10215.260106	5367.248333	796.985352	266.083527
10215.260106	5367.248333	795.793945	338.220093
10215.260106	5367.248333	794.603516	-26.021370
10215.260106	5367.248333	793.412109	-9.384380
10215.260106	5367.248333	792.220703	145.871323
10215.260106	5367.248333	791.028320	-56.872425
10215.260106	5367.248333	789.836914	42.830318
10215.260106	5367.248333	788.644531	165.140121
10215.260106	5367.248333	787.452148	-125.734909
10215.260106	5367.248333	786.258789	135.012726
10215.260106	5367.248333	785.066406	131.239304
10215.260106	5367.248333	783.873047	-26.120411
10215.260106	5367.248333	782.679688	83.337067
10215.260106	5367.248333	781.485352	41.739437
10215.260106	5367.248333	780.291992	-108.055862
10215.260106	5367.248333	779.097656	114.439415
10215.260106	5367.248333	777.903320	233.703064
10215.260106	5367.248333	776.708008	-41.849270
10215.260106	5367.248333	775.512695	285.966339
10215.260106	5367.248333	774.318359	249.195221
10215.260106	5367.248333	773.122070	333.016754
10215.260106	5367.248333	771.926758	225.839432
10215.260106	5367.248333	770.730469	229.183304
10215.260106	5367.248333	769.534180	277.687469
10215.260106	5367.248333	768.337891	346.216644
10215.260106	5367.248333	767.141602	540.179504
10215.260106	5367.248333	765.944336	563.377197
10215.260106	5367.248333	764.747070	646.740784
10215.260106	5367.248333	763.549805	597.078491
10215.260106	5367.248333	762.351563	697.875793
10215.260106	5367.248333	761.154297	590.468628
10215.260106	5367.248333	759.956055	678.605835
10215.260106	5367.248333	758.757813	816.790161
10215.260106	5367.248333	757.558594	584.005981
10215.260106	5367.248333	756.359375	879.903503
10215.260106	5367.248333	755.160156	965.226257
10215.260106	5367.248333	753.960938	1268.343994
10215.260106	5367.248333	752.761719	1180.697388
10215.260106	5367.248333	751.561523	1148.114502
10215.260106	5367.248333	750.361328	810.163696
10215.260106	5367.248333	749.160156	835.128845
10215.260106	5367.248333	747.959961	649.890686
10215.260106	5367.248333	746.758789	644.767517
10215.260106	5367.248333	745.557617	627.093567
10215.260106	5367.248333	744.356445	806.886780
10215.260106	5367.248333	743.154297	544.125183
10215.260106	5367.248333	741.952148	546.324707
10215.260106	5367.248333	740.750000	735.864746
10215.260106	5367.248333	739.547852	560.557190
10215.260106	5367.248333	738.344727	560.098755
10215.260106	5367.248333	737.142578	357.326843
10215.260106	5367.248333	735.939453	396.746643
10215.260106	5367.248333	734.735352	293.826172
10215.260106	5367.248333	733.532227	300.691345
10215.260106	5367.248333	732.328125	297.518829
10215.260106	5367.248333	731.124023	431.484161
10215.260106	5367.248333	729.918945	393.259216
10215.260106	5367.248333	728.714844	397.378418
10215.260106	5367.248333	727.509766	339.117767
10215.260106	5367.248333	726.303711	295.777435
10215.260106	5367.248333	725.098633	411.869568
10215.260106	5367.248333	723.892578	321.079163
10215.260106	5367.248333	722.686523	432.016541
10215.260106	5367.248333	721.480469	67.213486
10215.260106	5367.248333	720.274414	95.874565
10215.260106	5367.248333	719.067383	67.211349
10215.260106	5367.248333	717.860352	40.985825
10215.260106	5367.248333	716.653320	69.447517
10215.260106	5367.248333	715.445313	125.197517
10215.260106	5367.248333	714.238281	205.731430
10215.260106	5367.248333	713.030273	12.643464
10215.260106	5367.248333	711.821289	30.886133
10215.260106	5367.248333	710.613281	180.788391
10215.260106	5367.248333	709.404297	-141.590042
10215.260106	5367.248333	708.195313	-96.194725
10215.260106	5367.248333	706.986328	170.186829
10215.260106	5367.248333	705.776367	19.170937
10215.260106	5367.248333	704.566406	17.124741
10215.260106	5367.248333	703.356445	206.157227
10215.260106	5367.248333	702.146484	55.022881
10215.260106	5367.248333	700.935547	0.656240
10215.260106	5367.248333	699.724609	90.130730
10215.260106	5367.248333	698.513672	216.702835
10215.260106	5367.248333	697.302734	115.009911
10215.260106	5367.248333	696.090820	144.689423
10215.260106	5367.248333	694.878906	176.765259
10215.260106	5367.248333	693.666992	263.276154
10215.260106	5367.248333	692.455078	64.741394
10215.260106	5367.248333	691.242188	56.961300
10215.260106	5367.248333	690.029297	-136.638580
10215.260106	5367.248333	688.816406	73.382889
10215.260106	5367.248333	687.602539	-179.701385
10215.260106	5367.248333	686.389648	-118.412590
10215.260106	5367.248333	685.175781	254.574570
10215.260106	5367.248333	683.960938	-8.506883
10215.260106	5367.248333	682.747070	57.431652
10215.260106	5367.248333	681.532227	182.618469
10215.260106	5367.248333	680.317383	198.887863
10215.260106	5367.248333	679.102539	336.203552
10215.260106	5367.248333	677.886719	278.137909
10215.260106	5367.248333	676.670898	143.422852
10215.260106	5367.248333	675.455078	80.330811
10215.260106	5367.248333	674.239258	-7.510411
10215.260106	5367.248333	673.022461	203.404953
10215.260106	5367.248333	671.805664	6.792590
10215.260106	5367.248333	670.588867	24.932741
10215.260106	5367.248333	669.372070	-40.916798
10215.260106	5367.248333	668.154297	-104.349075
10215.260106	5367.248333	666.936523	-150.563141
10215.260106	5367.248333	665.718750	136.110977
10215.260106	5367.248333	664.500977	257.383301
10215.260106	5367.248333	663.282227	193.635178
10215.260106	5367.248333	662.063477	174.201141
10215.260106	5367.248333	660.844727	174.413315
10215.260106	5367.248333	659.625000	29.191042
10215.260106	5367.248333	658.405273	-15.056724
10215.260106	5367.248333	657.185547	174.586197
10215.260106	5367.248333	655.965820	115.402229
10215.260106	5367.248333	654.745117	329.400421
10215.260106	5367.248333	653.525391	-79.414261
10215.260106	5367.248333	652.303711	104.854866
10215.260106	5367.248333	651.083008	10.991355
10215.260106	5367.248333	649.861328	8.090983
10215.260106	5367.248333	648.640625	-95.698135
10215.260106	5367.248333	647.417969	405.259338
10215.260106	5367.248333	646.196289	67.774086
10215.260106	5367.248333	644.973633	204.638794
10215.260106	5367.248333	643.750977	-135.266922
10215.260106	5367.248333	642.528320	188.120865
10215.260106	5367.248333	641.305664	-70.740356
10215.260106	5367.248333	640.082031	-22.648619
10215.260106	5367.248333	638.858398	-70.387047
10215.260106	5367.248333	637.634766	6.993122
10215.260106	5367.248333	636.410156	-85.044502
10215.260106	5367.248333	635.185547	-17.650982
10215.260106	5367.248333	633.960938	194.356903
10215.260106	5367.248333	632.736328	-123.476280
10215.260106	5367.248333	631.510742	-31.811062
10215.260106	5367.248333	630.285156	30.333647
10215.260106	5367.248333	629.059570	102.187057
10215.260106	5367.248333	627.833984	100.438377
10215.260106	5367.248333	626.607422	22.683805
10215.260106	5367.248333	625.380859	-104.085503
10215.260106	5367.248333	624.154297	153.562897
10215.260106	5367.248333	622.927734	43.827103
10215.260106	5367.248333	621.700195	-9.634287
10215.260106	5367.248333	620.472656	105.710228
10215.260106	5367.248333	619.245117	-131.353287
10215.260106	5367.248333	618.016602	-38.171181
10215.260106	5367.248333	616.788086	-123.607231
10215.260106	5367.248333	615.559570	145.452820
10215.260106	5367.248333	614.331055	-59.879669
10215.260106	5367.248333	613.101563	135.617249
10215.260106	5367.248333	611.872070	211.249008
10215.260106	5367.248333	610.642578	86.477631
10215.260106	5367.248333	609.413086	-57.832500
10215.260106	5367.248333	608.182617	-26.325697
10215.260106	5367.248333	606.952148	-29.061493
10215.260106	5367.248333	605.721680	-41.609993
10215.260106	5367.248333	604.491211	21.446999
10215.260106	5367.248333	603.259766	125.901642
10215.260106	5367.248333	602.028320	-38.052418
10215.260106	5367.248333	600.796875	-31.270340
10215.260106	5367.248333	599.564453	-7.472689
10215.260106	5367.248333	598.332031	-178.742981
10215.260106	5367.248333	597.099609	-59.957779
10215.260106	5367.248333	595.867188	-43.603031
10215.260106	5367.248333	594.633789	157.847748
10215.260106	5367.248333	593.400391	-91.413330
10215.260106	5367.248333	592.166992	-89.790108
10215.260106	5367.248333	590.933594	-29.771360
10215.260106	5367.248333	589.699219	178.662552
10215.260106	5367.248333	588.464844	-46.194500
10215.260106	5367.248333	587.230469	13.677551
10215.260106	5367.248333	585.995117	32.138191
10215.260106	5367.248333	584.760742	160.008255
10215.260106	5367.248333	583.525391	202.692688
10215.260106	5367.248333	582.289063	172.402023
10215.260106	5367.248333	581.053711	144.536362
10215.260106	5367.248333	579.817383	121.518181
10215.260106	5367.248333	578.581055	122.784225
10215.260106	5367.248333	577.343750	128.885422
10215.260106	5367.248333	576.107422	159.257187
10215.260106	5367.248333	574.870117	235.726257
10215.260106	5367.248333	573.631836	105.822685
10215.260106	5367.248333	572.394531	262.332550
10215.260106	5367.248333	571.156250	-119.873451
10215.260106	5367.248333	569.917969	97.241211
10215.260106	5367.248333	568.679688	219.673431
10215.260106	5367.248333	567.440430	26.830647
10215.260106	5367.248333	566.202148	154.068390
10215.260106	5367.248333	564.961914	48.568295
10215.260106	5367.248333	563.722656	144.244141
10215.260106	5367.248333	562.482422	-48.418091
10215.260106	5367.248333	561.243164	-15.729863
10215.260106	5367.248333	560.001953	-7.272121
10215.260106	5367.248333	558.761719	-156.177063
10215.260106	5367.248333	557.520508	-152.513290
10215.260106	5367.248333	556.279297	-151.258896
10215.260106	5367.248333	555.038086	-31.432533
10215.260106	5367.248333	553.795898	146.412430
10215.260106	5367.248333	552.554688	191.186081
10215.260106	5367.248333	551.311523	13.495237
10215.260106	5367.248333	550.069336	-166.511337
10215.260106	5367.248333	548.826172	294.077454
10215.260106	5367.248333	547.583984	176.966385
10215.260106	5367.248333	546.339844	-77.784332
10215.260106	5367.248333	545.096680	-28.048695
10215.260106	5367.248333	543.852539	9.617719
10215.260106	5367.248333	542.608398	-80.660896
10215.260106	5367.248333	541.364258	106.728523
10215.260106	5367.248333	540.119141	6.881233
10215.260106	5367.248333	538.875000	-300.384186
10215.260106	5367.248333	537.628906	-132.259995
10215.260106	5367.248333	536.383789	-2.749807
10215.260106	5367.248333	535.137695	-25.167713
10215.260106	5367.248333	533.892578	-153.599808
10215.260106	5367.248333	532.645508	-105.990913
10215.260106	5367.248333	531.399414	-10.154822
10215.260106	5367.248333	530.152344	56.775253
10215.260106	5367.248333	528.905273	114.093750
10215.260106	5367.248333	527.658203	101.602867
10215.260106	5367.248333	526.410156	-88.999489
10215.260106	5367.248333	525.163086	124.939964
10215.260106	5367.248333	523.914063	170.372543
10215.260106	5367.248333	522.666016	-238.907379
10215.260106	5367.248333	521.416992	-17.688911
10215.260106	5367.248333	520.167969	-24.987856
10215.260106	5367.248333	518.918945	104.838478
10215.260106	5367.248333	517.669922	32.732525
10215.260106	5367.248333	516.419922	35.226124
10215.260106	5367.248333	515.169922	119.487625
10215.260106	5367.248333	513.919922	71.639931
10215.260106	5367.248333	512.668945	-40.976578
10215.260106	5367.248333	511.417969	113.085381
10215.260106	5367.248333	510.166992	87.077385
10215.260106	5367.248333	508.916016	13.140574
10215.260106	5367.248333	507.664063	284.890625
10215.260106	5367.248333	506.412109	93.507660
10215.260106	5367.248333	505.160156	144.564194
10215.260106	5367.248333	503.907227	334.772491
10215.260106	5367.248333	502.655273	256.410553
10215.260106	5367.248333	501.402344	257.263031
10215.260106	5367.248333	500.148438	23.292730
10215.260106	5367.248333	498.895508	520.369873
10215.260106	5367.248333	497.641602	490.226257
10215.260106	5367.248333	496.387695	400.281921
10215.260106	5367.248333	495.132813	80.544632
10215.260106	5367.248333	493.878906	414.645325
10215.260106	5367.248333	492.624023	523.655640
10215.260106	5367.248333	491.368164	599.177185
10215.260106	5367.248333	490.113281	624.487610
10215.260106	5367.248333	488.857422	530.238586
10215.260106	5367.248333	487.601563	562.849731
10215.260106	5367.248333	486.344727	705.500061
10215.260106	5367.248333	485.088867	805.116516
10215.260106	5367.248333	483.832031	696.805603
10215.260106	5367.248333	482.575195	918.361023
10215.260106	5367.248333	481.317383	963.078552
10215.260106	5367.248333	480.059570	742.695862
10215.260106	5367.248333	478.801758	899.768799
10215.260106	5367.248333	477.543945	989.966370
10215.260106	5367.248333	476.285156	1125.519165
10215.260106	5367.248333	475.027344	1031.947876
10215.260106	5367.248333	473.767578	814.375793
10215.260106	5367.248333	472.508789	1078.799316
10215.260106	5367.248333	471.249023	1216.730713
10215.260106	5367.248333	469.989258	1101.871582
10215.260106	5367.248333	468.729492	1258.851318
10215.260106	5367.248333	467.469727	1067.797119
10215.260106	5367.248333	466.208984	1169.930054
10215.260106	5367.248333	464.948242	1293.465088
10215.260106	5367.248333	463.686523	1328.813477
10215.260106	5367.248333	462.425781	1364.141479
10215.260106	5367.248333	461.164063	1287.538452
10215.260106	5367.248333	459.901367	1215.708252
10215.260106	5367.248333	458.639648	1236.698120
10215.260106	5367.248333	457.376953	1060.160034
10215.260106	5367.248333	456.114258	1307.085693
10215.260106	5367.248333	454.851563	1297.001465
10215.260106	5367.248333	453.587891	1227.419434
10215.260106	5367.248333	452.324219	1060.336060
10215.260106	5367.248333	451.060547	1309.183105
10215.260106	5367.248333	449.796875	1515.068970
10215.260106	5367.248333	448.532227	1060.323242
10215.260106	5367.248333	447.267578	1337.235962
10215.260106	5367.248333	446.002930	1397.822632
10215.260106	5367.248333	444.737305	1522.362549
10215.260106	5367.248333	443.471680	1456.822754
10215.260106	5367.248333	442.206055	1414.900757
10215.260106	5367.248333	440.940430	1614.849854
10215.260106	5367.248333	439.673828	1318.769409
10215.260106	5367.248333	438.407227	1349.920044
10215.260106	5367.248333	437.140625	1143.754639
10215.260106	5367.248333	435.873047	1454.256714
10215.260106	5367.248333	434.605469	1385.191406
10215.260106	5367.248333	433.337891	1507.856079
10215.260106	5367.248333	432.070313	1525.980103
10215.260106	5367.248333	430.801758	1380.398682
10215.260106	5367.248333	429.533203	1452.455933
10215.260106	5367.248333	428.264648	1453.158936
10215.260106	5367.248333	426.996094	1671.310181
10215.260106	5367.248333	425.726563	1799.103027
10215.260106	5367.248333	424.457031	1765.604248
10215.260106	5367.248333	423.186523	1696.261108
10215.260106	5367.248333	421.916992	1581.631714
10215.260106	5367.248333	420.646484	1608.501465
10215.260106	5367.248333	419.375977	1637.292847
10215.260106	5367.248333	418.104492	1703.428345
10215.260106	5367.248333	416.833008	1660.367920
10215.260106	5367.248333	415.561523	1964.098999
10215.260106	5367.248333	414.290039	1601.132935
10215.260106	5367.248333	413.017578	1776.160400
10215.260106	5367.248333	411.746094	1695.581299
10215.260106	5367.248333	410.472656	1680.514404
10215.260106	5367.248333	409.200195	1747.434814
10215.260106	5367.248333	407.926758	1792.435791
10215.260106	5367.248333	406.653320	1471.128906
10215.260106	5367.248333	405.379883	1613.838989
10215.260106	5367.248333	404.105469	1845.336670
10215.260106	5367.248333	402.831055	1892.103149
10215.260106	5367.248333	401.556641	1839.071777
10215.260106	5367.248333	400.282227	1797.017822
10215.260106	5367.248333	399.006836	1900.162598
10215.260106	5367.248333	397.731445	1766.848389
10215.260106	5367.248333	396.456055	1865.778564
10215.260106	5367.248333	395.179688	1949.561890
10215.260106	5367.248333	393.903320	1886.379028
10215.260106	5367.248333	392.626953	1669.230225
10215.260106	5367.248333	391.350586	1940.451050
10215.260106	5367.248333	390.073242	2085.755615
10215.260106	5367.248333	388.795898	1987.622314
10215.260106	5367.248333	387.518555	2048.209717
10215.260106	5367.248333	386.240234	1649.140381
10215.260106	5367.248333	384.961914	1937.536621
10215.260106	5367.248333	383.683594	1794.503052
10215.260106	5367.248333	382.405273	1941.442139
10215.260106	5367.248333	381.125977	1833.224609
10215.260106	5367.248333	379.846680	1812.808228
10215.260106	5367.248333	378.567383	1727.496338
10215.260106	5367.248333	377.287109	1654.703491
10215.260106	5367.248333	376.006836	1875.978027
10215.260106	5367.248333	374.726563	1896.069702
10215.260106	5367.248333	373.446289	1841.710693
10215.260106	5367.248333	372.165039	1604.989746
10215.260106	5367.248333	370.883789	1826.045166
10215.260106	5367.248333	369.602539	1663.033569
10215.260106	5367.248333	368.320313	1453.565063
10215.260106	5367.248333	367.039063	1727.193970
10215.260106	5367.248333	365.755859	1551.126709
10215.260106	5367.248333	364.473633	1714.949341
10215.260106	5367.248333	363.190430	1834.289551
10215.260106	5367.248333	361.907227	1377.772217
10215.260106	5367.248333	360.624023	1541.643799
10215.260106	5367.248333	359.340820	1356.718750
10215.260106	5367.248333	358.056641	1583.395020
10215.260106	5367.248333	356.772461	1629.647827
10215.260106	5367.248333	355.487305	1717.607300
10215.260106	5367.248333	354.202148	1400.691406
10215.260106	5367.248333	352.916992	1415.351074
10215.260106	5367.248333	351.631836	1314.955200
10215.260106	5367.248333	350.346680	1148.556885
10215.260106	5367.248333	349.060547	1079.558838
10215.260106	5367.248333	347.774414	1084.517578
10215.260106	5367.248333	346.487305	1202.919067
10215.260106	5367.248333	345.200195	1401.986938
10215.260106	5367.248333	343.913086	1177.483765
10215.260106	5367.248333	342.625977	993.912231
10215.260106	5367.248333	341.338867	893.138855
10215.260106	5367.248333	340.050781	961.220459
10215.260106	5367.248333	338.762695	969.516418
10215.260106	5367.248333	337.473633	999.468323
10215.260106	5367.248333	336.184570	976.460266
10215.260106	5367.248333	334.895508	895.760315
10215.260106	5367.248333	333.606445	843.497742
10215.260106	5367.248333	332.317383	814.885559
10215.260106	5367.248333	331.027344	574.491272
10215.260106	5367.248333	329.736328	501.819916
10215.260106	5367.248333	328.446289	573.591003
10215.260106	5367.248333	327.155273	538.027283
10215.260106	5367.248333	325.864258	558.055420
10215.260106	5367.248333	324.573242	345.073883
10215.260106	5367.248333	323.281250	464.106049
10215.260106	5367.248333	321.989258	261.566528
10215.260106	5367.248333	320.697266	102.502518
10215.260106	5367.248333	319.405273	-43.467026
10215.260106	5367.248333	318.112305	374.062866
10215.260106	5367.248333	316.819336	128.125519
10215.260106	5367.248333	315.526367	-70.277390
10215.260106	5367.248333	314.232422	-130.918808
10215.260106	5367.248333	312.938477	-114.248978
10215.260106	5367.248333	311.644531	-145.807816
10215.260106	5367.248333	310.349609	112.911453
10215.260106	5367.248333	309.054688	-145.657242
10215.260106	5367.248333	307.759766	-7.429803
10215.260106	5367.248333	306.464844	-10.848433
10215.260106	5367.248333	305.168945	191.595932
10215.260106	5367.248333	303.873047	198.767151
10215.260106	5367.248333	302.577148	24.522276
10215.260106	5367.248333	301.281250	62.699669
10215.260106	5367.248333	299.984375	189.983688
