#X		#Y		#Wave		#Intensity
10550.264894	5119.966667	1999.946289	-72.426178
10550.264894	5119.966667	1998.981445	-24.911079
10550.264894	5119.966667	1998.017578	61.514439
10550.264894	5119.966667	1997.052734	-52.863083
10550.264894	5119.966667	1996.088867	6.194359
10550.264894	5119.966667	1995.124023	75.097588
10550.264894	5119.966667	1994.159180	-29.436571
10550.264894	5119.966667	1993.193359	-39.872276
10550.264894	5119.966667	1992.228516	-13.204686
10550.264894	5119.966667	1991.262695	-78.171822
10550.264894	5119.966667	1990.296875	42.467148
10550.264894	5119.966667	1989.331055	59.100853
10550.264894	5119.966667	1988.365234	122.700684
10550.264894	5119.966667	1987.398438	65.042633
10550.264894	5119.966667	1986.432617	51.890125
10550.264894	5119.966667	1985.465820	36.240204
10550.264894	5119.966667	1984.499023	8.206575
10550.264894	5119.966667	1983.532227	-0.070782
10550.264894	5119.966667	1982.565430	11.398190
10550.264894	5119.966667	1981.597656	-56.227509
10550.264894	5119.966667	1980.629883	-10.218666
10550.264894	5119.966667	1979.662109	-21.056961
10550.264894	5119.966667	1978.694336	-17.097628
10550.264894	5119.966667	1977.726563	88.064575
10550.264894	5119.966667	1976.758789	64.806313
10550.264894	5119.966667	1975.790039	14.388136
10550.264894	5119.966667	1974.821289	60.204323
10550.264894	5119.966667	1973.852539	-46.974720
10550.264894	5119.966667	1972.883789	-107.265572
10550.264894	5119.966667	1971.915039	-7.248458
10550.264894	5119.966667	1970.945313	-18.242340
10550.264894	5119.966667	1969.975586	-26.781895
10550.264894	5119.966667	1969.005859	87.908073
10550.264894	5119.966667	1968.036133	89.181602
10550.264894	5119.966667	1967.066406	115.080933
10550.264894	5119.966667	1966.096680	-38.872208
10550.264894	5119.966667	1965.125977	23.962269
10550.264894	5119.966667	1964.155273	-46.213520
10550.264894	5119.966667	1963.184570	-32.663059
10550.264894	5119.966667	1962.213867	30.105042
10550.264894	5119.966667	1961.242188	31.312057
10550.264894	5119.966667	1960.271484	-38.848873
10550.264894	5119.966667	1959.299805	31.241621
10550.264894	5119.966667	1958.328125	-33.988552
10550.264894	5119.966667	1957.356445	40.980480
10550.264894	5119.966667	1956.384766	29.855820
10550.264894	5119.966667	1955.412109	53.146954
10550.264894	5119.966667	1954.439453	130.499771
10550.264894	5119.966667	1953.467773	28.423700
10550.264894	5119.966667	1952.495117	61.517902
10550.264894	5119.966667	1951.521484	-50.341656
10550.264894	5119.966667	1950.548828	63.801060
10550.264894	5119.966667	1949.575195	50.204334
10550.264894	5119.966667	1948.601563	53.797199
10550.264894	5119.966667	1947.627930	180.124771
10550.264894	5119.966667	1946.654297	-32.287636
10550.264894	5119.966667	1945.680664	52.292572
10550.264894	5119.966667	1944.706055	63.239204
10550.264894	5119.966667	1943.732422	64.370995
10550.264894	5119.966667	1942.757813	9.095545
10550.264894	5119.966667	1941.783203	-9.377932
10550.264894	5119.966667	1940.807617	-10.682995
10550.264894	5119.966667	1939.833008	10.074471
10550.264894	5119.966667	1938.857422	-67.199684
10550.264894	5119.966667	1937.881836	19.719332
10550.264894	5119.966667	1936.906250	-47.724102
10550.264894	5119.966667	1935.930664	-26.965981
10550.264894	5119.966667	1934.955078	-8.661066
10550.264894	5119.966667	1933.978516	31.675182
10550.264894	5119.966667	1933.001953	106.270409
10550.264894	5119.966667	1932.025391	9.520841
10550.264894	5119.966667	1931.048828	-50.483696
10550.264894	5119.966667	1930.072266	-19.939766
10550.264894	5119.966667	1929.094727	44.841728
10550.264894	5119.966667	1928.118164	68.028847
10550.264894	5119.966667	1927.140625	-155.749939
10550.264894	5119.966667	1926.163086	80.165260
10550.264894	5119.966667	1925.184570	-104.414391
10550.264894	5119.966667	1924.207031	-12.770141
10550.264894	5119.966667	1923.228516	-111.735680
10550.264894	5119.966667	1922.250000	-98.285919
10550.264894	5119.966667	1921.271484	-1.792575
10550.264894	5119.966667	1920.292969	21.411461
10550.264894	5119.966667	1919.314453	47.054562
10550.264894	5119.966667	1918.334961	104.427345
10550.264894	5119.966667	1917.355469	-18.819946
10550.264894	5119.966667	1916.375977	53.197289
10550.264894	5119.966667	1915.396484	0.769640
10550.264894	5119.966667	1914.416992	-56.510548
10550.264894	5119.966667	1913.436523	74.023064
10550.264894	5119.966667	1912.457031	38.708591
10550.264894	5119.966667	1911.476563	93.614990
10550.264894	5119.966667	1910.496094	26.636290
10550.264894	5119.966667	1909.515625	-113.419624
10550.264894	5119.966667	1908.534180	-60.932816
10550.264894	5119.966667	1907.552734	30.518061
10550.264894	5119.966667	1906.572266	0.161674
10550.264894	5119.966667	1905.590820	-66.703987
10550.264894	5119.966667	1904.608398	10.108092
10550.264894	5119.966667	1903.626953	55.253460
10550.264894	5119.966667	1902.644531	-77.277977
10550.264894	5119.966667	1901.663086	11.679793
10550.264894	5119.966667	1900.680664	71.416000
10550.264894	5119.966667	1899.698242	63.028873
10550.264894	5119.966667	1898.714844	13.307299
10550.264894	5119.966667	1897.732422	7.378145
10550.264894	5119.966667	1896.749023	103.561440
10550.264894	5119.966667	1895.765625	-123.554909
10550.264894	5119.966667	1894.782227	1.790987
10550.264894	5119.966667	1893.798828	37.197418
10550.264894	5119.966667	1892.814453	7.006741
10550.264894	5119.966667	1891.831055	-83.885979
10550.264894	5119.966667	1890.846680	-29.039822
10550.264894	5119.966667	1889.862305	69.493156
10550.264894	5119.966667	1888.877930	85.462601
10550.264894	5119.966667	1887.892578	-19.917059
10550.264894	5119.966667	1886.908203	0.926884
10550.264894	5119.966667	1885.922852	-182.020920
10550.264894	5119.966667	1884.937500	62.010433
10550.264894	5119.966667	1883.952148	92.542274
10550.264894	5119.966667	1882.965820	-0.592306
10550.264894	5119.966667	1881.980469	-25.808222
10550.264894	5119.966667	1880.994141	4.736138
10550.264894	5119.966667	1880.007813	161.286713
10550.264894	5119.966667	1879.021484	-16.574614
10550.264894	5119.966667	1878.035156	43.032341
10550.264894	5119.966667	1877.047852	-40.275887
10550.264894	5119.966667	1876.061523	-17.002663
10550.264894	5119.966667	1875.074219	-25.208693
10550.264894	5119.966667	1874.086914	99.724968
10550.264894	5119.966667	1873.098633	21.321589
10550.264894	5119.966667	1872.111328	-57.049194
10550.264894	5119.966667	1871.123047	38.797291
10550.264894	5119.966667	1870.135742	18.508245
10550.264894	5119.966667	1869.147461	65.942665
10550.264894	5119.966667	1868.158203	98.853508
10550.264894	5119.966667	1867.169922	-37.466267
10550.264894	5119.966667	1866.180664	104.219025
10550.264894	5119.966667	1865.192383	23.532389
10550.264894	5119.966667	1864.203125	63.680477
10550.264894	5119.966667	1863.213867	62.748970
10550.264894	5119.966667	1862.223633	44.912243
10550.264894	5119.966667	1861.234375	-103.311447
10550.264894	5119.966667	1860.244141	-89.724495
10550.264894	5119.966667	1859.253906	-32.693871
10550.264894	5119.966667	1858.263672	-11.885081
10550.264894	5119.966667	1857.273438	-0.736350
10550.264894	5119.966667	1856.282227	73.131042
10550.264894	5119.966667	1855.291992	67.374237
10550.264894	5119.966667	1854.300781	3.741132
10550.264894	5119.966667	1853.309570	51.040531
10550.264894	5119.966667	1852.317383	-22.211166
10550.264894	5119.966667	1851.326172	99.787476
10550.264894	5119.966667	1850.333984	72.334869
10550.264894	5119.966667	1849.342773	64.164597
10550.264894	5119.966667	1848.350586	123.441757
10550.264894	5119.966667	1847.357422	93.583824
10550.264894	5119.966667	1846.365234	49.286530
10550.264894	5119.966667	1845.372070	31.484501
10550.264894	5119.966667	1844.379883	-15.198293
10550.264894	5119.966667	1843.386719	-6.516697
10550.264894	5119.966667	1842.393555	23.812460
10550.264894	5119.966667	1841.399414	54.125366
10550.264894	5119.966667	1840.406250	103.664177
10550.264894	5119.966667	1839.412109	6.489932
10550.264894	5119.966667	1838.417969	125.733231
10550.264894	5119.966667	1837.423828	-38.726776
10550.264894	5119.966667	1836.429688	-82.961159
10550.264894	5119.966667	1835.434570	-19.052935
10550.264894	5119.966667	1834.440430	-17.639296
10550.264894	5119.966667	1833.445313	79.848305
10550.264894	5119.966667	1832.450195	-29.243185
10550.264894	5119.966667	1831.454102	39.382557
10550.264894	5119.966667	1830.458984	67.164085
10550.264894	5119.966667	1829.462891	-39.484882
10550.264894	5119.966667	1828.466797	-2.115334
10550.264894	5119.966667	1827.470703	-77.535629
10550.264894	5119.966667	1826.474609	101.343826
10550.264894	5119.966667	1825.478516	40.306236
10550.264894	5119.966667	1824.481445	-3.931715
10550.264894	5119.966667	1823.484375	126.855888
10550.264894	5119.966667	1822.487305	-10.884920
10550.264894	5119.966667	1821.490234	-7.183922
10550.264894	5119.966667	1820.493164	-17.870953
10550.264894	5119.966667	1819.495117	96.012093
10550.264894	5119.966667	1818.498047	1.455728
10550.264894	5119.966667	1817.500000	31.453554
10550.264894	5119.966667	1816.500977	-41.527905
10550.264894	5119.966667	1815.502930	29.141335
10550.264894	5119.966667	1814.504883	-86.915840
10550.264894	5119.966667	1813.505859	57.894360
10550.264894	5119.966667	1812.506836	-70.110725
10550.264894	5119.966667	1811.507813	-1.928412
10550.264894	5119.966667	1810.508789	20.774572
10550.264894	5119.966667	1809.508789	-6.758365
10550.264894	5119.966667	1808.508789	125.884888
10550.264894	5119.966667	1807.508789	81.584709
10550.264894	5119.966667	1806.508789	-115.660828
10550.264894	5119.966667	1805.508789	160.250824
10550.264894	5119.966667	1804.508789	34.705685
10550.264894	5119.966667	1803.507813	-11.986994
10550.264894	5119.966667	1802.506836	58.336941
10550.264894	5119.966667	1801.505859	123.844505
10550.264894	5119.966667	1800.504883	72.344322
10550.264894	5119.966667	1799.502930	-38.818508
10550.264894	5119.966667	1798.501953	7.536496
10550.264894	5119.966667	1797.500000	87.258675
10550.264894	5119.966667	1796.498047	54.825512
10550.264894	5119.966667	1795.496094	5.695043
10550.264894	5119.966667	1794.493164	63.864902
10550.264894	5119.966667	1793.491211	-30.575590
10550.264894	5119.966667	1792.488281	-41.575069
10550.264894	5119.966667	1791.485352	95.162621
10550.264894	5119.966667	1790.482422	91.258133
10550.264894	5119.966667	1789.478516	101.630424
10550.264894	5119.966667	1788.475586	83.402191
10550.264894	5119.966667	1787.471680	77.068726
10550.264894	5119.966667	1786.467773	-53.081276
10550.264894	5119.966667	1785.463867	-61.801910
10550.264894	5119.966667	1784.459961	-30.078945
10550.264894	5119.966667	1783.455078	-81.667595
10550.264894	5119.966667	1782.450195	9.484578
10550.264894	5119.966667	1781.445313	57.769733
10550.264894	5119.966667	1780.440430	48.944050
10550.264894	5119.966667	1779.435547	87.655556
10550.264894	5119.966667	1778.429688	52.639694
10550.264894	5119.966667	1777.424805	27.125761
10550.264894	5119.966667	1776.418945	-7.903979
10550.264894	5119.966667	1775.413086	42.590107
10550.264894	5119.966667	1774.406250	81.167130
10550.264894	5119.966667	1773.400391	72.212303
10550.264894	5119.966667	1772.393555	-0.871103
10550.264894	5119.966667	1771.386719	144.463470
10550.264894	5119.966667	1770.379883	23.882141
10550.264894	5119.966667	1769.373047	74.190926
10550.264894	5119.966667	1768.365234	10.570415
10550.264894	5119.966667	1767.358398	1.515700
10550.264894	5119.966667	1766.350586	-66.851906
10550.264894	5119.966667	1765.342773	54.491096
10550.264894	5119.966667	1764.334961	-23.386326
10550.264894	5119.966667	1763.326172	3.041800
10550.264894	5119.966667	1762.318359	31.809587
10550.264894	5119.966667	1761.309570	107.933929
10550.264894	5119.966667	1760.300781	122.411812
10550.264894	5119.966667	1759.291016	1.849718
10550.264894	5119.966667	1758.282227	-28.696585
10550.264894	5119.966667	1757.272461	56.763275
10550.264894	5119.966667	1756.262695	30.907053
10550.264894	5119.966667	1755.252930	59.475136
10550.264894	5119.966667	1754.243164	-108.398529
10550.264894	5119.966667	1753.233398	71.558922
10550.264894	5119.966667	1752.222656	26.704567
10550.264894	5119.966667	1751.211914	-44.170685
10550.264894	5119.966667	1750.201172	-122.135262
10550.264894	5119.966667	1749.190430	-93.708031
10550.264894	5119.966667	1748.179688	-96.041908
10550.264894	5119.966667	1747.167969	-39.319439
10550.264894	5119.966667	1746.156250	59.888103
10550.264894	5119.966667	1745.144531	147.222992
10550.264894	5119.966667	1744.132813	116.408318
10550.264894	5119.966667	1743.121094	47.799500
10550.264894	5119.966667	1742.108398	19.328142
10550.264894	5119.966667	1741.095703	-25.679438
10550.264894	5119.966667	1740.083008	-84.853897
10550.264894	5119.966667	1739.070313	146.202682
10550.264894	5119.966667	1738.057617	16.196312
10550.264894	5119.966667	1737.043945	143.313400
10550.264894	5119.966667	1736.030273	69.906006
10550.264894	5119.966667	1735.016602	1.218751
10550.264894	5119.966667	1734.002930	7.969141
10550.264894	5119.966667	1732.989258	66.545097
10550.264894	5119.966667	1731.974609	-46.948128
10550.264894	5119.966667	1730.959961	-19.061897
10550.264894	5119.966667	1729.945313	72.390060
10550.264894	5119.966667	1728.930664	-59.952110
10550.264894	5119.966667	1727.916016	-34.505413
10550.264894	5119.966667	1726.900391	-100.908821
10550.264894	5119.966667	1725.885742	-21.375593
10550.264894	5119.966667	1724.870117	-151.343124
10550.264894	5119.966667	1723.853516	38.701450
10550.264894	5119.966667	1722.837891	-39.523067
10550.264894	5119.966667	1721.822266	-9.551447
10550.264894	5119.966667	1720.805664	107.388344
10550.264894	5119.966667	1719.789063	-50.814091
10550.264894	5119.966667	1718.772461	-129.059357
10550.264894	5119.966667	1717.754883	-106.244179
10550.264894	5119.966667	1716.738281	48.124195
10550.264894	5119.966667	1715.720703	-56.010910
10550.264894	5119.966667	1714.703125	-45.038334
10550.264894	5119.966667	1713.685547	1.131327
10550.264894	5119.966667	1712.667969	-58.395916
10550.264894	5119.966667	1711.649414	-85.062302
10550.264894	5119.966667	1710.630859	-53.066883
10550.264894	5119.966667	1709.612305	11.744226
10550.264894	5119.966667	1708.593750	62.430408
10550.264894	5119.966667	1707.575195	56.777874
10550.264894	5119.966667	1706.555664	11.232961
10550.264894	5119.966667	1705.536133	71.196114
10550.264894	5119.966667	1704.516602	206.130798
10550.264894	5119.966667	1703.497070	155.825424
10550.264894	5119.966667	1702.477539	53.961472
10550.264894	5119.966667	1701.457031	158.291351
10550.264894	5119.966667	1700.437500	23.624224
10550.264894	5119.966667	1699.416992	95.084671
10550.264894	5119.966667	1698.395508	-2.103637
10550.264894	5119.966667	1697.375000	17.782904
10550.264894	5119.966667	1696.354492	72.749847
10550.264894	5119.966667	1695.333008	-61.890690
10550.264894	5119.966667	1694.311523	-86.530968
10550.264894	5119.966667	1693.290039	5.783731
10550.264894	5119.966667	1692.267578	-63.347183
10550.264894	5119.966667	1691.246094	-38.932266
10550.264894	5119.966667	1690.223633	-61.312115
10550.264894	5119.966667	1689.201172	58.886024
10550.264894	5119.966667	1688.178711	55.149097
10550.264894	5119.966667	1687.155273	-21.047581
10550.264894	5119.966667	1686.132813	-45.837109
10550.264894	5119.966667	1685.109375	-9.911830
10550.264894	5119.966667	1684.085938	23.643114
10550.264894	5119.966667	1683.062500	-68.918953
10550.264894	5119.966667	1682.039063	62.637222
10550.264894	5119.966667	1681.014648	35.409420
10550.264894	5119.966667	1679.990234	71.175865
10550.264894	5119.966667	1678.965820	53.247517
10550.264894	5119.966667	1677.941406	72.627213
10550.264894	5119.966667	1676.916992	101.307800
10550.264894	5119.966667	1675.891602	4.040792
10550.264894	5119.966667	1674.866211	88.630638
10550.264894	5119.966667	1673.840820	154.520874
10550.264894	5119.966667	1672.815430	80.544205
10550.264894	5119.966667	1671.790039	106.762321
10550.264894	5119.966667	1670.763672	123.630280
10550.264894	5119.966667	1669.737305	133.485352
10550.264894	5119.966667	1668.710938	159.617279
10550.264894	5119.966667	1667.684570	153.126846
10550.264894	5119.966667	1666.658203	16.270090
10550.264894	5119.966667	1665.630859	-106.592484
10550.264894	5119.966667	1664.603516	49.787392
10550.264894	5119.966667	1663.576172	166.541016
10550.264894	5119.966667	1662.548828	73.902237
10550.264894	5119.966667	1661.520508	81.272270
10550.264894	5119.966667	1660.493164	218.823410
10550.264894	5119.966667	1659.464844	186.609818
10550.264894	5119.966667	1658.436523	184.604736
10550.264894	5119.966667	1657.408203	126.816185
10550.264894	5119.966667	1656.378906	41.151180
10550.264894	5119.966667	1655.350586	134.356888
10550.264894	5119.966667	1654.321289	143.904816
10550.264894	5119.966667	1653.291992	44.305874
10550.264894	5119.966667	1652.261719	109.545166
10550.264894	5119.966667	1651.232422	109.760101
10550.264894	5119.966667	1650.202148	325.761475
10550.264894	5119.966667	1649.171875	128.696930
10550.264894	5119.966667	1648.141602	219.323090
10550.264894	5119.966667	1647.111328	170.750549
10550.264894	5119.966667	1646.080078	115.222618
10550.264894	5119.966667	1645.049805	126.934013
10550.264894	5119.966667	1644.018555	203.521561
10550.264894	5119.966667	1642.987305	161.881073
10550.264894	5119.966667	1641.955078	85.485817
10550.264894	5119.966667	1640.923828	224.539902
10550.264894	5119.966667	1639.891602	222.247910
10550.264894	5119.966667	1638.859375	180.578979
10550.264894	5119.966667	1637.827148	310.230621
10550.264894	5119.966667	1636.794922	361.122040
10550.264894	5119.966667	1635.761719	275.439362
10550.264894	5119.966667	1634.729492	372.568420
10550.264894	5119.966667	1633.696289	353.978882
10550.264894	5119.966667	1632.662109	349.258881
10550.264894	5119.966667	1631.628906	293.660004
10550.264894	5119.966667	1630.594727	265.812042
10550.264894	5119.966667	1629.561523	429.822601
10550.264894	5119.966667	1628.527344	314.117310
10550.264894	5119.966667	1627.493164	309.355835
10550.264894	5119.966667	1626.458008	316.133911
10550.264894	5119.966667	1625.423828	285.947906
10550.264894	5119.966667	1624.388672	396.625702
10550.264894	5119.966667	1623.353516	364.104858
10550.264894	5119.966667	1622.318359	303.887115
10550.264894	5119.966667	1621.282227	250.604797
10550.264894	5119.966667	1620.247070	340.401337
10550.264894	5119.966667	1619.210938	372.475647
10550.264894	5119.966667	1618.174805	330.719940
10550.264894	5119.966667	1617.137695	392.744995
10550.264894	5119.966667	1616.101563	440.908173
10550.264894	5119.966667	1615.064453	472.905457
10550.264894	5119.966667	1614.027344	435.740326
10550.264894	5119.966667	1612.990234	414.713898
10550.264894	5119.966667	1611.953125	501.971954
10550.264894	5119.966667	1610.916016	593.796997
10550.264894	5119.966667	1609.877930	515.156860
10550.264894	5119.966667	1608.839844	544.760986
10550.264894	5119.966667	1607.801758	482.265594
10550.264894	5119.966667	1606.763672	422.091797
10550.264894	5119.966667	1605.724609	527.618469
10550.264894	5119.966667	1604.685547	524.965881
10550.264894	5119.966667	1603.646484	630.423950
10550.264894	5119.966667	1602.607422	733.538269
10550.264894	5119.966667	1601.568359	588.274597
10550.264894	5119.966667	1600.528320	677.553162
10550.264894	5119.966667	1599.489258	640.381409
10550.264894	5119.966667	1598.449219	653.775085
10550.264894	5119.966667	1597.408203	506.326202
10550.264894	5119.966667	1596.368164	501.360565
10550.264894	5119.966667	1595.327148	565.292725
10550.264894	5119.966667	1594.287109	617.721436
10550.264894	5119.966667	1593.246094	571.406006
10550.264894	5119.966667	1592.204102	577.897522
10550.264894	5119.966667	1591.163086	570.620911
10550.264894	5119.966667	1590.121094	570.227539
10550.264894	5119.966667	1589.079102	556.070190
10550.264894	5119.966667	1588.037109	516.690613
10550.264894	5119.966667	1586.995117	495.672699
10550.264894	5119.966667	1585.953125	541.151917
10550.264894	5119.966667	1584.910156	442.202057
10550.264894	5119.966667	1583.867188	558.718750
10550.264894	5119.966667	1582.824219	567.500610
10550.264894	5119.966667	1581.781250	438.829773
10550.264894	5119.966667	1580.737305	557.574341
10550.264894	5119.966667	1579.693359	392.318939
10550.264894	5119.966667	1578.649414	437.768494
10550.264894	5119.966667	1577.605469	512.962341
10550.264894	5119.966667	1576.561523	478.277283
10550.264894	5119.966667	1575.516602	619.796326
10550.264894	5119.966667	1574.472656	452.425201
10550.264894	5119.966667	1573.427734	429.220245
10550.264894	5119.966667	1572.381836	419.747223
10550.264894	5119.966667	1571.336914	444.583191
10550.264894	5119.966667	1570.291016	453.410980
10550.264894	5119.966667	1569.246094	519.382324
10550.264894	5119.966667	1568.200195	505.354980
10550.264894	5119.966667	1567.153320	548.451294
10550.264894	5119.966667	1566.107422	584.690125
10550.264894	5119.966667	1565.060547	490.747620
10550.264894	5119.966667	1564.013672	499.596466
10550.264894	5119.966667	1562.966797	462.794586
10550.264894	5119.966667	1561.919922	330.157257
10550.264894	5119.966667	1560.872070	439.459473
10550.264894	5119.966667	1559.825195	551.012939
10550.264894	5119.966667	1558.777344	600.941711
10550.264894	5119.966667	1557.729492	644.019104
10550.264894	5119.966667	1556.680664	475.036407
10550.264894	5119.966667	1555.632813	629.846191
10550.264894	5119.966667	1554.583984	344.714630
10550.264894	5119.966667	1553.535156	472.162659
10550.264894	5119.966667	1552.486328	492.491394
10550.264894	5119.966667	1551.436523	503.709351
10550.264894	5119.966667	1550.387695	346.409729
10550.264894	5119.966667	1549.337891	296.198181
10550.264894	5119.966667	1548.288086	387.164459
10550.264894	5119.966667	1547.238281	478.107635
10550.264894	5119.966667	1546.187500	493.929413
10550.264894	5119.966667	1545.136719	491.557831
10550.264894	5119.966667	1544.086914	468.731415
10550.264894	5119.966667	1543.035156	443.647858
10550.264894	5119.966667	1541.984375	370.841492
10550.264894	5119.966667	1540.933594	470.856140
10550.264894	5119.966667	1539.881836	400.372803
10550.264894	5119.966667	1538.830078	386.745758
10550.264894	5119.966667	1537.778320	357.235016
10550.264894	5119.966667	1536.725586	441.328796
10550.264894	5119.966667	1535.673828	121.145287
10550.264894	5119.966667	1534.621094	309.737823
10550.264894	5119.966667	1533.568359	409.733490
10550.264894	5119.966667	1532.515625	298.615448
10550.264894	5119.966667	1531.461914	360.026794
10550.264894	5119.966667	1530.409180	224.040146
10550.264894	5119.966667	1529.355469	317.236298
10550.264894	5119.966667	1528.301758	358.250092
10550.264894	5119.966667	1527.247070	315.363800
10550.264894	5119.966667	1526.193359	236.242676
10550.264894	5119.966667	1525.138672	159.435913
10550.264894	5119.966667	1524.083984	150.665680
10550.264894	5119.966667	1523.029297	273.333557
10550.264894	5119.966667	1521.974609	146.788010
10550.264894	5119.966667	1520.918945	190.175217
10550.264894	5119.966667	1519.863281	140.724518
10550.264894	5119.966667	1518.807617	59.619297
10550.264894	5119.966667	1517.751953	209.447205
10550.264894	5119.966667	1516.696289	171.401855
10550.264894	5119.966667	1515.639648	208.057297
10550.264894	5119.966667	1514.583008	111.251648
10550.264894	5119.966667	1513.526367	111.761040
10550.264894	5119.966667	1512.469727	137.167740
10550.264894	5119.966667	1511.412109	173.888168
10550.264894	5119.966667	1510.355469	18.486750
10550.264894	5119.966667	1509.297852	220.239426
10550.264894	5119.966667	1508.240234	22.004196
10550.264894	5119.966667	1507.181641	144.654587
10550.264894	5119.966667	1506.124023	5.285110
10550.264894	5119.966667	1505.065430	39.870613
10550.264894	5119.966667	1504.006836	97.044395
10550.264894	5119.966667	1502.948242	7.498082
10550.264894	5119.966667	1501.888672	62.446621
10550.264894	5119.966667	1500.830078	60.992081
10550.264894	5119.966667	1499.770508	41.513844
10550.264894	5119.966667	1498.710938	-52.360790
10550.264894	5119.966667	1497.650391	-74.013954
10550.264894	5119.966667	1496.590820	-75.338417
10550.264894	5119.966667	1495.530273	-6.760274
10550.264894	5119.966667	1494.469727	-44.105450
10550.264894	5119.966667	1493.409180	8.720987
10550.264894	5119.966667	1492.348633	41.278324
10550.264894	5119.966667	1491.287109	-83.814941
10550.264894	5119.966667	1490.225586	-60.206635
10550.264894	5119.966667	1489.164063	-122.133865
10550.264894	5119.966667	1488.102539	-69.207756
10550.264894	5119.966667	1487.041016	-9.522855
10550.264894	5119.966667	1485.978516	14.163494
10550.264894	5119.966667	1484.916016	28.872749
10550.264894	5119.966667	1483.853516	-64.359261
10550.264894	5119.966667	1482.791016	-9.104612
10550.264894	5119.966667	1481.727539	-10.056600
10550.264894	5119.966667	1480.664063	36.234829
10550.264894	5119.966667	1479.600586	-77.015305
10550.264894	5119.966667	1478.537109	-95.831734
10550.264894	5119.966667	1477.473633	24.666580
10550.264894	5119.966667	1476.409180	62.018894
10550.264894	5119.966667	1475.344727	18.587700
10550.264894	5119.966667	1474.280273	-67.391487
10550.264894	5119.966667	1473.215820	10.423786
10550.264894	5119.966667	1472.151367	0.802709
10550.264894	5119.966667	1471.085938	-46.917461
10550.264894	5119.966667	1470.020508	-0.436895
10550.264894	5119.966667	1468.955078	-90.624580
10550.264894	5119.966667	1467.888672	94.728394
10550.264894	5119.966667	1466.823242	107.756416
10550.264894	5119.966667	1465.756836	-38.259022
10550.264894	5119.966667	1464.690430	-41.037792
10550.264894	5119.966667	1463.624023	115.273758
10550.264894	5119.966667	1462.556641	-19.153887
10550.264894	5119.966667	1461.490234	60.781597
10550.264894	5119.966667	1460.422852	-120.557442
10550.264894	5119.966667	1459.355469	51.137291
10550.264894	5119.966667	1458.287109	13.042236
10550.264894	5119.966667	1457.219727	43.893261
10550.264894	5119.966667	1456.151367	88.563690
10550.264894	5119.966667	1455.083008	85.871429
10550.264894	5119.966667	1454.014648	-14.623825
10550.264894	5119.966667	1452.945313	32.514282
10550.264894	5119.966667	1451.876953	110.446571
10550.264894	5119.966667	1450.807617	16.664347
10550.264894	5119.966667	1449.738281	183.205566
10550.264894	5119.966667	1448.668945	163.466812
10550.264894	5119.966667	1447.598633	67.303040
10550.264894	5119.966667	1446.528320	35.860519
10550.264894	5119.966667	1445.458008	89.357101
10550.264894	5119.966667	1444.387695	-4.620714
10550.264894	5119.966667	1443.317383	48.573647
10550.264894	5119.966667	1442.246094	69.311897
10550.264894	5119.966667	1441.174805	13.641973
10550.264894	5119.966667	1440.103516	-35.934109
10550.264894	5119.966667	1439.032227	39.337135
10550.264894	5119.966667	1437.960938	90.586632
10550.264894	5119.966667	1436.888672	232.838104
10550.264894	5119.966667	1435.816406	57.591454
10550.264894	5119.966667	1434.744141	67.061089
10550.264894	5119.966667	1433.670898	-49.577328
10550.264894	5119.966667	1432.598633	-36.962055
10550.264894	5119.966667	1431.525391	122.588791
10550.264894	5119.966667	1430.452148	75.997780
10550.264894	5119.966667	1429.378906	-29.839552
10550.264894	5119.966667	1428.304688	53.108101
10550.264894	5119.966667	1427.231445	-177.518097
10550.264894	5119.966667	1426.157227	6.228204
10550.264894	5119.966667	1425.083008	22.562374
10550.264894	5119.966667	1424.007813	71.741409
10550.264894	5119.966667	1422.933594	45.407661
10550.264894	5119.966667	1421.858398	-101.891670
10550.264894	5119.966667	1420.783203	45.846718
10550.264894	5119.966667	1419.708008	54.491482
10550.264894	5119.966667	1418.631836	162.535614
10550.264894	5119.966667	1417.555664	110.111702
10550.264894	5119.966667	1416.479492	7.047367
10550.264894	5119.966667	1415.403320	22.672695
10550.264894	5119.966667	1414.327148	78.836311
10550.264894	5119.966667	1413.250000	-0.850953
10550.264894	5119.966667	1412.173828	-10.146391
10550.264894	5119.966667	1411.096680	22.351862
10550.264894	5119.966667	1410.018555	0.127775
10550.264894	5119.966667	1408.941406	28.104515
10550.264894	5119.966667	1407.863281	-120.158150
10550.264894	5119.966667	1406.785156	233.876282
10550.264894	5119.966667	1405.707031	142.331329
10550.264894	5119.966667	1404.628906	158.411026
10550.264894	5119.966667	1403.549805	232.713333
10550.264894	5119.966667	1402.470703	107.725746
10550.264894	5119.966667	1401.391602	143.605469
10550.264894	5119.966667	1400.312500	27.333879
10550.264894	5119.966667	1399.233398	79.418274
10550.264894	5119.966667	1398.153320	120.617851
10550.264894	5119.966667	1397.073242	73.737823
10550.264894	5119.966667	1395.993164	-87.363472
10550.264894	5119.966667	1394.913086	49.556095
10550.264894	5119.966667	1393.832031	-6.775396
10550.264894	5119.966667	1392.750977	42.910984
10550.264894	5119.966667	1391.669922	98.820732
10550.264894	5119.966667	1390.588867	18.365398
10550.264894	5119.966667	1389.506836	-21.651136
10550.264894	5119.966667	1388.425781	204.753510
10550.264894	5119.966667	1387.343750	-57.450508
10550.264894	5119.966667	1386.261719	-74.064293
10550.264894	5119.966667	1385.178711	9.788424
10550.264894	5119.966667	1384.096680	56.808002
10550.264894	5119.966667	1383.013672	-125.158669
10550.264894	5119.966667	1381.930664	10.835682
10550.264894	5119.966667	1380.846680	-41.437046
10550.264894	5119.966667	1379.763672	-18.615141
10550.264894	5119.966667	1378.679688	85.877533
10550.264894	5119.966667	1377.595703	53.446117
10550.264894	5119.966667	1376.511719	8.080747
10550.264894	5119.966667	1375.427734	146.339890
10550.264894	5119.966667	1374.342773	175.833527
10550.264894	5119.966667	1373.257813	71.398277
10550.264894	5119.966667	1372.172852	-15.095848
10550.264894	5119.966667	1371.087891	-11.436082
10550.264894	5119.966667	1370.001953	97.262062
10550.264894	5119.966667	1368.916992	88.513916
10550.264894	5119.966667	1367.831055	9.050049
10550.264894	5119.966667	1366.744141	54.678513
10550.264894	5119.966667	1365.658203	24.252834
10550.264894	5119.966667	1364.571289	144.606293
10550.264894	5119.966667	1363.484375	173.093765
10550.264894	5119.966667	1362.397461	84.847427
10550.264894	5119.966667	1361.310547	135.351532
10550.264894	5119.966667	1360.222656	6.920971
10550.264894	5119.966667	1359.135742	168.373734
10550.264894	5119.966667	1358.047852	158.272934
10550.264894	5119.966667	1356.958984	163.415390
10550.264894	5119.966667	1355.871094	48.132061
10550.264894	5119.966667	1354.782227	101.709877
10550.264894	5119.966667	1353.693359	164.622574
10550.264894	5119.966667	1352.604492	246.951019
10550.264894	5119.966667	1351.515625	162.714096
10550.264894	5119.966667	1350.425781	73.109306
10550.264894	5119.966667	1349.335938	149.985718
10550.264894	5119.966667	1348.246094	133.337799
10550.264894	5119.966667	1347.156250	93.893372
10550.264894	5119.966667	1346.066406	181.570740
10550.264894	5119.966667	1344.975586	139.804794
10550.264894	5119.966667	1343.884766	129.672516
10550.264894	5119.966667	1342.793945	166.492065
10550.264894	5119.966667	1341.702148	152.795624
10550.264894	5119.966667	1340.611328	225.401581
10550.264894	5119.966667	1339.519531	216.971664
10550.264894	5119.966667	1338.427734	105.252602
10550.264894	5119.966667	1337.334961	167.443665
10550.264894	5119.966667	1336.243164	195.413315
10550.264894	5119.966667	1335.150391	186.923584
10550.264894	5119.966667	1334.057617	149.222046
10550.264894	5119.966667	1332.964844	272.401306
10550.264894	5119.966667	1331.871094	151.981491
10550.264894	5119.966667	1330.778320	104.807877
10550.264894	5119.966667	1329.684570	102.072922
10550.264894	5119.966667	1328.590820	127.665169
10550.264894	5119.966667	1327.496094	206.438904
10550.264894	5119.966667	1326.402344	121.639519
10550.264894	5119.966667	1325.307617	130.129120
10550.264894	5119.966667	1324.212891	39.284435
10550.264894	5119.966667	1323.117188	88.778664
10550.264894	5119.966667	1322.022461	45.045486
10550.264894	5119.966667	1320.926758	91.973557
10550.264894	5119.966667	1319.831055	3.978555
10550.264894	5119.966667	1318.735352	35.910831
10550.264894	5119.966667	1317.638672	-24.334625
10550.264894	5119.966667	1316.542969	-23.310217
10550.264894	5119.966667	1315.446289	-54.251579
10550.264894	5119.966667	1314.349609	39.791019
10550.264894	5119.966667	1313.251953	84.633072
10550.264894	5119.966667	1312.155273	5.836229
10550.264894	5119.966667	1311.057617	43.933109
10550.264894	5119.966667	1309.959961	-136.792679
10550.264894	5119.966667	1308.862305	57.709900
10550.264894	5119.966667	1307.763672	-54.070736
10550.264894	5119.966667	1306.665039	55.155315
10550.264894	5119.966667	1305.566406	1.144632
10550.264894	5119.966667	1304.467773	-2.291527
10550.264894	5119.966667	1303.369141	111.457413
10550.264894	5119.966667	1302.269531	6.074820
10550.264894	5119.966667	1301.169922	56.681522
10550.264894	5119.966667	1300.070313	33.587803
10550.264894	5119.966667	1298.970703	18.197685
10550.264894	5119.966667	1297.870117	107.466583
10550.264894	5119.966667	1296.769531	-97.600487
10550.264894	5119.966667	1295.668945	25.198847
10550.264894	5119.966667	1294.568359	32.264206
10550.264894	5119.966667	1293.466797	118.772263
10550.264894	5119.966667	1292.366211	58.790257
10550.264894	5119.966667	1291.264648	0.216244
10550.264894	5119.966667	1290.162109	21.341999
10550.264894	5119.966667	1289.060547	48.825947
10550.264894	5119.966667	1287.958008	-4.703756
10550.264894	5119.966667	1286.855469	126.200600
10550.264894	5119.966667	1285.752930	70.480141
10550.264894	5119.966667	1284.650391	-1.400578
10550.264894	5119.966667	1283.546875	0.142486
10550.264894	5119.966667	1282.444336	31.319311
10550.264894	5119.966667	1281.339844	30.778152
10550.264894	5119.966667	1280.236328	21.012262
10550.264894	5119.966667	1279.132813	0.541248
10550.264894	5119.966667	1278.028320	156.331055
10550.264894	5119.966667	1276.923828	50.736481
10550.264894	5119.966667	1275.819336	4.769911
10550.264894	5119.966667	1274.713867	80.209846
10550.264894	5119.966667	1273.608398	18.277237
10550.264894	5119.966667	1272.503906	62.352142
10550.264894	5119.966667	1271.397461	4.228728
10550.264894	5119.966667	1270.291992	63.928158
10550.264894	5119.966667	1269.185547	21.592278
10550.264894	5119.966667	1268.080078	-14.712884
10550.264894	5119.966667	1266.972656	99.660500
10550.264894	5119.966667	1265.866211	29.510300
10550.264894	5119.966667	1264.759766	-66.460121
10550.264894	5119.966667	1263.652344	6.579612
10550.264894	5119.966667	1262.544922	42.899139
10550.264894	5119.966667	1261.436523	29.091061
10550.264894	5119.966667	1260.329102	-80.393517
10550.264894	5119.966667	1259.220703	-123.989189
10550.264894	5119.966667	1258.112305	-110.482040
10550.264894	5119.966667	1257.003906	-23.499809
10550.264894	5119.966667	1255.895508	-92.848953
10550.264894	5119.966667	1254.786133	-96.350388
10550.264894	5119.966667	1253.676758	-68.326355
10550.264894	5119.966667	1252.567383	-111.233711
10550.264894	5119.966667	1251.458008	-88.075203
10550.264894	5119.966667	1250.347656	-29.479321
10550.264894	5119.966667	1249.237305	-52.022259
10550.264894	5119.966667	1248.126953	-43.703354
10550.264894	5119.966667	1247.016602	-91.548294
10550.264894	5119.966667	1245.905273	18.007820
10550.264894	5119.966667	1244.793945	-104.539474
10550.264894	5119.966667	1243.682617	77.620071
10550.264894	5119.966667	1242.571289	112.799141
10550.264894	5119.966667	1241.459961	90.384140
10550.264894	5119.966667	1240.347656	16.942944
10550.264894	5119.966667	1239.235352	63.669785
10550.264894	5119.966667	1238.123047	92.436920
10550.264894	5119.966667	1237.009766	97.709198
10550.264894	5119.966667	1235.897461	58.431496
10550.264894	5119.966667	1234.784180	156.586090
10550.264894	5119.966667	1233.670898	154.951645
10550.264894	5119.966667	1232.556641	163.598511
10550.264894	5119.966667	1231.443359	134.485687
10550.264894	5119.966667	1230.329102	191.120361
10550.264894	5119.966667	1229.214844	216.617172
10550.264894	5119.966667	1228.099609	223.900940
10550.264894	5119.966667	1226.985352	262.451141
10550.264894	5119.966667	1225.870117	261.209137
10550.264894	5119.966667	1224.754883	267.379303
10550.264894	5119.966667	1223.639648	273.301697
10550.264894	5119.966667	1222.523438	386.720520
10550.264894	5119.966667	1221.408203	307.785126
10550.264894	5119.966667	1220.291992	340.658600
10550.264894	5119.966667	1219.174805	293.258087
10550.264894	5119.966667	1218.058594	345.695831
10550.264894	5119.966667	1216.941406	339.625641
10550.264894	5119.966667	1215.824219	258.761169
10550.264894	5119.966667	1214.707031	277.630951
10550.264894	5119.966667	1213.589844	289.225891
10550.264894	5119.966667	1212.471680	180.109573
10550.264894	5119.966667	1211.353516	241.213928
10550.264894	5119.966667	1210.235352	98.215431
10550.264894	5119.966667	1209.117188	105.957077
10550.264894	5119.966667	1207.998047	143.931595
10550.264894	5119.966667	1206.878906	151.965485
10550.264894	5119.966667	1205.759766	85.056534
10550.264894	5119.966667	1204.640625	60.265465
10550.264894	5119.966667	1203.520508	23.132402
10550.264894	5119.966667	1202.401367	123.147568
10550.264894	5119.966667	1201.281250	174.877792
10550.264894	5119.966667	1200.160156	-1.809057
10550.264894	5119.966667	1199.040039	-7.330930
10550.264894	5119.966667	1197.918945	53.386799
10550.264894	5119.966667	1196.797852	22.345951
10550.264894	5119.966667	1195.676758	21.328480
10550.264894	5119.966667	1194.555664	-4.040887
10550.264894	5119.966667	1193.433594	-18.181530
10550.264894	5119.966667	1192.311523	27.947453
10550.264894	5119.966667	1191.189453	-14.369534
10550.264894	5119.966667	1190.066406	-88.553841
10550.264894	5119.966667	1188.944336	15.785252
10550.264894	5119.966667	1187.821289	45.069477
10550.264894	5119.966667	1186.698242	-39.559647
10550.264894	5119.966667	1185.574219	-99.110878
10550.264894	5119.966667	1184.451172	0.005276
10550.264894	5119.966667	1183.327148	-115.420837
10550.264894	5119.966667	1182.203125	-40.702747
10550.264894	5119.966667	1181.078125	-39.196896
10550.264894	5119.966667	1179.954102	41.446045
10550.264894	5119.966667	1178.829102	13.762462
10550.264894	5119.966667	1177.704102	5.839252
10550.264894	5119.966667	1176.579102	2.005273
10550.264894	5119.966667	1175.453125	-41.710209
10550.264894	5119.966667	1174.327148	-75.047653
10550.264894	5119.966667	1173.201172	-69.697502
10550.264894	5119.966667	1172.075195	-59.712955
10550.264894	5119.966667	1170.949219	-54.793236
10550.264894	5119.966667	1169.822266	15.808672
10550.264894	5119.966667	1168.695313	-45.758251
10550.264894	5119.966667	1167.568359	-63.607021
10550.264894	5119.966667	1166.440430	-12.183041
10550.264894	5119.966667	1165.313477	-84.186058
10550.264894	5119.966667	1164.185547	-112.475868
10550.264894	5119.966667	1163.057617	6.012082
10550.264894	5119.966667	1161.928711	10.235698
10550.264894	5119.966667	1160.800781	-99.234909
10550.264894	5119.966667	1159.671875	-80.129005
10550.264894	5119.966667	1158.541992	-132.371887
10550.264894	5119.966667	1157.413086	2.258010
10550.264894	5119.966667	1156.283203	52.142921
10550.264894	5119.966667	1155.154297	-64.734077
10550.264894	5119.966667	1154.023438	-3.196063
10550.264894	5119.966667	1152.893555	41.602585
10550.264894	5119.966667	1151.763672	75.872887
10550.264894	5119.966667	1150.632813	-8.464964
10550.264894	5119.966667	1149.501953	0.859339
10550.264894	5119.966667	1148.370117	117.746925
10550.264894	5119.966667	1147.239258	96.585854
10550.264894	5119.966667	1146.107422	49.077251
10550.264894	5119.966667	1144.975586	111.044220
10550.264894	5119.966667	1143.843750	36.313717
10550.264894	5119.966667	1142.710938	63.883015
10550.264894	5119.966667	1141.578125	89.635803
10550.264894	5119.966667	1140.445313	107.341911
10550.264894	5119.966667	1139.312500	95.069046
10550.264894	5119.966667	1138.178711	11.562960
10550.264894	5119.966667	1137.045898	59.525692
10550.264894	5119.966667	1135.912109	-42.575726
10550.264894	5119.966667	1134.777344	-31.961714
10550.264894	5119.966667	1133.643555	-78.460670
10550.264894	5119.966667	1132.508789	4.736888
10550.264894	5119.966667	1131.374023	-6.581397
10550.264894	5119.966667	1130.239258	-35.018467
10550.264894	5119.966667	1129.104492	50.471668
10550.264894	5119.966667	1127.968750	4.931294
10550.264894	5119.966667	1126.833008	-22.676592
10550.264894	5119.966667	1125.697266	61.955486
10550.264894	5119.966667	1124.560547	50.581436
10550.264894	5119.966667	1123.424805	-12.130005
10550.264894	5119.966667	1122.288086	15.939717
10550.264894	5119.966667	1121.151367	72.062286
10550.264894	5119.966667	1120.013672	97.629265
10550.264894	5119.966667	1118.876953	51.486515
10550.264894	5119.966667	1117.739258	81.270309
10550.264894	5119.966667	1116.601563	-41.802048
10550.264894	5119.966667	1115.462891	29.936342
10550.264894	5119.966667	1114.324219	10.159865
10550.264894	5119.966667	1113.186523	-6.727776
10550.264894	5119.966667	1112.046875	32.861649
10550.264894	5119.966667	1110.908203	-12.397375
10550.264894	5119.966667	1109.769531	40.731846
10550.264894	5119.966667	1108.629883	127.753281
10550.264894	5119.966667	1107.490234	17.157591
10550.264894	5119.966667	1106.349609	-0.728532
10550.264894	5119.966667	1105.209961	-30.306585
10550.264894	5119.966667	1104.069336	34.549797
10550.264894	5119.966667	1102.928711	28.754944
10550.264894	5119.966667	1101.787109	11.696280
10550.264894	5119.966667	1100.646484	137.676804
10550.264894	5119.966667	1099.504883	6.867671
10550.264894	5119.966667	1098.363281	2.384470
10550.264894	5119.966667	1097.221680	87.068428
10550.264894	5119.966667	1096.079102	103.558601
10550.264894	5119.966667	1094.936523	122.641037
10550.264894	5119.966667	1093.793945	130.955322
10550.264894	5119.966667	1092.651367	31.183035
10550.264894	5119.966667	1091.507813	3.823995
10550.264894	5119.966667	1090.364258	42.132610
10550.264894	5119.966667	1089.220703	-94.339424
10550.264894	5119.966667	1088.077148	-10.161740
10550.264894	5119.966667	1086.933594	48.108234
10550.264894	5119.966667	1085.789063	185.160919
10550.264894	5119.966667	1084.644531	57.838734
10550.264894	5119.966667	1083.499023	31.259783
10550.264894	5119.966667	1082.354492	73.216232
10550.264894	5119.966667	1081.208984	-37.657433
10550.264894	5119.966667	1080.063477	55.715157
10550.264894	5119.966667	1078.917969	-93.526627
10550.264894	5119.966667	1077.771484	41.868557
10550.264894	5119.966667	1076.625977	47.519005
10550.264894	5119.966667	1075.479492	-37.147034
10550.264894	5119.966667	1074.332031	-5.769528
10550.264894	5119.966667	1073.185547	24.384916
10550.264894	5119.966667	1072.038086	52.471745
10550.264894	5119.966667	1070.890625	45.368282
10550.264894	5119.966667	1069.743164	61.206841
10550.264894	5119.966667	1068.594727	41.292351
10550.264894	5119.966667	1067.447266	10.351336
10550.264894	5119.966667	1066.298828	-114.036621
10550.264894	5119.966667	1065.149414	53.121826
10550.264894	5119.966667	1064.000977	37.982281
10550.264894	5119.966667	1062.851563	67.849564
10550.264894	5119.966667	1061.702148	116.457863
10550.264894	5119.966667	1060.552734	98.810600
10550.264894	5119.966667	1059.402344	-73.545235
10550.264894	5119.966667	1058.252930	70.553978
10550.264894	5119.966667	1057.102539	-8.991664
10550.264894	5119.966667	1055.951172	-29.584539
10550.264894	5119.966667	1054.800781	41.602173
10550.264894	5119.966667	1053.649414	87.817596
10550.264894	5119.966667	1052.498047	26.048277
10550.264894	5119.966667	1051.346680	141.403381
10550.264894	5119.966667	1050.194336	130.472504
10550.264894	5119.966667	1049.042969	204.919327
10550.264894	5119.966667	1047.890625	88.053093
10550.264894	5119.966667	1046.738281	56.017693
10550.264894	5119.966667	1045.584961	16.358706
10550.264894	5119.966667	1044.431641	-32.071442
10550.264894	5119.966667	1043.278320	60.921150
10550.264894	5119.966667	1042.125000	-3.660788
10550.264894	5119.966667	1040.971680	-25.302792
10550.264894	5119.966667	1039.817383	94.824806
10550.264894	5119.966667	1038.663086	88.534019
10550.264894	5119.966667	1037.508789	87.305367
10550.264894	5119.966667	1036.353516	44.986794
10550.264894	5119.966667	1035.198242	85.910873
10550.264894	5119.966667	1034.042969	91.671432
10550.264894	5119.966667	1032.887695	66.264626
10550.264894	5119.966667	1031.732422	126.499855
10550.264894	5119.966667	1030.576172	67.959831
10550.264894	5119.966667	1029.419922	49.146198
10550.264894	5119.966667	1028.263672	-0.253966
10550.264894	5119.966667	1027.106445	43.083958
10550.264894	5119.966667	1025.949219	39.218052
10550.264894	5119.966667	1024.792969	-14.811830
10550.264894	5119.966667	1023.634766	-30.784069
10550.264894	5119.966667	1022.477539	30.237364
10550.264894	5119.966667	1021.319336	85.799934
10550.264894	5119.966667	1020.161133	39.059490
10550.264894	5119.966667	1019.002930	-119.156731
10550.264894	5119.966667	1017.843750	-47.918274
10550.264894	5119.966667	1016.684570	75.696136
10550.264894	5119.966667	1015.525391	-61.177650
10550.264894	5119.966667	1014.366211	-69.955544
10550.264894	5119.966667	1013.207031	62.526867
10550.264894	5119.966667	1012.046875	21.293701
10550.264894	5119.966667	1010.886719	-61.798843
10550.264894	5119.966667	1009.726563	42.201488
10550.264894	5119.966667	1008.565430	-80.274727
10550.264894	5119.966667	1007.404297	17.649023
10550.264894	5119.966667	1006.243164	68.616653
10550.264894	5119.966667	1005.082031	60.353378
10550.264894	5119.966667	1003.920898	53.770218
10550.264894	5119.966667	1002.758789	28.116264
10550.264894	5119.966667	1001.596680	4.194884
10550.264894	5119.966667	1000.433594	137.242935
10550.264894	5119.966667	999.271484	156.064667
10550.264894	5119.966667	998.108398	-29.330963
10550.264894	5119.966667	996.945313	111.010864
10550.264894	5119.966667	995.782227	145.511673
10550.264894	5119.966667	994.618164	92.949501
10550.264894	5119.966667	993.454102	103.215492
10550.264894	5119.966667	992.290039	246.666229
10550.264894	5119.966667	991.125977	241.813568
10550.264894	5119.966667	989.960938	25.080770
10550.264894	5119.966667	988.796875	202.501602
10550.264894	5119.966667	987.630859	149.030838
10550.264894	5119.966667	986.465820	119.714241
10550.264894	5119.966667	985.300781	42.213833
10550.264894	5119.966667	984.134766	220.201096
10550.264894	5119.966667	982.968750	53.943779
10550.264894	5119.966667	981.801758	19.127016
10550.264894	5119.966667	980.635742	46.722771
10550.264894	5119.966667	979.468750	97.256187
10550.264894	5119.966667	978.301758	181.550476
10550.264894	5119.966667	977.133789	76.594688
10550.264894	5119.966667	975.966797	116.009583
10550.264894	5119.966667	974.798828	142.248901
10550.264894	5119.966667	973.630859	32.624939
10550.264894	5119.966667	972.461914	-9.271750
10550.264894	5119.966667	971.293945	113.320328
10550.264894	5119.966667	970.125000	128.135590
10550.264894	5119.966667	968.956055	45.167030
10550.264894	5119.966667	967.786133	15.317671
10550.264894	5119.966667	966.617188	-86.607437
10550.264894	5119.966667	965.447266	14.713421
10550.264894	5119.966667	964.276367	3.294280
10550.264894	5119.966667	963.106445	-89.227936
10550.264894	5119.966667	961.935547	68.865868
10550.264894	5119.966667	960.764648	-19.075966
10550.264894	5119.966667	959.593750	-32.869930
10550.264894	5119.966667	958.422852	1.782729
10550.264894	5119.966667	957.250977	50.422363
10550.264894	5119.966667	956.079102	129.501617
10550.264894	5119.966667	954.907227	55.139046
10550.264894	5119.966667	953.734375	-25.788589
10550.264894	5119.966667	952.562500	77.622200
10550.264894	5119.966667	951.389648	40.981186
10550.264894	5119.966667	950.215820	-24.619469
10550.264894	5119.966667	949.042969	27.860275
10550.264894	5119.966667	947.869141	-31.318758
10550.264894	5119.966667	946.695313	63.929939
10550.264894	5119.966667	945.521484	-101.819000
10550.264894	5119.966667	944.346680	52.420471
10550.264894	5119.966667	943.172852	85.967537
10550.264894	5119.966667	941.998047	-11.712742
10550.264894	5119.966667	940.822266	-75.349953
10550.264894	5119.966667	939.647461	-16.501320
10550.264894	5119.966667	938.471680	-3.125415
10550.264894	5119.966667	937.295898	110.159271
10550.264894	5119.966667	936.119141	78.184425
10550.264894	5119.966667	934.943359	84.756172
10550.264894	5119.966667	933.766602	52.760593
10550.264894	5119.966667	932.589844	14.020645
10550.264894	5119.966667	931.413086	161.106812
10550.264894	5119.966667	930.235352	76.978157
10550.264894	5119.966667	929.057617	201.348785
10550.264894	5119.966667	927.879883	185.231293
10550.264894	5119.966667	926.702148	137.329254
10550.264894	5119.966667	925.523438	164.213242
10550.264894	5119.966667	924.344727	102.744614
10550.264894	5119.966667	923.166016	20.902784
10550.264894	5119.966667	921.987305	127.010422
10550.264894	5119.966667	920.807617	153.840744
10550.264894	5119.966667	919.627930	154.264877
10550.264894	5119.966667	919.497070	-124.841011
10550.264894	5119.966667	918.331055	30.985405
10550.264894	5119.966667	917.165039	-19.131681
10550.264894	5119.966667	915.999023	-85.069557
10550.264894	5119.966667	914.833008	-96.714546
10550.264894	5119.966667	913.666016	-164.885757
10550.264894	5119.966667	912.499023	-47.676399
10550.264894	5119.966667	911.332031	15.237173
10550.264894	5119.966667	910.165039	66.820198
10550.264894	5119.966667	908.997070	-71.390518
10550.264894	5119.966667	907.830078	-132.757477
10550.264894	5119.966667	906.661133	-85.712524
10550.264894	5119.966667	905.493164	-13.858687
10550.264894	5119.966667	904.325195	-2.986789
10550.264894	5119.966667	903.156250	-111.736809
10550.264894	5119.966667	901.987305	-94.092766
10550.264894	5119.966667	900.818359	-121.580154
10550.264894	5119.966667	899.648438	15.585099
10550.264894	5119.966667	898.478516	-140.458450
10550.264894	5119.966667	897.308594	-91.283195
10550.264894	5119.966667	896.138672	-66.928055
10550.264894	5119.966667	894.968750	-35.827457
10550.264894	5119.966667	893.797852	-133.173691
10550.264894	5119.966667	892.626953	39.836124
10550.264894	5119.966667	891.456055	-62.000523
10550.264894	5119.966667	890.284180	77.138000
10550.264894	5119.966667	889.113281	72.131500
10550.264894	5119.966667	887.941406	40.112362
10550.264894	5119.966667	886.768555	77.863663
10550.264894	5119.966667	885.596680	144.843842
10550.264894	5119.966667	884.423828	67.826851
10550.264894	5119.966667	883.250977	-18.158821
10550.264894	5119.966667	882.078125	-122.101837
10550.264894	5119.966667	880.905273	28.026720
10550.264894	5119.966667	879.731445	61.213715
10550.264894	5119.966667	878.557617	-35.952065
10550.264894	5119.966667	877.383789	46.654480
10550.264894	5119.966667	876.209961	84.298599
10550.264894	5119.966667	875.035156	-91.425453
10550.264894	5119.966667	873.860352	13.584543
10550.264894	5119.966667	872.685547	132.017166
10550.264894	5119.966667	871.510742	-30.152397
10550.264894	5119.966667	870.334961	-23.962709
10550.264894	5119.966667	869.159180	159.456757
10550.264894	5119.966667	867.983398	66.905655
10550.264894	5119.966667	866.807617	187.433624
10550.264894	5119.966667	865.630859	124.056534
10550.264894	5119.966667	864.454102	136.918823
10550.264894	5119.966667	863.277344	230.455902
10550.264894	5119.966667	862.100586	32.657074
10550.264894	5119.966667	860.922852	27.600214
10550.264894	5119.966667	859.745117	0.144856
10550.264894	5119.966667	858.567383	30.921444
10550.264894	5119.966667	857.389648	-50.261360
10550.264894	5119.966667	856.210938	20.800253
10550.264894	5119.966667	855.032227	29.167244
10550.264894	5119.966667	853.853516	-9.459156
10550.264894	5119.966667	852.674805	-103.998077
10550.264894	5119.966667	851.495117	63.181515
10550.264894	5119.966667	850.315430	-46.990273
10550.264894	5119.966667	849.135742	-0.621553
10550.264894	5119.966667	847.956055	16.668337
10550.264894	5119.966667	846.775391	29.480154
10550.264894	5119.966667	845.595703	-18.041538
10550.264894	5119.966667	844.415039	-76.714569
10550.264894	5119.966667	843.233398	45.538738
10550.264894	5119.966667	842.052734	27.065821
10550.264894	5119.966667	840.871094	35.388683
10550.264894	5119.966667	839.689453	-45.573826
10550.264894	5119.966667	838.506836	69.871307
10550.264894	5119.966667	837.325195	67.019775
10550.264894	5119.966667	836.142578	-13.903814
10550.264894	5119.966667	834.959961	-117.097557
10550.264894	5119.966667	833.777344	-10.657867
10550.264894	5119.966667	832.593750	26.629971
10550.264894	5119.966667	831.410156	5.952129
10550.264894	5119.966667	830.226563	52.131371
10550.264894	5119.966667	829.042969	-19.787134
10550.264894	5119.966667	827.858398	21.920595
10550.264894	5119.966667	826.673828	-103.412056
10550.264894	5119.966667	825.489258	9.540343
10550.264894	5119.966667	824.304688	53.437454
10550.264894	5119.966667	823.120117	-65.151886
10550.264894	5119.966667	821.934570	98.895699
10550.264894	5119.966667	820.749023	31.509775
10550.264894	5119.966667	819.562500	-9.159677
10550.264894	5119.966667	818.376953	-16.457850
10550.264894	5119.966667	817.190430	22.934275
10550.264894	5119.966667	816.003906	-48.832798
10550.264894	5119.966667	814.817383	-78.346985
10550.264894	5119.966667	813.629883	-138.957123
10550.264894	5119.966667	812.442383	-30.714590
10550.264894	5119.966667	811.254883	-11.357968
10550.264894	5119.966667	810.067383	-118.581146
10550.264894	5119.966667	808.878906	-74.797661
10550.264894	5119.966667	807.690430	0.040695
10550.264894	5119.966667	806.501953	-25.016088
10550.264894	5119.966667	805.313477	-27.877487
10550.264894	5119.966667	804.124023	-15.212183
10550.264894	5119.966667	802.934570	8.534368
10550.264894	5119.966667	801.745117	94.353554
10550.264894	5119.966667	800.555664	33.822704
10550.264894	5119.966667	799.365234	61.970139
10550.264894	5119.966667	798.175781	8.113506
10550.264894	5119.966667	796.985352	18.525585
10550.264894	5119.966667	795.793945	42.220936
10550.264894	5119.966667	794.603516	34.899776
10550.264894	5119.966667	793.412109	58.576324
10550.264894	5119.966667	792.220703	113.230881
10550.264894	5119.966667	791.028320	39.495262
10550.264894	5119.966667	789.836914	129.528671
10550.264894	5119.966667	788.644531	9.356274
10550.264894	5119.966667	787.452148	55.115856
10550.264894	5119.966667	786.258789	27.878653
10550.264894	5119.966667	785.066406	-28.092604
10550.264894	5119.966667	783.873047	46.371510
10550.264894	5119.966667	782.679688	10.302087
10550.264894	5119.966667	781.485352	73.671951
10550.264894	5119.966667	780.291992	108.293648
10550.264894	5119.966667	779.097656	96.516510
10550.264894	5119.966667	777.903320	22.911896
10550.264894	5119.966667	776.708008	132.571030
10550.264894	5119.966667	775.512695	78.845795
10550.264894	5119.966667	774.318359	108.995087
10550.264894	5119.966667	773.122070	-6.488993
10550.264894	5119.966667	771.926758	47.920231
10550.264894	5119.966667	770.730469	53.783436
10550.264894	5119.966667	769.534180	134.606323
10550.264894	5119.966667	768.337891	138.233978
10550.264894	5119.966667	767.141602	11.817618
10550.264894	5119.966667	765.944336	66.139801
10550.264894	5119.966667	764.747070	208.557556
10550.264894	5119.966667	763.549805	260.601746
10550.264894	5119.966667	762.351563	176.082977
10550.264894	5119.966667	761.154297	294.151794
10550.264894	5119.966667	759.956055	326.315521
10550.264894	5119.966667	758.757813	226.410965
10550.264894	5119.966667	757.558594	278.364899
10550.264894	5119.966667	756.359375	193.897430
10550.264894	5119.966667	755.160156	261.218811
10550.264894	5119.966667	753.960938	156.984680
10550.264894	5119.966667	752.761719	222.072525
10550.264894	5119.966667	751.561523	291.521423
10550.264894	5119.966667	750.361328	286.215027
10550.264894	5119.966667	749.160156	351.211456
10550.264894	5119.966667	747.959961	376.632477
10550.264894	5119.966667	746.758789	320.774170
10550.264894	5119.966667	745.557617	332.999237
10550.264894	5119.966667	744.356445	450.585022
10550.264894	5119.966667	743.154297	425.447784
10550.264894	5119.966667	741.952148	330.091064
10550.264894	5119.966667	740.750000	399.310150
10550.264894	5119.966667	739.547852	328.108185
10550.264894	5119.966667	738.344727	370.962921
10550.264894	5119.966667	737.142578	402.827301
10550.264894	5119.966667	735.939453	493.854675
10550.264894	5119.966667	734.735352	341.561371
10550.264894	5119.966667	733.532227	287.924652
10550.264894	5119.966667	732.328125	317.546936
10550.264894	5119.966667	731.124023	160.972900
10550.264894	5119.966667	729.918945	326.355438
10550.264894	5119.966667	728.714844	42.840309
10550.264894	5119.966667	727.509766	216.910980
10550.264894	5119.966667	726.303711	163.299164
10550.264894	5119.966667	725.098633	120.638191
10550.264894	5119.966667	723.892578	147.983276
10550.264894	5119.966667	722.686523	15.648892
10550.264894	5119.966667	721.480469	-35.738194
10550.264894	5119.966667	720.274414	57.168972
10550.264894	5119.966667	719.067383	-5.160135
10550.264894	5119.966667	717.860352	-47.808945
10550.264894	5119.966667	716.653320	82.143478
10550.264894	5119.966667	715.445313	54.756905
10550.264894	5119.966667	714.238281	77.596710
10550.264894	5119.966667	713.030273	10.893232
10550.264894	5119.966667	711.821289	31.520733
10550.264894	5119.966667	710.613281	73.950180
10550.264894	5119.966667	709.404297	125.074669
10550.264894	5119.966667	708.195313	-37.631031
10550.264894	5119.966667	706.986328	131.245468
10550.264894	5119.966667	705.776367	79.788994
10550.264894	5119.966667	704.566406	-71.950462
10550.264894	5119.966667	703.356445	107.678261
10550.264894	5119.966667	702.146484	-30.959805
10550.264894	5119.966667	700.935547	137.658096
10550.264894	5119.966667	699.724609	53.497787
10550.264894	5119.966667	698.513672	119.631813
10550.264894	5119.966667	697.302734	133.462570
10550.264894	5119.966667	696.090820	192.986389
10550.264894	5119.966667	694.878906	76.168419
10550.264894	5119.966667	693.666992	144.348541
10550.264894	5119.966667	692.455078	-42.065475
10550.264894	5119.966667	691.242188	-8.728224
10550.264894	5119.966667	690.029297	-68.935486
10550.264894	5119.966667	688.816406	-20.423302
10550.264894	5119.966667	687.602539	-28.469584
10550.264894	5119.966667	686.389648	11.282907
10550.264894	5119.966667	685.175781	-66.336716
10550.264894	5119.966667	683.960938	60.264095
10550.264894	5119.966667	682.747070	89.054482
10550.264894	5119.966667	681.532227	-42.879444
10550.264894	5119.966667	680.317383	-11.948572
10550.264894	5119.966667	679.102539	53.678459
10550.264894	5119.966667	677.886719	73.684074
10550.264894	5119.966667	676.670898	98.000206
10550.264894	5119.966667	675.455078	130.962372
10550.264894	5119.966667	674.239258	100.995201
10550.264894	5119.966667	673.022461	34.158020
10550.264894	5119.966667	671.805664	28.027367
10550.264894	5119.966667	670.588867	45.719284
10550.264894	5119.966667	669.372070	15.709444
10550.264894	5119.966667	668.154297	76.681870
10550.264894	5119.966667	666.936523	105.116486
10550.264894	5119.966667	665.718750	-2.914101
10550.264894	5119.966667	664.500977	-19.986458
10550.264894	5119.966667	663.282227	75.486946
10550.264894	5119.966667	662.063477	80.001015
10550.264894	5119.966667	660.844727	54.198185
10550.264894	5119.966667	659.625000	-77.618477
10550.264894	5119.966667	658.405273	-55.841942
10550.264894	5119.966667	657.185547	-3.824885
10550.264894	5119.966667	655.965820	37.337597
10550.264894	5119.966667	654.745117	-157.140839
10550.264894	5119.966667	653.525391	-59.824608
10550.264894	5119.966667	652.303711	-14.428510
10550.264894	5119.966667	651.083008	-23.076591
10550.264894	5119.966667	649.861328	-31.746288
10550.264894	5119.966667	648.640625	-49.071915
10550.264894	5119.966667	647.417969	91.169510
10550.264894	5119.966667	646.196289	-40.612617
10550.264894	5119.966667	644.973633	30.469122
10550.264894	5119.966667	643.750977	73.450485
10550.264894	5119.966667	642.528320	58.152691
10550.264894	5119.966667	641.305664	122.624969
10550.264894	5119.966667	640.082031	61.996811
10550.264894	5119.966667	638.858398	-20.186157
10550.264894	5119.966667	637.634766	80.821602
10550.264894	5119.966667	636.410156	63.256233
10550.264894	5119.966667	635.185547	-6.026515
10550.264894	5119.966667	633.960938	-92.534752
10550.264894	5119.966667	632.736328	-21.845173
10550.264894	5119.966667	631.510742	70.315407
10550.264894	5119.966667	630.285156	33.271591
10550.264894	5119.966667	629.059570	-57.578701
10550.264894	5119.966667	627.833984	-176.384659
10550.264894	5119.966667	626.607422	-4.787465
10550.264894	5119.966667	625.380859	37.680904
10550.264894	5119.966667	624.154297	0.553884
10550.264894	5119.966667	622.927734	55.849300
10550.264894	5119.966667	621.700195	-0.661239
10550.264894	5119.966667	620.472656	52.409328
10550.264894	5119.966667	619.245117	-72.870865
10550.264894	5119.966667	618.016602	-56.372829
10550.264894	5119.966667	616.788086	-76.411575
10550.264894	5119.966667	615.559570	81.721420
10550.264894	5119.966667	614.331055	12.243011
10550.264894	5119.966667	613.101563	69.377586
10550.264894	5119.966667	611.872070	-111.687080
10550.264894	5119.966667	610.642578	11.894530
10550.264894	5119.966667	609.413086	-12.577951
10550.264894	5119.966667	608.182617	3.671089
10550.264894	5119.966667	606.952148	19.887632
10550.264894	5119.966667	605.721680	-73.231697
10550.264894	5119.966667	604.491211	-114.910690
10550.264894	5119.966667	603.259766	12.642817
10550.264894	5119.966667	602.028320	-176.876114
10550.264894	5119.966667	600.796875	70.503838
10550.264894	5119.966667	599.564453	-29.079523
10550.264894	5119.966667	598.332031	27.609486
10550.264894	5119.966667	597.099609	-18.471493
10550.264894	5119.966667	595.867188	48.839790
10550.264894	5119.966667	594.633789	-99.954376
10550.264894	5119.966667	593.400391	104.168640
10550.264894	5119.966667	592.166992	173.473892
10550.264894	5119.966667	590.933594	31.088482
10550.264894	5119.966667	589.699219	-53.555157
10550.264894	5119.966667	588.464844	73.360130
10550.264894	5119.966667	587.230469	133.970032
10550.264894	5119.966667	585.995117	34.334133
10550.264894	5119.966667	584.760742	143.995438
10550.264894	5119.966667	583.525391	-41.047176
10550.264894	5119.966667	582.289063	38.649544
10550.264894	5119.966667	581.053711	77.743736
10550.264894	5119.966667	579.817383	-30.425003
10550.264894	5119.966667	578.581055	42.751450
10550.264894	5119.966667	577.343750	98.810394
10550.264894	5119.966667	576.107422	152.693802
10550.264894	5119.966667	574.870117	102.070511
10550.264894	5119.966667	573.631836	81.284477
10550.264894	5119.966667	572.394531	43.441383
10550.264894	5119.966667	571.156250	101.461922
10550.264894	5119.966667	569.917969	69.976852
10550.264894	5119.966667	568.679688	81.075806
10550.264894	5119.966667	567.440430	9.112904
10550.264894	5119.966667	566.202148	28.694967
10550.264894	5119.966667	564.961914	146.141312
10550.264894	5119.966667	563.722656	55.002384
10550.264894	5119.966667	562.482422	123.427231
10550.264894	5119.966667	561.243164	83.338486
10550.264894	5119.966667	560.001953	155.941574
10550.264894	5119.966667	558.761719	-18.108669
10550.264894	5119.966667	557.520508	14.065519
10550.264894	5119.966667	556.279297	12.208377
10550.264894	5119.966667	555.038086	6.086117
10550.264894	5119.966667	553.795898	-10.673542
10550.264894	5119.966667	552.554688	36.269726
10550.264894	5119.966667	551.311523	-6.002181
10550.264894	5119.966667	550.069336	-1.568731
10550.264894	5119.966667	548.826172	-69.312813
10550.264894	5119.966667	547.583984	126.066460
10550.264894	5119.966667	546.339844	47.685043
10550.264894	5119.966667	545.096680	18.106936
10550.264894	5119.966667	543.852539	5.488729
10550.264894	5119.966667	542.608398	24.662485
10550.264894	5119.966667	541.364258	-47.325996
10550.264894	5119.966667	540.119141	-66.321228
10550.264894	5119.966667	538.875000	43.919724
10550.264894	5119.966667	537.628906	71.486534
10550.264894	5119.966667	536.383789	-30.149864
10550.264894	5119.966667	535.137695	-93.644981
10550.264894	5119.966667	533.892578	-112.667686
10550.264894	5119.966667	532.645508	-30.111280
10550.264894	5119.966667	531.399414	-51.278179
10550.264894	5119.966667	530.152344	10.055204
10550.264894	5119.966667	528.905273	-21.707664
10550.264894	5119.966667	527.658203	3.627471
10550.264894	5119.966667	526.410156	-140.188019
10550.264894	5119.966667	525.163086	-49.330940
10550.264894	5119.966667	523.914063	-144.487946
10550.264894	5119.966667	522.666016	-95.941566
10550.264894	5119.966667	521.416992	32.842041
10550.264894	5119.966667	520.167969	-60.179688
10550.264894	5119.966667	518.918945	13.632579
10550.264894	5119.966667	517.669922	32.523129
10550.264894	5119.966667	516.419922	-45.684429
10550.264894	5119.966667	515.169922	-140.743576
10550.264894	5119.966667	513.919922	2.616346
10550.264894	5119.966667	512.668945	-52.349926
10550.264894	5119.966667	511.417969	-71.448853
10550.264894	5119.966667	510.166992	19.084591
10550.264894	5119.966667	508.916016	-6.350780
10550.264894	5119.966667	507.664063	12.473385
10550.264894	5119.966667	506.412109	12.325313
10550.264894	5119.966667	505.160156	35.345985
10550.264894	5119.966667	503.907227	5.703917
10550.264894	5119.966667	502.655273	77.140266
10550.264894	5119.966667	501.402344	-17.756353
10550.264894	5119.966667	500.148438	-17.908457
10550.264894	5119.966667	498.895508	95.565697
10550.264894	5119.966667	497.641602	-41.350506
10550.264894	5119.966667	496.387695	105.729736
10550.264894	5119.966667	495.132813	61.391392
10550.264894	5119.966667	493.878906	109.578163
10550.264894	5119.966667	492.624023	25.324915
10550.264894	5119.966667	491.368164	130.234924
10550.264894	5119.966667	490.113281	60.723282
10550.264894	5119.966667	488.857422	60.558464
10550.264894	5119.966667	487.601563	102.397194
10550.264894	5119.966667	486.344727	175.711578
10550.264894	5119.966667	485.088867	102.058441
10550.264894	5119.966667	483.832031	20.042433
10550.264894	5119.966667	482.575195	97.532097
10550.264894	5119.966667	481.317383	137.228485
10550.264894	5119.966667	480.059570	103.503044
10550.264894	5119.966667	478.801758	48.826550
10550.264894	5119.966667	477.543945	-91.777496
10550.264894	5119.966667	476.285156	10.815475
10550.264894	5119.966667	475.027344	100.796600
10550.264894	5119.966667	473.767578	-2.011302
10550.264894	5119.966667	472.508789	66.991760
10550.264894	5119.966667	471.249023	-12.722042
10550.264894	5119.966667	469.989258	96.038338
10550.264894	5119.966667	468.729492	-119.704758
10550.264894	5119.966667	467.469727	-75.840370
10550.264894	5119.966667	466.208984	-8.978496
10550.264894	5119.966667	464.948242	47.397717
10550.264894	5119.966667	463.686523	24.272465
10550.264894	5119.966667	462.425781	128.714722
10550.264894	5119.966667	461.164063	13.600756
10550.264894	5119.966667	459.901367	-45.031174
10550.264894	5119.966667	458.639648	76.077721
10550.264894	5119.966667	457.376953	75.957428
10550.264894	5119.966667	456.114258	61.216099
10550.264894	5119.966667	454.851563	48.569069
10550.264894	5119.966667	453.587891	-10.009265
10550.264894	5119.966667	452.324219	-10.115475
10550.264894	5119.966667	451.060547	54.472492
10550.264894	5119.966667	449.796875	27.222733
10550.264894	5119.966667	448.532227	20.839943
10550.264894	5119.966667	447.267578	-18.913744
10550.264894	5119.966667	446.002930	-50.314995
10550.264894	5119.966667	444.737305	10.016995
10550.264894	5119.966667	443.471680	134.927719
10550.264894	5119.966667	442.206055	-6.949987
10550.264894	5119.966667	440.940430	130.394608
10550.264894	5119.966667	439.673828	176.019821
10550.264894	5119.966667	438.407227	94.584900
10550.264894	5119.966667	437.140625	75.633591
10550.264894	5119.966667	435.873047	137.855362
10550.264894	5119.966667	434.605469	31.466911
10550.264894	5119.966667	433.337891	6.253519
10550.264894	5119.966667	432.070313	-21.045996
10550.264894	5119.966667	430.801758	32.755085
10550.264894	5119.966667	429.533203	40.768257
10550.264894	5119.966667	428.264648	61.229214
10550.264894	5119.966667	426.996094	110.755409
10550.264894	5119.966667	425.726563	102.049324
10550.264894	5119.966667	424.457031	134.870178
10550.264894	5119.966667	423.186523	59.638020
10550.264894	5119.966667	421.916992	119.389221
10550.264894	5119.966667	420.646484	6.757635
10550.264894	5119.966667	419.375977	-14.529024
10550.264894	5119.966667	418.104492	134.322906
10550.264894	5119.966667	416.833008	-77.944824
10550.264894	5119.966667	415.561523	-3.902987
10550.264894	5119.966667	414.290039	1.623651
10550.264894	5119.966667	413.017578	40.271999
10550.264894	5119.966667	411.746094	-37.231876
10550.264894	5119.966667	410.472656	123.581848
10550.264894	5119.966667	409.200195	14.899766
10550.264894	5119.966667	407.926758	-58.579433
10550.264894	5119.966667	406.653320	-5.745845
10550.264894	5119.966667	405.379883	5.583852
10550.264894	5119.966667	404.105469	10.625621
10550.264894	5119.966667	402.831055	25.941814
10550.264894	5119.966667	401.556641	88.771568
10550.264894	5119.966667	400.282227	6.667871
10550.264894	5119.966667	399.006836	-149.953323
10550.264894	5119.966667	397.731445	-33.611465
10550.264894	5119.966667	396.456055	-84.887718
10550.264894	5119.966667	395.179688	58.071274
10550.264894	5119.966667	393.903320	72.731720
10550.264894	5119.966667	392.626953	79.016449
10550.264894	5119.966667	391.350586	29.412140
10550.264894	5119.966667	390.073242	12.757127
10550.264894	5119.966667	388.795898	-14.334682
10550.264894	5119.966667	387.518555	22.459877
10550.264894	5119.966667	386.240234	15.760159
10550.264894	5119.966667	384.961914	72.898643
10550.264894	5119.966667	383.683594	82.420700
10550.264894	5119.966667	382.405273	95.917938
10550.264894	5119.966667	381.125977	181.430527
10550.264894	5119.966667	379.846680	110.053413
10550.264894	5119.966667	378.567383	75.647247
10550.264894	5119.966667	377.287109	41.080448
10550.264894	5119.966667	376.006836	4.291546
10550.264894	5119.966667	374.726563	95.052780
10550.264894	5119.966667	373.446289	162.929657
10550.264894	5119.966667	372.165039	96.733665
10550.264894	5119.966667	370.883789	75.651192
10550.264894	5119.966667	369.602539	132.576294
10550.264894	5119.966667	368.320313	51.381882
10550.264894	5119.966667	367.039063	-44.399441
10550.264894	5119.966667	365.755859	69.409058
10550.264894	5119.966667	364.473633	-18.595800
10550.264894	5119.966667	363.190430	4.198905
10550.264894	5119.966667	361.907227	-12.332705
10550.264894	5119.966667	360.624023	-86.669098
10550.264894	5119.966667	359.340820	-190.016983
10550.264894	5119.966667	358.056641	-79.985214
10550.264894	5119.966667	356.772461	54.344173
10550.264894	5119.966667	355.487305	24.037657
10550.264894	5119.966667	354.202148	-51.736851
10550.264894	5119.966667	352.916992	40.486107
10550.264894	5119.966667	351.631836	-54.395638
10550.264894	5119.966667	350.346680	-79.836548
10550.264894	5119.966667	349.060547	-19.495304
10550.264894	5119.966667	347.774414	104.013748
10550.264894	5119.966667	346.487305	7.710503
10550.264894	5119.966667	345.200195	-2.861674
10550.264894	5119.966667	343.913086	-7.691783
10550.264894	5119.966667	342.625977	-39.575737
10550.264894	5119.966667	341.338867	51.019386
10550.264894	5119.966667	340.050781	-6.332381
10550.264894	5119.966667	338.762695	97.626793
10550.264894	5119.966667	337.473633	-48.680275
10550.264894	5119.966667	336.184570	-84.900002
10550.264894	5119.966667	334.895508	1.158199
10550.264894	5119.966667	333.606445	27.335972
10550.264894	5119.966667	332.317383	63.194866
10550.264894	5119.966667	331.027344	-50.792591
10550.264894	5119.966667	329.736328	90.229622
10550.264894	5119.966667	328.446289	38.499393
10550.264894	5119.966667	327.155273	-17.907440
10550.264894	5119.966667	325.864258	-27.916124
10550.264894	5119.966667	324.573242	-42.636585
10550.264894	5119.966667	323.281250	-19.217339
10550.264894	5119.966667	321.989258	62.731590
10550.264894	5119.966667	320.697266	-23.418409
10550.264894	5119.966667	319.405273	44.861889
10550.264894	5119.966667	318.112305	-3.926793
10550.264894	5119.966667	316.819336	-116.672821
10550.264894	5119.966667	315.526367	-3.757808
10550.264894	5119.966667	314.232422	20.628054
10550.264894	5119.966667	312.938477	31.968399
10550.264894	5119.966667	311.644531	-65.540039
10550.264894	5119.966667	310.349609	-76.257072
10550.264894	5119.966667	309.054688	24.205715
10550.264894	5119.966667	307.759766	30.042788
10550.264894	5119.966667	306.464844	57.362225
10550.264894	5119.966667	305.168945	71.490662
10550.264894	5119.966667	303.873047	186.420349
10550.264894	5119.966667	302.577148	7.278962
10550.264894	5119.966667	301.281250	162.899323
10550.264894	5119.966667	299.984375	71.263840
