#X		#Y		#Wave		#Intensity
10080.294149	5435.801667	1999.946289	71.477356
10080.294149	5435.801667	1998.981445	209.988831
10080.294149	5435.801667	1998.017578	-242.917404
10080.294149	5435.801667	1997.052734	85.330582
10080.294149	5435.801667	1996.088867	-29.666279
10080.294149	5435.801667	1995.124023	53.914032
10080.294149	5435.801667	1994.159180	75.894714
10080.294149	5435.801667	1993.193359	224.494308
10080.294149	5435.801667	1992.228516	214.921097
10080.294149	5435.801667	1991.262695	128.930557
10080.294149	5435.801667	1990.296875	63.081665
10080.294149	5435.801667	1989.331055	54.467861
10080.294149	5435.801667	1988.365234	340.551910
10080.294149	5435.801667	1987.398438	248.360214
10080.294149	5435.801667	1986.432617	-214.483398
10080.294149	5435.801667	1985.465820	50.049007
10080.294149	5435.801667	1984.499023	84.828354
10080.294149	5435.801667	1983.532227	-300.345612
10080.294149	5435.801667	1982.565430	19.157164
10080.294149	5435.801667	1981.597656	-26.903812
10080.294149	5435.801667	1980.629883	122.428085
10080.294149	5435.801667	1979.662109	-36.816154
10080.294149	5435.801667	1978.694336	-20.470613
10080.294149	5435.801667	1977.726563	396.035126
10080.294149	5435.801667	1976.758789	301.597809
10080.294149	5435.801667	1975.790039	-283.755066
10080.294149	5435.801667	1974.821289	-29.744873
10080.294149	5435.801667	1973.852539	236.674133
10080.294149	5435.801667	1972.883789	-29.639694
10080.294149	5435.801667	1971.915039	113.687836
10080.294149	5435.801667	1970.945313	355.740479
10080.294149	5435.801667	1969.975586	-8.611309
10080.294149	5435.801667	1969.005859	73.440674
10080.294149	5435.801667	1968.036133	-58.806900
10080.294149	5435.801667	1967.066406	225.517014
10080.294149	5435.801667	1966.096680	27.019955
10080.294149	5435.801667	1965.125977	-227.937271
10080.294149	5435.801667	1964.155273	-4.960730
10080.294149	5435.801667	1963.184570	358.371979
10080.294149	5435.801667	1962.213867	209.651367
10080.294149	5435.801667	1961.242188	-7.829165
10080.294149	5435.801667	1960.271484	225.162598
10080.294149	5435.801667	1959.299805	268.713013
10080.294149	5435.801667	1958.328125	253.292343
10080.294149	5435.801667	1957.356445	265.003510
10080.294149	5435.801667	1956.384766	372.674133
10080.294149	5435.801667	1955.412109	168.157364
10080.294149	5435.801667	1954.439453	199.740112
10080.294149	5435.801667	1953.467773	-51.247890
10080.294149	5435.801667	1952.495117	218.804947
10080.294149	5435.801667	1951.521484	189.107864
10080.294149	5435.801667	1950.548828	93.148743
10080.294149	5435.801667	1949.575195	-37.108582
10080.294149	5435.801667	1948.601563	90.517616
10080.294149	5435.801667	1947.627930	129.760254
10080.294149	5435.801667	1946.654297	112.571098
10080.294149	5435.801667	1945.680664	142.038757
10080.294149	5435.801667	1944.706055	159.260239
10080.294149	5435.801667	1943.732422	210.831116
10080.294149	5435.801667	1942.757813	154.501526
10080.294149	5435.801667	1941.783203	181.574722
10080.294149	5435.801667	1940.807617	7.630616
10080.294149	5435.801667	1939.833008	208.774750
10080.294149	5435.801667	1938.857422	321.634674
10080.294149	5435.801667	1937.881836	216.392868
10080.294149	5435.801667	1936.906250	13.205136
10080.294149	5435.801667	1935.930664	510.584808
10080.294149	5435.801667	1934.955078	398.023773
10080.294149	5435.801667	1933.978516	344.266571
10080.294149	5435.801667	1933.001953	50.630878
10080.294149	5435.801667	1932.025391	-184.162689
10080.294149	5435.801667	1931.048828	163.503098
10080.294149	5435.801667	1930.072266	41.296307
10080.294149	5435.801667	1929.094727	136.827026
10080.294149	5435.801667	1928.118164	129.588516
10080.294149	5435.801667	1927.140625	110.113434
10080.294149	5435.801667	1926.163086	61.292202
10080.294149	5435.801667	1925.184570	132.242935
10080.294149	5435.801667	1924.207031	200.699524
10080.294149	5435.801667	1923.228516	413.268921
10080.294149	5435.801667	1922.250000	-234.160065
10080.294149	5435.801667	1921.271484	-151.084793
10080.294149	5435.801667	1920.292969	205.434906
10080.294149	5435.801667	1919.314453	-151.131424
10080.294149	5435.801667	1918.334961	134.412674
10080.294149	5435.801667	1917.355469	-102.467422
10080.294149	5435.801667	1916.375977	51.131569
10080.294149	5435.801667	1915.396484	-12.488571
10080.294149	5435.801667	1914.416992	-129.781876
10080.294149	5435.801667	1913.436523	-217.793991
10080.294149	5435.801667	1912.457031	208.677078
10080.294149	5435.801667	1911.476563	-135.412170
10080.294149	5435.801667	1910.496094	-16.296947
10080.294149	5435.801667	1909.515625	151.475159
10080.294149	5435.801667	1908.534180	185.143723
10080.294149	5435.801667	1907.552734	-95.487213
10080.294149	5435.801667	1906.572266	-22.894670
10080.294149	5435.801667	1905.590820	-157.350830
10080.294149	5435.801667	1904.608398	-33.715683
10080.294149	5435.801667	1903.626953	24.106380
10080.294149	5435.801667	1902.644531	-125.000725
10080.294149	5435.801667	1901.663086	107.933838
10080.294149	5435.801667	1900.680664	155.848587
10080.294149	5435.801667	1899.698242	-22.512386
10080.294149	5435.801667	1898.714844	129.902939
10080.294149	5435.801667	1897.732422	-82.510338
10080.294149	5435.801667	1896.749023	232.654846
10080.294149	5435.801667	1895.765625	90.707336
10080.294149	5435.801667	1894.782227	-150.864761
10080.294149	5435.801667	1893.798828	-8.497144
10080.294149	5435.801667	1892.814453	-26.553894
10080.294149	5435.801667	1891.831055	30.642014
10080.294149	5435.801667	1890.846680	192.196503
10080.294149	5435.801667	1889.862305	-93.083122
10080.294149	5435.801667	1888.877930	-101.571915
10080.294149	5435.801667	1887.892578	215.114014
10080.294149	5435.801667	1886.908203	-7.048969
10080.294149	5435.801667	1885.922852	125.034996
10080.294149	5435.801667	1884.937500	48.423504
10080.294149	5435.801667	1883.952148	30.001400
10080.294149	5435.801667	1882.965820	-112.113205
10080.294149	5435.801667	1881.980469	17.294889
10080.294149	5435.801667	1880.994141	362.330963
10080.294149	5435.801667	1880.007813	217.681778
10080.294149	5435.801667	1879.021484	-77.175896
10080.294149	5435.801667	1878.035156	-139.411835
10080.294149	5435.801667	1877.047852	42.955200
10080.294149	5435.801667	1876.061523	-99.275017
10080.294149	5435.801667	1875.074219	92.615639
10080.294149	5435.801667	1874.086914	102.845566
10080.294149	5435.801667	1873.098633	-85.418579
10080.294149	5435.801667	1872.111328	-254.298523
10080.294149	5435.801667	1871.123047	353.423584
10080.294149	5435.801667	1870.135742	0.612517
10080.294149	5435.801667	1869.147461	-165.890976
10080.294149	5435.801667	1868.158203	-3.539850
10080.294149	5435.801667	1867.169922	-58.859695
10080.294149	5435.801667	1866.180664	-39.269741
10080.294149	5435.801667	1865.192383	267.835480
10080.294149	5435.801667	1864.203125	-70.301338
10080.294149	5435.801667	1863.213867	50.614937
10080.294149	5435.801667	1862.223633	301.869751
10080.294149	5435.801667	1861.234375	113.512253
10080.294149	5435.801667	1860.244141	-24.113552
10080.294149	5435.801667	1859.253906	-14.481928
10080.294149	5435.801667	1858.263672	86.815666
10080.294149	5435.801667	1857.273438	98.760033
10080.294149	5435.801667	1856.282227	199.923553
10080.294149	5435.801667	1855.291992	86.344093
10080.294149	5435.801667	1854.300781	16.181667
10080.294149	5435.801667	1853.309570	-78.102211
10080.294149	5435.801667	1852.317383	112.068604
10080.294149	5435.801667	1851.326172	140.650253
10080.294149	5435.801667	1850.333984	188.464569
10080.294149	5435.801667	1849.342773	260.317444
10080.294149	5435.801667	1848.350586	389.921173
10080.294149	5435.801667	1847.357422	276.197906
10080.294149	5435.801667	1846.365234	135.996719
10080.294149	5435.801667	1845.372070	161.930084
10080.294149	5435.801667	1844.379883	-110.650856
10080.294149	5435.801667	1843.386719	-22.176670
10080.294149	5435.801667	1842.393555	42.169987
10080.294149	5435.801667	1841.399414	113.679741
10080.294149	5435.801667	1840.406250	-69.823380
10080.294149	5435.801667	1839.412109	-412.000671
10080.294149	5435.801667	1838.417969	234.084457
10080.294149	5435.801667	1837.423828	153.934296
10080.294149	5435.801667	1836.429688	-156.941055
10080.294149	5435.801667	1835.434570	29.678518
10080.294149	5435.801667	1834.440430	67.242386
10080.294149	5435.801667	1833.445313	-8.131845
10080.294149	5435.801667	1832.450195	269.525787
10080.294149	5435.801667	1831.454102	234.902115
10080.294149	5435.801667	1830.458984	121.040413
10080.294149	5435.801667	1829.462891	-172.822769
10080.294149	5435.801667	1828.466797	-219.428329
10080.294149	5435.801667	1827.470703	314.589264
10080.294149	5435.801667	1826.474609	234.269379
10080.294149	5435.801667	1825.478516	396.192352
10080.294149	5435.801667	1824.481445	179.150192
10080.294149	5435.801667	1823.484375	475.226410
10080.294149	5435.801667	1822.487305	-17.465498
10080.294149	5435.801667	1821.490234	498.973175
10080.294149	5435.801667	1820.493164	47.142326
10080.294149	5435.801667	1819.495117	352.499817
10080.294149	5435.801667	1818.498047	346.331726
10080.294149	5435.801667	1817.500000	-107.684723
10080.294149	5435.801667	1816.500977	-46.771992
10080.294149	5435.801667	1815.502930	167.299454
10080.294149	5435.801667	1814.504883	94.053864
10080.294149	5435.801667	1813.505859	231.394257
10080.294149	5435.801667	1812.506836	268.169922
10080.294149	5435.801667	1811.507813	182.912277
10080.294149	5435.801667	1810.508789	219.635223
10080.294149	5435.801667	1809.508789	17.200653
10080.294149	5435.801667	1808.508789	101.707901
10080.294149	5435.801667	1807.508789	4.496995
10080.294149	5435.801667	1806.508789	14.841530
10080.294149	5435.801667	1805.508789	-113.426308
10080.294149	5435.801667	1804.508789	-76.831749
10080.294149	5435.801667	1803.507813	31.377544
10080.294149	5435.801667	1802.506836	-185.247803
10080.294149	5435.801667	1801.505859	47.050159
10080.294149	5435.801667	1800.504883	-59.736267
10080.294149	5435.801667	1799.502930	463.576813
10080.294149	5435.801667	1798.501953	478.403168
10080.294149	5435.801667	1797.500000	118.637802
10080.294149	5435.801667	1796.498047	45.223980
10080.294149	5435.801667	1795.496094	50.513355
10080.294149	5435.801667	1794.493164	12.859593
10080.294149	5435.801667	1793.491211	-115.391678
10080.294149	5435.801667	1792.488281	285.519501
10080.294149	5435.801667	1791.485352	-214.537766
10080.294149	5435.801667	1790.482422	57.534271
10080.294149	5435.801667	1789.478516	-23.076887
10080.294149	5435.801667	1788.475586	63.039013
10080.294149	5435.801667	1787.471680	-186.655182
10080.294149	5435.801667	1786.467773	158.920654
10080.294149	5435.801667	1785.463867	63.981403
10080.294149	5435.801667	1784.459961	54.730213
10080.294149	5435.801667	1783.455078	135.877869
10080.294149	5435.801667	1782.450195	124.192085
10080.294149	5435.801667	1781.445313	124.381844
10080.294149	5435.801667	1780.440430	91.255730
10080.294149	5435.801667	1779.435547	96.161392
10080.294149	5435.801667	1778.429688	22.596607
10080.294149	5435.801667	1777.424805	234.243484
10080.294149	5435.801667	1776.418945	443.412018
10080.294149	5435.801667	1775.413086	307.983276
10080.294149	5435.801667	1774.406250	34.810429
10080.294149	5435.801667	1773.400391	13.460469
10080.294149	5435.801667	1772.393555	189.178757
10080.294149	5435.801667	1771.386719	22.946028
10080.294149	5435.801667	1770.379883	-50.677204
10080.294149	5435.801667	1769.373047	141.496490
10080.294149	5435.801667	1768.365234	271.882599
10080.294149	5435.801667	1767.358398	340.519043
10080.294149	5435.801667	1766.350586	269.170441
10080.294149	5435.801667	1765.342773	136.171158
10080.294149	5435.801667	1764.334961	328.007446
10080.294149	5435.801667	1763.326172	-200.860443
10080.294149	5435.801667	1762.318359	374.855652
10080.294149	5435.801667	1761.309570	111.519684
10080.294149	5435.801667	1760.300781	163.345016
10080.294149	5435.801667	1759.291016	281.446136
10080.294149	5435.801667	1758.282227	86.882797
10080.294149	5435.801667	1757.272461	-12.924568
10080.294149	5435.801667	1756.262695	266.044128
10080.294149	5435.801667	1755.252930	263.232086
10080.294149	5435.801667	1754.243164	246.195847
10080.294149	5435.801667	1753.233398	68.261467
10080.294149	5435.801667	1752.222656	53.584236
10080.294149	5435.801667	1751.211914	5.778072
10080.294149	5435.801667	1750.201172	253.534241
10080.294149	5435.801667	1749.190430	139.462006
10080.294149	5435.801667	1748.179688	190.863922
10080.294149	5435.801667	1747.167969	280.031891
10080.294149	5435.801667	1746.156250	-167.209091
10080.294149	5435.801667	1745.144531	-14.277183
10080.294149	5435.801667	1744.132813	195.253265
10080.294149	5435.801667	1743.121094	104.778572
10080.294149	5435.801667	1742.108398	444.004578
10080.294149	5435.801667	1741.095703	192.947754
10080.294149	5435.801667	1740.083008	-119.401840
10080.294149	5435.801667	1739.070313	146.445892
10080.294149	5435.801667	1738.057617	-45.513115
10080.294149	5435.801667	1737.043945	239.030334
10080.294149	5435.801667	1736.030273	311.194397
10080.294149	5435.801667	1735.016602	43.779713
10080.294149	5435.801667	1734.002930	-75.047897
10080.294149	5435.801667	1732.989258	79.541496
10080.294149	5435.801667	1731.974609	-194.830536
10080.294149	5435.801667	1730.959961	-101.592575
10080.294149	5435.801667	1729.945313	-48.461605
10080.294149	5435.801667	1728.930664	2.265342
10080.294149	5435.801667	1727.916016	-85.982216
10080.294149	5435.801667	1726.900391	103.569527
10080.294149	5435.801667	1725.885742	-64.750595
10080.294149	5435.801667	1724.870117	-131.846024
10080.294149	5435.801667	1723.853516	-147.183807
10080.294149	5435.801667	1722.837891	124.449837
10080.294149	5435.801667	1721.822266	207.791534
10080.294149	5435.801667	1720.805664	84.136421
10080.294149	5435.801667	1719.789063	78.052261
10080.294149	5435.801667	1718.772461	8.470543
10080.294149	5435.801667	1717.754883	-65.815643
10080.294149	5435.801667	1716.738281	29.075779
10080.294149	5435.801667	1715.720703	-322.462250
10080.294149	5435.801667	1714.703125	87.116730
10080.294149	5435.801667	1713.685547	231.142639
10080.294149	5435.801667	1712.667969	-38.150311
10080.294149	5435.801667	1711.649414	-28.025816
10080.294149	5435.801667	1710.630859	-323.050598
10080.294149	5435.801667	1709.612305	-113.482605
10080.294149	5435.801667	1708.593750	135.853790
10080.294149	5435.801667	1707.575195	239.632294
10080.294149	5435.801667	1706.555664	97.089050
10080.294149	5435.801667	1705.536133	74.149689
10080.294149	5435.801667	1704.516602	-7.422241
10080.294149	5435.801667	1703.497070	-185.093674
10080.294149	5435.801667	1702.477539	-273.681122
10080.294149	5435.801667	1701.457031	115.692039
10080.294149	5435.801667	1700.437500	19.985035
10080.294149	5435.801667	1699.416992	60.119221
10080.294149	5435.801667	1698.395508	-82.446617
10080.294149	5435.801667	1697.375000	187.057465
10080.294149	5435.801667	1696.354492	196.601837
10080.294149	5435.801667	1695.333008	-20.897970
10080.294149	5435.801667	1694.311523	16.691076
10080.294149	5435.801667	1693.290039	140.784897
10080.294149	5435.801667	1692.267578	218.017731
10080.294149	5435.801667	1691.246094	49.648174
10080.294149	5435.801667	1690.223633	12.235761
10080.294149	5435.801667	1689.201172	91.679314
10080.294149	5435.801667	1688.178711	-1.888429
10080.294149	5435.801667	1687.155273	30.721313
10080.294149	5435.801667	1686.132813	472.122955
10080.294149	5435.801667	1685.109375	303.680450
10080.294149	5435.801667	1684.085938	160.958771
10080.294149	5435.801667	1683.062500	270.418823
10080.294149	5435.801667	1682.039063	195.382874
10080.294149	5435.801667	1681.014648	519.445740
10080.294149	5435.801667	1679.990234	210.965591
10080.294149	5435.801667	1678.965820	327.184570
10080.294149	5435.801667	1677.941406	468.983551
10080.294149	5435.801667	1676.916992	298.180847
10080.294149	5435.801667	1675.891602	267.306763
10080.294149	5435.801667	1674.866211	406.592651
10080.294149	5435.801667	1673.840820	517.817871
10080.294149	5435.801667	1672.815430	563.714783
10080.294149	5435.801667	1671.790039	544.318604
10080.294149	5435.801667	1670.763672	473.641876
10080.294149	5435.801667	1669.737305	263.216980
10080.294149	5435.801667	1668.710938	346.235352
10080.294149	5435.801667	1667.684570	689.937256
10080.294149	5435.801667	1666.658203	556.295410
10080.294149	5435.801667	1665.630859	778.732422
10080.294149	5435.801667	1664.603516	745.101135
10080.294149	5435.801667	1663.576172	513.710144
10080.294149	5435.801667	1662.548828	547.520630
10080.294149	5435.801667	1661.520508	920.792786
10080.294149	5435.801667	1660.493164	733.568726
10080.294149	5435.801667	1659.464844	430.150299
10080.294149	5435.801667	1658.436523	582.333923
10080.294149	5435.801667	1657.408203	718.156860
10080.294149	5435.801667	1656.378906	809.748535
10080.294149	5435.801667	1655.350586	576.090637
10080.294149	5435.801667	1654.321289	725.660645
10080.294149	5435.801667	1653.291992	675.458313
10080.294149	5435.801667	1652.261719	813.271179
10080.294149	5435.801667	1651.232422	1296.817505
10080.294149	5435.801667	1650.202148	1165.209351
10080.294149	5435.801667	1649.171875	1133.378296
10080.294149	5435.801667	1648.141602	962.349792
10080.294149	5435.801667	1647.111328	1122.991333
10080.294149	5435.801667	1646.080078	921.816772
10080.294149	5435.801667	1645.049805	878.330078
10080.294149	5435.801667	1644.018555	1224.211182
10080.294149	5435.801667	1642.987305	923.386169
10080.294149	5435.801667	1641.955078	835.792603
10080.294149	5435.801667	1640.923828	1058.610474
10080.294149	5435.801667	1639.891602	1184.031372
10080.294149	5435.801667	1638.859375	1253.797607
10080.294149	5435.801667	1637.827148	1214.694824
10080.294149	5435.801667	1636.794922	1501.939819
10080.294149	5435.801667	1635.761719	914.269226
10080.294149	5435.801667	1634.729492	1400.380859
10080.294149	5435.801667	1633.696289	1342.641724
10080.294149	5435.801667	1632.662109	1513.860596
10080.294149	5435.801667	1631.628906	1086.073608
10080.294149	5435.801667	1630.594727	1106.936646
10080.294149	5435.801667	1629.561523	919.729919
10080.294149	5435.801667	1628.527344	1171.664063
10080.294149	5435.801667	1627.493164	1294.075684
10080.294149	5435.801667	1626.458008	1254.693115
10080.294149	5435.801667	1625.423828	1501.707031
10080.294149	5435.801667	1624.388672	1369.870972
10080.294149	5435.801667	1623.353516	1510.497925
10080.294149	5435.801667	1622.318359	1452.522095
10080.294149	5435.801667	1621.282227	1537.628784
10080.294149	5435.801667	1620.247070	1664.211914
10080.294149	5435.801667	1619.210938	1610.767090
10080.294149	5435.801667	1618.174805	1513.492310
10080.294149	5435.801667	1617.137695	1829.018311
10080.294149	5435.801667	1616.101563	1727.075195
10080.294149	5435.801667	1615.064453	1832.609497
10080.294149	5435.801667	1614.027344	1951.907349
10080.294149	5435.801667	1612.990234	1785.398804
10080.294149	5435.801667	1611.953125	2017.498535
10080.294149	5435.801667	1610.916016	1945.433472
10080.294149	5435.801667	1609.877930	2163.543213
10080.294149	5435.801667	1608.839844	2227.275879
10080.294149	5435.801667	1607.801758	2406.064209
10080.294149	5435.801667	1606.763672	1970.224609
10080.294149	5435.801667	1605.724609	2091.415039
10080.294149	5435.801667	1604.685547	2035.380981
10080.294149	5435.801667	1603.646484	2225.478516
10080.294149	5435.801667	1602.607422	2346.485352
10080.294149	5435.801667	1601.568359	2315.667725
10080.294149	5435.801667	1600.528320	2289.433350
10080.294149	5435.801667	1599.489258	2539.017090
10080.294149	5435.801667	1598.449219	2429.983887
10080.294149	5435.801667	1597.408203	2052.150879
10080.294149	5435.801667	1596.368164	2255.633789
10080.294149	5435.801667	1595.327148	2119.103027
10080.294149	5435.801667	1594.287109	2184.684326
10080.294149	5435.801667	1593.246094	1774.989136
10080.294149	5435.801667	1592.204102	1856.641602
10080.294149	5435.801667	1591.163086	2220.524902
10080.294149	5435.801667	1590.121094	1893.614014
10080.294149	5435.801667	1589.079102	1848.983276
10080.294149	5435.801667	1588.037109	1705.734375
10080.294149	5435.801667	1586.995117	1736.803833
10080.294149	5435.801667	1585.953125	2033.801514
10080.294149	5435.801667	1584.910156	1759.904785
10080.294149	5435.801667	1583.867188	1933.000000
10080.294149	5435.801667	1582.824219	1835.642456
10080.294149	5435.801667	1581.781250	2157.543945
10080.294149	5435.801667	1580.737305	1986.863892
10080.294149	5435.801667	1579.693359	1807.084839
10080.294149	5435.801667	1578.649414	1776.189697
10080.294149	5435.801667	1577.605469	1974.206421
10080.294149	5435.801667	1576.561523	1789.940552
10080.294149	5435.801667	1575.516602	1612.600586
10080.294149	5435.801667	1574.472656	1826.533203
10080.294149	5435.801667	1573.427734	1690.420410
10080.294149	5435.801667	1572.381836	1675.555908
10080.294149	5435.801667	1571.336914	1724.718140
10080.294149	5435.801667	1570.291016	1712.135864
10080.294149	5435.801667	1569.246094	1658.423340
10080.294149	5435.801667	1568.200195	1682.417236
10080.294149	5435.801667	1567.153320	1496.217773
10080.294149	5435.801667	1566.107422	1776.062134
10080.294149	5435.801667	1565.060547	1592.204834
10080.294149	5435.801667	1564.013672	1734.927002
10080.294149	5435.801667	1562.966797	1530.610352
10080.294149	5435.801667	1561.919922	1807.956665
10080.294149	5435.801667	1560.872070	1469.078979
10080.294149	5435.801667	1559.825195	1518.195068
10080.294149	5435.801667	1558.777344	1656.252808
10080.294149	5435.801667	1557.729492	1408.849609
10080.294149	5435.801667	1556.680664	1252.750977
10080.294149	5435.801667	1555.632813	1981.237183
10080.294149	5435.801667	1554.583984	1619.978638
10080.294149	5435.801667	1553.535156	1757.922607
10080.294149	5435.801667	1552.486328	1945.946777
10080.294149	5435.801667	1551.436523	1869.672241
10080.294149	5435.801667	1550.387695	1788.892456
10080.294149	5435.801667	1549.337891	1897.141846
10080.294149	5435.801667	1548.288086	2121.464844
10080.294149	5435.801667	1547.238281	2113.557617
10080.294149	5435.801667	1546.187500	1991.883301
10080.294149	5435.801667	1545.136719	1852.074097
10080.294149	5435.801667	1544.086914	2230.981445
10080.294149	5435.801667	1543.035156	2004.789307
10080.294149	5435.801667	1541.984375	1992.452026
10080.294149	5435.801667	1540.933594	1982.414917
10080.294149	5435.801667	1539.881836	2108.773926
10080.294149	5435.801667	1538.830078	2153.296143
10080.294149	5435.801667	1537.778320	2238.722656
10080.294149	5435.801667	1536.725586	2237.813721
10080.294149	5435.801667	1535.673828	1971.209717
10080.294149	5435.801667	1534.621094	2231.535645
10080.294149	5435.801667	1533.568359	1865.196899
10080.294149	5435.801667	1532.515625	1787.296143
10080.294149	5435.801667	1531.461914	1890.997803
10080.294149	5435.801667	1530.409180	1824.524292
10080.294149	5435.801667	1529.355469	1959.996826
10080.294149	5435.801667	1528.301758	1589.680176
10080.294149	5435.801667	1527.247070	1548.334839
10080.294149	5435.801667	1526.193359	1541.050171
10080.294149	5435.801667	1525.138672	1422.730713
10080.294149	5435.801667	1524.083984	1476.727295
10080.294149	5435.801667	1523.029297	1036.798462
10080.294149	5435.801667	1521.974609	1140.759766
10080.294149	5435.801667	1520.918945	1018.225037
10080.294149	5435.801667	1519.863281	1228.648560
10080.294149	5435.801667	1518.807617	1085.847534
10080.294149	5435.801667	1517.751953	970.305237
10080.294149	5435.801667	1516.696289	872.954285
10080.294149	5435.801667	1515.639648	1124.127563
10080.294149	5435.801667	1514.583008	619.673706
10080.294149	5435.801667	1513.526367	735.179321
10080.294149	5435.801667	1512.469727	398.424744
10080.294149	5435.801667	1511.412109	726.536072
10080.294149	5435.801667	1510.355469	604.747925
10080.294149	5435.801667	1509.297852	577.970154
10080.294149	5435.801667	1508.240234	135.502014
10080.294149	5435.801667	1507.181641	267.055847
10080.294149	5435.801667	1506.124023	443.783966
10080.294149	5435.801667	1505.065430	297.572968
10080.294149	5435.801667	1504.006836	338.860748
10080.294149	5435.801667	1502.948242	237.980164
10080.294149	5435.801667	1501.888672	195.864487
10080.294149	5435.801667	1500.830078	286.950623
10080.294149	5435.801667	1499.770508	459.266357
10080.294149	5435.801667	1498.710938	439.856720
10080.294149	5435.801667	1497.650391	34.899269
10080.294149	5435.801667	1496.590820	441.809052
10080.294149	5435.801667	1495.530273	219.715790
10080.294149	5435.801667	1494.469727	119.467056
10080.294149	5435.801667	1493.409180	-127.139450
10080.294149	5435.801667	1492.348633	36.418587
10080.294149	5435.801667	1491.287109	4.020254
10080.294149	5435.801667	1490.225586	-32.805500
10080.294149	5435.801667	1489.164063	18.254646
10080.294149	5435.801667	1488.102539	-173.747696
10080.294149	5435.801667	1487.041016	185.776169
10080.294149	5435.801667	1485.978516	-24.054136
10080.294149	5435.801667	1484.916016	-37.948265
10080.294149	5435.801667	1483.853516	-321.794098
10080.294149	5435.801667	1482.791016	-97.170883
10080.294149	5435.801667	1481.727539	-131.118927
10080.294149	5435.801667	1480.664063	-93.043472
10080.294149	5435.801667	1479.600586	-281.871460
10080.294149	5435.801667	1478.537109	-212.199768
10080.294149	5435.801667	1477.473633	-70.508072
10080.294149	5435.801667	1476.409180	-34.447662
10080.294149	5435.801667	1475.344727	-11.765950
10080.294149	5435.801667	1474.280273	116.389397
10080.294149	5435.801667	1473.215820	-40.244530
10080.294149	5435.801667	1472.151367	267.571320
10080.294149	5435.801667	1471.085938	50.744568
10080.294149	5435.801667	1470.020508	161.199326
10080.294149	5435.801667	1468.955078	-196.514862
10080.294149	5435.801667	1467.888672	200.662231
10080.294149	5435.801667	1466.823242	266.702301
10080.294149	5435.801667	1465.756836	28.539562
10080.294149	5435.801667	1464.690430	280.109406
10080.294149	5435.801667	1463.624023	95.238693
10080.294149	5435.801667	1462.556641	286.851288
10080.294149	5435.801667	1461.490234	456.033356
10080.294149	5435.801667	1460.422852	526.762756
10080.294149	5435.801667	1459.355469	199.685486
10080.294149	5435.801667	1458.287109	234.725616
10080.294149	5435.801667	1457.219727	388.415894
10080.294149	5435.801667	1456.151367	539.199768
10080.294149	5435.801667	1455.083008	556.578125
10080.294149	5435.801667	1454.014648	542.053711
10080.294149	5435.801667	1452.945313	417.312775
10080.294149	5435.801667	1451.876953	373.236694
10080.294149	5435.801667	1450.807617	493.916229
10080.294149	5435.801667	1449.738281	359.355804
10080.294149	5435.801667	1448.668945	385.136139
10080.294149	5435.801667	1447.598633	451.402863
10080.294149	5435.801667	1446.528320	564.414124
10080.294149	5435.801667	1445.458008	370.361847
10080.294149	5435.801667	1444.387695	503.920471
10080.294149	5435.801667	1443.317383	103.907013
10080.294149	5435.801667	1442.246094	409.035858
10080.294149	5435.801667	1441.174805	586.103699
10080.294149	5435.801667	1440.103516	355.491943
10080.294149	5435.801667	1439.032227	355.040985
10080.294149	5435.801667	1437.960938	530.493530
10080.294149	5435.801667	1436.888672	201.031204
10080.294149	5435.801667	1435.816406	107.528328
10080.294149	5435.801667	1434.744141	503.288147
10080.294149	5435.801667	1433.670898	396.976929
10080.294149	5435.801667	1432.598633	296.343811
10080.294149	5435.801667	1431.525391	158.215012
10080.294149	5435.801667	1430.452148	128.538574
10080.294149	5435.801667	1429.378906	364.006348
10080.294149	5435.801667	1428.304688	291.630768
10080.294149	5435.801667	1427.231445	163.948959
10080.294149	5435.801667	1426.157227	92.653404
10080.294149	5435.801667	1425.083008	50.168083
10080.294149	5435.801667	1424.007813	453.431580
10080.294149	5435.801667	1422.933594	222.415756
10080.294149	5435.801667	1421.858398	200.968109
10080.294149	5435.801667	1420.783203	370.443878
10080.294149	5435.801667	1419.708008	318.919556
10080.294149	5435.801667	1418.631836	82.652588
10080.294149	5435.801667	1417.555664	429.976349
10080.294149	5435.801667	1416.479492	532.568909
10080.294149	5435.801667	1415.403320	417.176697
10080.294149	5435.801667	1414.327148	345.016846
10080.294149	5435.801667	1413.250000	275.894104
10080.294149	5435.801667	1412.173828	298.084839
10080.294149	5435.801667	1411.096680	589.196289
10080.294149	5435.801667	1410.018555	396.730957
10080.294149	5435.801667	1408.941406	23.913864
10080.294149	5435.801667	1407.863281	-6.141323
10080.294149	5435.801667	1406.785156	297.546112
10080.294149	5435.801667	1405.707031	93.107231
10080.294149	5435.801667	1404.628906	543.930969
10080.294149	5435.801667	1403.549805	115.459641
10080.294149	5435.801667	1402.470703	165.355072
10080.294149	5435.801667	1401.391602	531.836243
10080.294149	5435.801667	1400.312500	47.448254
10080.294149	5435.801667	1399.233398	475.982300
10080.294149	5435.801667	1398.153320	446.166290
10080.294149	5435.801667	1397.073242	457.460358
10080.294149	5435.801667	1395.993164	278.522858
10080.294149	5435.801667	1394.913086	468.367584
10080.294149	5435.801667	1393.832031	377.408356
10080.294149	5435.801667	1392.750977	397.442780
10080.294149	5435.801667	1391.669922	145.726730
10080.294149	5435.801667	1390.588867	368.766235
10080.294149	5435.801667	1389.506836	256.332886
10080.294149	5435.801667	1388.425781	540.305603
10080.294149	5435.801667	1387.343750	359.557770
10080.294149	5435.801667	1386.261719	564.378418
10080.294149	5435.801667	1385.178711	523.490723
10080.294149	5435.801667	1384.096680	261.717987
10080.294149	5435.801667	1383.013672	374.780151
10080.294149	5435.801667	1381.930664	329.219635
10080.294149	5435.801667	1380.846680	496.451447
10080.294149	5435.801667	1379.763672	642.960083
10080.294149	5435.801667	1378.679688	610.384216
10080.294149	5435.801667	1377.595703	626.742432
10080.294149	5435.801667	1376.511719	463.362701
10080.294149	5435.801667	1375.427734	653.053589
10080.294149	5435.801667	1374.342773	775.539246
10080.294149	5435.801667	1373.257813	216.984253
10080.294149	5435.801667	1372.172852	416.161896
10080.294149	5435.801667	1371.087891	478.503662
10080.294149	5435.801667	1370.001953	593.882568
10080.294149	5435.801667	1368.916992	641.810181
10080.294149	5435.801667	1367.831055	451.809967
10080.294149	5435.801667	1366.744141	342.346954
10080.294149	5435.801667	1365.658203	590.457336
10080.294149	5435.801667	1364.571289	416.214172
10080.294149	5435.801667	1363.484375	518.999573
10080.294149	5435.801667	1362.397461	460.590759
10080.294149	5435.801667	1361.310547	237.063568
10080.294149	5435.801667	1360.222656	408.676666
10080.294149	5435.801667	1359.135742	470.533295
10080.294149	5435.801667	1358.047852	583.385315
10080.294149	5435.801667	1356.958984	608.252380
10080.294149	5435.801667	1355.871094	566.918640
10080.294149	5435.801667	1354.782227	652.742065
10080.294149	5435.801667	1353.693359	706.906555
10080.294149	5435.801667	1352.604492	562.595398
10080.294149	5435.801667	1351.515625	450.413666
10080.294149	5435.801667	1350.425781	785.445068
10080.294149	5435.801667	1349.335938	719.453064
10080.294149	5435.801667	1348.246094	729.411926
10080.294149	5435.801667	1347.156250	736.622009
10080.294149	5435.801667	1346.066406	622.909058
10080.294149	5435.801667	1344.975586	634.982239
10080.294149	5435.801667	1343.884766	595.155273
10080.294149	5435.801667	1342.793945	736.191345
10080.294149	5435.801667	1341.702148	837.739258
10080.294149	5435.801667	1340.611328	587.795105
10080.294149	5435.801667	1339.519531	592.666748
10080.294149	5435.801667	1338.427734	789.329468
10080.294149	5435.801667	1337.334961	625.315308
10080.294149	5435.801667	1336.243164	421.275635
10080.294149	5435.801667	1335.150391	483.446869
10080.294149	5435.801667	1334.057617	616.401489
10080.294149	5435.801667	1332.964844	436.371338
10080.294149	5435.801667	1331.871094	449.072510
10080.294149	5435.801667	1330.778320	658.899475
10080.294149	5435.801667	1329.684570	521.157959
10080.294149	5435.801667	1328.590820	452.427673
10080.294149	5435.801667	1327.496094	509.325348
10080.294149	5435.801667	1326.402344	429.389282
10080.294149	5435.801667	1325.307617	529.099670
10080.294149	5435.801667	1324.212891	423.004578
10080.294149	5435.801667	1323.117188	432.502350
10080.294149	5435.801667	1322.022461	765.769104
10080.294149	5435.801667	1320.926758	570.803345
10080.294149	5435.801667	1319.831055	452.660553
10080.294149	5435.801667	1318.735352	250.998215
10080.294149	5435.801667	1317.638672	297.943604
10080.294149	5435.801667	1316.542969	434.290985
10080.294149	5435.801667	1315.446289	452.373749
10080.294149	5435.801667	1314.349609	472.151154
10080.294149	5435.801667	1313.251953	471.692078
10080.294149	5435.801667	1312.155273	601.784302
10080.294149	5435.801667	1311.057617	533.707153
10080.294149	5435.801667	1309.959961	444.302216
10080.294149	5435.801667	1308.862305	376.279724
10080.294149	5435.801667	1307.763672	669.427734
10080.294149	5435.801667	1306.665039	717.849304
10080.294149	5435.801667	1305.566406	590.992920
10080.294149	5435.801667	1304.467773	593.808838
10080.294149	5435.801667	1303.369141	392.671356
10080.294149	5435.801667	1302.269531	393.798492
10080.294149	5435.801667	1301.169922	788.732422
10080.294149	5435.801667	1300.070313	668.661621
10080.294149	5435.801667	1298.970703	596.587341
10080.294149	5435.801667	1297.870117	695.065735
10080.294149	5435.801667	1296.769531	513.392456
10080.294149	5435.801667	1295.668945	601.283508
10080.294149	5435.801667	1294.568359	750.021118
10080.294149	5435.801667	1293.466797	566.126709
10080.294149	5435.801667	1292.366211	578.404419
10080.294149	5435.801667	1291.264648	692.356995
10080.294149	5435.801667	1290.162109	522.028625
10080.294149	5435.801667	1289.060547	601.469177
10080.294149	5435.801667	1287.958008	534.439575
10080.294149	5435.801667	1286.855469	561.111633
10080.294149	5435.801667	1285.752930	499.103516
10080.294149	5435.801667	1284.650391	592.754150
10080.294149	5435.801667	1283.546875	532.466248
10080.294149	5435.801667	1282.444336	621.538879
10080.294149	5435.801667	1281.339844	757.094604
10080.294149	5435.801667	1280.236328	610.836914
10080.294149	5435.801667	1279.132813	596.795593
10080.294149	5435.801667	1278.028320	614.789795
10080.294149	5435.801667	1276.923828	610.668335
10080.294149	5435.801667	1275.819336	390.186127
10080.294149	5435.801667	1274.713867	490.390930
10080.294149	5435.801667	1273.608398	279.373566
10080.294149	5435.801667	1272.503906	521.343872
10080.294149	5435.801667	1271.397461	366.252258
10080.294149	5435.801667	1270.291992	540.290710
10080.294149	5435.801667	1269.185547	295.499512
10080.294149	5435.801667	1268.080078	128.791214
10080.294149	5435.801667	1266.972656	313.966492
10080.294149	5435.801667	1265.866211	266.585754
10080.294149	5435.801667	1264.759766	105.284927
10080.294149	5435.801667	1263.652344	342.866211
10080.294149	5435.801667	1262.544922	9.140593
10080.294149	5435.801667	1261.436523	-65.581894
10080.294149	5435.801667	1260.329102	67.424919
10080.294149	5435.801667	1259.220703	54.633904
10080.294149	5435.801667	1258.112305	-46.999683
10080.294149	5435.801667	1257.003906	-144.215256
10080.294149	5435.801667	1255.895508	-113.094017
10080.294149	5435.801667	1254.786133	-161.997528
10080.294149	5435.801667	1253.676758	-75.021523
10080.294149	5435.801667	1252.567383	-64.206207
10080.294149	5435.801667	1251.458008	-215.744141
10080.294149	5435.801667	1250.347656	-11.674476
10080.294149	5435.801667	1249.237305	-245.886078
10080.294149	5435.801667	1248.126953	-13.135992
10080.294149	5435.801667	1247.016602	123.611740
10080.294149	5435.801667	1245.905273	283.710663
10080.294149	5435.801667	1244.793945	432.101837
10080.294149	5435.801667	1243.682617	292.750824
10080.294149	5435.801667	1242.571289	490.095978
10080.294149	5435.801667	1241.459961	515.229797
10080.294149	5435.801667	1240.347656	597.043091
10080.294149	5435.801667	1239.235352	463.552917
10080.294149	5435.801667	1238.123047	212.744400
10080.294149	5435.801667	1237.009766	377.043579
10080.294149	5435.801667	1235.897461	451.717834
10080.294149	5435.801667	1234.784180	687.970154
10080.294149	5435.801667	1233.670898	557.075073
10080.294149	5435.801667	1232.556641	560.400269
10080.294149	5435.801667	1231.443359	373.244171
10080.294149	5435.801667	1230.329102	401.520721
10080.294149	5435.801667	1229.214844	558.586609
10080.294149	5435.801667	1228.099609	479.391449
10080.294149	5435.801667	1226.985352	667.883911
10080.294149	5435.801667	1225.870117	471.083649
10080.294149	5435.801667	1224.754883	627.888245
10080.294149	5435.801667	1223.639648	521.394043
10080.294149	5435.801667	1222.523438	482.478546
10080.294149	5435.801667	1221.408203	514.398926
10080.294149	5435.801667	1220.291992	537.782288
10080.294149	5435.801667	1219.174805	461.879456
10080.294149	5435.801667	1218.058594	523.052917
10080.294149	5435.801667	1216.941406	517.293274
10080.294149	5435.801667	1215.824219	355.673676
10080.294149	5435.801667	1214.707031	116.771103
10080.294149	5435.801667	1213.589844	119.238609
10080.294149	5435.801667	1212.471680	169.160736
10080.294149	5435.801667	1211.353516	264.952484
10080.294149	5435.801667	1210.235352	189.011093
10080.294149	5435.801667	1209.117188	37.503338
10080.294149	5435.801667	1207.998047	223.574295
10080.294149	5435.801667	1206.878906	266.246368
10080.294149	5435.801667	1205.759766	234.489120
10080.294149	5435.801667	1204.640625	126.066925
10080.294149	5435.801667	1203.520508	72.669800
10080.294149	5435.801667	1202.401367	246.757919
10080.294149	5435.801667	1201.281250	281.253479
10080.294149	5435.801667	1200.160156	-29.670904
10080.294149	5435.801667	1199.040039	194.855148
10080.294149	5435.801667	1197.918945	183.818253
10080.294149	5435.801667	1196.797852	-26.136051
10080.294149	5435.801667	1195.676758	153.701996
10080.294149	5435.801667	1194.555664	277.030457
10080.294149	5435.801667	1193.433594	68.445488
10080.294149	5435.801667	1192.311523	-136.778381
10080.294149	5435.801667	1191.189453	-104.554443
10080.294149	5435.801667	1190.066406	-131.958420
10080.294149	5435.801667	1188.944336	-175.115753
10080.294149	5435.801667	1187.821289	7.426746
10080.294149	5435.801667	1186.698242	-109.745773
10080.294149	5435.801667	1185.574219	-100.177872
10080.294149	5435.801667	1184.451172	41.532555
10080.294149	5435.801667	1183.327148	-182.759140
10080.294149	5435.801667	1182.203125	-77.346581
10080.294149	5435.801667	1181.078125	-14.696285
10080.294149	5435.801667	1179.954102	44.949512
10080.294149	5435.801667	1178.829102	-61.694614
10080.294149	5435.801667	1177.704102	-125.767891
10080.294149	5435.801667	1176.579102	31.320379
10080.294149	5435.801667	1175.453125	69.255920
10080.294149	5435.801667	1174.327148	-128.653122
10080.294149	5435.801667	1173.201172	149.687866
10080.294149	5435.801667	1172.075195	75.047356
10080.294149	5435.801667	1170.949219	110.371544
10080.294149	5435.801667	1169.822266	20.043285
10080.294149	5435.801667	1168.695313	-15.474792
10080.294149	5435.801667	1167.568359	-90.363419
10080.294149	5435.801667	1166.440430	186.967194
10080.294149	5435.801667	1165.313477	43.525745
10080.294149	5435.801667	1164.185547	-119.581406
10080.294149	5435.801667	1163.057617	-50.844528
10080.294149	5435.801667	1161.928711	-22.459122
10080.294149	5435.801667	1160.800781	-106.230606
10080.294149	5435.801667	1159.671875	-6.312657
10080.294149	5435.801667	1158.541992	69.426414
10080.294149	5435.801667	1157.413086	204.081879
10080.294149	5435.801667	1156.283203	118.134552
10080.294149	5435.801667	1155.154297	-99.890411
10080.294149	5435.801667	1154.023438	70.232323
10080.294149	5435.801667	1152.893555	-5.738149
10080.294149	5435.801667	1151.763672	-141.768982
10080.294149	5435.801667	1150.632813	80.996666
10080.294149	5435.801667	1149.501953	26.590647
10080.294149	5435.801667	1148.370117	139.465424
10080.294149	5435.801667	1147.239258	61.668381
10080.294149	5435.801667	1146.107422	-182.603653
10080.294149	5435.801667	1144.975586	142.132568
10080.294149	5435.801667	1143.843750	3.202359
10080.294149	5435.801667	1142.710938	210.692734
10080.294149	5435.801667	1141.578125	257.036346
10080.294149	5435.801667	1140.445313	-45.939518
10080.294149	5435.801667	1139.312500	88.926430
10080.294149	5435.801667	1138.178711	179.353836
10080.294149	5435.801667	1137.045898	38.820839
10080.294149	5435.801667	1135.912109	-13.693434
10080.294149	5435.801667	1134.777344	196.851074
10080.294149	5435.801667	1133.643555	-89.006569
10080.294149	5435.801667	1132.508789	49.845257
10080.294149	5435.801667	1131.374023	284.298798
10080.294149	5435.801667	1130.239258	348.820099
10080.294149	5435.801667	1129.104492	353.369385
10080.294149	5435.801667	1127.968750	317.158051
10080.294149	5435.801667	1126.833008	104.133278
10080.294149	5435.801667	1125.697266	228.052216
10080.294149	5435.801667	1124.560547	132.788177
10080.294149	5435.801667	1123.424805	-100.891968
10080.294149	5435.801667	1122.288086	-115.703812
10080.294149	5435.801667	1121.151367	-257.984894
10080.294149	5435.801667	1120.013672	120.266747
10080.294149	5435.801667	1118.876953	-168.886459
10080.294149	5435.801667	1117.739258	115.585464
10080.294149	5435.801667	1116.601563	-53.809010
10080.294149	5435.801667	1115.462891	-109.290756
10080.294149	5435.801667	1114.324219	-141.968338
10080.294149	5435.801667	1113.186523	-71.840614
10080.294149	5435.801667	1112.046875	6.994988
10080.294149	5435.801667	1110.908203	-49.501923
10080.294149	5435.801667	1109.769531	38.369564
10080.294149	5435.801667	1108.629883	56.106956
10080.294149	5435.801667	1107.490234	-109.518890
10080.294149	5435.801667	1106.349609	-151.332840
10080.294149	5435.801667	1105.209961	-259.169098
10080.294149	5435.801667	1104.069336	-108.934799
10080.294149	5435.801667	1102.928711	-49.038414
10080.294149	5435.801667	1101.787109	-33.726955
10080.294149	5435.801667	1100.646484	-12.572238
10080.294149	5435.801667	1099.504883	-134.606949
10080.294149	5435.801667	1098.363281	-141.352493
10080.294149	5435.801667	1097.221680	71.966118
10080.294149	5435.801667	1096.079102	168.355484
10080.294149	5435.801667	1094.936523	171.159698
10080.294149	5435.801667	1093.793945	-106.199730
10080.294149	5435.801667	1092.651367	73.585480
10080.294149	5435.801667	1091.507813	293.574371
10080.294149	5435.801667	1090.364258	256.464935
10080.294149	5435.801667	1089.220703	145.141632
10080.294149	5435.801667	1088.077148	213.522156
10080.294149	5435.801667	1086.933594	25.002718
10080.294149	5435.801667	1085.789063	248.753372
10080.294149	5435.801667	1084.644531	105.773338
10080.294149	5435.801667	1083.499023	107.507935
10080.294149	5435.801667	1082.354492	-8.762341
10080.294149	5435.801667	1081.208984	-39.558800
10080.294149	5435.801667	1080.063477	72.745102
10080.294149	5435.801667	1078.917969	128.391388
10080.294149	5435.801667	1077.771484	-62.364441
10080.294149	5435.801667	1076.625977	64.290268
10080.294149	5435.801667	1075.479492	137.554153
10080.294149	5435.801667	1074.332031	152.126083
10080.294149	5435.801667	1073.185547	186.875854
10080.294149	5435.801667	1072.038086	26.300478
10080.294149	5435.801667	1070.890625	233.150330
10080.294149	5435.801667	1069.743164	-34.066868
10080.294149	5435.801667	1068.594727	112.911690
10080.294149	5435.801667	1067.447266	103.569977
10080.294149	5435.801667	1066.298828	129.435516
10080.294149	5435.801667	1065.149414	183.982635
10080.294149	5435.801667	1064.000977	61.900963
10080.294149	5435.801667	1062.851563	101.379646
10080.294149	5435.801667	1061.702148	427.150269
10080.294149	5435.801667	1060.552734	303.074219
10080.294149	5435.801667	1059.402344	327.105133
10080.294149	5435.801667	1058.252930	-96.261818
10080.294149	5435.801667	1057.102539	106.105133
10080.294149	5435.801667	1055.951172	6.610140
10080.294149	5435.801667	1054.800781	60.123898
10080.294149	5435.801667	1053.649414	31.053127
10080.294149	5435.801667	1052.498047	381.962219
10080.294149	5435.801667	1051.346680	143.917694
10080.294149	5435.801667	1050.194336	44.644161
10080.294149	5435.801667	1049.042969	79.917488
10080.294149	5435.801667	1047.890625	87.819427
10080.294149	5435.801667	1046.738281	155.270294
10080.294149	5435.801667	1045.584961	203.260010
10080.294149	5435.801667	1044.431641	320.550903
10080.294149	5435.801667	1043.278320	504.746704
10080.294149	5435.801667	1042.125000	-98.374962
10080.294149	5435.801667	1040.971680	203.092392
10080.294149	5435.801667	1039.817383	217.325867
10080.294149	5435.801667	1038.663086	103.699570
10080.294149	5435.801667	1037.508789	113.354424
10080.294149	5435.801667	1036.353516	316.522003
10080.294149	5435.801667	1035.198242	422.150909
10080.294149	5435.801667	1034.042969	673.700439
10080.294149	5435.801667	1032.887695	479.194427
10080.294149	5435.801667	1031.732422	765.519958
10080.294149	5435.801667	1030.576172	561.609375
10080.294149	5435.801667	1029.419922	508.759460
10080.294149	5435.801667	1028.263672	512.974487
10080.294149	5435.801667	1027.106445	414.678864
10080.294149	5435.801667	1025.949219	-13.697636
10080.294149	5435.801667	1024.792969	296.136444
10080.294149	5435.801667	1023.634766	38.638622
10080.294149	5435.801667	1022.477539	133.797577
10080.294149	5435.801667	1021.319336	102.963196
10080.294149	5435.801667	1020.161133	-51.526089
10080.294149	5435.801667	1019.002930	-177.732300
10080.294149	5435.801667	1017.843750	-14.083091
10080.294149	5435.801667	1016.684570	-264.874573
10080.294149	5435.801667	1015.525391	-154.852264
10080.294149	5435.801667	1014.366211	-80.533279
10080.294149	5435.801667	1013.207031	-112.758842
10080.294149	5435.801667	1012.046875	-354.212799
10080.294149	5435.801667	1010.886719	131.631470
10080.294149	5435.801667	1009.726563	219.383896
10080.294149	5435.801667	1008.565430	-31.213768
10080.294149	5435.801667	1007.404297	-64.837791
10080.294149	5435.801667	1006.243164	276.426483
10080.294149	5435.801667	1005.082031	289.444885
10080.294149	5435.801667	1003.920898	261.428986
10080.294149	5435.801667	1002.758789	191.413193
10080.294149	5435.801667	1001.596680	244.323212
10080.294149	5435.801667	1000.433594	123.849594
10080.294149	5435.801667	999.271484	31.294714
10080.294149	5435.801667	998.108398	86.468712
10080.294149	5435.801667	996.945313	29.832705
10080.294149	5435.801667	995.782227	130.615891
10080.294149	5435.801667	994.618164	278.524200
10080.294149	5435.801667	993.454102	265.505280
10080.294149	5435.801667	992.290039	489.837158
10080.294149	5435.801667	991.125977	352.772552
10080.294149	5435.801667	989.960938	150.933121
10080.294149	5435.801667	988.796875	364.931061
10080.294149	5435.801667	987.630859	339.272491
10080.294149	5435.801667	986.465820	80.798462
10080.294149	5435.801667	985.300781	445.697052
10080.294149	5435.801667	984.134766	204.236160
10080.294149	5435.801667	982.968750	619.442261
10080.294149	5435.801667	981.801758	557.055786
10080.294149	5435.801667	980.635742	252.687836
10080.294149	5435.801667	979.468750	90.504158
10080.294149	5435.801667	978.301758	355.023590
10080.294149	5435.801667	977.133789	361.107513
10080.294149	5435.801667	975.966797	115.502274
10080.294149	5435.801667	974.798828	343.420013
10080.294149	5435.801667	973.630859	96.633736
10080.294149	5435.801667	972.461914	109.879646
10080.294149	5435.801667	971.293945	119.367401
10080.294149	5435.801667	970.125000	80.650558
10080.294149	5435.801667	968.956055	2.303134
10080.294149	5435.801667	967.786133	-89.890045
10080.294149	5435.801667	966.617188	93.740089
10080.294149	5435.801667	965.447266	-60.925163
10080.294149	5435.801667	964.276367	25.987921
10080.294149	5435.801667	963.106445	130.320587
10080.294149	5435.801667	961.935547	-43.163338
10080.294149	5435.801667	960.764648	233.067566
10080.294149	5435.801667	959.593750	56.246555
10080.294149	5435.801667	958.422852	-238.051331
10080.294149	5435.801667	957.250977	-55.260384
10080.294149	5435.801667	956.079102	49.506451
10080.294149	5435.801667	954.907227	-135.708969
10080.294149	5435.801667	953.734375	-154.407486
10080.294149	5435.801667	952.562500	-99.959938
10080.294149	5435.801667	951.389648	94.693611
10080.294149	5435.801667	950.215820	-171.909012
10080.294149	5435.801667	949.042969	130.347946
10080.294149	5435.801667	947.869141	191.457748
10080.294149	5435.801667	946.695313	43.348846
10080.294149	5435.801667	945.521484	-51.636135
10080.294149	5435.801667	944.346680	-166.720993
10080.294149	5435.801667	943.172852	-56.805267
10080.294149	5435.801667	941.998047	72.719223
10080.294149	5435.801667	940.822266	25.626635
10080.294149	5435.801667	939.647461	61.697342
10080.294149	5435.801667	938.471680	-200.202896
10080.294149	5435.801667	937.295898	-14.952017
10080.294149	5435.801667	936.119141	33.534527
10080.294149	5435.801667	934.943359	-177.781006
10080.294149	5435.801667	933.766602	135.900482
10080.294149	5435.801667	932.589844	17.955072
10080.294149	5435.801667	931.413086	-24.317595
10080.294149	5435.801667	930.235352	11.432496
10080.294149	5435.801667	929.057617	241.565887
10080.294149	5435.801667	927.879883	257.181030
10080.294149	5435.801667	926.702148	123.862701
10080.294149	5435.801667	925.523438	-87.689568
10080.294149	5435.801667	924.344727	-16.662048
10080.294149	5435.801667	923.166016	129.975357
10080.294149	5435.801667	921.987305	155.489044
10080.294149	5435.801667	920.807617	97.781532
10080.294149	5435.801667	919.627930	101.758446
10080.294149	5435.801667	919.497070	48.072994
10080.294149	5435.801667	918.331055	194.436676
10080.294149	5435.801667	917.165039	-1.942726
10080.294149	5435.801667	915.999023	-173.076218
10080.294149	5435.801667	914.833008	10.950999
10080.294149	5435.801667	913.666016	-202.962662
10080.294149	5435.801667	912.499023	-165.059952
10080.294149	5435.801667	911.332031	106.888344
10080.294149	5435.801667	910.165039	-23.933483
10080.294149	5435.801667	908.997070	-210.068512
10080.294149	5435.801667	907.830078	-84.233246
10080.294149	5435.801667	906.661133	66.689690
10080.294149	5435.801667	905.493164	-252.669647
10080.294149	5435.801667	904.325195	-91.754799
10080.294149	5435.801667	903.156250	89.187943
10080.294149	5435.801667	901.987305	-164.691513
10080.294149	5435.801667	900.818359	71.433617
10080.294149	5435.801667	899.648438	179.348206
10080.294149	5435.801667	898.478516	-29.231390
10080.294149	5435.801667	897.308594	23.392670
10080.294149	5435.801667	896.138672	201.500275
10080.294149	5435.801667	894.968750	331.836151
10080.294149	5435.801667	893.797852	22.978052
10080.294149	5435.801667	892.626953	42.890339
10080.294149	5435.801667	891.456055	65.292320
10080.294149	5435.801667	890.284180	100.216766
10080.294149	5435.801667	889.113281	135.115356
10080.294149	5435.801667	887.941406	237.676117
10080.294149	5435.801667	886.768555	177.282333
10080.294149	5435.801667	885.596680	159.500946
10080.294149	5435.801667	884.423828	23.976925
10080.294149	5435.801667	883.250977	224.133606
10080.294149	5435.801667	882.078125	296.489044
10080.294149	5435.801667	880.905273	283.680359
10080.294149	5435.801667	879.731445	205.794922
10080.294149	5435.801667	878.557617	235.548950
10080.294149	5435.801667	877.383789	192.724152
10080.294149	5435.801667	876.209961	-85.243553
10080.294149	5435.801667	875.035156	39.586586
10080.294149	5435.801667	873.860352	139.354660
10080.294149	5435.801667	872.685547	24.068819
10080.294149	5435.801667	871.510742	168.786072
10080.294149	5435.801667	870.334961	-16.435726
10080.294149	5435.801667	869.159180	-24.183086
10080.294149	5435.801667	867.983398	-269.246735
10080.294149	5435.801667	866.807617	-189.530655
10080.294149	5435.801667	865.630859	-279.643066
10080.294149	5435.801667	864.454102	62.181007
10080.294149	5435.801667	863.277344	14.482852
10080.294149	5435.801667	862.100586	-58.149422
10080.294149	5435.801667	860.922852	-83.343605
10080.294149	5435.801667	859.745117	31.161331
10080.294149	5435.801667	858.567383	68.306976
10080.294149	5435.801667	857.389648	110.425537
10080.294149	5435.801667	856.210938	137.570801
10080.294149	5435.801667	855.032227	259.417786
10080.294149	5435.801667	853.853516	-134.611481
10080.294149	5435.801667	852.674805	-139.817688
10080.294149	5435.801667	851.495117	-229.709595
10080.294149	5435.801667	850.315430	190.965866
10080.294149	5435.801667	849.135742	56.228302
10080.294149	5435.801667	847.956055	302.419556
10080.294149	5435.801667	846.775391	48.253471
10080.294149	5435.801667	845.595703	152.511444
10080.294149	5435.801667	844.415039	226.876907
10080.294149	5435.801667	843.233398	132.076431
10080.294149	5435.801667	842.052734	159.168716
10080.294149	5435.801667	840.871094	-15.137439
10080.294149	5435.801667	839.689453	-32.764896
10080.294149	5435.801667	838.506836	-37.956963
10080.294149	5435.801667	837.325195	-112.721413
10080.294149	5435.801667	836.142578	105.691498
10080.294149	5435.801667	834.959961	-68.418495
10080.294149	5435.801667	833.777344	-113.326920
10080.294149	5435.801667	832.593750	-66.353348
10080.294149	5435.801667	831.410156	-138.545761
10080.294149	5435.801667	830.226563	265.779266
10080.294149	5435.801667	829.042969	-22.316040
10080.294149	5435.801667	827.858398	81.657326
10080.294149	5435.801667	826.673828	51.659119
10080.294149	5435.801667	825.489258	-25.443739
10080.294149	5435.801667	824.304688	209.858231
10080.294149	5435.801667	823.120117	-159.726273
10080.294149	5435.801667	821.934570	30.899002
10080.294149	5435.801667	820.749023	194.187912
10080.294149	5435.801667	819.562500	-269.294556
10080.294149	5435.801667	818.376953	-86.202881
10080.294149	5435.801667	817.190430	62.145935
10080.294149	5435.801667	816.003906	71.799446
10080.294149	5435.801667	814.817383	98.768936
10080.294149	5435.801667	813.629883	-242.980301
10080.294149	5435.801667	812.442383	-65.047279
10080.294149	5435.801667	811.254883	219.167160
10080.294149	5435.801667	810.067383	-65.532806
10080.294149	5435.801667	808.878906	-6.441735
10080.294149	5435.801667	807.690430	-14.127429
10080.294149	5435.801667	806.501953	-145.391205
10080.294149	5435.801667	805.313477	-93.757065
10080.294149	5435.801667	804.124023	-34.738419
10080.294149	5435.801667	802.934570	31.655491
10080.294149	5435.801667	801.745117	162.217026
10080.294149	5435.801667	800.555664	85.322517
10080.294149	5435.801667	799.365234	-63.129444
10080.294149	5435.801667	798.175781	222.813980
10080.294149	5435.801667	796.985352	244.616577
10080.294149	5435.801667	795.793945	155.392868
10080.294149	5435.801667	794.603516	4.529292
10080.294149	5435.801667	793.412109	127.425087
10080.294149	5435.801667	792.220703	-50.516953
10080.294149	5435.801667	791.028320	153.650406
10080.294149	5435.801667	789.836914	42.280441
10080.294149	5435.801667	788.644531	44.276119
10080.294149	5435.801667	787.452148	105.370323
10080.294149	5435.801667	786.258789	-1.046491
10080.294149	5435.801667	785.066406	116.625114
10080.294149	5435.801667	783.873047	-56.258953
10080.294149	5435.801667	782.679688	31.799820
10080.294149	5435.801667	781.485352	277.289429
10080.294149	5435.801667	780.291992	87.188278
10080.294149	5435.801667	779.097656	5.371630
10080.294149	5435.801667	777.903320	248.179794
10080.294149	5435.801667	776.708008	554.788147
10080.294149	5435.801667	775.512695	212.281128
10080.294149	5435.801667	774.318359	368.792145
10080.294149	5435.801667	773.122070	225.440704
10080.294149	5435.801667	771.926758	430.960846
10080.294149	5435.801667	770.730469	12.504759
10080.294149	5435.801667	769.534180	357.893280
10080.294149	5435.801667	768.337891	349.564880
10080.294149	5435.801667	767.141602	306.842743
10080.294149	5435.801667	765.944336	450.616791
10080.294149	5435.801667	764.747070	471.612183
10080.294149	5435.801667	763.549805	688.810303
10080.294149	5435.801667	762.351563	1003.983704
10080.294149	5435.801667	761.154297	1010.023560
10080.294149	5435.801667	759.956055	947.378357
10080.294149	5435.801667	758.757813	546.472534
10080.294149	5435.801667	757.558594	726.469177
10080.294149	5435.801667	756.359375	859.794800
10080.294149	5435.801667	755.160156	566.805725
10080.294149	5435.801667	753.960938	460.016449
10080.294149	5435.801667	752.761719	505.029388
10080.294149	5435.801667	751.561523	295.386230
10080.294149	5435.801667	750.361328	244.865204
10080.294149	5435.801667	749.160156	338.685638
10080.294149	5435.801667	747.959961	486.235535
10080.294149	5435.801667	746.758789	437.997559
10080.294149	5435.801667	745.557617	609.812561
10080.294149	5435.801667	744.356445	461.214661
10080.294149	5435.801667	743.154297	808.838806
10080.294149	5435.801667	741.952148	628.377686
10080.294149	5435.801667	740.750000	469.921875
10080.294149	5435.801667	739.547852	555.759216
10080.294149	5435.801667	738.344727	453.436798
10080.294149	5435.801667	737.142578	727.138245
10080.294149	5435.801667	735.939453	544.130554
10080.294149	5435.801667	734.735352	358.693695
10080.294149	5435.801667	733.532227	578.359192
10080.294149	5435.801667	732.328125	544.126282
10080.294149	5435.801667	731.124023	470.807007
10080.294149	5435.801667	729.918945	243.805389
10080.294149	5435.801667	728.714844	182.630142
10080.294149	5435.801667	727.509766	545.580688
10080.294149	5435.801667	726.303711	613.395813
10080.294149	5435.801667	725.098633	103.594444
10080.294149	5435.801667	723.892578	288.260712
10080.294149	5435.801667	722.686523	428.927887
10080.294149	5435.801667	721.480469	206.608490
10080.294149	5435.801667	720.274414	-69.263077
10080.294149	5435.801667	719.067383	222.070190
10080.294149	5435.801667	717.860352	226.020737
10080.294149	5435.801667	716.653320	8.466318
10080.294149	5435.801667	715.445313	65.810257
10080.294149	5435.801667	714.238281	-73.962608
10080.294149	5435.801667	713.030273	-143.245743
10080.294149	5435.801667	711.821289	-88.601021
10080.294149	5435.801667	710.613281	-87.543152
10080.294149	5435.801667	709.404297	61.660954
10080.294149	5435.801667	708.195313	-92.993629
10080.294149	5435.801667	706.986328	-26.627111
10080.294149	5435.801667	705.776367	71.186760
10080.294149	5435.801667	704.566406	-66.660210
10080.294149	5435.801667	703.356445	-61.319447
10080.294149	5435.801667	702.146484	215.754913
10080.294149	5435.801667	700.935547	145.611893
10080.294149	5435.801667	699.724609	186.997192
10080.294149	5435.801667	698.513672	225.837555
10080.294149	5435.801667	697.302734	291.235535
10080.294149	5435.801667	696.090820	310.435211
10080.294149	5435.801667	694.878906	62.881870
10080.294149	5435.801667	693.666992	302.449615
10080.294149	5435.801667	692.455078	28.135561
10080.294149	5435.801667	691.242188	180.185501
10080.294149	5435.801667	690.029297	152.838104
10080.294149	5435.801667	688.816406	379.645233
10080.294149	5435.801667	687.602539	395.623932
10080.294149	5435.801667	686.389648	208.165359
10080.294149	5435.801667	685.175781	163.450836
10080.294149	5435.801667	683.960938	665.432495
10080.294149	5435.801667	682.747070	27.777376
10080.294149	5435.801667	681.532227	219.789459
10080.294149	5435.801667	680.317383	256.860626
10080.294149	5435.801667	679.102539	194.685471
10080.294149	5435.801667	677.886719	255.679001
10080.294149	5435.801667	676.670898	362.442383
10080.294149	5435.801667	675.455078	348.246521
10080.294149	5435.801667	674.239258	172.110382
10080.294149	5435.801667	673.022461	155.306076
10080.294149	5435.801667	671.805664	251.863007
10080.294149	5435.801667	670.588867	423.087341
10080.294149	5435.801667	669.372070	343.132935
10080.294149	5435.801667	668.154297	185.877106
10080.294149	5435.801667	666.936523	79.222778
10080.294149	5435.801667	665.718750	25.552425
10080.294149	5435.801667	664.500977	413.045410
10080.294149	5435.801667	663.282227	400.059235
10080.294149	5435.801667	662.063477	211.005188
10080.294149	5435.801667	660.844727	354.455322
10080.294149	5435.801667	659.625000	242.333328
10080.294149	5435.801667	658.405273	252.982529
10080.294149	5435.801667	657.185547	143.088364
10080.294149	5435.801667	655.965820	302.781586
10080.294149	5435.801667	654.745117	267.292328
10080.294149	5435.801667	653.525391	87.296829
10080.294149	5435.801667	652.303711	309.077148
10080.294149	5435.801667	651.083008	35.070103
10080.294149	5435.801667	649.861328	160.309830
10080.294149	5435.801667	648.640625	136.284058
10080.294149	5435.801667	647.417969	83.285576
10080.294149	5435.801667	646.196289	296.994659
10080.294149	5435.801667	644.973633	-56.660614
10080.294149	5435.801667	643.750977	228.811188
10080.294149	5435.801667	642.528320	245.000214
10080.294149	5435.801667	641.305664	64.123672
10080.294149	5435.801667	640.082031	159.323090
10080.294149	5435.801667	638.858398	-91.331451
10080.294149	5435.801667	637.634766	138.019928
10080.294149	5435.801667	636.410156	189.575272
10080.294149	5435.801667	635.185547	-176.456268
10080.294149	5435.801667	633.960938	-74.730286
10080.294149	5435.801667	632.736328	41.218731
10080.294149	5435.801667	631.510742	276.869873
10080.294149	5435.801667	630.285156	-115.725372
10080.294149	5435.801667	629.059570	-43.345440
10080.294149	5435.801667	627.833984	40.865982
10080.294149	5435.801667	626.607422	259.067474
10080.294149	5435.801667	625.380859	17.215416
10080.294149	5435.801667	624.154297	158.472916
10080.294149	5435.801667	622.927734	48.184765
10080.294149	5435.801667	621.700195	-172.279678
10080.294149	5435.801667	620.472656	-131.926376
10080.294149	5435.801667	619.245117	-385.978760
10080.294149	5435.801667	618.016602	233.031998
10080.294149	5435.801667	616.788086	117.487091
10080.294149	5435.801667	615.559570	-36.369980
10080.294149	5435.801667	614.331055	-99.432373
10080.294149	5435.801667	613.101563	11.885818
10080.294149	5435.801667	611.872070	27.474081
10080.294149	5435.801667	610.642578	-16.771532
10080.294149	5435.801667	609.413086	-130.363129
10080.294149	5435.801667	608.182617	-351.468811
10080.294149	5435.801667	606.952148	5.172479
10080.294149	5435.801667	605.721680	-44.207054
10080.294149	5435.801667	604.491211	18.499807
10080.294149	5435.801667	603.259766	-190.912247
10080.294149	5435.801667	602.028320	-128.392593
10080.294149	5435.801667	600.796875	-154.230362
10080.294149	5435.801667	599.564453	41.593716
10080.294149	5435.801667	598.332031	-101.260025
10080.294149	5435.801667	597.099609	-296.568848
10080.294149	5435.801667	595.867188	-8.160729
10080.294149	5435.801667	594.633789	-346.518463
10080.294149	5435.801667	593.400391	208.376190
10080.294149	5435.801667	592.166992	103.334015
10080.294149	5435.801667	590.933594	176.824081
10080.294149	5435.801667	589.699219	188.314758
10080.294149	5435.801667	588.464844	-78.704651
10080.294149	5435.801667	587.230469	146.838577
10080.294149	5435.801667	585.995117	193.801437
10080.294149	5435.801667	584.760742	169.344406
10080.294149	5435.801667	583.525391	130.561905
10080.294149	5435.801667	582.289063	-0.981102
10080.294149	5435.801667	581.053711	-73.094521
10080.294149	5435.801667	579.817383	78.128487
10080.294149	5435.801667	578.581055	321.892761
10080.294149	5435.801667	577.343750	247.217484
10080.294149	5435.801667	576.107422	-212.169754
10080.294149	5435.801667	574.870117	169.067490
10080.294149	5435.801667	573.631836	-116.921593
10080.294149	5435.801667	572.394531	242.700287
10080.294149	5435.801667	571.156250	165.548798
10080.294149	5435.801667	569.917969	230.731537
10080.294149	5435.801667	568.679688	49.204594
10080.294149	5435.801667	567.440430	119.069206
10080.294149	5435.801667	566.202148	41.909065
10080.294149	5435.801667	564.961914	220.725204
10080.294149	5435.801667	563.722656	188.557785
10080.294149	5435.801667	562.482422	-78.161148
10080.294149	5435.801667	561.243164	114.751846
10080.294149	5435.801667	560.001953	129.946259
10080.294149	5435.801667	558.761719	52.804188
10080.294149	5435.801667	557.520508	91.677643
10080.294149	5435.801667	556.279297	92.670685
10080.294149	5435.801667	555.038086	-3.340501
10080.294149	5435.801667	553.795898	14.239694
10080.294149	5435.801667	552.554688	161.916977
10080.294149	5435.801667	551.311523	153.464172
10080.294149	5435.801667	550.069336	459.470215
10080.294149	5435.801667	548.826172	283.183868
10080.294149	5435.801667	547.583984	123.552094
10080.294149	5435.801667	546.339844	261.683868
10080.294149	5435.801667	545.096680	-112.773499
10080.294149	5435.801667	543.852539	70.288239
10080.294149	5435.801667	542.608398	170.670227
10080.294149	5435.801667	541.364258	282.856018
10080.294149	5435.801667	540.119141	-15.619076
10080.294149	5435.801667	538.875000	-195.933655
10080.294149	5435.801667	537.628906	-218.081589
10080.294149	5435.801667	536.383789	172.587402
10080.294149	5435.801667	535.137695	-16.939104
10080.294149	5435.801667	533.892578	24.722319
10080.294149	5435.801667	532.645508	-298.927612
10080.294149	5435.801667	531.399414	280.180573
10080.294149	5435.801667	530.152344	100.466316
10080.294149	5435.801667	528.905273	-1.365761
10080.294149	5435.801667	527.658203	38.216305
10080.294149	5435.801667	526.410156	-301.220764
10080.294149	5435.801667	525.163086	-99.007599
10080.294149	5435.801667	523.914063	27.873051
10080.294149	5435.801667	522.666016	-5.212246
10080.294149	5435.801667	521.416992	72.363503
10080.294149	5435.801667	520.167969	13.581311
10080.294149	5435.801667	518.918945	32.515625
10080.294149	5435.801667	517.669922	-96.577553
10080.294149	5435.801667	516.419922	432.600891
10080.294149	5435.801667	515.169922	122.718826
10080.294149	5435.801667	513.919922	116.147163
10080.294149	5435.801667	512.668945	90.882233
10080.294149	5435.801667	511.417969	450.874512
10080.294149	5435.801667	510.166992	-182.358917
10080.294149	5435.801667	508.916016	72.114929
10080.294149	5435.801667	507.664063	33.212132
10080.294149	5435.801667	506.412109	341.706543
10080.294149	5435.801667	505.160156	354.591248
10080.294149	5435.801667	503.907227	254.997055
10080.294149	5435.801667	502.655273	608.127502
10080.294149	5435.801667	501.402344	557.975647
10080.294149	5435.801667	500.148438	475.135742
10080.294149	5435.801667	498.895508	516.652100
10080.294149	5435.801667	497.641602	637.912231
10080.294149	5435.801667	496.387695	721.756409
10080.294149	5435.801667	495.132813	772.883057
10080.294149	5435.801667	493.878906	866.249084
10080.294149	5435.801667	492.624023	772.409912
10080.294149	5435.801667	491.368164	762.968262
10080.294149	5435.801667	490.113281	912.756775
10080.294149	5435.801667	488.857422	887.127625
10080.294149	5435.801667	487.601563	917.748779
10080.294149	5435.801667	486.344727	983.528809
10080.294149	5435.801667	485.088867	981.589661
10080.294149	5435.801667	483.832031	890.925781
10080.294149	5435.801667	482.575195	1094.838501
10080.294149	5435.801667	481.317383	1188.942627
10080.294149	5435.801667	480.059570	1180.318115
10080.294149	5435.801667	478.801758	1363.279663
10080.294149	5435.801667	477.543945	1354.789917
10080.294149	5435.801667	476.285156	1540.122803
10080.294149	5435.801667	475.027344	1419.724854
10080.294149	5435.801667	473.767578	1227.103760
10080.294149	5435.801667	472.508789	1225.923096
10080.294149	5435.801667	471.249023	1539.655762
10080.294149	5435.801667	469.989258	1685.411499
10080.294149	5435.801667	468.729492	1425.504395
10080.294149	5435.801667	467.469727	1594.612793
10080.294149	5435.801667	466.208984	1267.320557
10080.294149	5435.801667	464.948242	1662.427124
10080.294149	5435.801667	463.686523	1521.634888
10080.294149	5435.801667	462.425781	1804.750488
10080.294149	5435.801667	461.164063	1636.051025
10080.294149	5435.801667	459.901367	1711.821655
10080.294149	5435.801667	458.639648	1896.922607
10080.294149	5435.801667	457.376953	1923.683838
10080.294149	5435.801667	456.114258	1820.116455
10080.294149	5435.801667	454.851563	1893.294800
10080.294149	5435.801667	453.587891	1733.840454
10080.294149	5435.801667	452.324219	2006.778687
10080.294149	5435.801667	451.060547	1826.274048
10080.294149	5435.801667	449.796875	1945.501831
10080.294149	5435.801667	448.532227	1885.657715
10080.294149	5435.801667	447.267578	1918.612061
10080.294149	5435.801667	446.002930	1596.091553
10080.294149	5435.801667	444.737305	1777.351807
10080.294149	5435.801667	443.471680	1986.201172
10080.294149	5435.801667	442.206055	1999.811401
10080.294149	5435.801667	440.940430	2168.644775
10080.294149	5435.801667	439.673828	1945.121216
10080.294149	5435.801667	438.407227	2240.937744
10080.294149	5435.801667	437.140625	2186.212646
10080.294149	5435.801667	435.873047	2344.476074
10080.294149	5435.801667	434.605469	2481.481934
10080.294149	5435.801667	433.337891	2217.193848
10080.294149	5435.801667	432.070313	1915.578125
10080.294149	5435.801667	430.801758	2016.707886
10080.294149	5435.801667	429.533203	2024.736938
10080.294149	5435.801667	428.264648	2222.158691
10080.294149	5435.801667	426.996094	2185.225098
10080.294149	5435.801667	425.726563	2240.359619
10080.294149	5435.801667	424.457031	2165.364258
10080.294149	5435.801667	423.186523	2409.042725
10080.294149	5435.801667	421.916992	2210.300049
10080.294149	5435.801667	420.646484	2313.897705
10080.294149	5435.801667	419.375977	2463.018066
10080.294149	5435.801667	418.104492	2551.269287
10080.294149	5435.801667	416.833008	2518.588379
10080.294149	5435.801667	415.561523	2667.654053
10080.294149	5435.801667	414.290039	2677.260986
10080.294149	5435.801667	413.017578	2268.033936
10080.294149	5435.801667	411.746094	2802.368408
10080.294149	5435.801667	410.472656	2255.267090
10080.294149	5435.801667	409.200195	2224.371338
10080.294149	5435.801667	407.926758	2510.844727
10080.294149	5435.801667	406.653320	2708.473633
10080.294149	5435.801667	405.379883	2768.841309
10080.294149	5435.801667	404.105469	2320.751465
10080.294149	5435.801667	402.831055	2689.990479
10080.294149	5435.801667	401.556641	2244.250977
10080.294149	5435.801667	400.282227	2746.723877
10080.294149	5435.801667	399.006836	2713.133301
10080.294149	5435.801667	397.731445	2703.470703
10080.294149	5435.801667	396.456055	2881.155029
10080.294149	5435.801667	395.179688	2792.449463
10080.294149	5435.801667	393.903320	2605.512207
10080.294149	5435.801667	392.626953	2640.216553
10080.294149	5435.801667	391.350586	2767.514404
10080.294149	5435.801667	390.073242	2860.737305
10080.294149	5435.801667	388.795898	2618.612061
10080.294149	5435.801667	387.518555	2666.669678
10080.294149	5435.801667	386.240234	2708.081543
10080.294149	5435.801667	384.961914	2485.417236
10080.294149	5435.801667	383.683594	2568.606445
10080.294149	5435.801667	382.405273	2523.200684
10080.294149	5435.801667	381.125977	2684.483887
10080.294149	5435.801667	379.846680	2599.929199
10080.294149	5435.801667	378.567383	2737.937012
10080.294149	5435.801667	377.287109	2744.772949
10080.294149	5435.801667	376.006836	2707.678223
10080.294149	5435.801667	374.726563	2564.651123
10080.294149	5435.801667	373.446289	2416.596191
10080.294149	5435.801667	372.165039	2726.591797
10080.294149	5435.801667	370.883789	2687.267578
10080.294149	5435.801667	369.602539	2342.306885
10080.294149	5435.801667	368.320313	2383.840576
10080.294149	5435.801667	367.039063	2497.747559
10080.294149	5435.801667	365.755859	2440.862305
10080.294149	5435.801667	364.473633	2272.934326
10080.294149	5435.801667	363.190430	2195.283203
10080.294149	5435.801667	361.907227	2207.805908
10080.294149	5435.801667	360.624023	2550.647461
10080.294149	5435.801667	359.340820	2447.770508
10080.294149	5435.801667	358.056641	2427.723389
10080.294149	5435.801667	356.772461	2238.816406
10080.294149	5435.801667	355.487305	2107.328369
10080.294149	5435.801667	354.202148	2014.892090
10080.294149	5435.801667	352.916992	2208.208740
10080.294149	5435.801667	351.631836	2001.392700
10080.294149	5435.801667	350.346680	2507.231201
10080.294149	5435.801667	349.060547	1913.615356
10080.294149	5435.801667	347.774414	1808.417236
10080.294149	5435.801667	346.487305	2104.289307
10080.294149	5435.801667	345.200195	1739.466187
10080.294149	5435.801667	343.913086	1948.912964
10080.294149	5435.801667	342.625977	1887.857666
10080.294149	5435.801667	341.338867	1848.319458
10080.294149	5435.801667	340.050781	1526.640015
10080.294149	5435.801667	338.762695	1700.536865
10080.294149	5435.801667	337.473633	1708.239258
10080.294149	5435.801667	336.184570	1451.816162
10080.294149	5435.801667	334.895508	1307.260254
10080.294149	5435.801667	333.606445	1313.046509
10080.294149	5435.801667	332.317383	1341.342041
10080.294149	5435.801667	331.027344	1027.404419
10080.294149	5435.801667	329.736328	1184.054077
10080.294149	5435.801667	328.446289	1217.043457
10080.294149	5435.801667	327.155273	907.407715
10080.294149	5435.801667	325.864258	601.194458
10080.294149	5435.801667	324.573242	744.047302
10080.294149	5435.801667	323.281250	505.136414
10080.294149	5435.801667	321.989258	603.213867
10080.294149	5435.801667	320.697266	669.563171
10080.294149	5435.801667	319.405273	635.797424
10080.294149	5435.801667	318.112305	376.538605
10080.294149	5435.801667	316.819336	96.387383
10080.294149	5435.801667	315.526367	-27.720476
10080.294149	5435.801667	314.232422	-0.935356
10080.294149	5435.801667	312.938477	312.862579
10080.294149	5435.801667	311.644531	227.751297
10080.294149	5435.801667	310.349609	415.161224
10080.294149	5435.801667	309.054688	-227.722778
10080.294149	5435.801667	307.759766	123.103874
10080.294149	5435.801667	306.464844	-161.577835
10080.294149	5435.801667	305.168945	40.371490
10080.294149	5435.801667	303.873047	125.676994
10080.294149	5435.801667	302.577148	205.176208
10080.294149	5435.801667	301.281250	251.389008
10080.294149	5435.801667	299.984375	25.813389
