#X		#Y		#Wave		#Intensity
-15770.820745	5126.538333	1999.946289	19.725155
-15770.820745	5126.538333	1998.981445	59.578369
-15770.820745	5126.538333	1998.017578	-33.059345
-15770.820745	5126.538333	1997.052734	-26.571661
-15770.820745	5126.538333	1996.088867	29.433558
-15770.820745	5126.538333	1995.124023	30.887907
-15770.820745	5126.538333	1994.159180	-2.363729
-15770.820745	5126.538333	1993.193359	-117.351402
-15770.820745	5126.538333	1992.228516	22.682938
-15770.820745	5126.538333	1991.262695	43.819038
-15770.820745	5126.538333	1990.296875	30.269520
-15770.820745	5126.538333	1989.331055	-79.805748
-15770.820745	5126.538333	1988.365234	69.900536
-15770.820745	5126.538333	1987.398438	41.430344
-15770.820745	5126.538333	1986.432617	20.364265
-15770.820745	5126.538333	1985.465820	75.931038
-15770.820745	5126.538333	1984.499023	-61.374870
-15770.820745	5126.538333	1983.532227	-102.258423
-15770.820745	5126.538333	1982.565430	59.489952
-15770.820745	5126.538333	1981.597656	6.198150
-15770.820745	5126.538333	1980.629883	-5.101239
-15770.820745	5126.538333	1979.662109	50.267151
-15770.820745	5126.538333	1978.694336	110.532387
-15770.820745	5126.538333	1977.726563	192.974777
-15770.820745	5126.538333	1976.758789	50.734993
-15770.820745	5126.538333	1975.790039	-29.772367
-15770.820745	5126.538333	1974.821289	0.771000
-15770.820745	5126.538333	1973.852539	33.750839
-15770.820745	5126.538333	1972.883789	-12.232275
-15770.820745	5126.538333	1971.915039	-122.337540
-15770.820745	5126.538333	1970.945313	73.329964
-15770.820745	5126.538333	1969.975586	-14.598433
-15770.820745	5126.538333	1969.005859	-11.313208
-15770.820745	5126.538333	1968.036133	-121.405251
-15770.820745	5126.538333	1967.066406	-31.897581
-15770.820745	5126.538333	1966.096680	-122.269295
-15770.820745	5126.538333	1965.125977	-45.140759
-15770.820745	5126.538333	1964.155273	29.481697
-15770.820745	5126.538333	1963.184570	-53.510441
-15770.820745	5126.538333	1962.213867	119.521370
-15770.820745	5126.538333	1961.242188	93.121216
-15770.820745	5126.538333	1960.271484	32.268845
-15770.820745	5126.538333	1959.299805	42.771290
-15770.820745	5126.538333	1958.328125	-62.351879
-15770.820745	5126.538333	1957.356445	19.459225
-15770.820745	5126.538333	1956.384766	-21.715511
-15770.820745	5126.538333	1955.412109	60.032616
-15770.820745	5126.538333	1954.439453	63.084518
-15770.820745	5126.538333	1953.467773	152.136581
-15770.820745	5126.538333	1952.495117	231.315414
-15770.820745	5126.538333	1951.521484	-1.532079
-15770.820745	5126.538333	1950.548828	50.607204
-15770.820745	5126.538333	1949.575195	9.400317
-15770.820745	5126.538333	1948.601563	59.040684
-15770.820745	5126.538333	1947.627930	47.284386
-15770.820745	5126.538333	1946.654297	57.611126
-15770.820745	5126.538333	1945.680664	124.362411
-15770.820745	5126.538333	1944.706055	-140.126984
-15770.820745	5126.538333	1943.732422	-83.194489
-15770.820745	5126.538333	1942.757813	42.376572
-15770.820745	5126.538333	1941.783203	47.743011
-15770.820745	5126.538333	1940.807617	-44.964088
-15770.820745	5126.538333	1939.833008	-203.823807
-15770.820745	5126.538333	1938.857422	49.072800
-15770.820745	5126.538333	1937.881836	86.251213
-15770.820745	5126.538333	1936.906250	-128.913940
-15770.820745	5126.538333	1935.930664	3.788911
-15770.820745	5126.538333	1934.955078	18.891113
-15770.820745	5126.538333	1933.978516	92.739471
-15770.820745	5126.538333	1933.001953	100.459549
-15770.820745	5126.538333	1932.025391	7.823408
-15770.820745	5126.538333	1931.048828	30.222744
-15770.820745	5126.538333	1930.072266	165.146408
-15770.820745	5126.538333	1929.094727	-84.022751
-15770.820745	5126.538333	1928.118164	-2.946729
-15770.820745	5126.538333	1927.140625	141.665009
-15770.820745	5126.538333	1926.163086	163.980026
-15770.820745	5126.538333	1925.184570	39.623302
-15770.820745	5126.538333	1924.207031	130.360611
-15770.820745	5126.538333	1923.228516	-1.288116
-15770.820745	5126.538333	1922.250000	253.081024
-15770.820745	5126.538333	1921.271484	153.195572
-15770.820745	5126.538333	1920.292969	67.991600
-15770.820745	5126.538333	1919.314453	-63.575813
-15770.820745	5126.538333	1918.334961	31.915600
-15770.820745	5126.538333	1917.355469	-19.071678
-15770.820745	5126.538333	1916.375977	44.639595
-15770.820745	5126.538333	1915.396484	140.036224
-15770.820745	5126.538333	1914.416992	-15.852033
-15770.820745	5126.538333	1913.436523	3.901926
-15770.820745	5126.538333	1912.457031	123.614235
-15770.820745	5126.538333	1911.476563	-63.899483
-15770.820745	5126.538333	1910.496094	70.389183
-15770.820745	5126.538333	1909.515625	-107.311325
-15770.820745	5126.538333	1908.534180	73.212662
-15770.820745	5126.538333	1907.552734	27.108685
-15770.820745	5126.538333	1906.572266	112.538002
-15770.820745	5126.538333	1905.590820	34.771690
-15770.820745	5126.538333	1904.608398	-62.452553
-15770.820745	5126.538333	1903.626953	-79.317039
-15770.820745	5126.538333	1902.644531	20.637241
-15770.820745	5126.538333	1901.663086	-32.752483
-15770.820745	5126.538333	1900.680664	123.095810
-15770.820745	5126.538333	1899.698242	-30.039934
-15770.820745	5126.538333	1898.714844	-37.209850
-15770.820745	5126.538333	1897.732422	72.328133
-15770.820745	5126.538333	1896.749023	-53.996887
-15770.820745	5126.538333	1895.765625	-34.447468
-15770.820745	5126.538333	1894.782227	21.537804
-15770.820745	5126.538333	1893.798828	-146.037766
-15770.820745	5126.538333	1892.814453	21.673077
-15770.820745	5126.538333	1891.831055	-68.137329
-15770.820745	5126.538333	1890.846680	60.625042
-15770.820745	5126.538333	1889.862305	145.627823
-15770.820745	5126.538333	1888.877930	41.250786
-15770.820745	5126.538333	1887.892578	92.227348
-15770.820745	5126.538333	1886.908203	92.219627
-15770.820745	5126.538333	1885.922852	21.845009
-15770.820745	5126.538333	1884.937500	101.874176
-15770.820745	5126.538333	1883.952148	-63.076805
-15770.820745	5126.538333	1882.965820	-0.056784
-15770.820745	5126.538333	1881.980469	-121.311768
-15770.820745	5126.538333	1880.994141	-101.953979
-15770.820745	5126.538333	1880.007813	40.975780
-15770.820745	5126.538333	1879.021484	38.468079
-15770.820745	5126.538333	1878.035156	52.907032
-15770.820745	5126.538333	1877.047852	35.842342
-15770.820745	5126.538333	1876.061523	-39.342484
-15770.820745	5126.538333	1875.074219	42.856400
-15770.820745	5126.538333	1874.086914	49.973923
-15770.820745	5126.538333	1873.098633	15.932779
-15770.820745	5126.538333	1872.111328	114.976906
-15770.820745	5126.538333	1871.123047	-98.112595
-15770.820745	5126.538333	1870.135742	126.667999
-15770.820745	5126.538333	1869.147461	58.731098
-15770.820745	5126.538333	1868.158203	65.759094
-15770.820745	5126.538333	1867.169922	138.043884
-15770.820745	5126.538333	1866.180664	21.762445
-15770.820745	5126.538333	1865.192383	14.256019
-15770.820745	5126.538333	1864.203125	1.905134
-15770.820745	5126.538333	1863.213867	20.947474
-15770.820745	5126.538333	1862.223633	-10.751059
-15770.820745	5126.538333	1861.234375	83.114273
-15770.820745	5126.538333	1860.244141	80.357971
-15770.820745	5126.538333	1859.253906	0.346661
-15770.820745	5126.538333	1858.263672	-50.689857
-15770.820745	5126.538333	1857.273438	178.174011
-15770.820745	5126.538333	1856.282227	37.830940
-15770.820745	5126.538333	1855.291992	47.070198
-15770.820745	5126.538333	1854.300781	3.234433
-15770.820745	5126.538333	1853.309570	-67.122627
-15770.820745	5126.538333	1852.317383	7.167017
-15770.820745	5126.538333	1851.326172	156.129578
-15770.820745	5126.538333	1850.333984	3.801900
-15770.820745	5126.538333	1849.342773	-20.791689
-15770.820745	5126.538333	1848.350586	84.681503
-15770.820745	5126.538333	1847.357422	-84.457954
-15770.820745	5126.538333	1846.365234	-12.757436
-15770.820745	5126.538333	1845.372070	27.599056
-15770.820745	5126.538333	1844.379883	111.251228
-15770.820745	5126.538333	1843.386719	55.271366
-15770.820745	5126.538333	1842.393555	-72.888680
-15770.820745	5126.538333	1841.399414	-10.974175
-15770.820745	5126.538333	1840.406250	-28.471258
-15770.820745	5126.538333	1839.412109	-29.149080
-15770.820745	5126.538333	1838.417969	20.644464
-15770.820745	5126.538333	1837.423828	36.746593
-15770.820745	5126.538333	1836.429688	108.100967
-15770.820745	5126.538333	1835.434570	32.827454
-15770.820745	5126.538333	1834.440430	82.494339
-15770.820745	5126.538333	1833.445313	-105.680939
-15770.820745	5126.538333	1832.450195	-22.427496
-15770.820745	5126.538333	1831.454102	-66.486862
-15770.820745	5126.538333	1830.458984	45.495518
-15770.820745	5126.538333	1829.462891	-27.404650
-15770.820745	5126.538333	1828.466797	7.691988
-15770.820745	5126.538333	1827.470703	37.955173
-15770.820745	5126.538333	1826.474609	132.955048
-15770.820745	5126.538333	1825.478516	43.219738
-15770.820745	5126.538333	1824.481445	102.167763
-15770.820745	5126.538333	1823.484375	288.139984
-15770.820745	5126.538333	1822.487305	121.652367
-15770.820745	5126.538333	1821.490234	0.740859
-15770.820745	5126.538333	1820.493164	119.467300
-15770.820745	5126.538333	1819.495117	123.130966
-15770.820745	5126.538333	1818.498047	-0.175793
-15770.820745	5126.538333	1817.500000	-20.484671
-15770.820745	5126.538333	1816.500977	11.863777
-15770.820745	5126.538333	1815.502930	-8.486688
-15770.820745	5126.538333	1814.504883	95.605934
-15770.820745	5126.538333	1813.505859	60.839722
-15770.820745	5126.538333	1812.506836	105.016724
-15770.820745	5126.538333	1811.507813	-6.332922
-15770.820745	5126.538333	1810.508789	-12.432522
-15770.820745	5126.538333	1809.508789	48.395897
-15770.820745	5126.538333	1808.508789	35.064354
-15770.820745	5126.538333	1807.508789	4.981398
-15770.820745	5126.538333	1806.508789	242.544830
-15770.820745	5126.538333	1805.508789	80.968399
-15770.820745	5126.538333	1804.508789	158.319809
-15770.820745	5126.538333	1803.507813	75.586983
-15770.820745	5126.538333	1802.506836	90.768021
-15770.820745	5126.538333	1801.505859	22.353025
-15770.820745	5126.538333	1800.504883	-24.577560
-15770.820745	5126.538333	1799.502930	16.786831
-15770.820745	5126.538333	1798.501953	22.319288
-15770.820745	5126.538333	1797.500000	85.079048
-15770.820745	5126.538333	1796.498047	88.156174
-15770.820745	5126.538333	1795.496094	-25.653070
-15770.820745	5126.538333	1794.493164	67.994987
-15770.820745	5126.538333	1793.491211	142.512268
-15770.820745	5126.538333	1792.488281	45.358639
-15770.820745	5126.538333	1791.485352	-47.018749
-15770.820745	5126.538333	1790.482422	-53.614639
-15770.820745	5126.538333	1789.478516	-17.359894
-15770.820745	5126.538333	1788.475586	-64.502480
-15770.820745	5126.538333	1787.471680	-35.457756
-15770.820745	5126.538333	1786.467773	26.879261
-15770.820745	5126.538333	1785.463867	246.267761
-15770.820745	5126.538333	1784.459961	63.343407
-15770.820745	5126.538333	1783.455078	37.499897
-15770.820745	5126.538333	1782.450195	11.638722
-15770.820745	5126.538333	1781.445313	0.030314
-15770.820745	5126.538333	1780.440430	-23.492397
-15770.820745	5126.538333	1779.435547	-28.013952
-15770.820745	5126.538333	1778.429688	-106.257462
-15770.820745	5126.538333	1777.424805	53.176678
-15770.820745	5126.538333	1776.418945	67.564957
-15770.820745	5126.538333	1775.413086	-34.496605
-15770.820745	5126.538333	1774.406250	-103.296143
-15770.820745	5126.538333	1773.400391	-55.723873
-15770.820745	5126.538333	1772.393555	143.765045
-15770.820745	5126.538333	1771.386719	-69.931480
-15770.820745	5126.538333	1770.379883	-129.293472
-15770.820745	5126.538333	1769.373047	39.158016
-15770.820745	5126.538333	1768.365234	43.797813
-15770.820745	5126.538333	1767.358398	-70.200500
-15770.820745	5126.538333	1766.350586	43.502064
-15770.820745	5126.538333	1765.342773	-110.827759
-15770.820745	5126.538333	1764.334961	-23.299377
-15770.820745	5126.538333	1763.326172	-85.173836
-15770.820745	5126.538333	1762.318359	-102.020920
-15770.820745	5126.538333	1761.309570	-28.852953
-15770.820745	5126.538333	1760.300781	148.496841
-15770.820745	5126.538333	1759.291016	48.616913
-15770.820745	5126.538333	1758.282227	-93.877708
-15770.820745	5126.538333	1757.272461	40.671837
-15770.820745	5126.538333	1756.262695	18.900700
-15770.820745	5126.538333	1755.252930	-133.066605
-15770.820745	5126.538333	1754.243164	-109.895081
-15770.820745	5126.538333	1753.233398	10.240939
-15770.820745	5126.538333	1752.222656	-146.461838
-15770.820745	5126.538333	1751.211914	106.012779
-15770.820745	5126.538333	1750.201172	46.239506
-15770.820745	5126.538333	1749.190430	-4.084365
-15770.820745	5126.538333	1748.179688	-21.327450
-15770.820745	5126.538333	1747.167969	6.303025
-15770.820745	5126.538333	1746.156250	-114.960304
-15770.820745	5126.538333	1745.144531	51.994904
-15770.820745	5126.538333	1744.132813	-50.395267
-15770.820745	5126.538333	1743.121094	-8.729890
-15770.820745	5126.538333	1742.108398	115.519531
-15770.820745	5126.538333	1741.095703	-34.127102
-15770.820745	5126.538333	1740.083008	40.459660
-15770.820745	5126.538333	1739.070313	-0.632231
-15770.820745	5126.538333	1738.057617	19.599733
-15770.820745	5126.538333	1737.043945	2.051616
-15770.820745	5126.538333	1736.030273	74.094536
-15770.820745	5126.538333	1735.016602	-59.048779
-15770.820745	5126.538333	1734.002930	12.920097
-15770.820745	5126.538333	1732.989258	-47.154514
-15770.820745	5126.538333	1731.974609	-71.893272
-15770.820745	5126.538333	1730.959961	183.713776
-15770.820745	5126.538333	1729.945313	8.127158
-15770.820745	5126.538333	1728.930664	183.490051
-15770.820745	5126.538333	1727.916016	33.814262
-15770.820745	5126.538333	1726.900391	-87.586876
-15770.820745	5126.538333	1725.885742	-135.999390
-15770.820745	5126.538333	1724.870117	-73.820671
-15770.820745	5126.538333	1723.853516	-42.286049
-15770.820745	5126.538333	1722.837891	33.908474
-15770.820745	5126.538333	1721.822266	53.598648
-15770.820745	5126.538333	1720.805664	-70.193359
-15770.820745	5126.538333	1719.789063	71.703850
-15770.820745	5126.538333	1718.772461	-49.749630
-15770.820745	5126.538333	1717.754883	110.830124
-15770.820745	5126.538333	1716.738281	55.152206
-15770.820745	5126.538333	1715.720703	13.559031
-15770.820745	5126.538333	1714.703125	28.325642
-15770.820745	5126.538333	1713.685547	108.813515
-15770.820745	5126.538333	1712.667969	3.758654
-15770.820745	5126.538333	1711.649414	-14.432197
-15770.820745	5126.538333	1710.630859	7.256846
-15770.820745	5126.538333	1709.612305	139.198502
-15770.820745	5126.538333	1708.593750	71.643921
-15770.820745	5126.538333	1707.575195	41.619633
-15770.820745	5126.538333	1706.555664	-51.745041
-15770.820745	5126.538333	1705.536133	-140.410172
-15770.820745	5126.538333	1704.516602	80.380783
-15770.820745	5126.538333	1703.497070	85.426819
-15770.820745	5126.538333	1702.477539	45.920025
-15770.820745	5126.538333	1701.457031	72.001343
-15770.820745	5126.538333	1700.437500	79.311813
-15770.820745	5126.538333	1699.416992	110.010536
-15770.820745	5126.538333	1698.395508	79.785164
-15770.820745	5126.538333	1697.375000	44.869640
-15770.820745	5126.538333	1696.354492	201.880951
-15770.820745	5126.538333	1695.333008	176.262177
-15770.820745	5126.538333	1694.311523	141.270325
-15770.820745	5126.538333	1693.290039	82.873863
-15770.820745	5126.538333	1692.267578	-59.729763
-15770.820745	5126.538333	1691.246094	113.395798
-15770.820745	5126.538333	1690.223633	195.243301
-15770.820745	5126.538333	1689.201172	85.356010
-15770.820745	5126.538333	1688.178711	90.006615
-15770.820745	5126.538333	1687.155273	153.044312
-15770.820745	5126.538333	1686.132813	339.859772
-15770.820745	5126.538333	1685.109375	260.298615
-15770.820745	5126.538333	1684.085938	75.656654
-15770.820745	5126.538333	1683.062500	220.280319
-15770.820745	5126.538333	1682.039063	182.742599
-15770.820745	5126.538333	1681.014648	203.541077
-15770.820745	5126.538333	1679.990234	324.651794
-15770.820745	5126.538333	1678.965820	280.047668
-15770.820745	5126.538333	1677.941406	286.757294
-15770.820745	5126.538333	1676.916992	251.465485
-15770.820745	5126.538333	1675.891602	267.458801
-15770.820745	5126.538333	1674.866211	288.088898
-15770.820745	5126.538333	1673.840820	217.789658
-15770.820745	5126.538333	1672.815430	198.765915
-15770.820745	5126.538333	1671.790039	237.978897
-15770.820745	5126.538333	1670.763672	319.082764
-15770.820745	5126.538333	1669.737305	320.950256
-15770.820745	5126.538333	1668.710938	355.398560
-15770.820745	5126.538333	1667.684570	278.065643
-15770.820745	5126.538333	1666.658203	256.609039
-15770.820745	5126.538333	1665.630859	414.334198
-15770.820745	5126.538333	1664.603516	371.878143
-15770.820745	5126.538333	1663.576172	285.221619
-15770.820745	5126.538333	1662.548828	433.495789
-15770.820745	5126.538333	1661.520508	416.585175
-15770.820745	5126.538333	1660.493164	295.046844
-15770.820745	5126.538333	1659.464844	701.202759
-15770.820745	5126.538333	1658.436523	563.350586
-15770.820745	5126.538333	1657.408203	481.304169
-15770.820745	5126.538333	1656.378906	417.854248
-15770.820745	5126.538333	1655.350586	414.811371
-15770.820745	5126.538333	1654.321289	411.749878
-15770.820745	5126.538333	1653.291992	415.640900
-15770.820745	5126.538333	1652.261719	463.617432
-15770.820745	5126.538333	1651.232422	634.578003
-15770.820745	5126.538333	1650.202148	605.891296
-15770.820745	5126.538333	1649.171875	725.685791
-15770.820745	5126.538333	1648.141602	522.998352
-15770.820745	5126.538333	1647.111328	614.908936
-15770.820745	5126.538333	1646.080078	722.996765
-15770.820745	5126.538333	1645.049805	538.938843
-15770.820745	5126.538333	1644.018555	723.464661
-15770.820745	5126.538333	1642.987305	752.646484
-15770.820745	5126.538333	1641.955078	603.399414
-15770.820745	5126.538333	1640.923828	662.686768
-15770.820745	5126.538333	1639.891602	636.243164
-15770.820745	5126.538333	1638.859375	595.907654
-15770.820745	5126.538333	1637.827148	597.250916
-15770.820745	5126.538333	1636.794922	656.450989
-15770.820745	5126.538333	1635.761719	583.704224
-15770.820745	5126.538333	1634.729492	696.084839
-15770.820745	5126.538333	1633.696289	616.403564
-15770.820745	5126.538333	1632.662109	696.326904
-15770.820745	5126.538333	1631.628906	593.538757
-15770.820745	5126.538333	1630.594727	682.669861
-15770.820745	5126.538333	1629.561523	503.632263
-15770.820745	5126.538333	1628.527344	636.645020
-15770.820745	5126.538333	1627.493164	547.781921
-15770.820745	5126.538333	1626.458008	537.487976
-15770.820745	5126.538333	1625.423828	547.987305
-15770.820745	5126.538333	1624.388672	780.161377
-15770.820745	5126.538333	1623.353516	665.918701
-15770.820745	5126.538333	1622.318359	625.585327
-15770.820745	5126.538333	1621.282227	912.982056
-15770.820745	5126.538333	1620.247070	778.004028
-15770.820745	5126.538333	1619.210938	723.815918
-15770.820745	5126.538333	1618.174805	674.259338
-15770.820745	5126.538333	1617.137695	795.367981
-15770.820745	5126.538333	1616.101563	810.372864
-15770.820745	5126.538333	1615.064453	707.799194
-15770.820745	5126.538333	1614.027344	895.666077
-15770.820745	5126.538333	1612.990234	832.288452
-15770.820745	5126.538333	1611.953125	766.632019
-15770.820745	5126.538333	1610.916016	622.684937
-15770.820745	5126.538333	1609.877930	900.234436
-15770.820745	5126.538333	1608.839844	719.473633
-15770.820745	5126.538333	1607.801758	895.607849
-15770.820745	5126.538333	1606.763672	786.272827
-15770.820745	5126.538333	1605.724609	916.300232
-15770.820745	5126.538333	1604.685547	786.296631
-15770.820745	5126.538333	1603.646484	879.475891
-15770.820745	5126.538333	1602.607422	876.028687
-15770.820745	5126.538333	1601.568359	826.599121
-15770.820745	5126.538333	1600.528320	811.671631
-15770.820745	5126.538333	1599.489258	946.163574
-15770.820745	5126.538333	1598.449219	912.844482
-15770.820745	5126.538333	1597.408203	773.848572
-15770.820745	5126.538333	1596.368164	908.280579
-15770.820745	5126.538333	1595.327148	962.275269
-15770.820745	5126.538333	1594.287109	956.560059
-15770.820745	5126.538333	1593.246094	946.256470
-15770.820745	5126.538333	1592.204102	1094.338135
-15770.820745	5126.538333	1591.163086	1026.654907
-15770.820745	5126.538333	1590.121094	821.333679
-15770.820745	5126.538333	1589.079102	804.209656
-15770.820745	5126.538333	1588.037109	878.844727
-15770.820745	5126.538333	1586.995117	825.046326
-15770.820745	5126.538333	1585.953125	975.325623
-15770.820745	5126.538333	1584.910156	1054.492065
-15770.820745	5126.538333	1583.867188	936.547607
-15770.820745	5126.538333	1582.824219	905.729858
-15770.820745	5126.538333	1581.781250	1115.477295
-15770.820745	5126.538333	1580.737305	1027.394287
-15770.820745	5126.538333	1579.693359	1269.114990
-15770.820745	5126.538333	1578.649414	1034.532349
-15770.820745	5126.538333	1577.605469	1088.479004
-15770.820745	5126.538333	1576.561523	1073.758789
-15770.820745	5126.538333	1575.516602	1194.056030
-15770.820745	5126.538333	1574.472656	1058.100220
-15770.820745	5126.538333	1573.427734	1013.698669
-15770.820745	5126.538333	1572.381836	1115.680908
-15770.820745	5126.538333	1571.336914	1096.467041
-15770.820745	5126.538333	1570.291016	1063.554810
-15770.820745	5126.538333	1569.246094	891.263550
-15770.820745	5126.538333	1568.200195	837.873352
-15770.820745	5126.538333	1567.153320	912.452942
-15770.820745	5126.538333	1566.107422	1080.676270
-15770.820745	5126.538333	1565.060547	931.413147
-15770.820745	5126.538333	1564.013672	1097.314209
-15770.820745	5126.538333	1562.966797	1117.071289
-15770.820745	5126.538333	1561.919922	1171.074341
-15770.820745	5126.538333	1560.872070	1040.237183
-15770.820745	5126.538333	1559.825195	1176.406250
-15770.820745	5126.538333	1558.777344	1164.272095
-15770.820745	5126.538333	1557.729492	1181.811279
-15770.820745	5126.538333	1556.680664	1190.238403
-15770.820745	5126.538333	1555.632813	1271.639038
-15770.820745	5126.538333	1554.583984	1339.349487
-15770.820745	5126.538333	1553.535156	1313.626343
-15770.820745	5126.538333	1552.486328	1196.803101
-15770.820745	5126.538333	1551.436523	1294.163696
-15770.820745	5126.538333	1550.387695	1184.269287
-15770.820745	5126.538333	1549.337891	1076.713867
-15770.820745	5126.538333	1548.288086	1226.473022
-15770.820745	5126.538333	1547.238281	1155.418945
-15770.820745	5126.538333	1546.187500	1086.688599
-15770.820745	5126.538333	1545.136719	1186.373535
-15770.820745	5126.538333	1544.086914	1145.017334
-15770.820745	5126.538333	1543.035156	896.733704
-15770.820745	5126.538333	1541.984375	785.010254
-15770.820745	5126.538333	1540.933594	809.761047
-15770.820745	5126.538333	1539.881836	714.059143
-15770.820745	5126.538333	1538.830078	857.034363
-15770.820745	5126.538333	1537.778320	668.262878
-15770.820745	5126.538333	1536.725586	734.008545
-15770.820745	5126.538333	1535.673828	722.543396
-15770.820745	5126.538333	1534.621094	879.139221
-15770.820745	5126.538333	1533.568359	683.813354
-15770.820745	5126.538333	1532.515625	674.719116
-15770.820745	5126.538333	1531.461914	795.007263
-15770.820745	5126.538333	1530.409180	552.258606
-15770.820745	5126.538333	1529.355469	461.619141
-15770.820745	5126.538333	1528.301758	527.539795
-15770.820745	5126.538333	1527.247070	545.842957
-15770.820745	5126.538333	1526.193359	589.113953
-15770.820745	5126.538333	1525.138672	485.062531
-15770.820745	5126.538333	1524.083984	449.072174
-15770.820745	5126.538333	1523.029297	433.521576
-15770.820745	5126.538333	1521.974609	490.500946
-15770.820745	5126.538333	1520.918945	336.853729
-15770.820745	5126.538333	1519.863281	396.158081
-15770.820745	5126.538333	1518.807617	398.874725
-15770.820745	5126.538333	1517.751953	161.690506
-15770.820745	5126.538333	1516.696289	223.363068
-15770.820745	5126.538333	1515.639648	373.285400
-15770.820745	5126.538333	1514.583008	147.661362
-15770.820745	5126.538333	1513.526367	207.142166
-15770.820745	5126.538333	1512.469727	60.858959
-15770.820745	5126.538333	1511.412109	213.097931
-15770.820745	5126.538333	1510.355469	270.381866
-15770.820745	5126.538333	1509.297852	146.880554
-15770.820745	5126.538333	1508.240234	57.359146
-15770.820745	5126.538333	1507.181641	261.584442
-15770.820745	5126.538333	1506.124023	163.118011
-15770.820745	5126.538333	1505.065430	71.500977
-15770.820745	5126.538333	1504.006836	287.007660
-15770.820745	5126.538333	1502.948242	109.705200
-15770.820745	5126.538333	1501.888672	25.038330
-15770.820745	5126.538333	1500.830078	28.447586
-15770.820745	5126.538333	1499.770508	-42.552849
-15770.820745	5126.538333	1498.710938	-25.520922
-15770.820745	5126.538333	1497.650391	151.648392
-15770.820745	5126.538333	1496.590820	44.716087
-15770.820745	5126.538333	1495.530273	73.112198
-15770.820745	5126.538333	1494.469727	88.016884
-15770.820745	5126.538333	1493.409180	213.366440
-15770.820745	5126.538333	1492.348633	131.452606
-15770.820745	5126.538333	1491.287109	54.115494
-15770.820745	5126.538333	1490.225586	-54.673878
-15770.820745	5126.538333	1489.164063	43.756107
-15770.820745	5126.538333	1488.102539	-69.402901
-15770.820745	5126.538333	1487.041016	8.823448
-15770.820745	5126.538333	1485.978516	-86.197685
-15770.820745	5126.538333	1484.916016	-39.269936
-15770.820745	5126.538333	1483.853516	-39.818851
-15770.820745	5126.538333	1482.791016	-127.869118
-15770.820745	5126.538333	1481.727539	-65.190628
-15770.820745	5126.538333	1480.664063	33.470428
-15770.820745	5126.538333	1479.600586	-43.129871
-15770.820745	5126.538333	1478.537109	-139.863403
-15770.820745	5126.538333	1477.473633	19.565948
-15770.820745	5126.538333	1476.409180	35.281559
-15770.820745	5126.538333	1475.344727	-106.168083
-15770.820745	5126.538333	1474.280273	125.097115
-15770.820745	5126.538333	1473.215820	-16.151676
-15770.820745	5126.538333	1472.151367	62.523731
-15770.820745	5126.538333	1471.085938	49.238132
-15770.820745	5126.538333	1470.020508	89.787346
-15770.820745	5126.538333	1468.955078	222.445465
-15770.820745	5126.538333	1467.888672	159.972931
-15770.820745	5126.538333	1466.823242	268.021332
-15770.820745	5126.538333	1465.756836	178.601105
-15770.820745	5126.538333	1464.690430	161.451218
-15770.820745	5126.538333	1463.624023	399.293488
-15770.820745	5126.538333	1462.556641	269.901764
-15770.820745	5126.538333	1461.490234	277.666870
-15770.820745	5126.538333	1460.422852	180.166168
-15770.820745	5126.538333	1459.355469	223.309692
-15770.820745	5126.538333	1458.287109	365.099487
-15770.820745	5126.538333	1457.219727	390.555359
-15770.820745	5126.538333	1456.151367	203.946976
-15770.820745	5126.538333	1455.083008	115.469299
-15770.820745	5126.538333	1454.014648	215.207428
-15770.820745	5126.538333	1452.945313	323.419006
-15770.820745	5126.538333	1451.876953	344.589661
-15770.820745	5126.538333	1450.807617	328.683807
-15770.820745	5126.538333	1449.738281	261.216492
-15770.820745	5126.538333	1448.668945	207.485703
-15770.820745	5126.538333	1447.598633	323.568115
-15770.820745	5126.538333	1446.528320	414.427887
-15770.820745	5126.538333	1445.458008	231.624680
-15770.820745	5126.538333	1444.387695	217.762589
-15770.820745	5126.538333	1443.317383	8.238687
-15770.820745	5126.538333	1442.246094	163.093262
-15770.820745	5126.538333	1441.174805	-37.603352
-15770.820745	5126.538333	1440.103516	196.329102
-15770.820745	5126.538333	1439.032227	-69.769958
-15770.820745	5126.538333	1437.960938	196.378845
-15770.820745	5126.538333	1436.888672	281.040161
-15770.820745	5126.538333	1435.816406	222.432022
-15770.820745	5126.538333	1434.744141	296.121338
-15770.820745	5126.538333	1433.670898	348.010132
-15770.820745	5126.538333	1432.598633	268.687225
-15770.820745	5126.538333	1431.525391	215.690445
-15770.820745	5126.538333	1430.452148	222.611084
-15770.820745	5126.538333	1429.378906	156.561005
-15770.820745	5126.538333	1428.304688	85.413132
-15770.820745	5126.538333	1427.231445	7.936901
-15770.820745	5126.538333	1426.157227	209.888916
-15770.820745	5126.538333	1425.083008	-40.223782
-15770.820745	5126.538333	1424.007813	173.596405
-15770.820745	5126.538333	1422.933594	53.436398
-15770.820745	5126.538333	1421.858398	194.680115
-15770.820745	5126.538333	1420.783203	173.220627
-15770.820745	5126.538333	1419.708008	213.936325
-15770.820745	5126.538333	1418.631836	188.919800
-15770.820745	5126.538333	1417.555664	313.980438
-15770.820745	5126.538333	1416.479492	235.019135
-15770.820745	5126.538333	1415.403320	193.195038
-15770.820745	5126.538333	1414.327148	203.697586
-15770.820745	5126.538333	1413.250000	256.439423
-15770.820745	5126.538333	1412.173828	194.276932
-15770.820745	5126.538333	1411.096680	75.380157
-15770.820745	5126.538333	1410.018555	79.143761
-15770.820745	5126.538333	1408.941406	197.004852
-15770.820745	5126.538333	1407.863281	20.713848
-15770.820745	5126.538333	1406.785156	55.891617
-15770.820745	5126.538333	1405.707031	89.529808
-15770.820745	5126.538333	1404.628906	16.035116
-15770.820745	5126.538333	1403.549805	47.608192
-15770.820745	5126.538333	1402.470703	-52.058544
-15770.820745	5126.538333	1401.391602	-82.749336
-15770.820745	5126.538333	1400.312500	-104.461311
-15770.820745	5126.538333	1399.233398	90.159470
-15770.820745	5126.538333	1398.153320	156.714279
-15770.820745	5126.538333	1397.073242	96.522217
-15770.820745	5126.538333	1395.993164	-13.160445
-15770.820745	5126.538333	1394.913086	90.792191
-15770.820745	5126.538333	1393.832031	-228.604355
-15770.820745	5126.538333	1392.750977	30.530811
-15770.820745	5126.538333	1391.669922	-148.960602
-15770.820745	5126.538333	1390.588867	-15.289628
-15770.820745	5126.538333	1389.506836	47.815292
-15770.820745	5126.538333	1388.425781	-68.686272
-15770.820745	5126.538333	1387.343750	-133.878998
-15770.820745	5126.538333	1386.261719	-69.853981
-15770.820745	5126.538333	1385.178711	5.337265
-15770.820745	5126.538333	1384.096680	-51.703022
-15770.820745	5126.538333	1383.013672	20.038998
-15770.820745	5126.538333	1381.930664	237.139984
-15770.820745	5126.538333	1380.846680	155.073029
-15770.820745	5126.538333	1379.763672	86.786148
-15770.820745	5126.538333	1378.679688	58.585552
-15770.820745	5126.538333	1377.595703	314.512054
-15770.820745	5126.538333	1376.511719	387.821838
-15770.820745	5126.538333	1375.427734	182.344360
-15770.820745	5126.538333	1374.342773	296.252686
-15770.820745	5126.538333	1373.257813	390.266632
-15770.820745	5126.538333	1372.172852	220.006607
-15770.820745	5126.538333	1371.087891	202.450989
-15770.820745	5126.538333	1370.001953	329.297943
-15770.820745	5126.538333	1368.916992	267.242004
-15770.820745	5126.538333	1367.831055	295.541504
-15770.820745	5126.538333	1366.744141	423.138794
-15770.820745	5126.538333	1365.658203	435.217438
-15770.820745	5126.538333	1364.571289	263.283020
-15770.820745	5126.538333	1363.484375	268.447021
-15770.820745	5126.538333	1362.397461	212.214600
-15770.820745	5126.538333	1361.310547	257.230621
-15770.820745	5126.538333	1360.222656	369.037323
-15770.820745	5126.538333	1359.135742	283.739563
-15770.820745	5126.538333	1358.047852	442.718994
-15770.820745	5126.538333	1356.958984	370.928223
-15770.820745	5126.538333	1355.871094	260.551392
-15770.820745	5126.538333	1354.782227	331.613464
-15770.820745	5126.538333	1353.693359	400.640015
-15770.820745	5126.538333	1352.604492	294.947662
-15770.820745	5126.538333	1351.515625	333.659821
-15770.820745	5126.538333	1350.425781	162.748734
-15770.820745	5126.538333	1349.335938	327.436066
-15770.820745	5126.538333	1348.246094	399.309998
-15770.820745	5126.538333	1347.156250	301.282867
-15770.820745	5126.538333	1346.066406	406.233368
-15770.820745	5126.538333	1344.975586	393.285858
-15770.820745	5126.538333	1343.884766	364.009430
-15770.820745	5126.538333	1342.793945	506.128906
-15770.820745	5126.538333	1341.702148	467.367950
-15770.820745	5126.538333	1340.611328	425.634064
-15770.820745	5126.538333	1339.519531	422.876709
-15770.820745	5126.538333	1338.427734	439.860565
-15770.820745	5126.538333	1337.334961	441.777161
-15770.820745	5126.538333	1336.243164	356.268982
-15770.820745	5126.538333	1335.150391	389.569611
-15770.820745	5126.538333	1334.057617	351.889740
-15770.820745	5126.538333	1332.964844	336.289185
-15770.820745	5126.538333	1331.871094	525.966980
-15770.820745	5126.538333	1330.778320	451.244446
-15770.820745	5126.538333	1329.684570	312.984863
-15770.820745	5126.538333	1328.590820	406.822113
-15770.820745	5126.538333	1327.496094	431.713196
-15770.820745	5126.538333	1326.402344	453.095337
-15770.820745	5126.538333	1325.307617	378.752991
-15770.820745	5126.538333	1324.212891	277.142609
-15770.820745	5126.538333	1323.117188	457.323425
-15770.820745	5126.538333	1322.022461	384.265991
-15770.820745	5126.538333	1320.926758	330.149170
-15770.820745	5126.538333	1319.831055	381.049805
-15770.820745	5126.538333	1318.735352	391.683411
-15770.820745	5126.538333	1317.638672	229.687576
-15770.820745	5126.538333	1316.542969	329.860016
-15770.820745	5126.538333	1315.446289	264.183685
-15770.820745	5126.538333	1314.349609	439.874420
-15770.820745	5126.538333	1313.251953	322.866791
-15770.820745	5126.538333	1312.155273	260.305389
-15770.820745	5126.538333	1311.057617	302.293091
-15770.820745	5126.538333	1309.959961	272.025543
-15770.820745	5126.538333	1308.862305	282.124512
-15770.820745	5126.538333	1307.763672	245.377747
-15770.820745	5126.538333	1306.665039	424.644836
-15770.820745	5126.538333	1305.566406	330.881012
-15770.820745	5126.538333	1304.467773	357.407227
-15770.820745	5126.538333	1303.369141	440.321320
-15770.820745	5126.538333	1302.269531	357.199738
-15770.820745	5126.538333	1301.169922	223.652908
-15770.820745	5126.538333	1300.070313	384.993927
-15770.820745	5126.538333	1298.970703	333.862640
-15770.820745	5126.538333	1297.870117	485.471832
-15770.820745	5126.538333	1296.769531	503.177399
-15770.820745	5126.538333	1295.668945	319.295410
-15770.820745	5126.538333	1294.568359	292.803986
-15770.820745	5126.538333	1293.466797	421.290100
-15770.820745	5126.538333	1292.366211	452.912323
-15770.820745	5126.538333	1291.264648	549.170105
-15770.820745	5126.538333	1290.162109	534.518311
-15770.820745	5126.538333	1289.060547	606.829590
-15770.820745	5126.538333	1287.958008	619.470398
-15770.820745	5126.538333	1286.855469	753.112122
-15770.820745	5126.538333	1285.752930	626.424927
-15770.820745	5126.538333	1284.650391	512.440613
-15770.820745	5126.538333	1283.546875	581.541748
-15770.820745	5126.538333	1282.444336	535.541687
-15770.820745	5126.538333	1281.339844	621.016296
-15770.820745	5126.538333	1280.236328	403.214142
-15770.820745	5126.538333	1279.132813	156.714630
-15770.820745	5126.538333	1278.028320	111.150017
-15770.820745	5126.538333	1276.923828	245.206665
-15770.820745	5126.538333	1275.819336	228.845154
-15770.820745	5126.538333	1274.713867	104.763229
-15770.820745	5126.538333	1273.608398	224.090546
-15770.820745	5126.538333	1272.503906	176.421021
-15770.820745	5126.538333	1271.397461	192.436218
-15770.820745	5126.538333	1270.291992	172.050003
-15770.820745	5126.538333	1269.185547	242.754623
-15770.820745	5126.538333	1268.080078	292.734222
-15770.820745	5126.538333	1266.972656	317.623840
-15770.820745	5126.538333	1265.866211	277.493713
-15770.820745	5126.538333	1264.759766	118.095001
-15770.820745	5126.538333	1263.652344	225.328293
-15770.820745	5126.538333	1262.544922	158.841080
-15770.820745	5126.538333	1261.436523	289.798157
-15770.820745	5126.538333	1260.329102	271.102142
-15770.820745	5126.538333	1259.220703	242.781342
-15770.820745	5126.538333	1258.112305	236.198441
-15770.820745	5126.538333	1257.003906	134.634796
-15770.820745	5126.538333	1255.895508	225.973328
-15770.820745	5126.538333	1254.786133	106.531769
-15770.820745	5126.538333	1253.676758	110.478928
-15770.820745	5126.538333	1252.567383	87.095161
-15770.820745	5126.538333	1251.458008	66.334175
-15770.820745	5126.538333	1250.347656	93.077286
-15770.820745	5126.538333	1249.237305	152.642120
-15770.820745	5126.538333	1248.126953	-65.498100
-15770.820745	5126.538333	1247.016602	19.017086
-15770.820745	5126.538333	1245.905273	-65.447060
-15770.820745	5126.538333	1244.793945	80.192635
-15770.820745	5126.538333	1243.682617	-25.509043
-15770.820745	5126.538333	1242.571289	-40.384041
-15770.820745	5126.538333	1241.459961	-33.400047
-15770.820745	5126.538333	1240.347656	123.909363
-15770.820745	5126.538333	1239.235352	68.139488
-15770.820745	5126.538333	1238.123047	114.344139
-15770.820745	5126.538333	1237.009766	-48.401340
-15770.820745	5126.538333	1235.897461	4.862486
-15770.820745	5126.538333	1234.784180	-57.897835
-15770.820745	5126.538333	1233.670898	-56.728672
-15770.820745	5126.538333	1232.556641	-3.497981
-15770.820745	5126.538333	1231.443359	-108.284027
-15770.820745	5126.538333	1230.329102	19.918903
-15770.820745	5126.538333	1229.214844	-81.880440
-15770.820745	5126.538333	1228.099609	-60.026524
-15770.820745	5126.538333	1226.985352	-49.423386
-15770.820745	5126.538333	1225.870117	-145.861618
-15770.820745	5126.538333	1224.754883	-4.736312
-15770.820745	5126.538333	1223.639648	-63.800308
-15770.820745	5126.538333	1222.523438	30.523355
-15770.820745	5126.538333	1221.408203	-10.591329
-15770.820745	5126.538333	1220.291992	40.150112
-15770.820745	5126.538333	1219.174805	15.238511
-15770.820745	5126.538333	1218.058594	55.503090
-15770.820745	5126.538333	1216.941406	83.709068
-15770.820745	5126.538333	1215.824219	30.849962
-15770.820745	5126.538333	1214.707031	150.649002
-15770.820745	5126.538333	1213.589844	196.617996
-15770.820745	5126.538333	1212.471680	270.658234
-15770.820745	5126.538333	1211.353516	123.942337
-15770.820745	5126.538333	1210.235352	265.928955
-15770.820745	5126.538333	1209.117188	242.360825
-15770.820745	5126.538333	1207.998047	264.926361
-15770.820745	5126.538333	1206.878906	290.351440
-15770.820745	5126.538333	1205.759766	362.354889
-15770.820745	5126.538333	1204.640625	310.946106
-15770.820745	5126.538333	1203.520508	391.983459
-15770.820745	5126.538333	1202.401367	462.917999
-15770.820745	5126.538333	1201.281250	554.603577
-15770.820745	5126.538333	1200.160156	768.835205
-15770.820745	5126.538333	1199.040039	772.537109
-15770.820745	5126.538333	1197.918945	867.019165
-15770.820745	5126.538333	1196.797852	977.216675
-15770.820745	5126.538333	1195.676758	990.668396
-15770.820745	5126.538333	1194.555664	1134.510620
-15770.820745	5126.538333	1193.433594	1306.524048
-15770.820745	5126.538333	1192.311523	1576.634766
-15770.820745	5126.538333	1191.189453	1581.455322
-15770.820745	5126.538333	1190.066406	1553.494141
-15770.820745	5126.538333	1188.944336	1353.549316
-15770.820745	5126.538333	1187.821289	1217.890015
-15770.820745	5126.538333	1186.698242	1262.158325
-15770.820745	5126.538333	1185.574219	1195.766479
-15770.820745	5126.538333	1184.451172	1287.312500
-15770.820745	5126.538333	1183.327148	1445.642456
-15770.820745	5126.538333	1182.203125	1474.962036
-15770.820745	5126.538333	1181.078125	1459.876953
-15770.820745	5126.538333	1179.954102	1527.080688
-15770.820745	5126.538333	1178.829102	1628.761963
-15770.820745	5126.538333	1177.704102	1636.755005
-15770.820745	5126.538333	1176.579102	1712.011597
-15770.820745	5126.538333	1175.453125	1695.550415
-15770.820745	5126.538333	1174.327148	1776.858887
-15770.820745	5126.538333	1173.201172	1994.167236
-15770.820745	5126.538333	1172.075195	1927.162598
-15770.820745	5126.538333	1170.949219	1914.690430
-15770.820745	5126.538333	1169.822266	1969.669434
-15770.820745	5126.538333	1168.695313	2070.052246
-15770.820745	5126.538333	1167.568359	2100.345215
-15770.820745	5126.538333	1166.440430	2088.743896
-15770.820745	5126.538333	1165.313477	2026.921875
-15770.820745	5126.538333	1164.185547	1853.290649
-15770.820745	5126.538333	1163.057617	1833.766602
-15770.820745	5126.538333	1161.928711	1709.077148
-15770.820745	5126.538333	1160.800781	1565.889648
-15770.820745	5126.538333	1159.671875	1561.812378
-15770.820745	5126.538333	1158.541992	1482.029663
-15770.820745	5126.538333	1157.413086	1380.480225
-15770.820745	5126.538333	1156.283203	1319.470337
-15770.820745	5126.538333	1155.154297	1149.769287
-15770.820745	5126.538333	1154.023438	1088.915405
-15770.820745	5126.538333	1152.893555	978.308655
-15770.820745	5126.538333	1151.763672	908.835266
-15770.820745	5126.538333	1150.632813	824.016541
-15770.820745	5126.538333	1149.501953	828.373413
-15770.820745	5126.538333	1148.370117	818.680176
-15770.820745	5126.538333	1147.239258	824.995422
-15770.820745	5126.538333	1146.107422	960.696411
-15770.820745	5126.538333	1144.975586	804.360962
-15770.820745	5126.538333	1143.843750	896.545410
-15770.820745	5126.538333	1142.710938	903.394958
-15770.820745	5126.538333	1141.578125	723.812195
-15770.820745	5126.538333	1140.445313	454.526245
-15770.820745	5126.538333	1139.312500	478.831299
-15770.820745	5126.538333	1138.178711	317.926819
-15770.820745	5126.538333	1137.045898	299.370605
-15770.820745	5126.538333	1135.912109	198.460220
-15770.820745	5126.538333	1134.777344	183.788116
-15770.820745	5126.538333	1133.643555	77.979652
-15770.820745	5126.538333	1132.508789	80.109596
-15770.820745	5126.538333	1131.374023	52.363804
-15770.820745	5126.538333	1130.239258	155.850906
-15770.820745	5126.538333	1129.104492	60.547230
-15770.820745	5126.538333	1127.968750	83.925011
-15770.820745	5126.538333	1126.833008	106.291748
-15770.820745	5126.538333	1125.697266	136.261963
-15770.820745	5126.538333	1124.560547	75.971413
-15770.820745	5126.538333	1123.424805	217.095581
-15770.820745	5126.538333	1122.288086	161.859375
-15770.820745	5126.538333	1121.151367	193.620682
-15770.820745	5126.538333	1120.013672	105.584076
-15770.820745	5126.538333	1118.876953	233.547729
-15770.820745	5126.538333	1117.739258	284.024017
-15770.820745	5126.538333	1116.601563	353.156586
-15770.820745	5126.538333	1115.462891	274.286621
-15770.820745	5126.538333	1114.324219	165.553925
-15770.820745	5126.538333	1113.186523	208.148575
-15770.820745	5126.538333	1112.046875	175.981339
-15770.820745	5126.538333	1110.908203	71.806084
-15770.820745	5126.538333	1109.769531	161.078781
-15770.820745	5126.538333	1108.629883	119.117607
-15770.820745	5126.538333	1107.490234	98.581497
-15770.820745	5126.538333	1106.349609	81.814003
-15770.820745	5126.538333	1105.209961	-19.236835
-15770.820745	5126.538333	1104.069336	-62.533146
-15770.820745	5126.538333	1102.928711	-51.477448
-15770.820745	5126.538333	1101.787109	-17.717955
-15770.820745	5126.538333	1100.646484	-5.560841
-15770.820745	5126.538333	1099.504883	53.439819
-15770.820745	5126.538333	1098.363281	77.784431
-15770.820745	5126.538333	1097.221680	161.008469
-15770.820745	5126.538333	1096.079102	174.553970
-15770.820745	5126.538333	1094.936523	192.879425
-15770.820745	5126.538333	1093.793945	215.059860
-15770.820745	5126.538333	1092.651367	126.132721
-15770.820745	5126.538333	1091.507813	-111.606018
-15770.820745	5126.538333	1090.364258	-39.353058
-15770.820745	5126.538333	1089.220703	-108.985497
-15770.820745	5126.538333	1088.077148	25.253855
-15770.820745	5126.538333	1086.933594	34.217392
-15770.820745	5126.538333	1085.789063	83.144844
-15770.820745	5126.538333	1084.644531	94.372841
-15770.820745	5126.538333	1083.499023	22.763615
-15770.820745	5126.538333	1082.354492	-19.623041
-15770.820745	5126.538333	1081.208984	-71.095245
-15770.820745	5126.538333	1080.063477	90.268196
-15770.820745	5126.538333	1078.917969	41.533581
-15770.820745	5126.538333	1077.771484	38.671459
-15770.820745	5126.538333	1076.625977	130.330704
-15770.820745	5126.538333	1075.479492	17.547739
-15770.820745	5126.538333	1074.332031	148.881454
-15770.820745	5126.538333	1073.185547	150.288513
-15770.820745	5126.538333	1072.038086	93.244644
-15770.820745	5126.538333	1070.890625	173.473984
-15770.820745	5126.538333	1069.743164	192.011108
-15770.820745	5126.538333	1068.594727	170.953354
-15770.820745	5126.538333	1067.447266	2.767895
-15770.820745	5126.538333	1066.298828	-155.139114
-15770.820745	5126.538333	1065.149414	-174.413803
-15770.820745	5126.538333	1064.000977	-41.364281
-15770.820745	5126.538333	1062.851563	-28.770521
-15770.820745	5126.538333	1061.702148	-109.604462
-15770.820745	5126.538333	1060.552734	79.122108
-15770.820745	5126.538333	1059.402344	71.955597
-15770.820745	5126.538333	1058.252930	75.153587
-15770.820745	5126.538333	1057.102539	-38.591965
-15770.820745	5126.538333	1055.951172	34.925854
-15770.820745	5126.538333	1054.800781	-89.640686
-15770.820745	5126.538333	1053.649414	-46.681305
-15770.820745	5126.538333	1052.498047	76.415771
-15770.820745	5126.538333	1051.346680	49.427856
-15770.820745	5126.538333	1050.194336	37.597462
-15770.820745	5126.538333	1049.042969	58.871555
-15770.820745	5126.538333	1047.890625	41.151688
-15770.820745	5126.538333	1046.738281	-54.942410
-15770.820745	5126.538333	1045.584961	1.088043
-15770.820745	5126.538333	1044.431641	-122.778778
-15770.820745	5126.538333	1043.278320	-48.574631
-15770.820745	5126.538333	1042.125000	0.468539
-15770.820745	5126.538333	1040.971680	-4.789906
-15770.820745	5126.538333	1039.817383	16.930935
-15770.820745	5126.538333	1038.663086	-101.478516
-15770.820745	5126.538333	1037.508789	-70.135445
-15770.820745	5126.538333	1036.353516	8.562267
-15770.820745	5126.538333	1035.198242	31.319094
-15770.820745	5126.538333	1034.042969	-4.906953
-15770.820745	5126.538333	1032.887695	87.508652
-15770.820745	5126.538333	1031.732422	46.398426
-15770.820745	5126.538333	1030.576172	7.660789
-15770.820745	5126.538333	1029.419922	158.388031
-15770.820745	5126.538333	1028.263672	20.539171
-15770.820745	5126.538333	1027.106445	109.143883
-15770.820745	5126.538333	1025.949219	211.005493
-15770.820745	5126.538333	1024.792969	226.187180
-15770.820745	5126.538333	1023.634766	331.759277
-15770.820745	5126.538333	1022.477539	199.952286
-15770.820745	5126.538333	1021.319336	207.756088
-15770.820745	5126.538333	1020.161133	149.612808
-15770.820745	5126.538333	1019.002930	132.310562
-15770.820745	5126.538333	1017.843750	273.186005
-15770.820745	5126.538333	1016.684570	212.203796
-15770.820745	5126.538333	1015.525391	201.154526
-15770.820745	5126.538333	1014.366211	209.359024
-15770.820745	5126.538333	1013.207031	339.761230
-15770.820745	5126.538333	1012.046875	174.677109
-15770.820745	5126.538333	1010.886719	174.762939
-15770.820745	5126.538333	1009.726563	186.368347
-15770.820745	5126.538333	1008.565430	146.542221
-15770.820745	5126.538333	1007.404297	54.491619
-15770.820745	5126.538333	1006.243164	143.410965
-15770.820745	5126.538333	1005.082031	85.215347
-15770.820745	5126.538333	1003.920898	89.144600
-15770.820745	5126.538333	1002.758789	-60.681713
-15770.820745	5126.538333	1001.596680	-63.523674
-15770.820745	5126.538333	1000.433594	39.152786
-15770.820745	5126.538333	999.271484	0.858837
-15770.820745	5126.538333	998.108398	13.622497
-15770.820745	5126.538333	996.945313	64.993347
-15770.820745	5126.538333	995.782227	182.608688
-15770.820745	5126.538333	994.618164	11.779346
-15770.820745	5126.538333	993.454102	132.737595
-15770.820745	5126.538333	992.290039	135.415665
-15770.820745	5126.538333	991.125977	145.586121
-15770.820745	5126.538333	989.960938	207.713486
-15770.820745	5126.538333	988.796875	196.938782
-15770.820745	5126.538333	987.630859	270.962036
-15770.820745	5126.538333	986.465820	477.155212
-15770.820745	5126.538333	985.300781	363.912994
-15770.820745	5126.538333	984.134766	279.749176
-15770.820745	5126.538333	982.968750	194.433838
-15770.820745	5126.538333	981.801758	438.562744
-15770.820745	5126.538333	980.635742	373.033569
-15770.820745	5126.538333	979.468750	273.378967
-15770.820745	5126.538333	978.301758	355.428772
-15770.820745	5126.538333	977.133789	209.524200
-15770.820745	5126.538333	975.966797	128.098770
-15770.820745	5126.538333	974.798828	148.522903
-15770.820745	5126.538333	973.630859	173.369125
-15770.820745	5126.538333	972.461914	268.200317
-15770.820745	5126.538333	971.293945	294.845184
-15770.820745	5126.538333	970.125000	178.188126
-15770.820745	5126.538333	968.956055	116.555672
-15770.820745	5126.538333	967.786133	114.943733
-15770.820745	5126.538333	966.617188	166.424820
-15770.820745	5126.538333	965.447266	-21.165148
-15770.820745	5126.538333	964.276367	-39.227470
-15770.820745	5126.538333	963.106445	-58.893608
-15770.820745	5126.538333	961.935547	133.178574
-15770.820745	5126.538333	960.764648	161.411972
-15770.820745	5126.538333	959.593750	185.361374
-15770.820745	5126.538333	958.422852	61.005966
-15770.820745	5126.538333	957.250977	38.175442
-15770.820745	5126.538333	956.079102	185.772263
-15770.820745	5126.538333	954.907227	41.073433
-15770.820745	5126.538333	953.734375	65.432533
-15770.820745	5126.538333	952.562500	82.456764
-15770.820745	5126.538333	951.389648	92.871696
-15770.820745	5126.538333	950.215820	-31.229803
-15770.820745	5126.538333	949.042969	-145.554886
-15770.820745	5126.538333	947.869141	-80.579239
-15770.820745	5126.538333	946.695313	41.592411
-15770.820745	5126.538333	945.521484	10.712658
-15770.820745	5126.538333	944.346680	41.875187
-15770.820745	5126.538333	943.172852	6.516595
-15770.820745	5126.538333	941.998047	12.661485
-15770.820745	5126.538333	940.822266	-93.350693
-15770.820745	5126.538333	939.647461	-5.217993
-15770.820745	5126.538333	938.471680	9.720797
-15770.820745	5126.538333	937.295898	-150.769745
-15770.820745	5126.538333	936.119141	-81.099464
-15770.820745	5126.538333	934.943359	-34.313442
-15770.820745	5126.538333	933.766602	-110.597298
-15770.820745	5126.538333	932.589844	77.569496
-15770.820745	5126.538333	931.413086	67.437080
-15770.820745	5126.538333	930.235352	168.896790
-15770.820745	5126.538333	929.057617	94.864708
-15770.820745	5126.538333	927.879883	-36.093601
-15770.820745	5126.538333	926.702148	-32.664978
-15770.820745	5126.538333	925.523438	-36.027996
-15770.820745	5126.538333	924.344727	72.150970
-15770.820745	5126.538333	923.166016	-20.081537
-15770.820745	5126.538333	921.987305	-139.614029
-15770.820745	5126.538333	920.807617	-13.286293
-15770.820745	5126.538333	919.627930	-11.032681
-15770.820745	5126.538333	919.497070	-107.509529
-15770.820745	5126.538333	918.331055	-10.870034
-15770.820745	5126.538333	917.165039	-37.123249
-15770.820745	5126.538333	915.999023	32.135277
-15770.820745	5126.538333	914.833008	-166.961502
-15770.820745	5126.538333	913.666016	36.388649
-15770.820745	5126.538333	912.499023	-76.292030
-15770.820745	5126.538333	911.332031	-61.689415
-15770.820745	5126.538333	910.165039	-19.846334
-15770.820745	5126.538333	908.997070	-7.565120
-15770.820745	5126.538333	907.830078	66.009804
-15770.820745	5126.538333	906.661133	103.211823
-15770.820745	5126.538333	905.493164	-111.601738
-15770.820745	5126.538333	904.325195	-99.379707
-15770.820745	5126.538333	903.156250	48.972965
-15770.820745	5126.538333	901.987305	-81.803558
-15770.820745	5126.538333	900.818359	-80.984528
-15770.820745	5126.538333	899.648438	-9.878738
-15770.820745	5126.538333	898.478516	-142.877823
-15770.820745	5126.538333	897.308594	-65.020233
-15770.820745	5126.538333	896.138672	198.635590
-15770.820745	5126.538333	894.968750	8.978944
-15770.820745	5126.538333	893.797852	48.199486
-15770.820745	5126.538333	892.626953	-3.213004
-15770.820745	5126.538333	891.456055	194.482330
-15770.820745	5126.538333	890.284180	61.524921
-15770.820745	5126.538333	889.113281	256.831787
-15770.820745	5126.538333	887.941406	295.886566
-15770.820745	5126.538333	886.768555	332.649231
-15770.820745	5126.538333	885.596680	330.922699
-15770.820745	5126.538333	884.423828	311.088928
-15770.820745	5126.538333	883.250977	277.680695
-15770.820745	5126.538333	882.078125	517.836365
-15770.820745	5126.538333	880.905273	506.974487
-15770.820745	5126.538333	879.731445	423.786530
-15770.820745	5126.538333	878.557617	433.256531
-15770.820745	5126.538333	877.383789	499.184448
-15770.820745	5126.538333	876.209961	400.196869
-15770.820745	5126.538333	875.035156	454.787384
-15770.820745	5126.538333	873.860352	588.358643
-15770.820745	5126.538333	872.685547	715.090332
-15770.820745	5126.538333	871.510742	478.427460
-15770.820745	5126.538333	870.334961	528.391479
-15770.820745	5126.538333	869.159180	603.135864
-15770.820745	5126.538333	867.983398	445.538300
-15770.820745	5126.538333	866.807617	335.343903
-15770.820745	5126.538333	865.630859	207.147842
-15770.820745	5126.538333	864.454102	293.115417
-15770.820745	5126.538333	863.277344	169.461578
-15770.820745	5126.538333	862.100586	192.291412
-15770.820745	5126.538333	860.922852	183.564728
-15770.820745	5126.538333	859.745117	168.072861
-15770.820745	5126.538333	858.567383	114.297363
-15770.820745	5126.538333	857.389648	146.075729
-15770.820745	5126.538333	856.210938	65.294464
-15770.820745	5126.538333	855.032227	146.551605
-15770.820745	5126.538333	853.853516	77.028381
-15770.820745	5126.538333	852.674805	151.477325
-15770.820745	5126.538333	851.495117	124.686272
-15770.820745	5126.538333	850.315430	133.869003
-15770.820745	5126.538333	849.135742	35.135452
-15770.820745	5126.538333	847.956055	33.071648
-15770.820745	5126.538333	846.775391	179.300339
-15770.820745	5126.538333	845.595703	24.419497
-15770.820745	5126.538333	844.415039	136.875229
-15770.820745	5126.538333	843.233398	96.572350
-15770.820745	5126.538333	842.052734	251.602570
-15770.820745	5126.538333	840.871094	114.747826
-15770.820745	5126.538333	839.689453	-1.863945
-15770.820745	5126.538333	838.506836	45.357685
-15770.820745	5126.538333	837.325195	14.031339
-15770.820745	5126.538333	836.142578	215.964279
-15770.820745	5126.538333	834.959961	321.380157
-15770.820745	5126.538333	833.777344	334.822510
-15770.820745	5126.538333	832.593750	292.212708
-15770.820745	5126.538333	831.410156	435.612885
-15770.820745	5126.538333	830.226563	321.280365
-15770.820745	5126.538333	829.042969	334.668823
-15770.820745	5126.538333	827.858398	278.613708
-15770.820745	5126.538333	826.673828	347.963257
-15770.820745	5126.538333	825.489258	370.260925
-15770.820745	5126.538333	824.304688	320.915009
-15770.820745	5126.538333	823.120117	282.767792
-15770.820745	5126.538333	821.934570	322.932037
-15770.820745	5126.538333	820.749023	150.568970
-15770.820745	5126.538333	819.562500	123.631653
-15770.820745	5126.538333	818.376953	255.445023
-15770.820745	5126.538333	817.190430	221.769638
-15770.820745	5126.538333	816.003906	194.802887
-15770.820745	5126.538333	814.817383	132.083862
-15770.820745	5126.538333	813.629883	58.210590
-15770.820745	5126.538333	812.442383	91.570908
-15770.820745	5126.538333	811.254883	122.673622
-15770.820745	5126.538333	810.067383	-67.283493
-15770.820745	5126.538333	808.878906	169.184265
-15770.820745	5126.538333	807.690430	195.757248
-15770.820745	5126.538333	806.501953	162.063385
-15770.820745	5126.538333	805.313477	3.445472
-15770.820745	5126.538333	804.124023	112.529770
-15770.820745	5126.538333	802.934570	89.993225
-15770.820745	5126.538333	801.745117	34.013103
-15770.820745	5126.538333	800.555664	82.808640
-15770.820745	5126.538333	799.365234	113.745789
-15770.820745	5126.538333	798.175781	100.097511
-15770.820745	5126.538333	796.985352	-20.480463
-15770.820745	5126.538333	795.793945	-18.525265
-15770.820745	5126.538333	794.603516	157.100357
-15770.820745	5126.538333	793.412109	158.996902
-15770.820745	5126.538333	792.220703	74.077240
-15770.820745	5126.538333	791.028320	102.673073
-15770.820745	5126.538333	789.836914	82.299660
-15770.820745	5126.538333	788.644531	73.046188
-15770.820745	5126.538333	787.452148	134.951538
-15770.820745	5126.538333	786.258789	116.776558
-15770.820745	5126.538333	785.066406	83.036087
-15770.820745	5126.538333	783.873047	-35.156837
-15770.820745	5126.538333	782.679688	35.565296
-15770.820745	5126.538333	781.485352	144.015564
-15770.820745	5126.538333	780.291992	132.466660
-15770.820745	5126.538333	779.097656	178.650223
-15770.820745	5126.538333	777.903320	189.279953
-15770.820745	5126.538333	776.708008	91.125458
-15770.820745	5126.538333	775.512695	170.545975
-15770.820745	5126.538333	774.318359	249.922256
-15770.820745	5126.538333	773.122070	151.783279
-15770.820745	5126.538333	771.926758	242.198135
-15770.820745	5126.538333	770.730469	239.430588
-15770.820745	5126.538333	769.534180	249.955124
-15770.820745	5126.538333	768.337891	302.578369
-15770.820745	5126.538333	767.141602	450.460449
-15770.820745	5126.538333	765.944336	766.657898
-15770.820745	5126.538333	764.747070	969.738586
-15770.820745	5126.538333	763.549805	946.822632
-15770.820745	5126.538333	762.351563	1196.257935
-15770.820745	5126.538333	761.154297	1303.894287
-15770.820745	5126.538333	759.956055	1320.728638
-15770.820745	5126.538333	758.757813	1322.053833
-15770.820745	5126.538333	757.558594	1243.720337
-15770.820745	5126.538333	756.359375	1196.374756
-15770.820745	5126.538333	755.160156	1288.360229
-15770.820745	5126.538333	753.960938	1095.073120
-15770.820745	5126.538333	752.761719	890.802124
-15770.820745	5126.538333	751.561523	724.175842
-15770.820745	5126.538333	750.361328	537.720215
-15770.820745	5126.538333	749.160156	413.187073
-15770.820745	5126.538333	747.959961	372.624939
-15770.820745	5126.538333	746.758789	336.484131
-15770.820745	5126.538333	745.557617	302.553345
-15770.820745	5126.538333	744.356445	270.832001
-15770.820745	5126.538333	743.154297	58.147533
-15770.820745	5126.538333	741.952148	145.611862
-15770.820745	5126.538333	740.750000	140.376770
-15770.820745	5126.538333	739.547852	84.404633
-15770.820745	5126.538333	738.344727	105.619965
-15770.820745	5126.538333	737.142578	12.175007
-15770.820745	5126.538333	735.939453	167.821686
-15770.820745	5126.538333	734.735352	92.006706
-15770.820745	5126.538333	733.532227	117.556686
-15770.820745	5126.538333	732.328125	242.206390
-15770.820745	5126.538333	731.124023	84.899887
-15770.820745	5126.538333	729.918945	268.927338
-15770.820745	5126.538333	728.714844	243.735107
-15770.820745	5126.538333	727.509766	260.357666
-15770.820745	5126.538333	726.303711	191.143112
-15770.820745	5126.538333	725.098633	106.544151
-15770.820745	5126.538333	723.892578	103.349159
-15770.820745	5126.538333	722.686523	157.317200
-15770.820745	5126.538333	721.480469	44.155739
-15770.820745	5126.538333	720.274414	62.916016
-15770.820745	5126.538333	719.067383	160.770920
-15770.820745	5126.538333	717.860352	199.246201
-15770.820745	5126.538333	716.653320	108.083473
-15770.820745	5126.538333	715.445313	52.085526
-15770.820745	5126.538333	714.238281	114.672096
-15770.820745	5126.538333	713.030273	19.151859
-15770.820745	5126.538333	711.821289	-30.249676
-15770.820745	5126.538333	710.613281	3.744742
-15770.820745	5126.538333	709.404297	-30.303354
-15770.820745	5126.538333	708.195313	-27.061016
-15770.820745	5126.538333	706.986328	-164.190384
-15770.820745	5126.538333	705.776367	-176.297943
-15770.820745	5126.538333	704.566406	-10.851011
-15770.820745	5126.538333	703.356445	69.036133
-15770.820745	5126.538333	702.146484	-96.541313
-15770.820745	5126.538333	700.935547	59.978573
-15770.820745	5126.538333	699.724609	-81.463753
-15770.820745	5126.538333	698.513672	33.351433
-15770.820745	5126.538333	697.302734	-103.675499
-15770.820745	5126.538333	696.090820	-133.402573
-15770.820745	5126.538333	694.878906	-40.577278
-15770.820745	5126.538333	693.666992	19.374615
-15770.820745	5126.538333	692.455078	-146.030777
-15770.820745	5126.538333	691.242188	-145.162781
-15770.820745	5126.538333	690.029297	144.325470
-15770.820745	5126.538333	688.816406	-53.838032
-15770.820745	5126.538333	687.602539	-105.490852
-15770.820745	5126.538333	686.389648	-12.909449
-15770.820745	5126.538333	685.175781	66.508812
-15770.820745	5126.538333	683.960938	41.031487
-15770.820745	5126.538333	682.747070	83.250862
-15770.820745	5126.538333	681.532227	171.289032
-15770.820745	5126.538333	680.317383	169.774704
-15770.820745	5126.538333	679.102539	238.085815
-15770.820745	5126.538333	677.886719	219.072708
-15770.820745	5126.538333	676.670898	348.399750
-15770.820745	5126.538333	675.455078	519.099243
-15770.820745	5126.538333	674.239258	619.931396
-15770.820745	5126.538333	673.022461	629.138245
-15770.820745	5126.538333	671.805664	505.363159
-15770.820745	5126.538333	670.588867	673.648682
-15770.820745	5126.538333	669.372070	305.860565
-15770.820745	5126.538333	668.154297	278.036652
-15770.820745	5126.538333	666.936523	224.075790
-15770.820745	5126.538333	665.718750	83.025879
-15770.820745	5126.538333	664.500977	61.755188
-15770.820745	5126.538333	663.282227	20.890818
-15770.820745	5126.538333	662.063477	93.185211
-15770.820745	5126.538333	660.844727	54.479290
-15770.820745	5126.538333	659.625000	131.058823
-15770.820745	5126.538333	658.405273	79.285690
-15770.820745	5126.538333	657.185547	-46.402023
-15770.820745	5126.538333	655.965820	197.488968
-15770.820745	5126.538333	654.745117	-2.090060
-15770.820745	5126.538333	653.525391	20.032898
-15770.820745	5126.538333	652.303711	-59.969707
-15770.820745	5126.538333	651.083008	-111.715866
-15770.820745	5126.538333	649.861328	-24.479424
-15770.820745	5126.538333	648.640625	-69.723541
-15770.820745	5126.538333	647.417969	-25.969212
-15770.820745	5126.538333	646.196289	15.584645
-15770.820745	5126.538333	644.973633	-64.391525
-15770.820745	5126.538333	643.750977	-9.856488
-15770.820745	5126.538333	642.528320	-215.602066
-15770.820745	5126.538333	641.305664	-67.846817
-15770.820745	5126.538333	640.082031	16.967415
-15770.820745	5126.538333	638.858398	45.383888
-15770.820745	5126.538333	637.634766	-15.064495
-15770.820745	5126.538333	636.410156	221.300552
-15770.820745	5126.538333	635.185547	61.183453
-15770.820745	5126.538333	633.960938	18.061470
-15770.820745	5126.538333	632.736328	26.907961
-15770.820745	5126.538333	631.510742	111.500809
-15770.820745	5126.538333	630.285156	226.345276
-15770.820745	5126.538333	629.059570	172.365417
-15770.820745	5126.538333	627.833984	172.478958
-15770.820745	5126.538333	626.607422	79.584869
-15770.820745	5126.538333	625.380859	202.950180
-15770.820745	5126.538333	624.154297	224.647903
-15770.820745	5126.538333	622.927734	254.973694
-15770.820745	5126.538333	621.700195	455.990112
-15770.820745	5126.538333	620.472656	406.300171
-15770.820745	5126.538333	619.245117	520.783569
-15770.820745	5126.538333	618.016602	358.788940
-15770.820745	5126.538333	616.788086	354.469147
-15770.820745	5126.538333	615.559570	421.378723
-15770.820745	5126.538333	614.331055	250.855331
-15770.820745	5126.538333	613.101563	373.845337
-15770.820745	5126.538333	611.872070	494.619781
-15770.820745	5126.538333	610.642578	718.863098
-15770.820745	5126.538333	609.413086	770.499390
-15770.820745	5126.538333	608.182617	837.199158
-15770.820745	5126.538333	606.952148	858.602112
-15770.820745	5126.538333	605.721680	780.863953
-15770.820745	5126.538333	604.491211	642.828186
-15770.820745	5126.538333	603.259766	644.859680
-15770.820745	5126.538333	602.028320	864.399048
-15770.820745	5126.538333	600.796875	1010.635498
-15770.820745	5126.538333	599.564453	1305.340210
-15770.820745	5126.538333	598.332031	1853.878540
-15770.820745	5126.538333	597.099609	2451.671387
-15770.820745	5126.538333	595.867188	3057.812988
-15770.820745	5126.538333	594.633789	3560.454834
-15770.820745	5126.538333	593.400391	3305.949219
-15770.820745	5126.538333	592.166992	2722.613281
-15770.820745	5126.538333	590.933594	2206.159668
-15770.820745	5126.538333	589.699219	1715.713379
-15770.820745	5126.538333	588.464844	1285.636108
-15770.820745	5126.538333	587.230469	969.591736
-15770.820745	5126.538333	585.995117	645.092712
-15770.820745	5126.538333	584.760742	316.440735
-15770.820745	5126.538333	583.525391	363.605408
-15770.820745	5126.538333	582.289063	378.558350
-15770.820745	5126.538333	581.053711	221.844955
-15770.820745	5126.538333	579.817383	234.683884
-15770.820745	5126.538333	578.581055	144.567047
-15770.820745	5126.538333	577.343750	245.346680
-15770.820745	5126.538333	576.107422	256.042267
-15770.820745	5126.538333	574.870117	213.150848
-15770.820745	5126.538333	573.631836	20.269064
-15770.820745	5126.538333	572.394531	35.308964
-15770.820745	5126.538333	571.156250	148.887238
-15770.820745	5126.538333	569.917969	144.631989
-15770.820745	5126.538333	568.679688	18.336182
-15770.820745	5126.538333	567.440430	65.504440
-15770.820745	5126.538333	566.202148	46.312428
-15770.820745	5126.538333	564.961914	-32.779037
-15770.820745	5126.538333	563.722656	187.689087
-15770.820745	5126.538333	562.482422	108.620689
-15770.820745	5126.538333	561.243164	132.245087
-15770.820745	5126.538333	560.001953	166.559326
-15770.820745	5126.538333	558.761719	162.394424
-15770.820745	5126.538333	557.520508	218.082550
-15770.820745	5126.538333	556.279297	68.639938
-15770.820745	5126.538333	555.038086	205.525040
-15770.820745	5126.538333	553.795898	220.627365
-15770.820745	5126.538333	552.554688	141.784958
-15770.820745	5126.538333	551.311523	195.348587
-15770.820745	5126.538333	550.069336	18.392675
-15770.820745	5126.538333	548.826172	157.346710
-15770.820745	5126.538333	547.583984	117.047188
-15770.820745	5126.538333	546.339844	100.242447
-15770.820745	5126.538333	545.096680	-40.225185
-15770.820745	5126.538333	543.852539	58.177391
-15770.820745	5126.538333	542.608398	71.290443
-15770.820745	5126.538333	541.364258	69.497185
-15770.820745	5126.538333	540.119141	106.075401
-15770.820745	5126.538333	538.875000	2.059571
-15770.820745	5126.538333	537.628906	-16.701097
-15770.820745	5126.538333	536.383789	64.645126
-15770.820745	5126.538333	535.137695	226.874176
-15770.820745	5126.538333	533.892578	289.017426
-15770.820745	5126.538333	532.645508	85.156212
-15770.820745	5126.538333	531.399414	94.156647
-15770.820745	5126.538333	530.152344	-39.340004
-15770.820745	5126.538333	528.905273	33.523354
-15770.820745	5126.538333	527.658203	-59.462456
-15770.820745	5126.538333	526.410156	32.549274
-15770.820745	5126.538333	525.163086	-113.483147
-15770.820745	5126.538333	523.914063	-34.203232
-15770.820745	5126.538333	522.666016	-35.658867
-15770.820745	5126.538333	521.416992	-3.109036
-15770.820745	5126.538333	520.167969	-59.732998
-15770.820745	5126.538333	518.918945	-58.989059
-15770.820745	5126.538333	517.669922	-153.734467
-15770.820745	5126.538333	516.419922	-10.745554
-15770.820745	5126.538333	515.169922	-12.062065
-15770.820745	5126.538333	513.919922	-62.140434
-15770.820745	5126.538333	512.668945	-6.138333
-15770.820745	5126.538333	511.417969	-92.191345
-15770.820745	5126.538333	510.166992	-19.199806
-15770.820745	5126.538333	508.916016	117.364624
-15770.820745	5126.538333	507.664063	139.476089
-15770.820745	5126.538333	506.412109	72.630203
-15770.820745	5126.538333	505.160156	20.662832
-15770.820745	5126.538333	503.907227	42.855247
-15770.820745	5126.538333	502.655273	-38.672703
-15770.820745	5126.538333	501.402344	70.351509
-15770.820745	5126.538333	500.148438	71.430222
-15770.820745	5126.538333	498.895508	188.894989
-15770.820745	5126.538333	497.641602	122.308884
-15770.820745	5126.538333	496.387695	290.513794
-15770.820745	5126.538333	495.132813	306.439789
-15770.820745	5126.538333	493.878906	436.529510
-15770.820745	5126.538333	492.624023	463.029633
-15770.820745	5126.538333	491.368164	561.380737
-15770.820745	5126.538333	490.113281	613.236572
-15770.820745	5126.538333	488.857422	741.125061
-15770.820745	5126.538333	487.601563	1031.570435
-15770.820745	5126.538333	486.344727	1150.910645
-15770.820745	5126.538333	485.088867	1375.751953
-15770.820745	5126.538333	483.832031	1522.437622
-15770.820745	5126.538333	482.575195	1493.968628
-15770.820745	5126.538333	481.317383	1691.225464
-15770.820745	5126.538333	480.059570	1496.168335
-15770.820745	5126.538333	478.801758	1560.543457
-15770.820745	5126.538333	477.543945	1327.686890
-15770.820745	5126.538333	476.285156	1198.211914
-15770.820745	5126.538333	475.027344	1153.086304
-15770.820745	5126.538333	473.767578	1084.821533
-15770.820745	5126.538333	472.508789	1031.339111
-15770.820745	5126.538333	471.249023	939.988220
-15770.820745	5126.538333	469.989258	903.420593
-15770.820745	5126.538333	468.729492	978.428345
-15770.820745	5126.538333	467.469727	962.924622
-15770.820745	5126.538333	466.208984	985.302124
-15770.820745	5126.538333	464.948242	902.502625
-15770.820745	5126.538333	463.686523	716.697388
-15770.820745	5126.538333	462.425781	762.244690
-15770.820745	5126.538333	461.164063	679.547119
-15770.820745	5126.538333	459.901367	624.202881
-15770.820745	5126.538333	458.639648	657.123291
-15770.820745	5126.538333	457.376953	507.263855
-15770.820745	5126.538333	456.114258	451.969696
-15770.820745	5126.538333	454.851563	516.374451
-15770.820745	5126.538333	453.587891	549.247925
-15770.820745	5126.538333	452.324219	598.881714
-15770.820745	5126.538333	451.060547	593.917480
-15770.820745	5126.538333	449.796875	735.790283
-15770.820745	5126.538333	448.532227	709.778687
-15770.820745	5126.538333	447.267578	834.739563
-15770.820745	5126.538333	446.002930	588.520691
-15770.820745	5126.538333	444.737305	667.277710
-15770.820745	5126.538333	443.471680	769.018555
-15770.820745	5126.538333	442.206055	640.201538
-15770.820745	5126.538333	440.940430	697.834351
-15770.820745	5126.538333	439.673828	692.568604
-15770.820745	5126.538333	438.407227	706.101379
-15770.820745	5126.538333	437.140625	652.587341
-15770.820745	5126.538333	435.873047	756.013733
-15770.820745	5126.538333	434.605469	804.931274
-15770.820745	5126.538333	433.337891	615.270691
-15770.820745	5126.538333	432.070313	624.326843
-15770.820745	5126.538333	430.801758	526.659912
-15770.820745	5126.538333	429.533203	635.938110
-15770.820745	5126.538333	428.264648	552.787354
-15770.820745	5126.538333	426.996094	534.371155
-15770.820745	5126.538333	425.726563	607.804565
-15770.820745	5126.538333	424.457031	503.557159
-15770.820745	5126.538333	423.186523	585.125488
-15770.820745	5126.538333	421.916992	570.508301
-15770.820745	5126.538333	420.646484	681.038086
-15770.820745	5126.538333	419.375977	768.447388
-15770.820745	5126.538333	418.104492	774.319458
-15770.820745	5126.538333	416.833008	903.146057
-15770.820745	5126.538333	415.561523	804.441162
-15770.820745	5126.538333	414.290039	753.601685
-15770.820745	5126.538333	413.017578	615.076172
-15770.820745	5126.538333	411.746094	666.137024
-15770.820745	5126.538333	410.472656	758.693359
-15770.820745	5126.538333	409.200195	665.618225
-15770.820745	5126.538333	407.926758	607.820374
-15770.820745	5126.538333	406.653320	712.307495
-15770.820745	5126.538333	405.379883	527.151306
-15770.820745	5126.538333	404.105469	550.042847
-15770.820745	5126.538333	402.831055	755.867371
-15770.820745	5126.538333	401.556641	744.994934
-15770.820745	5126.538333	400.282227	681.900879
-15770.820745	5126.538333	399.006836	757.953796
-15770.820745	5126.538333	397.731445	779.673584
-15770.820745	5126.538333	396.456055	925.875244
-15770.820745	5126.538333	395.179688	784.925232
-15770.820745	5126.538333	393.903320	712.347717
-15770.820745	5126.538333	392.626953	915.846619
-15770.820745	5126.538333	391.350586	948.649536
-15770.820745	5126.538333	390.073242	1197.115234
-15770.820745	5126.538333	388.795898	1310.214111
-15770.820745	5126.538333	387.518555	1576.557251
-15770.820745	5126.538333	386.240234	1751.139771
-15770.820745	5126.538333	384.961914	2039.427246
-15770.820745	5126.538333	383.683594	2194.478516
-15770.820745	5126.538333	382.405273	2342.880859
-15770.820745	5126.538333	381.125977	2103.093018
-15770.820745	5126.538333	379.846680	1950.093750
-15770.820745	5126.538333	378.567383	1688.988403
-15770.820745	5126.538333	377.287109	1529.115601
-15770.820745	5126.538333	376.006836	1261.159912
-15770.820745	5126.538333	374.726563	1235.222412
-15770.820745	5126.538333	373.446289	914.790161
-15770.820745	5126.538333	372.165039	774.146423
-15770.820745	5126.538333	370.883789	711.740967
-15770.820745	5126.538333	369.602539	841.328918
-15770.820745	5126.538333	368.320313	537.918640
-15770.820745	5126.538333	367.039063	637.494690
-15770.820745	5126.538333	365.755859	742.670959
-15770.820745	5126.538333	364.473633	464.737946
-15770.820745	5126.538333	363.190430	467.482056
-15770.820745	5126.538333	361.907227	401.431305
-15770.820745	5126.538333	360.624023	421.586456
-15770.820745	5126.538333	359.340820	375.000122
-15770.820745	5126.538333	358.056641	284.404327
-15770.820745	5126.538333	356.772461	385.226776
-15770.820745	5126.538333	355.487305	373.827118
-15770.820745	5126.538333	354.202148	237.887619
-15770.820745	5126.538333	352.916992	276.693359
-15770.820745	5126.538333	351.631836	302.363434
-15770.820745	5126.538333	350.346680	283.944244
-15770.820745	5126.538333	349.060547	268.859406
-15770.820745	5126.538333	347.774414	217.927124
-15770.820745	5126.538333	346.487305	139.374985
-15770.820745	5126.538333	345.200195	49.704605
-15770.820745	5126.538333	343.913086	194.093979
-15770.820745	5126.538333	342.625977	246.886200
-15770.820745	5126.538333	341.338867	218.414169
-15770.820745	5126.538333	340.050781	232.233337
-15770.820745	5126.538333	338.762695	127.734863
-15770.820745	5126.538333	337.473633	81.954628
-15770.820745	5126.538333	336.184570	86.619171
-15770.820745	5126.538333	334.895508	34.688770
-15770.820745	5126.538333	333.606445	-22.405085
-15770.820745	5126.538333	332.317383	71.602562
-15770.820745	5126.538333	331.027344	47.225368
-15770.820745	5126.538333	329.736328	-27.658167
-15770.820745	5126.538333	328.446289	-0.913631
-15770.820745	5126.538333	327.155273	-20.625742
-15770.820745	5126.538333	325.864258	-27.196178
-15770.820745	5126.538333	324.573242	-92.544449
-15770.820745	5126.538333	323.281250	68.709641
-15770.820745	5126.538333	321.989258	-13.681261
-15770.820745	5126.538333	320.697266	-56.361595
-15770.820745	5126.538333	319.405273	-94.273262
-15770.820745	5126.538333	318.112305	-160.313660
-15770.820745	5126.538333	316.819336	-117.045479
-15770.820745	5126.538333	315.526367	-42.496506
-15770.820745	5126.538333	314.232422	93.987671
-15770.820745	5126.538333	312.938477	-23.284245
-15770.820745	5126.538333	311.644531	-33.515835
-15770.820745	5126.538333	310.349609	-29.054947
-15770.820745	5126.538333	309.054688	65.880257
-15770.820745	5126.538333	307.759766	-35.514519
-15770.820745	5126.538333	306.464844	-28.080397
-15770.820745	5126.538333	305.168945	30.705111
-15770.820745	5126.538333	303.873047	67.137276
-15770.820745	5126.538333	302.577148	19.804909
-15770.820745	5126.538333	301.281250	13.506049
-15770.820745	5126.538333	299.984375	105.380898
