#X		#Y		#Wave		#Intensity
-15727.438830	5165.711667	1999.946289	-64.037666
-15727.438830	5165.711667	1998.981445	55.361729
-15727.438830	5165.711667	1998.017578	-24.617956
-15727.438830	5165.711667	1997.052734	71.282471
-15727.438830	5165.711667	1996.088867	6.002470
-15727.438830	5165.711667	1995.124023	64.515099
-15727.438830	5165.711667	1994.159180	179.880676
-15727.438830	5165.711667	1993.193359	134.159561
-15727.438830	5165.711667	1992.228516	110.649200
-15727.438830	5165.711667	1991.262695	-49.078621
-15727.438830	5165.711667	1990.296875	-35.586445
-15727.438830	5165.711667	1989.331055	-74.141579
-15727.438830	5165.711667	1988.365234	198.961761
-15727.438830	5165.711667	1987.398438	4.395036
-15727.438830	5165.711667	1986.432617	123.903694
-15727.438830	5165.711667	1985.465820	72.689644
-15727.438830	5165.711667	1984.499023	56.034832
-15727.438830	5165.711667	1983.532227	78.866051
-15727.438830	5165.711667	1982.565430	54.670101
-15727.438830	5165.711667	1981.597656	-63.468163
-15727.438830	5165.711667	1980.629883	-8.702697
-15727.438830	5165.711667	1979.662109	80.560127
-15727.438830	5165.711667	1978.694336	-20.411287
-15727.438830	5165.711667	1977.726563	4.513719
-15727.438830	5165.711667	1976.758789	-101.454636
-15727.438830	5165.711667	1975.790039	-7.526001
-15727.438830	5165.711667	1974.821289	-22.256536
-15727.438830	5165.711667	1973.852539	-88.840904
-15727.438830	5165.711667	1972.883789	118.348450
-15727.438830	5165.711667	1971.915039	-42.047272
-15727.438830	5165.711667	1970.945313	7.158353
-15727.438830	5165.711667	1969.975586	-20.121016
-15727.438830	5165.711667	1969.005859	105.384628
-15727.438830	5165.711667	1968.036133	53.369591
-15727.438830	5165.711667	1967.066406	33.365036
-15727.438830	5165.711667	1966.096680	188.232681
-15727.438830	5165.711667	1965.125977	126.264450
-15727.438830	5165.711667	1964.155273	81.521072
-15727.438830	5165.711667	1963.184570	26.911530
-15727.438830	5165.711667	1962.213867	97.830605
-15727.438830	5165.711667	1961.242188	-70.039864
-15727.438830	5165.711667	1960.271484	-1.653232
-15727.438830	5165.711667	1959.299805	-78.475754
-15727.438830	5165.711667	1958.328125	61.162209
-15727.438830	5165.711667	1957.356445	134.318878
-15727.438830	5165.711667	1956.384766	52.513382
-15727.438830	5165.711667	1955.412109	56.756817
-15727.438830	5165.711667	1954.439453	58.515690
-15727.438830	5165.711667	1953.467773	-25.761969
-15727.438830	5165.711667	1952.495117	199.555664
-15727.438830	5165.711667	1951.521484	78.390343
-15727.438830	5165.711667	1950.548828	65.317810
-15727.438830	5165.711667	1949.575195	74.331482
-15727.438830	5165.711667	1948.601563	-49.258389
-15727.438830	5165.711667	1947.627930	-69.721466
-15727.438830	5165.711667	1946.654297	-70.560341
-15727.438830	5165.711667	1945.680664	220.590530
-15727.438830	5165.711667	1944.706055	138.704132
-15727.438830	5165.711667	1943.732422	29.850426
-15727.438830	5165.711667	1942.757813	104.957001
-15727.438830	5165.711667	1941.783203	-40.658104
-15727.438830	5165.711667	1940.807617	2.536551
-15727.438830	5165.711667	1939.833008	35.898060
-15727.438830	5165.711667	1938.857422	3.068663
-15727.438830	5165.711667	1937.881836	176.054840
-15727.438830	5165.711667	1936.906250	99.094009
-15727.438830	5165.711667	1935.930664	110.324936
-15727.438830	5165.711667	1934.955078	21.141254
-15727.438830	5165.711667	1933.978516	-70.466820
-15727.438830	5165.711667	1933.001953	-105.747726
-15727.438830	5165.711667	1932.025391	30.297565
-15727.438830	5165.711667	1931.048828	-66.179085
-15727.438830	5165.711667	1930.072266	-118.589310
-15727.438830	5165.711667	1929.094727	-11.992342
-15727.438830	5165.711667	1928.118164	-17.939299
-15727.438830	5165.711667	1927.140625	-148.593552
-15727.438830	5165.711667	1926.163086	-10.286134
-15727.438830	5165.711667	1925.184570	-40.689644
-15727.438830	5165.711667	1924.207031	4.672118
-15727.438830	5165.711667	1923.228516	115.981865
-15727.438830	5165.711667	1922.250000	92.888016
-15727.438830	5165.711667	1921.271484	72.241470
-15727.438830	5165.711667	1920.292969	61.366745
-15727.438830	5165.711667	1919.314453	-34.959980
-15727.438830	5165.711667	1918.334961	56.708202
-15727.438830	5165.711667	1917.355469	-166.498917
-15727.438830	5165.711667	1916.375977	110.605919
-15727.438830	5165.711667	1915.396484	-144.248047
-15727.438830	5165.711667	1914.416992	1.026314
-15727.438830	5165.711667	1913.436523	-122.021629
-15727.438830	5165.711667	1912.457031	-37.766857
-15727.438830	5165.711667	1911.476563	7.448694
-15727.438830	5165.711667	1910.496094	-110.660294
-15727.438830	5165.711667	1909.515625	19.843832
-15727.438830	5165.711667	1908.534180	43.091915
-15727.438830	5165.711667	1907.552734	54.150166
-15727.438830	5165.711667	1906.572266	82.253235
-15727.438830	5165.711667	1905.590820	-47.939419
-15727.438830	5165.711667	1904.608398	-12.524866
-15727.438830	5165.711667	1903.626953	8.270733
-15727.438830	5165.711667	1902.644531	-2.581184
-15727.438830	5165.711667	1901.663086	18.204435
-15727.438830	5165.711667	1900.680664	7.354863
-15727.438830	5165.711667	1899.698242	122.994820
-15727.438830	5165.711667	1898.714844	97.537262
-15727.438830	5165.711667	1897.732422	76.952744
-15727.438830	5165.711667	1896.749023	-23.848866
-15727.438830	5165.711667	1895.765625	9.069598
-15727.438830	5165.711667	1894.782227	-43.078972
-15727.438830	5165.711667	1893.798828	40.854824
-15727.438830	5165.711667	1892.814453	44.592003
-15727.438830	5165.711667	1891.831055	-75.540001
-15727.438830	5165.711667	1890.846680	81.202118
-15727.438830	5165.711667	1889.862305	-26.752825
-15727.438830	5165.711667	1888.877930	-13.296475
-15727.438830	5165.711667	1887.892578	-7.126317
-15727.438830	5165.711667	1886.908203	81.542564
-15727.438830	5165.711667	1885.922852	-99.114441
-15727.438830	5165.711667	1884.937500	-0.760336
-15727.438830	5165.711667	1883.952148	99.981735
-15727.438830	5165.711667	1882.965820	21.258020
-15727.438830	5165.711667	1881.980469	172.865585
-15727.438830	5165.711667	1880.994141	2.052573
-15727.438830	5165.711667	1880.007813	-69.341148
-15727.438830	5165.711667	1879.021484	-19.565702
-15727.438830	5165.711667	1878.035156	177.957901
-15727.438830	5165.711667	1877.047852	4.845088
-15727.438830	5165.711667	1876.061523	66.682472
-15727.438830	5165.711667	1875.074219	-70.032372
-15727.438830	5165.711667	1874.086914	-160.706146
-15727.438830	5165.711667	1873.098633	-4.492025
-15727.438830	5165.711667	1872.111328	79.070633
-15727.438830	5165.711667	1871.123047	97.279671
-15727.438830	5165.711667	1870.135742	-17.553711
-15727.438830	5165.711667	1869.147461	3.079755
-15727.438830	5165.711667	1868.158203	52.717484
-15727.438830	5165.711667	1867.169922	70.907494
-15727.438830	5165.711667	1866.180664	26.245455
-15727.438830	5165.711667	1865.192383	-90.898346
-15727.438830	5165.711667	1864.203125	40.853462
-15727.438830	5165.711667	1863.213867	30.030172
-15727.438830	5165.711667	1862.223633	21.622612
-15727.438830	5165.711667	1861.234375	-66.471085
-15727.438830	5165.711667	1860.244141	2.390090
-15727.438830	5165.711667	1859.253906	76.048904
-15727.438830	5165.711667	1858.263672	72.448029
-15727.438830	5165.711667	1857.273438	27.824062
-15727.438830	5165.711667	1856.282227	33.873360
-15727.438830	5165.711667	1855.291992	1.323197
-15727.438830	5165.711667	1854.300781	86.944885
-15727.438830	5165.711667	1853.309570	-20.358252
-15727.438830	5165.711667	1852.317383	14.599854
-15727.438830	5165.711667	1851.326172	42.308228
-15727.438830	5165.711667	1850.333984	70.000046
-15727.438830	5165.711667	1849.342773	165.134079
-15727.438830	5165.711667	1848.350586	45.840469
-15727.438830	5165.711667	1847.357422	56.636040
-15727.438830	5165.711667	1846.365234	79.460564
-15727.438830	5165.711667	1845.372070	-61.439663
-15727.438830	5165.711667	1844.379883	67.291168
-15727.438830	5165.711667	1843.386719	87.670303
-15727.438830	5165.711667	1842.393555	79.159721
-15727.438830	5165.711667	1841.399414	125.973724
-15727.438830	5165.711667	1840.406250	42.881252
-15727.438830	5165.711667	1839.412109	19.928801
-15727.438830	5165.711667	1838.417969	-60.726803
-15727.438830	5165.711667	1837.423828	-69.246925
-15727.438830	5165.711667	1836.429688	35.186073
-15727.438830	5165.711667	1835.434570	55.467102
-15727.438830	5165.711667	1834.440430	54.107895
-15727.438830	5165.711667	1833.445313	211.272018
-15727.438830	5165.711667	1832.450195	63.366341
-15727.438830	5165.711667	1831.454102	13.951275
-15727.438830	5165.711667	1830.458984	-9.048777
-15727.438830	5165.711667	1829.462891	-24.851183
-15727.438830	5165.711667	1828.466797	-33.460155
-15727.438830	5165.711667	1827.470703	-3.688421
-15727.438830	5165.711667	1826.474609	-129.866287
-15727.438830	5165.711667	1825.478516	-92.916817
-15727.438830	5165.711667	1824.481445	-79.974037
-15727.438830	5165.711667	1823.484375	74.404190
-15727.438830	5165.711667	1822.487305	-18.185675
-15727.438830	5165.711667	1821.490234	52.215622
-15727.438830	5165.711667	1820.493164	41.107372
-15727.438830	5165.711667	1819.495117	-10.738243
-15727.438830	5165.711667	1818.498047	47.604458
-15727.438830	5165.711667	1817.500000	-11.435200
-15727.438830	5165.711667	1816.500977	20.518024
-15727.438830	5165.711667	1815.502930	81.171631
-15727.438830	5165.711667	1814.504883	-47.294006
-15727.438830	5165.711667	1813.505859	87.501602
-15727.438830	5165.711667	1812.506836	73.893837
-15727.438830	5165.711667	1811.507813	69.843903
-15727.438830	5165.711667	1810.508789	17.947313
-15727.438830	5165.711667	1809.508789	143.001511
-15727.438830	5165.711667	1808.508789	2.620728
-15727.438830	5165.711667	1807.508789	-3.867098
-15727.438830	5165.711667	1806.508789	-187.216553
-15727.438830	5165.711667	1805.508789	73.910049
-15727.438830	5165.711667	1804.508789	88.862144
-15727.438830	5165.711667	1803.507813	34.525471
-15727.438830	5165.711667	1802.506836	-15.032500
-15727.438830	5165.711667	1801.505859	81.052795
-15727.438830	5165.711667	1800.504883	36.243584
-15727.438830	5165.711667	1799.502930	22.459726
-15727.438830	5165.711667	1798.501953	25.367306
-15727.438830	5165.711667	1797.500000	68.812561
-15727.438830	5165.711667	1796.498047	74.057899
-15727.438830	5165.711667	1795.496094	26.815567
-15727.438830	5165.711667	1794.493164	96.407692
-15727.438830	5165.711667	1793.491211	87.284721
-15727.438830	5165.711667	1792.488281	-50.563702
-15727.438830	5165.711667	1791.485352	9.413495
-15727.438830	5165.711667	1790.482422	50.287945
-15727.438830	5165.711667	1789.478516	14.897339
-15727.438830	5165.711667	1788.475586	89.059982
-15727.438830	5165.711667	1787.471680	65.541725
-15727.438830	5165.711667	1786.467773	-10.364552
-15727.438830	5165.711667	1785.463867	73.220413
-15727.438830	5165.711667	1784.459961	13.959578
-15727.438830	5165.711667	1783.455078	-59.576557
-15727.438830	5165.711667	1782.450195	28.665243
-15727.438830	5165.711667	1781.445313	38.361126
-15727.438830	5165.711667	1780.440430	-78.006119
-15727.438830	5165.711667	1779.435547	79.078049
-15727.438830	5165.711667	1778.429688	-27.787636
-15727.438830	5165.711667	1777.424805	-39.563202
-15727.438830	5165.711667	1776.418945	53.198921
-15727.438830	5165.711667	1775.413086	-60.792591
-15727.438830	5165.711667	1774.406250	-36.991806
-15727.438830	5165.711667	1773.400391	-22.720400
-15727.438830	5165.711667	1772.393555	-105.831230
-15727.438830	5165.711667	1771.386719	48.470394
-15727.438830	5165.711667	1770.379883	17.552559
-15727.438830	5165.711667	1769.373047	-48.972996
-15727.438830	5165.711667	1768.365234	145.497177
-15727.438830	5165.711667	1767.358398	81.300369
-15727.438830	5165.711667	1766.350586	-75.395027
-15727.438830	5165.711667	1765.342773	-66.060768
-15727.438830	5165.711667	1764.334961	-6.964496
-15727.438830	5165.711667	1763.326172	-23.768465
-15727.438830	5165.711667	1762.318359	-33.477451
-15727.438830	5165.711667	1761.309570	-104.814362
-15727.438830	5165.711667	1760.300781	119.986465
-15727.438830	5165.711667	1759.291016	46.231468
-15727.438830	5165.711667	1758.282227	-171.975067
-15727.438830	5165.711667	1757.272461	10.020752
-15727.438830	5165.711667	1756.262695	42.786449
-15727.438830	5165.711667	1755.252930	32.913799
-15727.438830	5165.711667	1754.243164	-71.632866
-15727.438830	5165.711667	1753.233398	103.015083
-15727.438830	5165.711667	1752.222656	-86.710075
-15727.438830	5165.711667	1751.211914	9.780800
-15727.438830	5165.711667	1750.201172	-90.047462
-15727.438830	5165.711667	1749.190430	44.185997
-15727.438830	5165.711667	1748.179688	-22.566185
-15727.438830	5165.711667	1747.167969	-169.667236
-15727.438830	5165.711667	1746.156250	44.767036
-15727.438830	5165.711667	1745.144531	-29.106134
-15727.438830	5165.711667	1744.132813	-15.585561
-15727.438830	5165.711667	1743.121094	-160.307953
-15727.438830	5165.711667	1742.108398	-149.177124
-15727.438830	5165.711667	1741.095703	-1.164257
-15727.438830	5165.711667	1740.083008	14.605688
-15727.438830	5165.711667	1739.070313	-26.284737
-15727.438830	5165.711667	1738.057617	-81.337936
-15727.438830	5165.711667	1737.043945	-145.829910
-15727.438830	5165.711667	1736.030273	67.953377
-15727.438830	5165.711667	1735.016602	-24.882563
-15727.438830	5165.711667	1734.002930	-77.631622
-15727.438830	5165.711667	1732.989258	6.317088
-15727.438830	5165.711667	1731.974609	-121.873055
-15727.438830	5165.711667	1730.959961	-42.708122
-15727.438830	5165.711667	1729.945313	-24.841358
-15727.438830	5165.711667	1728.930664	-117.694084
-15727.438830	5165.711667	1727.916016	-12.743280
-15727.438830	5165.711667	1726.900391	9.744653
-15727.438830	5165.711667	1725.885742	69.864265
-15727.438830	5165.711667	1724.870117	-60.682491
-15727.438830	5165.711667	1723.853516	-59.443920
-15727.438830	5165.711667	1722.837891	-79.398094
-15727.438830	5165.711667	1721.822266	-139.350510
-15727.438830	5165.711667	1720.805664	28.791714
-15727.438830	5165.711667	1719.789063	-45.311707
-15727.438830	5165.711667	1718.772461	33.380363
-15727.438830	5165.711667	1717.754883	-28.991417
-15727.438830	5165.711667	1716.738281	54.322205
-15727.438830	5165.711667	1715.720703	-8.073828
-15727.438830	5165.711667	1714.703125	-28.189583
-15727.438830	5165.711667	1713.685547	-71.802773
-15727.438830	5165.711667	1712.667969	105.282051
-15727.438830	5165.711667	1711.649414	-6.462034
-15727.438830	5165.711667	1710.630859	86.004807
-15727.438830	5165.711667	1709.612305	58.740326
-15727.438830	5165.711667	1708.593750	3.312048
-15727.438830	5165.711667	1707.575195	-49.770611
-15727.438830	5165.711667	1706.555664	7.368683
-15727.438830	5165.711667	1705.536133	-59.807278
-15727.438830	5165.711667	1704.516602	-117.601074
-15727.438830	5165.711667	1703.497070	-76.950539
-15727.438830	5165.711667	1702.477539	-5.872124
-15727.438830	5165.711667	1701.457031	-40.277157
-15727.438830	5165.711667	1700.437500	-9.095914
-15727.438830	5165.711667	1699.416992	136.811646
-15727.438830	5165.711667	1698.395508	36.771816
-15727.438830	5165.711667	1697.375000	9.329042
-15727.438830	5165.711667	1696.354492	-53.232716
-15727.438830	5165.711667	1695.333008	5.900701
-15727.438830	5165.711667	1694.311523	64.992119
-15727.438830	5165.711667	1693.290039	-9.301535
-15727.438830	5165.711667	1692.267578	131.591187
-15727.438830	5165.711667	1691.246094	-45.616112
-15727.438830	5165.711667	1690.223633	-63.792446
-15727.438830	5165.711667	1689.201172	32.560947
-15727.438830	5165.711667	1688.178711	63.419853
-15727.438830	5165.711667	1687.155273	136.306335
-15727.438830	5165.711667	1686.132813	15.244238
-15727.438830	5165.711667	1685.109375	60.047501
-15727.438830	5165.711667	1684.085938	62.780411
-15727.438830	5165.711667	1683.062500	119.197083
-15727.438830	5165.711667	1682.039063	21.503790
-15727.438830	5165.711667	1681.014648	3.182972
-15727.438830	5165.711667	1679.990234	52.525059
-15727.438830	5165.711667	1678.965820	59.836914
-15727.438830	5165.711667	1677.941406	67.129501
-15727.438830	5165.711667	1676.916992	30.092022
-15727.438830	5165.711667	1675.891602	16.367985
-15727.438830	5165.711667	1674.866211	-16.016743
-15727.438830	5165.711667	1673.840820	149.715424
-15727.438830	5165.711667	1672.815430	19.411869
-15727.438830	5165.711667	1671.790039	3.310156
-15727.438830	5165.711667	1670.763672	38.444859
-15727.438830	5165.711667	1669.737305	87.526489
-15727.438830	5165.711667	1668.710938	155.203232
-15727.438830	5165.711667	1667.684570	43.574963
-15727.438830	5165.711667	1666.658203	106.551582
-15727.438830	5165.711667	1665.630859	13.563629
-15727.438830	5165.711667	1664.603516	-81.728615
-15727.438830	5165.711667	1663.576172	-39.743839
-15727.438830	5165.711667	1662.548828	-53.608250
-15727.438830	5165.711667	1661.520508	69.717049
-15727.438830	5165.711667	1660.493164	20.937265
-15727.438830	5165.711667	1659.464844	65.142616
-15727.438830	5165.711667	1658.436523	39.596977
-15727.438830	5165.711667	1657.408203	21.020830
-15727.438830	5165.711667	1656.378906	-4.531828
-15727.438830	5165.711667	1655.350586	81.408958
-15727.438830	5165.711667	1654.321289	155.691132
-15727.438830	5165.711667	1653.291992	65.084015
-15727.438830	5165.711667	1652.261719	46.461868
-15727.438830	5165.711667	1651.232422	139.245407
-15727.438830	5165.711667	1650.202148	102.033028
-15727.438830	5165.711667	1649.171875	111.226379
-15727.438830	5165.711667	1648.141602	69.376526
-15727.438830	5165.711667	1647.111328	136.533554
-15727.438830	5165.711667	1646.080078	52.938419
-15727.438830	5165.711667	1645.049805	166.421097
-15727.438830	5165.711667	1644.018555	101.379227
-15727.438830	5165.711667	1642.987305	82.701317
-15727.438830	5165.711667	1641.955078	94.140030
-15727.438830	5165.711667	1640.923828	17.545420
-15727.438830	5165.711667	1639.891602	248.998184
-15727.438830	5165.711667	1638.859375	133.023087
-15727.438830	5165.711667	1637.827148	246.281082
-15727.438830	5165.711667	1636.794922	199.779312
-15727.438830	5165.711667	1635.761719	183.370483
-15727.438830	5165.711667	1634.729492	305.791931
-15727.438830	5165.711667	1633.696289	143.620865
-15727.438830	5165.711667	1632.662109	189.661301
-15727.438830	5165.711667	1631.628906	293.493835
-15727.438830	5165.711667	1630.594727	129.091217
-15727.438830	5165.711667	1629.561523	170.476410
-15727.438830	5165.711667	1628.527344	228.016174
-15727.438830	5165.711667	1627.493164	181.552750
-15727.438830	5165.711667	1626.458008	181.304581
-15727.438830	5165.711667	1625.423828	241.110077
-15727.438830	5165.711667	1624.388672	356.308655
-15727.438830	5165.711667	1623.353516	337.549194
-15727.438830	5165.711667	1622.318359	473.456024
-15727.438830	5165.711667	1621.282227	360.050323
-15727.438830	5165.711667	1620.247070	382.831635
-15727.438830	5165.711667	1619.210938	204.889420
-15727.438830	5165.711667	1618.174805	269.205994
-15727.438830	5165.711667	1617.137695	257.391449
-15727.438830	5165.711667	1616.101563	231.751495
-15727.438830	5165.711667	1615.064453	226.865784
-15727.438830	5165.711667	1614.027344	436.326538
-15727.438830	5165.711667	1612.990234	353.057404
-15727.438830	5165.711667	1611.953125	387.320404
-15727.438830	5165.711667	1610.916016	251.117340
-15727.438830	5165.711667	1609.877930	333.749664
-15727.438830	5165.711667	1608.839844	294.317383
-15727.438830	5165.711667	1607.801758	422.955597
-15727.438830	5165.711667	1606.763672	443.370148
-15727.438830	5165.711667	1605.724609	716.906555
-15727.438830	5165.711667	1604.685547	371.441559
-15727.438830	5165.711667	1603.646484	442.467743
-15727.438830	5165.711667	1602.607422	483.572327
-15727.438830	5165.711667	1601.568359	280.929871
-15727.438830	5165.711667	1600.528320	441.600769
-15727.438830	5165.711667	1599.489258	406.845612
-15727.438830	5165.711667	1598.449219	374.404388
-15727.438830	5165.711667	1597.408203	459.155396
-15727.438830	5165.711667	1596.368164	497.939728
-15727.438830	5165.711667	1595.327148	612.502869
-15727.438830	5165.711667	1594.287109	520.368958
-15727.438830	5165.711667	1593.246094	313.484711
-15727.438830	5165.711667	1592.204102	480.827393
-15727.438830	5165.711667	1591.163086	459.933929
-15727.438830	5165.711667	1590.121094	425.286163
-15727.438830	5165.711667	1589.079102	363.132355
-15727.438830	5165.711667	1588.037109	454.679871
-15727.438830	5165.711667	1586.995117	449.889465
-15727.438830	5165.711667	1585.953125	383.208191
-15727.438830	5165.711667	1584.910156	334.897217
-15727.438830	5165.711667	1583.867188	293.489899
-15727.438830	5165.711667	1582.824219	320.848419
-15727.438830	5165.711667	1581.781250	300.098541
-15727.438830	5165.711667	1580.737305	322.882294
-15727.438830	5165.711667	1579.693359	489.936157
-15727.438830	5165.711667	1578.649414	526.432861
-15727.438830	5165.711667	1577.605469	446.184143
-15727.438830	5165.711667	1576.561523	345.381226
-15727.438830	5165.711667	1575.516602	322.424530
-15727.438830	5165.711667	1574.472656	249.162567
-15727.438830	5165.711667	1573.427734	196.524277
-15727.438830	5165.711667	1572.381836	381.747742
-15727.438830	5165.711667	1571.336914	301.694153
-15727.438830	5165.711667	1570.291016	322.263702
-15727.438830	5165.711667	1569.246094	233.138718
-15727.438830	5165.711667	1568.200195	160.054932
-15727.438830	5165.711667	1567.153320	400.000916
-15727.438830	5165.711667	1566.107422	306.385101
-15727.438830	5165.711667	1565.060547	406.932434
-15727.438830	5165.711667	1564.013672	333.929077
-15727.438830	5165.711667	1562.966797	336.302032
-15727.438830	5165.711667	1561.919922	393.466614
-15727.438830	5165.711667	1560.872070	343.372711
-15727.438830	5165.711667	1559.825195	329.821075
-15727.438830	5165.711667	1558.777344	336.818207
-15727.438830	5165.711667	1557.729492	496.626587
-15727.438830	5165.711667	1556.680664	287.008759
-15727.438830	5165.711667	1555.632813	291.782318
-15727.438830	5165.711667	1554.583984	312.523285
-15727.438830	5165.711667	1553.535156	397.079559
-15727.438830	5165.711667	1552.486328	408.715546
-15727.438830	5165.711667	1551.436523	383.916443
-15727.438830	5165.711667	1550.387695	422.916779
-15727.438830	5165.711667	1549.337891	302.530396
-15727.438830	5165.711667	1548.288086	334.737976
-15727.438830	5165.711667	1547.238281	389.713104
-15727.438830	5165.711667	1546.187500	317.249176
-15727.438830	5165.711667	1545.136719	351.767181
-15727.438830	5165.711667	1544.086914	395.394104
-15727.438830	5165.711667	1543.035156	434.470673
-15727.438830	5165.711667	1541.984375	425.805115
-15727.438830	5165.711667	1540.933594	469.452026
-15727.438830	5165.711667	1539.881836	383.543793
-15727.438830	5165.711667	1538.830078	324.960297
-15727.438830	5165.711667	1537.778320	373.208588
-15727.438830	5165.711667	1536.725586	564.568054
-15727.438830	5165.711667	1535.673828	481.068542
-15727.438830	5165.711667	1534.621094	581.548401
-15727.438830	5165.711667	1533.568359	641.147583
-15727.438830	5165.711667	1532.515625	684.858032
-15727.438830	5165.711667	1531.461914	676.376770
-15727.438830	5165.711667	1530.409180	638.429565
-15727.438830	5165.711667	1529.355469	800.143188
-15727.438830	5165.711667	1528.301758	474.195068
-15727.438830	5165.711667	1527.247070	381.956604
-15727.438830	5165.711667	1526.193359	428.075256
-15727.438830	5165.711667	1525.138672	342.732178
-15727.438830	5165.711667	1524.083984	264.246307
-15727.438830	5165.711667	1523.029297	244.727158
-15727.438830	5165.711667	1521.974609	166.342972
-15727.438830	5165.711667	1520.918945	278.262604
-15727.438830	5165.711667	1519.863281	138.812729
-15727.438830	5165.711667	1518.807617	126.227409
-15727.438830	5165.711667	1517.751953	79.720222
-15727.438830	5165.711667	1516.696289	137.360199
-15727.438830	5165.711667	1515.639648	47.930614
-15727.438830	5165.711667	1514.583008	-75.369461
-15727.438830	5165.711667	1513.526367	81.862495
-15727.438830	5165.711667	1512.469727	218.708206
-15727.438830	5165.711667	1511.412109	29.963736
-15727.438830	5165.711667	1510.355469	119.352432
-15727.438830	5165.711667	1509.297852	109.294403
-15727.438830	5165.711667	1508.240234	148.977325
-15727.438830	5165.711667	1507.181641	107.345299
-15727.438830	5165.711667	1506.124023	27.364136
-15727.438830	5165.711667	1505.065430	10.669966
-15727.438830	5165.711667	1504.006836	52.711571
-15727.438830	5165.711667	1502.948242	-85.814606
-15727.438830	5165.711667	1501.888672	-64.024872
-15727.438830	5165.711667	1500.830078	72.861710
-15727.438830	5165.711667	1499.770508	189.419037
-15727.438830	5165.711667	1498.710938	-9.806109
-15727.438830	5165.711667	1497.650391	115.799553
-15727.438830	5165.711667	1496.590820	176.004517
-15727.438830	5165.711667	1495.530273	-65.838280
-15727.438830	5165.711667	1494.469727	102.614182
-15727.438830	5165.711667	1493.409180	-51.180923
-15727.438830	5165.711667	1492.348633	85.724266
-15727.438830	5165.711667	1491.287109	67.193703
-15727.438830	5165.711667	1490.225586	32.938450
-15727.438830	5165.711667	1489.164063	-215.159058
-15727.438830	5165.711667	1488.102539	-102.967827
-15727.438830	5165.711667	1487.041016	218.510757
-15727.438830	5165.711667	1485.978516	139.375183
-15727.438830	5165.711667	1484.916016	159.281143
-15727.438830	5165.711667	1483.853516	147.734131
-15727.438830	5165.711667	1482.791016	21.535019
-15727.438830	5165.711667	1481.727539	212.420074
-15727.438830	5165.711667	1480.664063	133.529739
-15727.438830	5165.711667	1479.600586	77.175652
-15727.438830	5165.711667	1478.537109	133.230438
-15727.438830	5165.711667	1477.473633	162.334824
-15727.438830	5165.711667	1476.409180	258.785736
-15727.438830	5165.711667	1475.344727	276.686859
-15727.438830	5165.711667	1474.280273	326.031921
-15727.438830	5165.711667	1473.215820	310.338104
-15727.438830	5165.711667	1472.151367	269.981415
-15727.438830	5165.711667	1471.085938	274.474762
-15727.438830	5165.711667	1470.020508	427.022766
-15727.438830	5165.711667	1468.955078	377.783661
-15727.438830	5165.711667	1467.888672	283.746002
-15727.438830	5165.711667	1466.823242	259.534454
-15727.438830	5165.711667	1465.756836	295.364380
-15727.438830	5165.711667	1464.690430	362.940186
-15727.438830	5165.711667	1463.624023	416.652100
-15727.438830	5165.711667	1462.556641	225.008316
-15727.438830	5165.711667	1461.490234	256.678101
-15727.438830	5165.711667	1460.422852	232.555313
-15727.438830	5165.711667	1459.355469	284.434082
-15727.438830	5165.711667	1458.287109	363.008759
-15727.438830	5165.711667	1457.219727	229.775009
-15727.438830	5165.711667	1456.151367	365.926758
-15727.438830	5165.711667	1455.083008	399.944000
-15727.438830	5165.711667	1454.014648	454.684174
-15727.438830	5165.711667	1452.945313	457.724152
-15727.438830	5165.711667	1451.876953	524.856567
-15727.438830	5165.711667	1450.807617	452.479279
-15727.438830	5165.711667	1449.738281	339.370972
-15727.438830	5165.711667	1448.668945	479.729370
-15727.438830	5165.711667	1447.598633	334.903931
-15727.438830	5165.711667	1446.528320	406.443237
-15727.438830	5165.711667	1445.458008	341.692505
-15727.438830	5165.711667	1444.387695	370.042816
-15727.438830	5165.711667	1443.317383	567.632813
-15727.438830	5165.711667	1442.246094	484.292664
-15727.438830	5165.711667	1441.174805	432.420776
-15727.438830	5165.711667	1440.103516	323.946838
-15727.438830	5165.711667	1439.032227	281.839081
-15727.438830	5165.711667	1437.960938	341.121918
-15727.438830	5165.711667	1436.888672	445.674408
-15727.438830	5165.711667	1435.816406	343.378204
-15727.438830	5165.711667	1434.744141	267.620056
-15727.438830	5165.711667	1433.670898	419.317169
-15727.438830	5165.711667	1432.598633	282.194061
-15727.438830	5165.711667	1431.525391	150.075058
-15727.438830	5165.711667	1430.452148	389.579437
-15727.438830	5165.711667	1429.378906	289.801422
-15727.438830	5165.711667	1428.304688	121.534317
-15727.438830	5165.711667	1427.231445	184.745056
-15727.438830	5165.711667	1426.157227	243.932526
-15727.438830	5165.711667	1425.083008	182.726608
-15727.438830	5165.711667	1424.007813	204.454941
-15727.438830	5165.711667	1422.933594	148.772141
-15727.438830	5165.711667	1421.858398	232.347763
-15727.438830	5165.711667	1420.783203	181.233902
-15727.438830	5165.711667	1419.708008	255.409515
-15727.438830	5165.711667	1418.631836	51.596409
-15727.438830	5165.711667	1417.555664	180.936951
-15727.438830	5165.711667	1416.479492	237.361710
-15727.438830	5165.711667	1415.403320	249.833008
-15727.438830	5165.711667	1414.327148	155.221390
-15727.438830	5165.711667	1413.250000	201.044708
-15727.438830	5165.711667	1412.173828	183.600983
-15727.438830	5165.711667	1411.096680	63.692181
-15727.438830	5165.711667	1410.018555	293.819763
-15727.438830	5165.711667	1408.941406	437.879242
-15727.438830	5165.711667	1407.863281	248.774765
-15727.438830	5165.711667	1406.785156	294.226959
-15727.438830	5165.711667	1405.707031	350.297272
-15727.438830	5165.711667	1404.628906	323.534424
-15727.438830	5165.711667	1403.549805	388.676239
-15727.438830	5165.711667	1402.470703	411.102417
-15727.438830	5165.711667	1401.391602	495.218567
-15727.438830	5165.711667	1400.312500	283.966980
-15727.438830	5165.711667	1399.233398	360.787476
-15727.438830	5165.711667	1398.153320	224.653915
-15727.438830	5165.711667	1397.073242	427.244080
-15727.438830	5165.711667	1395.993164	337.777161
-15727.438830	5165.711667	1394.913086	235.549332
-15727.438830	5165.711667	1393.832031	370.819733
-15727.438830	5165.711667	1392.750977	300.816864
-15727.438830	5165.711667	1391.669922	218.567947
-15727.438830	5165.711667	1390.588867	255.562057
-15727.438830	5165.711667	1389.506836	200.522293
-15727.438830	5165.711667	1388.425781	230.429855
-15727.438830	5165.711667	1387.343750	270.678802
-15727.438830	5165.711667	1386.261719	157.363647
-15727.438830	5165.711667	1385.178711	275.597717
-15727.438830	5165.711667	1384.096680	198.558228
-15727.438830	5165.711667	1383.013672	229.603363
-15727.438830	5165.711667	1381.930664	387.715179
-15727.438830	5165.711667	1380.846680	246.457825
-15727.438830	5165.711667	1379.763672	265.519989
-15727.438830	5165.711667	1378.679688	303.775177
-15727.438830	5165.711667	1377.595703	276.418762
-15727.438830	5165.711667	1376.511719	359.851410
-15727.438830	5165.711667	1375.427734	277.701447
-15727.438830	5165.711667	1374.342773	324.468109
-15727.438830	5165.711667	1373.257813	522.578552
-15727.438830	5165.711667	1372.172852	547.562500
-15727.438830	5165.711667	1371.087891	546.394226
-15727.438830	5165.711667	1370.001953	645.659729
-15727.438830	5165.711667	1368.916992	634.383484
-15727.438830	5165.711667	1367.831055	499.603577
-15727.438830	5165.711667	1366.744141	451.562653
-15727.438830	5165.711667	1365.658203	542.067810
-15727.438830	5165.711667	1364.571289	627.615845
-15727.438830	5165.711667	1363.484375	705.780029
-15727.438830	5165.711667	1362.397461	654.613525
-15727.438830	5165.711667	1361.310547	702.888489
-15727.438830	5165.711667	1360.222656	674.367798
-15727.438830	5165.711667	1359.135742	502.277191
-15727.438830	5165.711667	1358.047852	327.513611
-15727.438830	5165.711667	1356.958984	364.157990
-15727.438830	5165.711667	1355.871094	388.338287
-15727.438830	5165.711667	1354.782227	470.435455
-15727.438830	5165.711667	1353.693359	487.090546
-15727.438830	5165.711667	1352.604492	405.608002
-15727.438830	5165.711667	1351.515625	469.692200
-15727.438830	5165.711667	1350.425781	326.238007
-15727.438830	5165.711667	1349.335938	437.858521
-15727.438830	5165.711667	1348.246094	376.356720
-15727.438830	5165.711667	1347.156250	548.714355
-15727.438830	5165.711667	1346.066406	480.114258
-15727.438830	5165.711667	1344.975586	595.700012
-15727.438830	5165.711667	1343.884766	620.028320
-15727.438830	5165.711667	1342.793945	693.787476
-15727.438830	5165.711667	1341.702148	556.985840
-15727.438830	5165.711667	1340.611328	537.423035
-15727.438830	5165.711667	1339.519531	352.082611
-15727.438830	5165.711667	1338.427734	480.878296
-15727.438830	5165.711667	1337.334961	384.397003
-15727.438830	5165.711667	1336.243164	433.402649
-15727.438830	5165.711667	1335.150391	361.009338
-15727.438830	5165.711667	1334.057617	328.467560
-15727.438830	5165.711667	1332.964844	357.174500
-15727.438830	5165.711667	1331.871094	219.520477
-15727.438830	5165.711667	1330.778320	318.216888
-15727.438830	5165.711667	1329.684570	335.502136
-15727.438830	5165.711667	1328.590820	281.320862
-15727.438830	5165.711667	1327.496094	360.488739
-15727.438830	5165.711667	1326.402344	372.580811
-15727.438830	5165.711667	1325.307617	327.584564
-15727.438830	5165.711667	1324.212891	405.721008
-15727.438830	5165.711667	1323.117188	448.467987
-15727.438830	5165.711667	1322.022461	363.737732
-15727.438830	5165.711667	1320.926758	351.034546
-15727.438830	5165.711667	1319.831055	374.456268
-15727.438830	5165.711667	1318.735352	199.120834
-15727.438830	5165.711667	1317.638672	280.036926
-15727.438830	5165.711667	1316.542969	338.267487
-15727.438830	5165.711667	1315.446289	292.400513
-15727.438830	5165.711667	1314.349609	242.618668
-15727.438830	5165.711667	1313.251953	327.431213
-15727.438830	5165.711667	1312.155273	337.123627
-15727.438830	5165.711667	1311.057617	222.731766
-15727.438830	5165.711667	1309.959961	236.057373
-15727.438830	5165.711667	1308.862305	259.729126
-15727.438830	5165.711667	1307.763672	303.447784
-15727.438830	5165.711667	1306.665039	261.193237
-15727.438830	5165.711667	1305.566406	166.599564
-15727.438830	5165.711667	1304.467773	173.336395
-15727.438830	5165.711667	1303.369141	200.088089
-15727.438830	5165.711667	1302.269531	161.681396
-15727.438830	5165.711667	1301.169922	235.577637
-15727.438830	5165.711667	1300.070313	148.826859
-15727.438830	5165.711667	1298.970703	101.938568
-15727.438830	5165.711667	1297.870117	185.792328
-15727.438830	5165.711667	1296.769531	121.866020
-15727.438830	5165.711667	1295.668945	171.147644
-15727.438830	5165.711667	1294.568359	144.560806
-15727.438830	5165.711667	1293.466797	142.521210
-15727.438830	5165.711667	1292.366211	157.275269
-15727.438830	5165.711667	1291.264648	262.290924
-15727.438830	5165.711667	1290.162109	186.040665
-15727.438830	5165.711667	1289.060547	169.584717
-15727.438830	5165.711667	1287.958008	100.497093
-15727.438830	5165.711667	1286.855469	155.943069
-15727.438830	5165.711667	1285.752930	58.532715
-15727.438830	5165.711667	1284.650391	186.363449
-15727.438830	5165.711667	1283.546875	212.265656
-15727.438830	5165.711667	1282.444336	192.805832
-15727.438830	5165.711667	1281.339844	242.602631
-15727.438830	5165.711667	1280.236328	247.721939
-15727.438830	5165.711667	1279.132813	220.298843
-15727.438830	5165.711667	1278.028320	211.113510
-15727.438830	5165.711667	1276.923828	147.259293
-15727.438830	5165.711667	1275.819336	128.297958
-15727.438830	5165.711667	1274.713867	114.825127
-15727.438830	5165.711667	1273.608398	195.427795
-15727.438830	5165.711667	1272.503906	70.852104
-15727.438830	5165.711667	1271.397461	166.157913
-15727.438830	5165.711667	1270.291992	194.213577
-15727.438830	5165.711667	1269.185547	141.130539
-15727.438830	5165.711667	1268.080078	51.597618
-15727.438830	5165.711667	1266.972656	68.634224
-15727.438830	5165.711667	1265.866211	22.651583
-15727.438830	5165.711667	1264.759766	154.990479
-15727.438830	5165.711667	1263.652344	60.817398
-15727.438830	5165.711667	1262.544922	77.394562
-15727.438830	5165.711667	1261.436523	83.496384
-15727.438830	5165.711667	1260.329102	5.214903
-15727.438830	5165.711667	1259.220703	-14.743095
-15727.438830	5165.711667	1258.112305	-92.240410
-15727.438830	5165.711667	1257.003906	-96.929138
-15727.438830	5165.711667	1255.895508	-41.396935
-15727.438830	5165.711667	1254.786133	-141.196014
-15727.438830	5165.711667	1253.676758	-107.923569
-15727.438830	5165.711667	1252.567383	-97.014412
-15727.438830	5165.711667	1251.458008	-37.521034
-15727.438830	5165.711667	1250.347656	-28.721222
-15727.438830	5165.711667	1249.237305	-166.992447
-15727.438830	5165.711667	1248.126953	-185.751968
-15727.438830	5165.711667	1247.016602	-146.919434
-15727.438830	5165.711667	1245.905273	-95.116356
-15727.438830	5165.711667	1244.793945	-23.854528
-15727.438830	5165.711667	1243.682617	-21.954979
-15727.438830	5165.711667	1242.571289	-125.607887
-15727.438830	5165.711667	1241.459961	-106.948250
-15727.438830	5165.711667	1240.347656	-7.364174
-15727.438830	5165.711667	1239.235352	-82.020271
-15727.438830	5165.711667	1238.123047	-10.687766
-15727.438830	5165.711667	1237.009766	-84.607780
-15727.438830	5165.711667	1235.897461	-26.874947
-15727.438830	5165.711667	1234.784180	14.975026
-15727.438830	5165.711667	1233.670898	23.055355
-15727.438830	5165.711667	1232.556641	24.568285
-15727.438830	5165.711667	1231.443359	64.503662
-15727.438830	5165.711667	1230.329102	7.083100
-15727.438830	5165.711667	1229.214844	25.582909
-15727.438830	5165.711667	1228.099609	-70.381088
-15727.438830	5165.711667	1226.985352	-44.059765
-15727.438830	5165.711667	1225.870117	-86.091850
-15727.438830	5165.711667	1224.754883	-30.437853
-15727.438830	5165.711667	1223.639648	-27.660000
-15727.438830	5165.711667	1222.523438	23.273062
-15727.438830	5165.711667	1221.408203	52.057251
-15727.438830	5165.711667	1220.291992	172.326294
-15727.438830	5165.711667	1219.174805	165.927155
-15727.438830	5165.711667	1218.058594	85.014236
-15727.438830	5165.711667	1216.941406	216.489349
-15727.438830	5165.711667	1215.824219	83.667374
-15727.438830	5165.711667	1214.707031	255.150665
-15727.438830	5165.711667	1213.589844	232.060593
-15727.438830	5165.711667	1212.471680	150.421188
-15727.438830	5165.711667	1211.353516	54.411610
-15727.438830	5165.711667	1210.235352	84.045830
-15727.438830	5165.711667	1209.117188	4.880775
-15727.438830	5165.711667	1207.998047	120.185577
-15727.438830	5165.711667	1206.878906	185.278595
-15727.438830	5165.711667	1205.759766	92.860329
-15727.438830	5165.711667	1204.640625	179.491592
-15727.438830	5165.711667	1203.520508	66.172501
-15727.438830	5165.711667	1202.401367	99.716255
-15727.438830	5165.711667	1201.281250	68.962082
-15727.438830	5165.711667	1200.160156	-33.218147
-15727.438830	5165.711667	1199.040039	123.904839
-15727.438830	5165.711667	1197.918945	136.091141
-15727.438830	5165.711667	1196.797852	32.927723
-15727.438830	5165.711667	1195.676758	29.399263
-15727.438830	5165.711667	1194.555664	93.012421
-15727.438830	5165.711667	1193.433594	32.347809
-15727.438830	5165.711667	1192.311523	-75.519775
-15727.438830	5165.711667	1191.189453	77.268852
-15727.438830	5165.711667	1190.066406	88.858276
-15727.438830	5165.711667	1188.944336	22.213230
-15727.438830	5165.711667	1187.821289	8.423314
-15727.438830	5165.711667	1186.698242	-52.011845
-15727.438830	5165.711667	1185.574219	10.879454
-15727.438830	5165.711667	1184.451172	50.192379
-15727.438830	5165.711667	1183.327148	-106.402458
-15727.438830	5165.711667	1182.203125	-30.427862
-15727.438830	5165.711667	1181.078125	31.917437
-15727.438830	5165.711667	1179.954102	-112.810387
-15727.438830	5165.711667	1178.829102	-42.451519
-15727.438830	5165.711667	1177.704102	-123.488197
-15727.438830	5165.711667	1176.579102	-30.414219
-15727.438830	5165.711667	1175.453125	-76.999634
-15727.438830	5165.711667	1174.327148	-50.724705
-15727.438830	5165.711667	1173.201172	-179.801483
-15727.438830	5165.711667	1172.075195	-13.611929
-15727.438830	5165.711667	1170.949219	-19.794870
-15727.438830	5165.711667	1169.822266	-10.469508
-15727.438830	5165.711667	1168.695313	-32.072098
-15727.438830	5165.711667	1167.568359	-75.635971
-15727.438830	5165.711667	1166.440430	14.143960
-15727.438830	5165.711667	1165.313477	-3.915637
-15727.438830	5165.711667	1164.185547	21.361465
-15727.438830	5165.711667	1163.057617	25.516603
-15727.438830	5165.711667	1161.928711	39.779640
-15727.438830	5165.711667	1160.800781	15.694871
-15727.438830	5165.711667	1159.671875	73.181618
-15727.438830	5165.711667	1158.541992	68.629379
-15727.438830	5165.711667	1157.413086	-34.497566
-15727.438830	5165.711667	1156.283203	-10.660316
-15727.438830	5165.711667	1155.154297	-39.118187
-15727.438830	5165.711667	1154.023438	-8.439796
-15727.438830	5165.711667	1152.893555	59.899319
-15727.438830	5165.711667	1151.763672	38.957596
-15727.438830	5165.711667	1150.632813	-17.521502
-15727.438830	5165.711667	1149.501953	61.564541
-15727.438830	5165.711667	1148.370117	33.949398
-15727.438830	5165.711667	1147.239258	67.656631
-15727.438830	5165.711667	1146.107422	21.984249
-15727.438830	5165.711667	1144.975586	172.576813
-15727.438830	5165.711667	1143.843750	73.071922
-15727.438830	5165.711667	1142.710938	127.166107
-15727.438830	5165.711667	1141.578125	236.676819
-15727.438830	5165.711667	1140.445313	316.463348
-15727.438830	5165.711667	1139.312500	317.725800
-15727.438830	5165.711667	1138.178711	289.891144
-15727.438830	5165.711667	1137.045898	207.866928
-15727.438830	5165.711667	1135.912109	201.395355
-15727.438830	5165.711667	1134.777344	150.422104
-15727.438830	5165.711667	1133.643555	57.036926
-15727.438830	5165.711667	1132.508789	148.681656
-15727.438830	5165.711667	1131.374023	128.111847
-15727.438830	5165.711667	1130.239258	-28.410357
-15727.438830	5165.711667	1129.104492	33.666248
-15727.438830	5165.711667	1127.968750	122.839828
-15727.438830	5165.711667	1126.833008	85.841095
-15727.438830	5165.711667	1125.697266	-6.975036
-15727.438830	5165.711667	1124.560547	33.142998
-15727.438830	5165.711667	1123.424805	39.524937
-15727.438830	5165.711667	1122.288086	63.477150
-15727.438830	5165.711667	1121.151367	183.971619
-15727.438830	5165.711667	1120.013672	-14.734273
-15727.438830	5165.711667	1118.876953	96.424660
-15727.438830	5165.711667	1117.739258	46.072094
-15727.438830	5165.711667	1116.601563	57.339729
-15727.438830	5165.711667	1115.462891	119.111862
-15727.438830	5165.711667	1114.324219	128.124222
-15727.438830	5165.711667	1113.186523	27.364084
-15727.438830	5165.711667	1112.046875	28.900311
-15727.438830	5165.711667	1110.908203	135.153717
-15727.438830	5165.711667	1109.769531	55.950481
-15727.438830	5165.711667	1108.629883	51.821796
-15727.438830	5165.711667	1107.490234	63.519115
-15727.438830	5165.711667	1106.349609	48.555550
-15727.438830	5165.711667	1105.209961	-1.807585
-15727.438830	5165.711667	1104.069336	7.839730
-15727.438830	5165.711667	1102.928711	58.175274
-15727.438830	5165.711667	1101.787109	-28.489052
-15727.438830	5165.711667	1100.646484	-13.091050
-15727.438830	5165.711667	1099.504883	71.484291
-15727.438830	5165.711667	1098.363281	18.439222
-15727.438830	5165.711667	1097.221680	24.584778
-15727.438830	5165.711667	1096.079102	55.747940
-15727.438830	5165.711667	1094.936523	-48.839699
-15727.438830	5165.711667	1093.793945	120.456635
-15727.438830	5165.711667	1092.651367	113.083229
-15727.438830	5165.711667	1091.507813	-10.703283
-15727.438830	5165.711667	1090.364258	-51.094101
-15727.438830	5165.711667	1089.220703	8.530413
-15727.438830	5165.711667	1088.077148	61.967148
-15727.438830	5165.711667	1086.933594	-14.672057
-15727.438830	5165.711667	1085.789063	73.227768
-15727.438830	5165.711667	1084.644531	70.058014
-15727.438830	5165.711667	1083.499023	-17.829058
-15727.438830	5165.711667	1082.354492	56.609154
-15727.438830	5165.711667	1081.208984	188.884750
-15727.438830	5165.711667	1080.063477	25.984900
-15727.438830	5165.711667	1078.917969	91.730415
-15727.438830	5165.711667	1077.771484	-61.975227
-15727.438830	5165.711667	1076.625977	40.184643
-15727.438830	5165.711667	1075.479492	-29.431791
-15727.438830	5165.711667	1074.332031	57.067562
-15727.438830	5165.711667	1073.185547	-56.415596
-15727.438830	5165.711667	1072.038086	-50.604691
-15727.438830	5165.711667	1070.890625	106.548080
-15727.438830	5165.711667	1069.743164	-22.623249
-15727.438830	5165.711667	1068.594727	77.574753
-15727.438830	5165.711667	1067.447266	-65.629433
-15727.438830	5165.711667	1066.298828	-21.948097
-15727.438830	5165.711667	1065.149414	69.694450
-15727.438830	5165.711667	1064.000977	-18.520586
-15727.438830	5165.711667	1062.851563	82.531822
-15727.438830	5165.711667	1061.702148	101.947449
-15727.438830	5165.711667	1060.552734	-42.438705
-15727.438830	5165.711667	1059.402344	76.139481
-15727.438830	5165.711667	1058.252930	105.222694
-15727.438830	5165.711667	1057.102539	3.701502
-15727.438830	5165.711667	1055.951172	-5.309335
-15727.438830	5165.711667	1054.800781	40.483402
-15727.438830	5165.711667	1053.649414	43.934551
-15727.438830	5165.711667	1052.498047	35.061859
-15727.438830	5165.711667	1051.346680	67.934723
-15727.438830	5165.711667	1050.194336	68.257164
-15727.438830	5165.711667	1049.042969	16.845953
-15727.438830	5165.711667	1047.890625	44.213539
-15727.438830	5165.711667	1046.738281	-38.248737
-15727.438830	5165.711667	1045.584961	33.992207
-15727.438830	5165.711667	1044.431641	-4.028229
-15727.438830	5165.711667	1043.278320	-53.013088
-15727.438830	5165.711667	1042.125000	-105.333382
-15727.438830	5165.711667	1040.971680	-6.656524
-15727.438830	5165.711667	1039.817383	92.396721
-15727.438830	5165.711667	1038.663086	57.161617
-15727.438830	5165.711667	1037.508789	-51.546318
-15727.438830	5165.711667	1036.353516	-5.374260
-15727.438830	5165.711667	1035.198242	-11.784752
-15727.438830	5165.711667	1034.042969	38.865849
-15727.438830	5165.711667	1032.887695	-94.250992
-15727.438830	5165.711667	1031.732422	-40.761150
-15727.438830	5165.711667	1030.576172	29.512362
-15727.438830	5165.711667	1029.419922	42.630497
-15727.438830	5165.711667	1028.263672	41.662201
-15727.438830	5165.711667	1027.106445	-21.662340
-15727.438830	5165.711667	1025.949219	89.902924
-15727.438830	5165.711667	1024.792969	107.012268
-15727.438830	5165.711667	1023.634766	-85.694244
-15727.438830	5165.711667	1022.477539	-42.135780
-15727.438830	5165.711667	1021.319336	76.223091
-15727.438830	5165.711667	1020.161133	-83.333931
-15727.438830	5165.711667	1019.002930	-15.696411
-15727.438830	5165.711667	1017.843750	50.648502
-15727.438830	5165.711667	1016.684570	31.244781
-15727.438830	5165.711667	1015.525391	-12.224371
-15727.438830	5165.711667	1014.366211	-62.199284
-15727.438830	5165.711667	1013.207031	-57.918629
-15727.438830	5165.711667	1012.046875	-33.672825
-15727.438830	5165.711667	1010.886719	41.993279
-15727.438830	5165.711667	1009.726563	89.257034
-15727.438830	5165.711667	1008.565430	-62.207169
-15727.438830	5165.711667	1007.404297	18.015335
-15727.438830	5165.711667	1006.243164	2.860678
-15727.438830	5165.711667	1005.082031	73.769882
-15727.438830	5165.711667	1003.920898	127.445198
-15727.438830	5165.711667	1002.758789	38.649849
-15727.438830	5165.711667	1001.596680	-43.212204
-15727.438830	5165.711667	1000.433594	142.661316
-15727.438830	5165.711667	999.271484	-22.010607
-15727.438830	5165.711667	998.108398	37.598156
-15727.438830	5165.711667	996.945313	18.662586
-15727.438830	5165.711667	995.782227	0.818532
-15727.438830	5165.711667	994.618164	-34.480896
-15727.438830	5165.711667	993.454102	29.449570
-15727.438830	5165.711667	992.290039	34.992844
-15727.438830	5165.711667	991.125977	93.762314
-15727.438830	5165.711667	989.960938	48.737431
-15727.438830	5165.711667	988.796875	38.541142
-15727.438830	5165.711667	987.630859	-69.555908
-15727.438830	5165.711667	986.465820	27.774471
-15727.438830	5165.711667	985.300781	3.786147
-15727.438830	5165.711667	984.134766	-147.831512
-15727.438830	5165.711667	982.968750	20.309965
-15727.438830	5165.711667	981.801758	97.296898
-15727.438830	5165.711667	980.635742	196.514542
-15727.438830	5165.711667	979.468750	27.844931
-15727.438830	5165.711667	978.301758	69.662872
-15727.438830	5165.711667	977.133789	-70.938492
-15727.438830	5165.711667	975.966797	-26.872683
-15727.438830	5165.711667	974.798828	-74.329498
-15727.438830	5165.711667	973.630859	-33.877472
-15727.438830	5165.711667	972.461914	79.635612
-15727.438830	5165.711667	971.293945	11.211781
-15727.438830	5165.711667	970.125000	-14.000907
-15727.438830	5165.711667	968.956055	-5.673987
-15727.438830	5165.711667	967.786133	99.832512
-15727.438830	5165.711667	966.617188	83.037277
-15727.438830	5165.711667	965.447266	95.371994
-15727.438830	5165.711667	964.276367	84.605797
-15727.438830	5165.711667	963.106445	21.815022
-15727.438830	5165.711667	961.935547	28.172043
-15727.438830	5165.711667	960.764648	25.808096
-15727.438830	5165.711667	959.593750	-45.326038
-15727.438830	5165.711667	958.422852	-21.484175
-15727.438830	5165.711667	957.250977	71.959442
-15727.438830	5165.711667	956.079102	-49.615879
-15727.438830	5165.711667	954.907227	40.375389
-15727.438830	5165.711667	953.734375	-38.342861
-15727.438830	5165.711667	952.562500	74.089478
-15727.438830	5165.711667	951.389648	-34.633820
-15727.438830	5165.711667	950.215820	-145.417953
-15727.438830	5165.711667	949.042969	-89.361794
-15727.438830	5165.711667	947.869141	45.802151
-15727.438830	5165.711667	946.695313	-21.680588
-15727.438830	5165.711667	945.521484	-66.343620
-15727.438830	5165.711667	944.346680	-122.615929
-15727.438830	5165.711667	943.172852	-25.523579
-15727.438830	5165.711667	941.998047	-140.785965
-15727.438830	5165.711667	940.822266	-21.469917
-15727.438830	5165.711667	939.647461	98.014740
-15727.438830	5165.711667	938.471680	-44.464016
-15727.438830	5165.711667	937.295898	-20.986303
-15727.438830	5165.711667	936.119141	-74.566597
-15727.438830	5165.711667	934.943359	-46.382771
-15727.438830	5165.711667	933.766602	98.193871
-15727.438830	5165.711667	932.589844	53.507034
-15727.438830	5165.711667	931.413086	63.509918
-15727.438830	5165.711667	930.235352	98.562538
-15727.438830	5165.711667	929.057617	3.808904
-15727.438830	5165.711667	927.879883	34.353573
-15727.438830	5165.711667	926.702148	-35.301926
-15727.438830	5165.711667	925.523438	-13.925046
-15727.438830	5165.711667	924.344727	-22.109066
-15727.438830	5165.711667	923.166016	8.373611
-15727.438830	5165.711667	921.987305	-90.823639
-15727.438830	5165.711667	920.807617	-21.674343
-15727.438830	5165.711667	919.627930	-19.835249
-15727.438830	5165.711667	919.497070	-2.379887
-15727.438830	5165.711667	918.331055	-44.706089
-15727.438830	5165.711667	917.165039	44.820290
-15727.438830	5165.711667	915.999023	-49.774834
-15727.438830	5165.711667	914.833008	-1.188681
-15727.438830	5165.711667	913.666016	31.474831
-15727.438830	5165.711667	912.499023	7.341177
-15727.438830	5165.711667	911.332031	-7.702394
-15727.438830	5165.711667	910.165039	-74.959564
-15727.438830	5165.711667	908.997070	-178.508865
-15727.438830	5165.711667	907.830078	-216.207291
-15727.438830	5165.711667	906.661133	-54.224621
-15727.438830	5165.711667	905.493164	32.828724
-15727.438830	5165.711667	904.325195	1.907386
-15727.438830	5165.711667	903.156250	61.699402
-15727.438830	5165.711667	901.987305	35.315609
-15727.438830	5165.711667	900.818359	-31.859692
-15727.438830	5165.711667	899.648438	-31.023739
-15727.438830	5165.711667	898.478516	-91.364037
-15727.438830	5165.711667	897.308594	-79.195496
-15727.438830	5165.711667	896.138672	7.703558
-15727.438830	5165.711667	894.968750	-45.822617
-15727.438830	5165.711667	893.797852	-83.481041
-15727.438830	5165.711667	892.626953	-5.694082
-15727.438830	5165.711667	891.456055	85.636414
-15727.438830	5165.711667	890.284180	2.718451
-15727.438830	5165.711667	889.113281	-21.357141
-15727.438830	5165.711667	887.941406	54.083939
-15727.438830	5165.711667	886.768555	-150.880692
-15727.438830	5165.711667	885.596680	-46.061539
-15727.438830	5165.711667	884.423828	-47.512856
-15727.438830	5165.711667	883.250977	36.901592
-15727.438830	5165.711667	882.078125	141.612457
-15727.438830	5165.711667	880.905273	-72.208878
-15727.438830	5165.711667	879.731445	-48.821262
-15727.438830	5165.711667	878.557617	12.937432
-15727.438830	5165.711667	877.383789	18.233681
-15727.438830	5165.711667	876.209961	-17.099529
-15727.438830	5165.711667	875.035156	-65.958260
-15727.438830	5165.711667	873.860352	7.024203
-15727.438830	5165.711667	872.685547	174.706223
-15727.438830	5165.711667	871.510742	80.728874
-15727.438830	5165.711667	870.334961	52.171669
-15727.438830	5165.711667	869.159180	10.099072
-15727.438830	5165.711667	867.983398	-167.181335
-15727.438830	5165.711667	866.807617	126.533028
-15727.438830	5165.711667	865.630859	-10.152948
-15727.438830	5165.711667	864.454102	91.958496
-15727.438830	5165.711667	863.277344	70.173470
-15727.438830	5165.711667	862.100586	68.656952
-15727.438830	5165.711667	860.922852	60.386372
-15727.438830	5165.711667	859.745117	108.376869
-15727.438830	5165.711667	858.567383	7.845180
-15727.438830	5165.711667	857.389648	-36.410408
-15727.438830	5165.711667	856.210938	-22.173731
-15727.438830	5165.711667	855.032227	1.047899
-15727.438830	5165.711667	853.853516	-7.217752
-15727.438830	5165.711667	852.674805	36.212841
-15727.438830	5165.711667	851.495117	75.129555
-15727.438830	5165.711667	850.315430	80.324394
-15727.438830	5165.711667	849.135742	22.617105
-15727.438830	5165.711667	847.956055	-57.529003
-15727.438830	5165.711667	846.775391	93.629532
-15727.438830	5165.711667	845.595703	56.147034
-15727.438830	5165.711667	844.415039	9.699478
-15727.438830	5165.711667	843.233398	-34.488144
-15727.438830	5165.711667	842.052734	35.757175
-15727.438830	5165.711667	840.871094	7.275425
-15727.438830	5165.711667	839.689453	64.019760
-15727.438830	5165.711667	838.506836	35.535851
-15727.438830	5165.711667	837.325195	-60.193222
-15727.438830	5165.711667	836.142578	-37.101437
-15727.438830	5165.711667	834.959961	-130.544220
-15727.438830	5165.711667	833.777344	-172.425980
-15727.438830	5165.711667	832.593750	-66.465225
-15727.438830	5165.711667	831.410156	-121.788399
-15727.438830	5165.711667	830.226563	113.965233
-15727.438830	5165.711667	829.042969	85.478180
-15727.438830	5165.711667	827.858398	41.332172
-15727.438830	5165.711667	826.673828	-22.939039
-15727.438830	5165.711667	825.489258	38.086296
-15727.438830	5165.711667	824.304688	125.920265
-15727.438830	5165.711667	823.120117	-101.586182
-15727.438830	5165.711667	821.934570	48.828346
-15727.438830	5165.711667	820.749023	87.412933
-15727.438830	5165.711667	819.562500	9.767830
-15727.438830	5165.711667	818.376953	-47.743885
-15727.438830	5165.711667	817.190430	-15.884012
-15727.438830	5165.711667	816.003906	-39.878544
-15727.438830	5165.711667	814.817383	-12.513261
-15727.438830	5165.711667	813.629883	-90.090797
-15727.438830	5165.711667	812.442383	10.916281
-15727.438830	5165.711667	811.254883	20.380882
-15727.438830	5165.711667	810.067383	116.846313
-15727.438830	5165.711667	808.878906	50.429832
-15727.438830	5165.711667	807.690430	-7.046670
-15727.438830	5165.711667	806.501953	-64.507668
-15727.438830	5165.711667	805.313477	-46.159363
-15727.438830	5165.711667	804.124023	27.893784
-15727.438830	5165.711667	802.934570	26.145065
-15727.438830	5165.711667	801.745117	11.020594
-15727.438830	5165.711667	800.555664	22.622261
-15727.438830	5165.711667	799.365234	-45.958141
-15727.438830	5165.711667	798.175781	-134.558990
-15727.438830	5165.711667	796.985352	-31.694786
-15727.438830	5165.711667	795.793945	77.794914
-15727.438830	5165.711667	794.603516	53.723160
-15727.438830	5165.711667	793.412109	54.123230
-15727.438830	5165.711667	792.220703	30.047073
-15727.438830	5165.711667	791.028320	-40.726089
-15727.438830	5165.711667	789.836914	19.689592
-15727.438830	5165.711667	788.644531	142.308777
-15727.438830	5165.711667	787.452148	15.965673
-15727.438830	5165.711667	786.258789	-21.460451
-15727.438830	5165.711667	785.066406	34.415836
-15727.438830	5165.711667	783.873047	32.513416
-15727.438830	5165.711667	782.679688	130.521988
-15727.438830	5165.711667	781.485352	-20.163105
-15727.438830	5165.711667	780.291992	11.204971
-15727.438830	5165.711667	779.097656	-19.586338
-15727.438830	5165.711667	777.903320	-114.717415
-15727.438830	5165.711667	776.708008	20.869640
-15727.438830	5165.711667	775.512695	45.501785
-15727.438830	5165.711667	774.318359	39.067535
-15727.438830	5165.711667	773.122070	54.793156
-15727.438830	5165.711667	771.926758	136.987640
-15727.438830	5165.711667	770.730469	146.011063
-15727.438830	5165.711667	769.534180	33.169888
-15727.438830	5165.711667	768.337891	157.360916
-15727.438830	5165.711667	767.141602	272.627899
-15727.438830	5165.711667	765.944336	60.157028
-15727.438830	5165.711667	764.747070	35.913067
-15727.438830	5165.711667	763.549805	97.975403
-15727.438830	5165.711667	762.351563	148.934982
-15727.438830	5165.711667	761.154297	144.552185
-15727.438830	5165.711667	759.956055	133.520798
-15727.438830	5165.711667	758.757813	115.845184
-15727.438830	5165.711667	757.558594	107.004433
-15727.438830	5165.711667	756.359375	102.572258
-15727.438830	5165.711667	755.160156	162.212036
-15727.438830	5165.711667	753.960938	157.737030
-15727.438830	5165.711667	752.761719	67.097260
-15727.438830	5165.711667	751.561523	133.282944
-15727.438830	5165.711667	750.361328	73.565155
-15727.438830	5165.711667	749.160156	77.875504
-15727.438830	5165.711667	747.959961	64.508820
-15727.438830	5165.711667	746.758789	68.783623
-15727.438830	5165.711667	745.557617	77.450981
-15727.438830	5165.711667	744.356445	37.570282
-15727.438830	5165.711667	743.154297	66.051582
-15727.438830	5165.711667	741.952148	187.104996
-15727.438830	5165.711667	740.750000	70.017929
-15727.438830	5165.711667	739.547852	186.574356
-15727.438830	5165.711667	738.344727	162.042679
-15727.438830	5165.711667	737.142578	0.916250
-15727.438830	5165.711667	735.939453	205.456665
-15727.438830	5165.711667	734.735352	90.592896
-15727.438830	5165.711667	733.532227	-63.872066
-15727.438830	5165.711667	732.328125	15.028378
-15727.438830	5165.711667	731.124023	10.249108
-15727.438830	5165.711667	729.918945	106.661942
-15727.438830	5165.711667	728.714844	42.429882
-15727.438830	5165.711667	727.509766	11.193706
-15727.438830	5165.711667	726.303711	127.272018
-15727.438830	5165.711667	725.098633	38.829899
-15727.438830	5165.711667	723.892578	128.435257
-15727.438830	5165.711667	722.686523	97.120247
-15727.438830	5165.711667	721.480469	52.614185
-15727.438830	5165.711667	720.274414	47.641983
-15727.438830	5165.711667	719.067383	49.237904
-15727.438830	5165.711667	717.860352	4.701761
-15727.438830	5165.711667	716.653320	19.430836
-15727.438830	5165.711667	715.445313	-86.577774
-15727.438830	5165.711667	714.238281	-19.220665
-15727.438830	5165.711667	713.030273	113.897881
-15727.438830	5165.711667	711.821289	-40.387878
-15727.438830	5165.711667	710.613281	-144.197586
-15727.438830	5165.711667	709.404297	-50.671257
-15727.438830	5165.711667	708.195313	7.720087
-15727.438830	5165.711667	706.986328	-4.065224
-15727.438830	5165.711667	705.776367	-57.499466
-15727.438830	5165.711667	704.566406	62.117790
-15727.438830	5165.711667	703.356445	-11.069077
-15727.438830	5165.711667	702.146484	27.421219
-15727.438830	5165.711667	700.935547	46.167110
-15727.438830	5165.711667	699.724609	-57.689476
-15727.438830	5165.711667	698.513672	13.533442
-15727.438830	5165.711667	697.302734	-70.634010
-15727.438830	5165.711667	696.090820	-8.239933
-15727.438830	5165.711667	694.878906	-50.869362
-15727.438830	5165.711667	693.666992	-124.116676
-15727.438830	5165.711667	692.455078	-31.227123
-15727.438830	5165.711667	691.242188	79.080704
-15727.438830	5165.711667	690.029297	49.472363
-15727.438830	5165.711667	688.816406	107.232872
-15727.438830	5165.711667	687.602539	84.128464
-15727.438830	5165.711667	686.389648	216.047211
-15727.438830	5165.711667	685.175781	70.615387
-15727.438830	5165.711667	683.960938	84.557442
-15727.438830	5165.711667	682.747070	-28.107067
-15727.438830	5165.711667	681.532227	53.430649
-15727.438830	5165.711667	680.317383	71.646393
-15727.438830	5165.711667	679.102539	52.750523
-15727.438830	5165.711667	677.886719	3.307927
-15727.438830	5165.711667	676.670898	67.216858
-15727.438830	5165.711667	675.455078	117.993332
-15727.438830	5165.711667	674.239258	16.184633
-15727.438830	5165.711667	673.022461	58.178333
-15727.438830	5165.711667	671.805664	19.533426
-15727.438830	5165.711667	670.588867	-80.099770
-15727.438830	5165.711667	669.372070	27.117542
-15727.438830	5165.711667	668.154297	138.613876
-15727.438830	5165.711667	666.936523	21.520102
-15727.438830	5165.711667	665.718750	58.932365
-15727.438830	5165.711667	664.500977	155.035660
-15727.438830	5165.711667	663.282227	107.521614
-15727.438830	5165.711667	662.063477	83.917702
-15727.438830	5165.711667	660.844727	34.205803
-15727.438830	5165.711667	659.625000	36.649754
-15727.438830	5165.711667	658.405273	54.275158
-15727.438830	5165.711667	657.185547	158.768997
-15727.438830	5165.711667	655.965820	59.002819
-15727.438830	5165.711667	654.745117	-45.095062
-15727.438830	5165.711667	653.525391	-10.216792
-15727.438830	5165.711667	652.303711	-38.338703
-15727.438830	5165.711667	651.083008	-64.307236
-15727.438830	5165.711667	649.861328	52.917252
-15727.438830	5165.711667	648.640625	72.438713
-15727.438830	5165.711667	647.417969	107.102333
-15727.438830	5165.711667	646.196289	-36.096226
-15727.438830	5165.711667	644.973633	28.868336
-15727.438830	5165.711667	643.750977	4.903794
-15727.438830	5165.711667	642.528320	26.429121
-15727.438830	5165.711667	641.305664	-114.585930
-15727.438830	5165.711667	640.082031	-6.456439
-15727.438830	5165.711667	638.858398	40.955944
-15727.438830	5165.711667	637.634766	112.136124
-15727.438830	5165.711667	636.410156	207.068771
-15727.438830	5165.711667	635.185547	-24.892822
-15727.438830	5165.711667	633.960938	67.804604
-15727.438830	5165.711667	632.736328	-40.770512
-15727.438830	5165.711667	631.510742	-186.102325
-15727.438830	5165.711667	630.285156	-32.968803
-15727.438830	5165.711667	629.059570	-70.195053
-15727.438830	5165.711667	627.833984	56.849380
-15727.438830	5165.711667	626.607422	8.753510
-15727.438830	5165.711667	625.380859	23.309320
-15727.438830	5165.711667	624.154297	74.553528
-15727.438830	5165.711667	622.927734	6.957431
-15727.438830	5165.711667	621.700195	174.728622
-15727.438830	5165.711667	620.472656	-7.341287
-15727.438830	5165.711667	619.245117	67.490494
-15727.438830	5165.711667	618.016602	112.048203
-15727.438830	5165.711667	616.788086	91.832520
-15727.438830	5165.711667	615.559570	-1.743335
-15727.438830	5165.711667	614.331055	12.521455
-15727.438830	5165.711667	613.101563	104.371964
-15727.438830	5165.711667	611.872070	30.166401
-15727.438830	5165.711667	610.642578	46.484013
-15727.438830	5165.711667	609.413086	15.361094
-15727.438830	5165.711667	608.182617	10.073414
-15727.438830	5165.711667	606.952148	-42.624237
-15727.438830	5165.711667	605.721680	10.188724
-15727.438830	5165.711667	604.491211	65.104759
-15727.438830	5165.711667	603.259766	3.734045
-15727.438830	5165.711667	602.028320	-14.597234
-15727.438830	5165.711667	600.796875	16.537872
-15727.438830	5165.711667	599.564453	-31.959982
-15727.438830	5165.711667	598.332031	9.863394
-15727.438830	5165.711667	597.099609	51.642483
-15727.438830	5165.711667	595.867188	20.286179
-15727.438830	5165.711667	594.633789	42.646744
-15727.438830	5165.711667	593.400391	17.697990
-15727.438830	5165.711667	592.166992	-45.936325
-15727.438830	5165.711667	590.933594	96.629768
-15727.438830	5165.711667	589.699219	-37.913651
-15727.438830	5165.711667	588.464844	-43.605358
-15727.438830	5165.711667	587.230469	-10.681455
-15727.438830	5165.711667	585.995117	-104.417717
-15727.438830	5165.711667	584.760742	40.027672
-15727.438830	5165.711667	583.525391	-6.534307
-15727.438830	5165.711667	582.289063	-57.392525
-15727.438830	5165.711667	581.053711	9.683629
-15727.438830	5165.711667	579.817383	-11.190766
-15727.438830	5165.711667	578.581055	83.660522
-15727.438830	5165.711667	577.343750	67.016800
-15727.438830	5165.711667	576.107422	-228.155350
-15727.438830	5165.711667	574.870117	50.819576
-15727.438830	5165.711667	573.631836	-102.933685
-15727.438830	5165.711667	572.394531	-40.394718
-15727.438830	5165.711667	571.156250	161.231506
-15727.438830	5165.711667	569.917969	37.449501
-15727.438830	5165.711667	568.679688	-37.088619
-15727.438830	5165.711667	567.440430	-4.656881
-15727.438830	5165.711667	566.202148	61.962551
-15727.438830	5165.711667	564.961914	-40.398247
-15727.438830	5165.711667	563.722656	-10.186020
-15727.438830	5165.711667	562.482422	-153.138641
-15727.438830	5165.711667	561.243164	18.082451
-15727.438830	5165.711667	560.001953	-11.622964
-15727.438830	5165.711667	558.761719	-17.836708
-15727.438830	5165.711667	557.520508	-6.984272
-15727.438830	5165.711667	556.279297	63.627491
-15727.438830	5165.711667	555.038086	53.074055
-15727.438830	5165.711667	553.795898	-17.253235
-15727.438830	5165.711667	552.554688	-2.215818
-15727.438830	5165.711667	551.311523	-74.672501
-15727.438830	5165.711667	550.069336	-78.862556
-15727.438830	5165.711667	548.826172	-70.276100
-15727.438830	5165.711667	547.583984	-53.180244
-15727.438830	5165.711667	546.339844	-61.690792
-15727.438830	5165.711667	545.096680	-87.259270
-15727.438830	5165.711667	543.852539	-76.616631
-15727.438830	5165.711667	542.608398	-149.067657
-15727.438830	5165.711667	541.364258	34.052948
-15727.438830	5165.711667	540.119141	51.001118
-15727.438830	5165.711667	538.875000	-10.832891
-15727.438830	5165.711667	537.628906	-38.608589
-15727.438830	5165.711667	536.383789	-70.640091
-15727.438830	5165.711667	535.137695	-75.018890
-15727.438830	5165.711667	533.892578	-121.945488
-15727.438830	5165.711667	532.645508	14.002505
-15727.438830	5165.711667	531.399414	9.566234
-15727.438830	5165.711667	530.152344	-99.035339
-15727.438830	5165.711667	528.905273	26.154772
-15727.438830	5165.711667	527.658203	2.554256
-15727.438830	5165.711667	526.410156	-33.796459
-15727.438830	5165.711667	525.163086	-101.997696
-15727.438830	5165.711667	523.914063	31.521603
-15727.438830	5165.711667	522.666016	-4.850294
-15727.438830	5165.711667	521.416992	-126.114830
-15727.438830	5165.711667	520.167969	-128.514221
-15727.438830	5165.711667	518.918945	-137.289063
-15727.438830	5165.711667	517.669922	-50.628201
-15727.438830	5165.711667	516.419922	78.390984
-15727.438830	5165.711667	515.169922	44.098522
-15727.438830	5165.711667	513.919922	88.234245
-15727.438830	5165.711667	512.668945	-157.987305
-15727.438830	5165.711667	511.417969	19.624718
-15727.438830	5165.711667	510.166992	-80.340279
-15727.438830	5165.711667	508.916016	126.804756
-15727.438830	5165.711667	507.664063	-79.032860
-15727.438830	5165.711667	506.412109	-45.587105
-15727.438830	5165.711667	505.160156	4.764558
-15727.438830	5165.711667	503.907227	21.224800
-15727.438830	5165.711667	502.655273	22.860334
-15727.438830	5165.711667	501.402344	-34.740902
-15727.438830	5165.711667	500.148438	93.752525
-15727.438830	5165.711667	498.895508	4.424894
-15727.438830	5165.711667	497.641602	27.146267
-15727.438830	5165.711667	496.387695	39.279739
-15727.438830	5165.711667	495.132813	49.279732
-15727.438830	5165.711667	493.878906	6.457562
-15727.438830	5165.711667	492.624023	75.566925
-15727.438830	5165.711667	491.368164	-51.730835
-15727.438830	5165.711667	490.113281	59.554298
-15727.438830	5165.711667	488.857422	42.034290
-15727.438830	5165.711667	487.601563	73.038429
-15727.438830	5165.711667	486.344727	213.711334
-15727.438830	5165.711667	485.088867	120.197281
-15727.438830	5165.711667	483.832031	83.639290
-15727.438830	5165.711667	482.575195	70.272842
-15727.438830	5165.711667	481.317383	86.401573
-15727.438830	5165.711667	480.059570	41.394215
-15727.438830	5165.711667	478.801758	51.168209
-15727.438830	5165.711667	477.543945	157.815292
-15727.438830	5165.711667	476.285156	148.567154
-15727.438830	5165.711667	475.027344	57.192501
-15727.438830	5165.711667	473.767578	20.563227
-15727.438830	5165.711667	472.508789	118.626396
-15727.438830	5165.711667	471.249023	-54.810989
-15727.438830	5165.711667	469.989258	-15.723151
-15727.438830	5165.711667	468.729492	103.248474
-15727.438830	5165.711667	467.469727	104.389168
-15727.438830	5165.711667	466.208984	187.492691
-15727.438830	5165.711667	464.948242	28.819565
-15727.438830	5165.711667	463.686523	160.181503
-15727.438830	5165.711667	462.425781	-40.490276
-15727.438830	5165.711667	461.164063	176.894791
-15727.438830	5165.711667	459.901367	257.649506
-15727.438830	5165.711667	458.639648	136.779282
-15727.438830	5165.711667	457.376953	28.520889
-15727.438830	5165.711667	456.114258	52.494053
-15727.438830	5165.711667	454.851563	179.236038
-15727.438830	5165.711667	453.587891	156.940277
-15727.438830	5165.711667	452.324219	138.811844
-15727.438830	5165.711667	451.060547	116.458145
-15727.438830	5165.711667	449.796875	205.184296
-15727.438830	5165.711667	448.532227	124.052040
-15727.438830	5165.711667	447.267578	84.821510
-15727.438830	5165.711667	446.002930	100.033951
-15727.438830	5165.711667	444.737305	159.175659
-15727.438830	5165.711667	443.471680	134.475876
-15727.438830	5165.711667	442.206055	25.986427
-15727.438830	5165.711667	440.940430	260.785400
-15727.438830	5165.711667	439.673828	122.904572
-15727.438830	5165.711667	438.407227	229.830399
-15727.438830	5165.711667	437.140625	248.790176
-15727.438830	5165.711667	435.873047	138.006256
-15727.438830	5165.711667	434.605469	83.662750
-15727.438830	5165.711667	433.337891	75.267509
-15727.438830	5165.711667	432.070313	112.788269
-15727.438830	5165.711667	430.801758	148.127014
-15727.438830	5165.711667	429.533203	89.361794
-15727.438830	5165.711667	428.264648	147.513809
-15727.438830	5165.711667	426.996094	136.646667
-15727.438830	5165.711667	425.726563	194.594894
-15727.438830	5165.711667	424.457031	120.927116
-15727.438830	5165.711667	423.186523	128.586456
-15727.438830	5165.711667	421.916992	192.488861
-15727.438830	5165.711667	420.646484	295.896881
-15727.438830	5165.711667	419.375977	219.802399
-15727.438830	5165.711667	418.104492	168.653702
-15727.438830	5165.711667	416.833008	142.436264
-15727.438830	5165.711667	415.561523	347.466766
-15727.438830	5165.711667	414.290039	266.819061
-15727.438830	5165.711667	413.017578	196.499786
-15727.438830	5165.711667	411.746094	111.513260
-15727.438830	5165.711667	410.472656	174.277145
-15727.438830	5165.711667	409.200195	145.282043
-15727.438830	5165.711667	407.926758	82.855110
-15727.438830	5165.711667	406.653320	16.153563
-15727.438830	5165.711667	405.379883	117.863777
-15727.438830	5165.711667	404.105469	217.295059
-15727.438830	5165.711667	402.831055	177.189499
-15727.438830	5165.711667	401.556641	166.051483
-15727.438830	5165.711667	400.282227	52.893578
-15727.438830	5165.711667	399.006836	134.972336
-15727.438830	5165.711667	397.731445	90.089355
-15727.438830	5165.711667	396.456055	169.691391
-15727.438830	5165.711667	395.179688	290.604980
-15727.438830	5165.711667	393.903320	199.468124
-15727.438830	5165.711667	392.626953	143.465927
-15727.438830	5165.711667	391.350586	172.384415
-15727.438830	5165.711667	390.073242	14.306259
-15727.438830	5165.711667	388.795898	198.409531
-15727.438830	5165.711667	387.518555	162.336227
-15727.438830	5165.711667	386.240234	242.174438
-15727.438830	5165.711667	384.961914	242.952316
-15727.438830	5165.711667	383.683594	193.734756
-15727.438830	5165.711667	382.405273	165.012268
-15727.438830	5165.711667	381.125977	109.098076
-15727.438830	5165.711667	379.846680	77.800201
-15727.438830	5165.711667	378.567383	85.592529
-15727.438830	5165.711667	377.287109	59.959511
-15727.438830	5165.711667	376.006836	-1.147214
-15727.438830	5165.711667	374.726563	92.706154
-15727.438830	5165.711667	373.446289	10.319461
-15727.438830	5165.711667	372.165039	186.250214
-15727.438830	5165.711667	370.883789	59.790527
-15727.438830	5165.711667	369.602539	21.974516
-15727.438830	5165.711667	368.320313	174.031708
-15727.438830	5165.711667	367.039063	25.956474
-15727.438830	5165.711667	365.755859	-21.176157
-15727.438830	5165.711667	364.473633	-50.054035
-15727.438830	5165.711667	363.190430	100.403458
-15727.438830	5165.711667	361.907227	-26.344240
-15727.438830	5165.711667	360.624023	15.874242
-15727.438830	5165.711667	359.340820	-74.459404
-15727.438830	5165.711667	358.056641	-47.549381
-15727.438830	5165.711667	356.772461	141.924896
-15727.438830	5165.711667	355.487305	31.717062
-15727.438830	5165.711667	354.202148	65.475990
-15727.438830	5165.711667	352.916992	86.374580
-15727.438830	5165.711667	351.631836	-18.982830
-15727.438830	5165.711667	350.346680	40.105968
-15727.438830	5165.711667	349.060547	12.091303
-15727.438830	5165.711667	347.774414	4.167971
-15727.438830	5165.711667	346.487305	-90.819038
-15727.438830	5165.711667	345.200195	-132.770874
-15727.438830	5165.711667	343.913086	-94.969055
-15727.438830	5165.711667	342.625977	14.286111
-15727.438830	5165.711667	341.338867	-130.241989
-15727.438830	5165.711667	340.050781	-203.315903
-15727.438830	5165.711667	338.762695	-15.719838
-15727.438830	5165.711667	337.473633	-83.897072
-15727.438830	5165.711667	336.184570	-2.590996
-15727.438830	5165.711667	334.895508	-78.233040
-15727.438830	5165.711667	333.606445	-64.091347
-15727.438830	5165.711667	332.317383	6.879603
-15727.438830	5165.711667	331.027344	17.498589
-15727.438830	5165.711667	329.736328	-151.347870
-15727.438830	5165.711667	328.446289	-82.636383
-15727.438830	5165.711667	327.155273	32.471264
-15727.438830	5165.711667	325.864258	-148.849731
-15727.438830	5165.711667	324.573242	1.562867
-15727.438830	5165.711667	323.281250	175.677124
-15727.438830	5165.711667	321.989258	78.089859
-15727.438830	5165.711667	320.697266	-10.067508
-15727.438830	5165.711667	319.405273	-92.922218
-15727.438830	5165.711667	318.112305	63.173855
-15727.438830	5165.711667	316.819336	109.646255
-15727.438830	5165.711667	315.526367	89.577599
-15727.438830	5165.711667	314.232422	17.299261
-15727.438830	5165.711667	312.938477	64.902756
-15727.438830	5165.711667	311.644531	-66.685738
-15727.438830	5165.711667	310.349609	158.992096
-15727.438830	5165.711667	309.054688	-21.771059
-15727.438830	5165.711667	307.759766	185.277924
-15727.438830	5165.711667	306.464844	112.875137
-15727.438830	5165.711667	305.168945	151.837280
-15727.438830	5165.711667	303.873047	195.758377
-15727.438830	5165.711667	302.577148	177.135925
-15727.438830	5165.711667	301.281250	177.753708
-15727.438830	5165.711667	299.984375	350.812256
