#X		#Y		#Wave		#Intensity
-15645.495213	5089.813333	1999.946289	-11.980735
-15645.495213	5089.813333	1998.981445	13.882141
-15645.495213	5089.813333	1998.017578	56.412395
-15645.495213	5089.813333	1997.052734	-49.707729
-15645.495213	5089.813333	1996.088867	2.834402
-15645.495213	5089.813333	1995.124023	25.679333
-15645.495213	5089.813333	1994.159180	-28.215319
-15645.495213	5089.813333	1993.193359	31.863785
-15645.495213	5089.813333	1992.228516	-7.066866
-15645.495213	5089.813333	1991.262695	-16.237286
-15645.495213	5089.813333	1990.296875	125.605019
-15645.495213	5089.813333	1989.331055	44.734428
-15645.495213	5089.813333	1988.365234	-23.698893
-15645.495213	5089.813333	1987.398438	-52.495796
-15645.495213	5089.813333	1986.432617	-63.935726
-15645.495213	5089.813333	1985.465820	117.523483
-15645.495213	5089.813333	1984.499023	9.705568
-15645.495213	5089.813333	1983.532227	-23.892456
-15645.495213	5089.813333	1982.565430	100.708382
-15645.495213	5089.813333	1981.597656	-120.618309
-15645.495213	5089.813333	1980.629883	78.114555
-15645.495213	5089.813333	1979.662109	22.403124
-15645.495213	5089.813333	1978.694336	8.714296
-15645.495213	5089.813333	1977.726563	66.650742
-15645.495213	5089.813333	1976.758789	80.152802
-15645.495213	5089.813333	1975.790039	29.499666
-15645.495213	5089.813333	1974.821289	-48.260750
-15645.495213	5089.813333	1973.852539	61.523655
-15645.495213	5089.813333	1972.883789	23.283573
-15645.495213	5089.813333	1971.915039	-69.184311
-15645.495213	5089.813333	1970.945313	43.049328
-15645.495213	5089.813333	1969.975586	49.246307
-15645.495213	5089.813333	1969.005859	119.536407
-15645.495213	5089.813333	1968.036133	37.020386
-15645.495213	5089.813333	1967.066406	-8.498345
-15645.495213	5089.813333	1966.096680	76.569542
-15645.495213	5089.813333	1965.125977	92.648201
-15645.495213	5089.813333	1964.155273	20.075724
-15645.495213	5089.813333	1963.184570	-32.768692
-15645.495213	5089.813333	1962.213867	20.259312
-15645.495213	5089.813333	1961.242188	16.663349
-15645.495213	5089.813333	1960.271484	0.767809
-15645.495213	5089.813333	1959.299805	-2.820035
-15645.495213	5089.813333	1958.328125	52.628399
-15645.495213	5089.813333	1957.356445	-12.450667
-15645.495213	5089.813333	1956.384766	-28.329729
-15645.495213	5089.813333	1955.412109	-39.288486
-15645.495213	5089.813333	1954.439453	-42.872204
-15645.495213	5089.813333	1953.467773	-112.809692
-15645.495213	5089.813333	1952.495117	114.575294
-15645.495213	5089.813333	1951.521484	-61.007954
-15645.495213	5089.813333	1950.548828	87.676575
-15645.495213	5089.813333	1949.575195	12.834215
-15645.495213	5089.813333	1948.601563	-3.062080
-15645.495213	5089.813333	1947.627930	-95.056847
-15645.495213	5089.813333	1946.654297	-42.221935
-15645.495213	5089.813333	1945.680664	125.915001
-15645.495213	5089.813333	1944.706055	114.883255
-15645.495213	5089.813333	1943.732422	44.976665
-15645.495213	5089.813333	1942.757813	48.659641
-15645.495213	5089.813333	1941.783203	-4.065398
-15645.495213	5089.813333	1940.807617	41.279835
-15645.495213	5089.813333	1939.833008	-11.446456
-15645.495213	5089.813333	1938.857422	-20.054054
-15645.495213	5089.813333	1937.881836	27.683685
-15645.495213	5089.813333	1936.906250	-27.497551
-15645.495213	5089.813333	1935.930664	-90.019043
-15645.495213	5089.813333	1934.955078	-64.373589
-15645.495213	5089.813333	1933.978516	-16.716427
-15645.495213	5089.813333	1933.001953	128.824738
-15645.495213	5089.813333	1932.025391	-29.186213
-15645.495213	5089.813333	1931.048828	33.076340
-15645.495213	5089.813333	1930.072266	-85.743118
-15645.495213	5089.813333	1929.094727	20.505093
-15645.495213	5089.813333	1928.118164	14.199946
-15645.495213	5089.813333	1927.140625	-97.261467
-15645.495213	5089.813333	1926.163086	160.453537
-15645.495213	5089.813333	1925.184570	-17.021944
-15645.495213	5089.813333	1924.207031	23.051071
-15645.495213	5089.813333	1923.228516	89.968048
-15645.495213	5089.813333	1922.250000	-14.158928
-15645.495213	5089.813333	1921.271484	3.857226
-15645.495213	5089.813333	1920.292969	2.313454
-15645.495213	5089.813333	1919.314453	-70.051392
-15645.495213	5089.813333	1918.334961	26.025370
-15645.495213	5089.813333	1917.355469	21.983368
-15645.495213	5089.813333	1916.375977	-33.318394
-15645.495213	5089.813333	1915.396484	-56.901524
-15645.495213	5089.813333	1914.416992	19.514637
-15645.495213	5089.813333	1913.436523	-48.005760
-15645.495213	5089.813333	1912.457031	67.356667
-15645.495213	5089.813333	1911.476563	70.513771
-15645.495213	5089.813333	1910.496094	76.088493
-15645.495213	5089.813333	1909.515625	149.877380
-15645.495213	5089.813333	1908.534180	65.245842
-15645.495213	5089.813333	1907.552734	53.708225
-15645.495213	5089.813333	1906.572266	83.562180
-15645.495213	5089.813333	1905.590820	62.247242
-15645.495213	5089.813333	1904.608398	143.176895
-15645.495213	5089.813333	1903.626953	12.279587
-15645.495213	5089.813333	1902.644531	-28.539198
-15645.495213	5089.813333	1901.663086	40.139046
-15645.495213	5089.813333	1900.680664	79.576950
-15645.495213	5089.813333	1899.698242	99.521507
-15645.495213	5089.813333	1898.714844	41.615822
-15645.495213	5089.813333	1897.732422	10.460211
-15645.495213	5089.813333	1896.749023	44.934372
-15645.495213	5089.813333	1895.765625	-71.320557
-15645.495213	5089.813333	1894.782227	96.775787
-15645.495213	5089.813333	1893.798828	109.289871
-15645.495213	5089.813333	1892.814453	82.911858
-15645.495213	5089.813333	1891.831055	27.380245
-15645.495213	5089.813333	1890.846680	81.124115
-15645.495213	5089.813333	1889.862305	-39.977703
-15645.495213	5089.813333	1888.877930	33.140541
-15645.495213	5089.813333	1887.892578	-129.204102
-15645.495213	5089.813333	1886.908203	36.073532
-15645.495213	5089.813333	1885.922852	7.185309
-15645.495213	5089.813333	1884.937500	-43.541096
-15645.495213	5089.813333	1883.952148	2.739157
-15645.495213	5089.813333	1882.965820	-35.882050
-15645.495213	5089.813333	1881.980469	-106.020294
-15645.495213	5089.813333	1880.994141	-59.810032
-15645.495213	5089.813333	1880.007813	-45.138332
-15645.495213	5089.813333	1879.021484	-35.335632
-15645.495213	5089.813333	1878.035156	-35.243835
-15645.495213	5089.813333	1877.047852	64.129257
-15645.495213	5089.813333	1876.061523	71.431961
-15645.495213	5089.813333	1875.074219	-25.392237
-15645.495213	5089.813333	1874.086914	-107.673882
-15645.495213	5089.813333	1873.098633	71.432945
-15645.495213	5089.813333	1872.111328	44.783482
-15645.495213	5089.813333	1871.123047	-8.486270
-15645.495213	5089.813333	1870.135742	88.214355
-15645.495213	5089.813333	1869.147461	-11.025093
-15645.495213	5089.813333	1868.158203	73.514259
-15645.495213	5089.813333	1867.169922	-28.135174
-15645.495213	5089.813333	1866.180664	-28.250620
-15645.495213	5089.813333	1865.192383	-4.214881
-15645.495213	5089.813333	1864.203125	-21.278873
-15645.495213	5089.813333	1863.213867	-113.236076
-15645.495213	5089.813333	1862.223633	-19.208239
-15645.495213	5089.813333	1861.234375	48.209309
-15645.495213	5089.813333	1860.244141	146.970383
-15645.495213	5089.813333	1859.253906	86.367996
-15645.495213	5089.813333	1858.263672	86.107895
-15645.495213	5089.813333	1857.273438	47.226894
-15645.495213	5089.813333	1856.282227	3.519181
-15645.495213	5089.813333	1855.291992	15.291945
-15645.495213	5089.813333	1854.300781	-59.770927
-15645.495213	5089.813333	1853.309570	33.956676
-15645.495213	5089.813333	1852.317383	28.797710
-15645.495213	5089.813333	1851.326172	-19.754251
-15645.495213	5089.813333	1850.333984	-24.927771
-15645.495213	5089.813333	1849.342773	99.990509
-15645.495213	5089.813333	1848.350586	-20.853031
-15645.495213	5089.813333	1847.357422	-79.047821
-15645.495213	5089.813333	1846.365234	12.059509
-15645.495213	5089.813333	1845.372070	76.636276
-15645.495213	5089.813333	1844.379883	64.154251
-15645.495213	5089.813333	1843.386719	25.191113
-15645.495213	5089.813333	1842.393555	75.256897
-15645.495213	5089.813333	1841.399414	103.639297
-15645.495213	5089.813333	1840.406250	-38.767227
-15645.495213	5089.813333	1839.412109	-22.420240
-15645.495213	5089.813333	1838.417969	80.464760
-15645.495213	5089.813333	1837.423828	41.473423
-15645.495213	5089.813333	1836.429688	-47.984871
-15645.495213	5089.813333	1835.434570	90.857002
-15645.495213	5089.813333	1834.440430	-37.037052
-15645.495213	5089.813333	1833.445313	8.051085
-15645.495213	5089.813333	1832.450195	74.727257
-15645.495213	5089.813333	1831.454102	59.727776
-15645.495213	5089.813333	1830.458984	47.127964
-15645.495213	5089.813333	1829.462891	0.917833
-15645.495213	5089.813333	1828.466797	36.308727
-15645.495213	5089.813333	1827.470703	-36.291443
-15645.495213	5089.813333	1826.474609	-106.474510
-15645.495213	5089.813333	1825.478516	10.437202
-15645.495213	5089.813333	1824.481445	-35.767052
-15645.495213	5089.813333	1823.484375	-67.577065
-15645.495213	5089.813333	1822.487305	39.646763
-15645.495213	5089.813333	1821.490234	0.629480
-15645.495213	5089.813333	1820.493164	117.369576
-15645.495213	5089.813333	1819.495117	123.853767
-15645.495213	5089.813333	1818.498047	166.259583
-15645.495213	5089.813333	1817.500000	175.112991
-15645.495213	5089.813333	1816.500977	37.899536
-15645.495213	5089.813333	1815.502930	104.214233
-15645.495213	5089.813333	1814.504883	196.825058
-15645.495213	5089.813333	1813.505859	74.024338
-15645.495213	5089.813333	1812.506836	183.339447
-15645.495213	5089.813333	1811.507813	89.280815
-15645.495213	5089.813333	1810.508789	88.525879
-15645.495213	5089.813333	1809.508789	128.413345
-15645.495213	5089.813333	1808.508789	106.121475
-15645.495213	5089.813333	1807.508789	50.369194
-15645.495213	5089.813333	1806.508789	169.090775
-15645.495213	5089.813333	1805.508789	134.842529
-15645.495213	5089.813333	1804.508789	69.547012
-15645.495213	5089.813333	1803.507813	104.584908
-15645.495213	5089.813333	1802.506836	101.397659
-15645.495213	5089.813333	1801.505859	186.547455
-15645.495213	5089.813333	1800.504883	102.176056
-15645.495213	5089.813333	1799.502930	249.336990
-15645.495213	5089.813333	1798.501953	-21.146069
-15645.495213	5089.813333	1797.500000	-45.799107
-15645.495213	5089.813333	1796.498047	-118.152336
-15645.495213	5089.813333	1795.496094	-52.158710
-15645.495213	5089.813333	1794.493164	35.264065
-15645.495213	5089.813333	1793.491211	-10.847923
-15645.495213	5089.813333	1792.488281	33.625820
-15645.495213	5089.813333	1791.485352	-12.475791
-15645.495213	5089.813333	1790.482422	65.333252
-15645.495213	5089.813333	1789.478516	19.237284
-15645.495213	5089.813333	1788.475586	-45.895088
-15645.495213	5089.813333	1787.471680	31.868624
-15645.495213	5089.813333	1786.467773	-64.197113
-15645.495213	5089.813333	1785.463867	6.396620
-15645.495213	5089.813333	1784.459961	-77.730881
-15645.495213	5089.813333	1783.455078	38.043186
-15645.495213	5089.813333	1782.450195	18.170044
-15645.495213	5089.813333	1781.445313	69.659599
-15645.495213	5089.813333	1780.440430	37.896286
-15645.495213	5089.813333	1779.435547	27.542830
-15645.495213	5089.813333	1778.429688	-18.466923
-15645.495213	5089.813333	1777.424805	123.304947
-15645.495213	5089.813333	1776.418945	-5.875589
-15645.495213	5089.813333	1775.413086	-58.980667
-15645.495213	5089.813333	1774.406250	32.830780
-15645.495213	5089.813333	1773.400391	-6.011161
-15645.495213	5089.813333	1772.393555	43.015350
-15645.495213	5089.813333	1771.386719	-97.898262
-15645.495213	5089.813333	1770.379883	22.335529
-15645.495213	5089.813333	1769.373047	-73.429626
-15645.495213	5089.813333	1768.365234	32.517448
-15645.495213	5089.813333	1767.358398	-75.072388
-15645.495213	5089.813333	1766.350586	23.721647
-15645.495213	5089.813333	1765.342773	13.398572
-15645.495213	5089.813333	1764.334961	-98.866203
-15645.495213	5089.813333	1763.326172	-66.493813
-15645.495213	5089.813333	1762.318359	22.749969
-15645.495213	5089.813333	1761.309570	-70.493851
-15645.495213	5089.813333	1760.300781	182.183884
-15645.495213	5089.813333	1759.291016	91.315170
-15645.495213	5089.813333	1758.282227	-125.026932
-15645.495213	5089.813333	1757.272461	122.785416
-15645.495213	5089.813333	1756.262695	62.761463
-15645.495213	5089.813333	1755.252930	144.771423
-15645.495213	5089.813333	1754.243164	177.059540
-15645.495213	5089.813333	1753.233398	-46.181221
-15645.495213	5089.813333	1752.222656	68.924904
-15645.495213	5089.813333	1751.211914	53.914471
-15645.495213	5089.813333	1750.201172	76.746063
-15645.495213	5089.813333	1749.190430	-2.085583
-15645.495213	5089.813333	1748.179688	98.755066
-15645.495213	5089.813333	1747.167969	142.840561
-15645.495213	5089.813333	1746.156250	108.941795
-15645.495213	5089.813333	1745.144531	27.813261
-15645.495213	5089.813333	1744.132813	123.858360
-15645.495213	5089.813333	1743.121094	132.498566
-15645.495213	5089.813333	1742.108398	6.561821
-15645.495213	5089.813333	1741.095703	112.007462
-15645.495213	5089.813333	1740.083008	5.010863
-15645.495213	5089.813333	1739.070313	-14.634923
-15645.495213	5089.813333	1738.057617	57.737659
-15645.495213	5089.813333	1737.043945	40.453632
-15645.495213	5089.813333	1736.030273	93.927879
-15645.495213	5089.813333	1735.016602	53.074047
-15645.495213	5089.813333	1734.002930	160.753540
-15645.495213	5089.813333	1732.989258	-94.567764
-15645.495213	5089.813333	1731.974609	-83.509148
-15645.495213	5089.813333	1730.959961	94.826172
-15645.495213	5089.813333	1729.945313	-44.902073
-15645.495213	5089.813333	1728.930664	43.872589
-15645.495213	5089.813333	1727.916016	-86.364433
-15645.495213	5089.813333	1726.900391	11.809098
-15645.495213	5089.813333	1725.885742	-10.089766
-15645.495213	5089.813333	1724.870117	45.681820
-15645.495213	5089.813333	1723.853516	26.143456
-15645.495213	5089.813333	1722.837891	143.059235
-15645.495213	5089.813333	1721.822266	45.907539
-15645.495213	5089.813333	1720.805664	-138.209671
-15645.495213	5089.813333	1719.789063	30.407019
-15645.495213	5089.813333	1718.772461	69.681511
-15645.495213	5089.813333	1717.754883	-17.964415
-15645.495213	5089.813333	1716.738281	-13.930817
-15645.495213	5089.813333	1715.720703	81.725441
-15645.495213	5089.813333	1714.703125	1.190575
-15645.495213	5089.813333	1713.685547	16.974400
-15645.495213	5089.813333	1712.667969	93.803520
-15645.495213	5089.813333	1711.649414	95.487938
-15645.495213	5089.813333	1710.630859	10.338354
-15645.495213	5089.813333	1709.612305	-63.040211
-15645.495213	5089.813333	1708.593750	11.420156
-15645.495213	5089.813333	1707.575195	-59.572990
-15645.495213	5089.813333	1706.555664	10.177099
-15645.495213	5089.813333	1705.536133	-93.605827
-15645.495213	5089.813333	1704.516602	39.432758
-15645.495213	5089.813333	1703.497070	13.043377
-15645.495213	5089.813333	1702.477539	17.134754
-15645.495213	5089.813333	1701.457031	-27.973776
-15645.495213	5089.813333	1700.437500	-44.946659
-15645.495213	5089.813333	1699.416992	-8.041740
-15645.495213	5089.813333	1698.395508	10.120915
-15645.495213	5089.813333	1697.375000	103.201523
-15645.495213	5089.813333	1696.354492	186.889542
-15645.495213	5089.813333	1695.333008	125.454056
-15645.495213	5089.813333	1694.311523	5.552809
-15645.495213	5089.813333	1693.290039	72.852814
-15645.495213	5089.813333	1692.267578	32.541618
-15645.495213	5089.813333	1691.246094	99.823303
-15645.495213	5089.813333	1690.223633	15.112996
-15645.495213	5089.813333	1689.201172	89.396034
-15645.495213	5089.813333	1688.178711	7.070390
-15645.495213	5089.813333	1687.155273	-54.189537
-15645.495213	5089.813333	1686.132813	-14.959533
-15645.495213	5089.813333	1685.109375	143.383606
-15645.495213	5089.813333	1684.085938	-25.271996
-15645.495213	5089.813333	1683.062500	-18.740763
-15645.495213	5089.813333	1682.039063	50.823505
-15645.495213	5089.813333	1681.014648	78.354530
-15645.495213	5089.813333	1679.990234	194.554871
-15645.495213	5089.813333	1678.965820	173.066605
-15645.495213	5089.813333	1677.941406	226.236954
-15645.495213	5089.813333	1676.916992	118.473618
-15645.495213	5089.813333	1675.891602	283.567780
-15645.495213	5089.813333	1674.866211	173.515396
-15645.495213	5089.813333	1673.840820	121.782806
-15645.495213	5089.813333	1672.815430	272.818756
-15645.495213	5089.813333	1671.790039	204.790695
-15645.495213	5089.813333	1670.763672	183.383423
-15645.495213	5089.813333	1669.737305	201.584564
-15645.495213	5089.813333	1668.710938	215.128494
-15645.495213	5089.813333	1667.684570	340.423431
-15645.495213	5089.813333	1666.658203	246.876099
-15645.495213	5089.813333	1665.630859	151.042419
-15645.495213	5089.813333	1664.603516	232.087204
-15645.495213	5089.813333	1663.576172	310.781464
-15645.495213	5089.813333	1662.548828	242.922089
-15645.495213	5089.813333	1661.520508	298.341827
-15645.495213	5089.813333	1660.493164	237.499207
-15645.495213	5089.813333	1659.464844	302.210632
-15645.495213	5089.813333	1658.436523	269.291779
-15645.495213	5089.813333	1657.408203	343.280243
-15645.495213	5089.813333	1656.378906	238.359909
-15645.495213	5089.813333	1655.350586	265.884705
-15645.495213	5089.813333	1654.321289	246.958267
-15645.495213	5089.813333	1653.291992	316.275574
-15645.495213	5089.813333	1652.261719	369.322327
-15645.495213	5089.813333	1651.232422	294.704834
-15645.495213	5089.813333	1650.202148	287.416382
-15645.495213	5089.813333	1649.171875	331.177887
-15645.495213	5089.813333	1648.141602	319.259827
-15645.495213	5089.813333	1647.111328	286.480560
-15645.495213	5089.813333	1646.080078	381.247681
-15645.495213	5089.813333	1645.049805	357.756287
-15645.495213	5089.813333	1644.018555	438.579834
-15645.495213	5089.813333	1642.987305	373.386444
-15645.495213	5089.813333	1641.955078	454.188202
-15645.495213	5089.813333	1640.923828	467.789978
-15645.495213	5089.813333	1639.891602	509.184326
-15645.495213	5089.813333	1638.859375	469.525085
-15645.495213	5089.813333	1637.827148	418.312744
-15645.495213	5089.813333	1636.794922	313.890106
-15645.495213	5089.813333	1635.761719	443.247833
-15645.495213	5089.813333	1634.729492	283.345001
-15645.495213	5089.813333	1633.696289	347.900269
-15645.495213	5089.813333	1632.662109	454.066956
-15645.495213	5089.813333	1631.628906	439.955994
-15645.495213	5089.813333	1630.594727	458.223083
-15645.495213	5089.813333	1629.561523	520.410706
-15645.495213	5089.813333	1628.527344	501.692261
-15645.495213	5089.813333	1627.493164	517.647705
-15645.495213	5089.813333	1626.458008	413.473480
-15645.495213	5089.813333	1625.423828	447.931183
-15645.495213	5089.813333	1624.388672	530.875854
-15645.495213	5089.813333	1623.353516	431.398285
-15645.495213	5089.813333	1622.318359	431.226501
-15645.495213	5089.813333	1621.282227	509.529510
-15645.495213	5089.813333	1620.247070	442.440033
-15645.495213	5089.813333	1619.210938	366.154449
-15645.495213	5089.813333	1618.174805	400.620453
-15645.495213	5089.813333	1617.137695	289.793213
-15645.495213	5089.813333	1616.101563	379.611023
-15645.495213	5089.813333	1615.064453	218.129730
-15645.495213	5089.813333	1614.027344	423.178345
-15645.495213	5089.813333	1612.990234	310.156311
-15645.495213	5089.813333	1611.953125	270.909760
-15645.495213	5089.813333	1610.916016	379.105225
-15645.495213	5089.813333	1609.877930	206.299957
-15645.495213	5089.813333	1608.839844	252.310242
-15645.495213	5089.813333	1607.801758	155.579941
-15645.495213	5089.813333	1606.763672	344.297485
-15645.495213	5089.813333	1605.724609	293.623718
-15645.495213	5089.813333	1604.685547	208.465714
-15645.495213	5089.813333	1603.646484	254.464554
-15645.495213	5089.813333	1602.607422	215.358047
-15645.495213	5089.813333	1601.568359	337.231628
-15645.495213	5089.813333	1600.528320	272.848724
-15645.495213	5089.813333	1599.489258	314.230347
-15645.495213	5089.813333	1598.449219	348.707031
-15645.495213	5089.813333	1597.408203	321.141602
-15645.495213	5089.813333	1596.368164	413.046295
-15645.495213	5089.813333	1595.327148	383.196442
-15645.495213	5089.813333	1594.287109	268.404572
-15645.495213	5089.813333	1593.246094	392.427551
-15645.495213	5089.813333	1592.204102	539.361023
-15645.495213	5089.813333	1591.163086	470.524414
-15645.495213	5089.813333	1590.121094	465.965546
-15645.495213	5089.813333	1589.079102	415.535217
-15645.495213	5089.813333	1588.037109	624.303772
-15645.495213	5089.813333	1586.995117	450.048523
-15645.495213	5089.813333	1585.953125	550.987732
-15645.495213	5089.813333	1584.910156	704.614441
-15645.495213	5089.813333	1583.867188	601.510376
-15645.495213	5089.813333	1582.824219	704.672546
-15645.495213	5089.813333	1581.781250	711.584839
-15645.495213	5089.813333	1580.737305	668.110962
-15645.495213	5089.813333	1579.693359	862.818420
-15645.495213	5089.813333	1578.649414	759.819031
-15645.495213	5089.813333	1577.605469	789.633240
-15645.495213	5089.813333	1576.561523	949.894470
-15645.495213	5089.813333	1575.516602	1094.082031
-15645.495213	5089.813333	1574.472656	956.829895
-15645.495213	5089.813333	1573.427734	1114.697510
-15645.495213	5089.813333	1572.381836	1128.438843
-15645.495213	5089.813333	1571.336914	1089.595947
-15645.495213	5089.813333	1570.291016	1112.494873
-15645.495213	5089.813333	1569.246094	1327.373657
-15645.495213	5089.813333	1568.200195	1359.371582
-15645.495213	5089.813333	1567.153320	1336.532471
-15645.495213	5089.813333	1566.107422	1226.913330
-15645.495213	5089.813333	1565.060547	1147.031250
-15645.495213	5089.813333	1564.013672	1313.778687
-15645.495213	5089.813333	1562.966797	1462.205811
-15645.495213	5089.813333	1561.919922	1471.357666
-15645.495213	5089.813333	1560.872070	1368.699341
-15645.495213	5089.813333	1559.825195	1387.006592
-15645.495213	5089.813333	1558.777344	1218.270630
-15645.495213	5089.813333	1557.729492	1309.591797
-15645.495213	5089.813333	1556.680664	1337.040161
-15645.495213	5089.813333	1555.632813	1202.630371
-15645.495213	5089.813333	1554.583984	1207.311401
-15645.495213	5089.813333	1553.535156	968.170471
-15645.495213	5089.813333	1552.486328	1070.878052
-15645.495213	5089.813333	1551.436523	1146.217529
-15645.495213	5089.813333	1550.387695	877.645081
-15645.495213	5089.813333	1549.337891	775.404175
-15645.495213	5089.813333	1548.288086	921.351746
-15645.495213	5089.813333	1547.238281	800.948608
-15645.495213	5089.813333	1546.187500	814.861450
-15645.495213	5089.813333	1545.136719	721.842651
-15645.495213	5089.813333	1544.086914	756.253845
-15645.495213	5089.813333	1543.035156	663.297607
-15645.495213	5089.813333	1541.984375	706.816284
-15645.495213	5089.813333	1540.933594	757.146057
-15645.495213	5089.813333	1539.881836	677.904724
-15645.495213	5089.813333	1538.830078	648.697083
-15645.495213	5089.813333	1537.778320	746.742981
-15645.495213	5089.813333	1536.725586	708.461426
-15645.495213	5089.813333	1535.673828	588.442017
-15645.495213	5089.813333	1534.621094	507.078613
-15645.495213	5089.813333	1533.568359	452.998535
-15645.495213	5089.813333	1532.515625	371.709595
-15645.495213	5089.813333	1531.461914	310.883423
-15645.495213	5089.813333	1530.409180	295.468323
-15645.495213	5089.813333	1529.355469	363.999420
-15645.495213	5089.813333	1528.301758	230.658142
-15645.495213	5089.813333	1527.247070	165.403748
-15645.495213	5089.813333	1526.193359	204.470612
-15645.495213	5089.813333	1525.138672	243.529663
-15645.495213	5089.813333	1524.083984	196.464462
-15645.495213	5089.813333	1523.029297	149.425903
-15645.495213	5089.813333	1521.974609	265.517029
-15645.495213	5089.813333	1520.918945	64.487152
-15645.495213	5089.813333	1519.863281	203.208588
-15645.495213	5089.813333	1518.807617	262.643738
-15645.495213	5089.813333	1517.751953	236.049469
-15645.495213	5089.813333	1516.696289	268.313965
-15645.495213	5089.813333	1515.639648	198.754471
-15645.495213	5089.813333	1514.583008	237.815506
-15645.495213	5089.813333	1513.526367	401.264679
-15645.495213	5089.813333	1512.469727	544.306091
-15645.495213	5089.813333	1511.412109	481.561218
-15645.495213	5089.813333	1510.355469	398.506409
-15645.495213	5089.813333	1509.297852	570.866028
-15645.495213	5089.813333	1508.240234	603.076782
-15645.495213	5089.813333	1507.181641	479.407593
-15645.495213	5089.813333	1506.124023	459.692169
-15645.495213	5089.813333	1505.065430	543.867432
-15645.495213	5089.813333	1504.006836	449.658447
-15645.495213	5089.813333	1502.948242	400.640564
-15645.495213	5089.813333	1501.888672	365.190643
-15645.495213	5089.813333	1500.830078	311.712585
-15645.495213	5089.813333	1499.770508	170.283051
-15645.495213	5089.813333	1498.710938	171.012878
-15645.495213	5089.813333	1497.650391	205.574951
-15645.495213	5089.813333	1496.590820	255.914642
-15645.495213	5089.813333	1495.530273	209.315125
-15645.495213	5089.813333	1494.469727	180.772049
-15645.495213	5089.813333	1493.409180	289.695587
-15645.495213	5089.813333	1492.348633	198.086731
-15645.495213	5089.813333	1491.287109	288.961639
-15645.495213	5089.813333	1490.225586	289.733398
-15645.495213	5089.813333	1489.164063	315.279480
-15645.495213	5089.813333	1488.102539	419.608673
-15645.495213	5089.813333	1487.041016	472.142395
-15645.495213	5089.813333	1485.978516	549.414429
-15645.495213	5089.813333	1484.916016	606.397339
-15645.495213	5089.813333	1483.853516	523.955933
-15645.495213	5089.813333	1482.791016	506.749908
-15645.495213	5089.813333	1481.727539	671.659241
-15645.495213	5089.813333	1480.664063	443.159943
-15645.495213	5089.813333	1479.600586	356.342377
-15645.495213	5089.813333	1478.537109	384.149414
-15645.495213	5089.813333	1477.473633	315.375488
-15645.495213	5089.813333	1476.409180	100.670189
-15645.495213	5089.813333	1475.344727	243.042694
-15645.495213	5089.813333	1474.280273	194.603348
-15645.495213	5089.813333	1473.215820	179.836075
-15645.495213	5089.813333	1472.151367	180.724258
-15645.495213	5089.813333	1471.085938	215.319412
-15645.495213	5089.813333	1470.020508	211.774170
-15645.495213	5089.813333	1468.955078	91.732628
-15645.495213	5089.813333	1467.888672	121.901535
-15645.495213	5089.813333	1466.823242	160.939163
-15645.495213	5089.813333	1465.756836	184.272278
-15645.495213	5089.813333	1464.690430	136.216064
-15645.495213	5089.813333	1463.624023	38.616268
-15645.495213	5089.813333	1462.556641	77.818367
-15645.495213	5089.813333	1461.490234	65.523521
-15645.495213	5089.813333	1460.422852	17.342627
-15645.495213	5089.813333	1459.355469	145.978073
-15645.495213	5089.813333	1458.287109	160.413574
-15645.495213	5089.813333	1457.219727	61.097286
-15645.495213	5089.813333	1456.151367	146.835968
-15645.495213	5089.813333	1455.083008	81.141556
-15645.495213	5089.813333	1454.014648	177.799698
-15645.495213	5089.813333	1452.945313	101.377159
-15645.495213	5089.813333	1451.876953	71.135956
-15645.495213	5089.813333	1450.807617	-3.717128
-15645.495213	5089.813333	1449.738281	69.653496
-15645.495213	5089.813333	1448.668945	-49.564655
-15645.495213	5089.813333	1447.598633	127.368568
-15645.495213	5089.813333	1446.528320	-3.222491
-15645.495213	5089.813333	1445.458008	68.796936
-15645.495213	5089.813333	1444.387695	12.867789
-15645.495213	5089.813333	1443.317383	116.579910
-15645.495213	5089.813333	1442.246094	8.726727
-15645.495213	5089.813333	1441.174805	-39.077923
-15645.495213	5089.813333	1440.103516	5.129837
-15645.495213	5089.813333	1439.032227	116.551682
-15645.495213	5089.813333	1437.960938	-13.578017
-15645.495213	5089.813333	1436.888672	91.784210
-15645.495213	5089.813333	1435.816406	62.871304
-15645.495213	5089.813333	1434.744141	-4.337238
-15645.495213	5089.813333	1433.670898	45.212811
-15645.495213	5089.813333	1432.598633	35.299255
-15645.495213	5089.813333	1431.525391	37.798618
-15645.495213	5089.813333	1430.452148	65.111763
-15645.495213	5089.813333	1429.378906	-25.250078
-15645.495213	5089.813333	1428.304688	-64.947960
-15645.495213	5089.813333	1427.231445	-31.645092
-15645.495213	5089.813333	1426.157227	-67.682632
-15645.495213	5089.813333	1425.083008	-184.895126
-15645.495213	5089.813333	1424.007813	-139.888901
-15645.495213	5089.813333	1422.933594	-122.134369
-15645.495213	5089.813333	1421.858398	37.490757
-15645.495213	5089.813333	1420.783203	-13.031204
-15645.495213	5089.813333	1419.708008	-160.033264
-15645.495213	5089.813333	1418.631836	89.128792
-15645.495213	5089.813333	1417.555664	-43.897236
-15645.495213	5089.813333	1416.479492	-46.504898
-15645.495213	5089.813333	1415.403320	-40.643417
-15645.495213	5089.813333	1414.327148	68.671585
-15645.495213	5089.813333	1413.250000	-157.008911
-15645.495213	5089.813333	1412.173828	-18.710192
-15645.495213	5089.813333	1411.096680	-45.508038
-15645.495213	5089.813333	1410.018555	110.000420
-15645.495213	5089.813333	1408.941406	82.968529
-15645.495213	5089.813333	1407.863281	72.323036
-15645.495213	5089.813333	1406.785156	105.625710
-15645.495213	5089.813333	1405.707031	30.146082
-15645.495213	5089.813333	1404.628906	85.982780
-15645.495213	5089.813333	1403.549805	176.430023
-15645.495213	5089.813333	1402.470703	29.019773
-15645.495213	5089.813333	1401.391602	189.037659
-15645.495213	5089.813333	1400.312500	123.410942
-15645.495213	5089.813333	1399.233398	49.746521
-15645.495213	5089.813333	1398.153320	6.907525
-15645.495213	5089.813333	1397.073242	-49.908127
-15645.495213	5089.813333	1395.993164	-91.159424
-15645.495213	5089.813333	1394.913086	-132.325378
-15645.495213	5089.813333	1393.832031	-133.576065
-15645.495213	5089.813333	1392.750977	36.625301
-15645.495213	5089.813333	1391.669922	45.155643
-15645.495213	5089.813333	1390.588867	-157.879089
-15645.495213	5089.813333	1389.506836	66.012199
-15645.495213	5089.813333	1388.425781	55.250607
-15645.495213	5089.813333	1387.343750	50.195797
-15645.495213	5089.813333	1386.261719	-27.697069
-15645.495213	5089.813333	1385.178711	38.458168
-15645.495213	5089.813333	1384.096680	-92.617195
-15645.495213	5089.813333	1383.013672	24.458069
-15645.495213	5089.813333	1381.930664	57.493572
-15645.495213	5089.813333	1380.846680	30.334988
-15645.495213	5089.813333	1379.763672	47.533600
-15645.495213	5089.813333	1378.679688	114.075218
-15645.495213	5089.813333	1377.595703	131.059937
-15645.495213	5089.813333	1376.511719	163.933044
-15645.495213	5089.813333	1375.427734	140.744812
-15645.495213	5089.813333	1374.342773	20.971329
-15645.495213	5089.813333	1373.257813	91.206810
-15645.495213	5089.813333	1372.172852	224.893112
-15645.495213	5089.813333	1371.087891	169.260208
-15645.495213	5089.813333	1370.001953	97.250999
-15645.495213	5089.813333	1368.916992	125.860458
-15645.495213	5089.813333	1367.831055	102.081879
-15645.495213	5089.813333	1366.744141	239.174057
-15645.495213	5089.813333	1365.658203	130.556686
-15645.495213	5089.813333	1364.571289	63.681614
-15645.495213	5089.813333	1363.484375	191.033585
-15645.495213	5089.813333	1362.397461	257.388428
-15645.495213	5089.813333	1361.310547	186.667068
-15645.495213	5089.813333	1360.222656	174.219666
-15645.495213	5089.813333	1359.135742	136.218781
-15645.495213	5089.813333	1358.047852	182.476212
-15645.495213	5089.813333	1356.958984	115.389915
-15645.495213	5089.813333	1355.871094	108.054718
-15645.495213	5089.813333	1354.782227	124.688728
-15645.495213	5089.813333	1353.693359	233.044174
-15645.495213	5089.813333	1352.604492	272.897888
-15645.495213	5089.813333	1351.515625	262.061371
-15645.495213	5089.813333	1350.425781	317.667114
-15645.495213	5089.813333	1349.335938	336.298370
-15645.495213	5089.813333	1348.246094	355.668030
-15645.495213	5089.813333	1347.156250	482.209137
-15645.495213	5089.813333	1346.066406	601.164307
-15645.495213	5089.813333	1344.975586	372.683746
-15645.495213	5089.813333	1343.884766	530.688049
-15645.495213	5089.813333	1342.793945	554.882629
-15645.495213	5089.813333	1341.702148	346.259125
-15645.495213	5089.813333	1340.611328	427.411530
-15645.495213	5089.813333	1339.519531	368.020111
-15645.495213	5089.813333	1338.427734	200.120209
-15645.495213	5089.813333	1337.334961	297.297028
-15645.495213	5089.813333	1336.243164	332.298462
-15645.495213	5089.813333	1335.150391	268.305786
-15645.495213	5089.813333	1334.057617	246.889389
-15645.495213	5089.813333	1332.964844	249.276321
-15645.495213	5089.813333	1331.871094	231.384872
-15645.495213	5089.813333	1330.778320	257.815826
-15645.495213	5089.813333	1329.684570	353.272491
-15645.495213	5089.813333	1328.590820	302.819458
-15645.495213	5089.813333	1327.496094	307.319824
-15645.495213	5089.813333	1326.402344	349.137512
-15645.495213	5089.813333	1325.307617	419.812836
-15645.495213	5089.813333	1324.212891	387.460114
-15645.495213	5089.813333	1323.117188	421.835541
-15645.495213	5089.813333	1322.022461	431.134521
-15645.495213	5089.813333	1320.926758	355.957520
-15645.495213	5089.813333	1319.831055	264.953918
-15645.495213	5089.813333	1318.735352	204.533371
-15645.495213	5089.813333	1317.638672	137.735321
-15645.495213	5089.813333	1316.542969	192.182343
-15645.495213	5089.813333	1315.446289	227.628250
-15645.495213	5089.813333	1314.349609	261.848907
-15645.495213	5089.813333	1313.251953	285.438995
-15645.495213	5089.813333	1312.155273	157.863266
-15645.495213	5089.813333	1311.057617	173.005020
-15645.495213	5089.813333	1309.959961	212.745041
-15645.495213	5089.813333	1308.862305	155.151642
-15645.495213	5089.813333	1307.763672	291.061218
-15645.495213	5089.813333	1306.665039	292.840424
-15645.495213	5089.813333	1305.566406	138.220123
-15645.495213	5089.813333	1304.467773	123.164146
-15645.495213	5089.813333	1303.369141	224.279846
-15645.495213	5089.813333	1302.269531	199.680542
-15645.495213	5089.813333	1301.169922	138.944214
-15645.495213	5089.813333	1300.070313	120.716324
-15645.495213	5089.813333	1298.970703	190.659912
-15645.495213	5089.813333	1297.870117	62.743748
-15645.495213	5089.813333	1296.769531	96.275314
-15645.495213	5089.813333	1295.668945	93.990875
-15645.495213	5089.813333	1294.568359	64.398186
-15645.495213	5089.813333	1293.466797	14.971927
-15645.495213	5089.813333	1292.366211	105.770370
-15645.495213	5089.813333	1291.264648	140.040802
-15645.495213	5089.813333	1290.162109	70.293411
-15645.495213	5089.813333	1289.060547	71.001991
-15645.495213	5089.813333	1287.958008	116.850365
-15645.495213	5089.813333	1286.855469	89.203064
-15645.495213	5089.813333	1285.752930	78.673805
-15645.495213	5089.813333	1284.650391	69.767883
-15645.495213	5089.813333	1283.546875	199.921951
-15645.495213	5089.813333	1282.444336	177.774246
-15645.495213	5089.813333	1281.339844	182.959076
-15645.495213	5089.813333	1280.236328	255.122772
-15645.495213	5089.813333	1279.132813	172.502258
-15645.495213	5089.813333	1278.028320	143.482468
-15645.495213	5089.813333	1276.923828	166.780914
-15645.495213	5089.813333	1275.819336	100.768112
-15645.495213	5089.813333	1274.713867	94.157623
-15645.495213	5089.813333	1273.608398	-6.632396
-15645.495213	5089.813333	1272.503906	69.946098
-15645.495213	5089.813333	1271.397461	136.363968
-15645.495213	5089.813333	1270.291992	4.971018
-15645.495213	5089.813333	1269.185547	88.375092
-15645.495213	5089.813333	1268.080078	-20.115788
-15645.495213	5089.813333	1266.972656	-101.236748
-15645.495213	5089.813333	1265.866211	-27.262564
-15645.495213	5089.813333	1264.759766	42.182446
-15645.495213	5089.813333	1263.652344	-7.160789
-15645.495213	5089.813333	1262.544922	-4.805298
-15645.495213	5089.813333	1261.436523	38.415150
-15645.495213	5089.813333	1260.329102	20.399332
-15645.495213	5089.813333	1259.220703	-5.782908
-15645.495213	5089.813333	1258.112305	-53.746185
-15645.495213	5089.813333	1257.003906	-86.235191
-15645.495213	5089.813333	1255.895508	46.766102
-15645.495213	5089.813333	1254.786133	-14.186382
-15645.495213	5089.813333	1253.676758	-49.903084
-15645.495213	5089.813333	1252.567383	80.592491
-15645.495213	5089.813333	1251.458008	-14.115750
-15645.495213	5089.813333	1250.347656	-87.826363
-15645.495213	5089.813333	1249.237305	-20.403034
-15645.495213	5089.813333	1248.126953	-2.081666
-15645.495213	5089.813333	1247.016602	-4.589870
-15645.495213	5089.813333	1245.905273	46.571651
-15645.495213	5089.813333	1244.793945	27.297512
-15645.495213	5089.813333	1243.682617	119.736565
-15645.495213	5089.813333	1242.571289	144.045471
-15645.495213	5089.813333	1241.459961	56.920952
-15645.495213	5089.813333	1240.347656	82.577644
-15645.495213	5089.813333	1239.235352	60.778801
-15645.495213	5089.813333	1238.123047	54.322681
-15645.495213	5089.813333	1237.009766	22.773563
-15645.495213	5089.813333	1235.897461	88.790291
-15645.495213	5089.813333	1234.784180	30.737326
-15645.495213	5089.813333	1233.670898	-5.603072
-15645.495213	5089.813333	1232.556641	33.720592
-15645.495213	5089.813333	1231.443359	-16.543993
-15645.495213	5089.813333	1230.329102	-13.562131
-15645.495213	5089.813333	1229.214844	23.584663
-15645.495213	5089.813333	1228.099609	-24.073004
-15645.495213	5089.813333	1226.985352	38.809700
-15645.495213	5089.813333	1225.870117	100.810661
-15645.495213	5089.813333	1224.754883	25.174524
-15645.495213	5089.813333	1223.639648	34.206398
-15645.495213	5089.813333	1222.523438	15.610724
-15645.495213	5089.813333	1221.408203	-33.877056
-15645.495213	5089.813333	1220.291992	4.949378
-15645.495213	5089.813333	1219.174805	35.125614
-15645.495213	5089.813333	1218.058594	118.185898
-15645.495213	5089.813333	1216.941406	60.012356
-15645.495213	5089.813333	1215.824219	53.976570
-15645.495213	5089.813333	1214.707031	48.287457
-15645.495213	5089.813333	1213.589844	16.465456
-15645.495213	5089.813333	1212.471680	61.244820
-15645.495213	5089.813333	1211.353516	-40.999458
-15645.495213	5089.813333	1210.235352	-43.488148
-15645.495213	5089.813333	1209.117188	42.249390
-15645.495213	5089.813333	1207.998047	-103.843605
-15645.495213	5089.813333	1206.878906	-45.531296
-15645.495213	5089.813333	1205.759766	-47.728306
-15645.495213	5089.813333	1204.640625	-35.918098
-15645.495213	5089.813333	1203.520508	-18.245308
-15645.495213	5089.813333	1202.401367	-53.924759
-15645.495213	5089.813333	1201.281250	-69.757378
-15645.495213	5089.813333	1200.160156	5.514589
-15645.495213	5089.813333	1199.040039	69.037155
-15645.495213	5089.813333	1197.918945	24.694942
-15645.495213	5089.813333	1196.797852	-15.966169
-15645.495213	5089.813333	1195.676758	-44.901321
-15645.495213	5089.813333	1194.555664	-123.067116
-15645.495213	5089.813333	1193.433594	22.613503
-15645.495213	5089.813333	1192.311523	-29.964472
-15645.495213	5089.813333	1191.189453	-86.981277
-15645.495213	5089.813333	1190.066406	19.704117
-15645.495213	5089.813333	1188.944336	-81.646576
-15645.495213	5089.813333	1187.821289	-14.519310
-15645.495213	5089.813333	1186.698242	51.522900
-15645.495213	5089.813333	1185.574219	-38.012215
-15645.495213	5089.813333	1184.451172	-72.501610
-15645.495213	5089.813333	1183.327148	-77.339935
-15645.495213	5089.813333	1182.203125	3.109513
-15645.495213	5089.813333	1181.078125	12.626924
-15645.495213	5089.813333	1179.954102	-70.097282
-15645.495213	5089.813333	1178.829102	50.488556
-15645.495213	5089.813333	1177.704102	51.580700
-15645.495213	5089.813333	1176.579102	97.386612
-15645.495213	5089.813333	1175.453125	-27.665554
-15645.495213	5089.813333	1174.327148	-9.301905
-15645.495213	5089.813333	1173.201172	-16.333523
-15645.495213	5089.813333	1172.075195	-28.160362
-15645.495213	5089.813333	1170.949219	-88.011475
-15645.495213	5089.813333	1169.822266	-105.030487
-15645.495213	5089.813333	1168.695313	-18.910288
-15645.495213	5089.813333	1167.568359	-0.754939
-15645.495213	5089.813333	1166.440430	-44.454151
-15645.495213	5089.813333	1165.313477	34.377815
-15645.495213	5089.813333	1164.185547	49.117336
-15645.495213	5089.813333	1163.057617	-3.867934
-15645.495213	5089.813333	1161.928711	2.009830
-15645.495213	5089.813333	1160.800781	66.811172
-15645.495213	5089.813333	1159.671875	4.616580
-15645.495213	5089.813333	1158.541992	53.096416
-15645.495213	5089.813333	1157.413086	52.330769
-15645.495213	5089.813333	1156.283203	61.892788
-15645.495213	5089.813333	1155.154297	-22.080795
-15645.495213	5089.813333	1154.023438	-35.780521
-15645.495213	5089.813333	1152.893555	-46.115044
-15645.495213	5089.813333	1151.763672	-49.520462
-15645.495213	5089.813333	1150.632813	-26.792248
-15645.495213	5089.813333	1149.501953	-48.170151
-15645.495213	5089.813333	1148.370117	1.846738
-15645.495213	5089.813333	1147.239258	13.560199
-15645.495213	5089.813333	1146.107422	-28.538641
-15645.495213	5089.813333	1144.975586	-34.615318
-15645.495213	5089.813333	1143.843750	-139.945251
-15645.495213	5089.813333	1142.710938	-17.187183
-15645.495213	5089.813333	1141.578125	-92.556458
-15645.495213	5089.813333	1140.445313	-49.393917
-15645.495213	5089.813333	1139.312500	-23.936409
-15645.495213	5089.813333	1138.178711	-30.913477
-15645.495213	5089.813333	1137.045898	39.420029
-15645.495213	5089.813333	1135.912109	-18.949646
-15645.495213	5089.813333	1134.777344	-97.285721
-15645.495213	5089.813333	1133.643555	-64.452881
-15645.495213	5089.813333	1132.508789	82.302673
-15645.495213	5089.813333	1131.374023	121.086441
-15645.495213	5089.813333	1130.239258	-52.507862
-15645.495213	5089.813333	1129.104492	-29.890402
-15645.495213	5089.813333	1127.968750	30.383097
-15645.495213	5089.813333	1126.833008	20.353186
-15645.495213	5089.813333	1125.697266	-5.771169
-15645.495213	5089.813333	1124.560547	66.229706
-15645.495213	5089.813333	1123.424805	21.089275
-15645.495213	5089.813333	1122.288086	108.333321
-15645.495213	5089.813333	1121.151367	7.964318
-15645.495213	5089.813333	1120.013672	62.860134
-15645.495213	5089.813333	1118.876953	90.372910
-15645.495213	5089.813333	1117.739258	127.393654
-15645.495213	5089.813333	1116.601563	118.043976
-15645.495213	5089.813333	1115.462891	33.682232
-15645.495213	5089.813333	1114.324219	111.707878
-15645.495213	5089.813333	1113.186523	-79.025040
-15645.495213	5089.813333	1112.046875	-22.877525
-15645.495213	5089.813333	1110.908203	-14.455859
-15645.495213	5089.813333	1109.769531	73.456696
-15645.495213	5089.813333	1108.629883	-19.048117
-15645.495213	5089.813333	1107.490234	55.595673
-15645.495213	5089.813333	1106.349609	82.344063
-15645.495213	5089.813333	1105.209961	87.608795
-15645.495213	5089.813333	1104.069336	94.688095
-15645.495213	5089.813333	1102.928711	95.389641
-15645.495213	5089.813333	1101.787109	16.949705
-15645.495213	5089.813333	1100.646484	109.159927
-15645.495213	5089.813333	1099.504883	83.537270
-15645.495213	5089.813333	1098.363281	76.529572
-15645.495213	5089.813333	1097.221680	13.998158
-15645.495213	5089.813333	1096.079102	68.363876
-15645.495213	5089.813333	1094.936523	56.801117
-15645.495213	5089.813333	1093.793945	80.667816
-15645.495213	5089.813333	1092.651367	0.941023
-15645.495213	5089.813333	1091.507813	131.871170
-15645.495213	5089.813333	1090.364258	27.075552
-15645.495213	5089.813333	1089.220703	4.695767
-15645.495213	5089.813333	1088.077148	41.892487
-15645.495213	5089.813333	1086.933594	2.850297
-15645.495213	5089.813333	1085.789063	100.675102
-15645.495213	5089.813333	1084.644531	51.063282
-15645.495213	5089.813333	1083.499023	-67.775253
-15645.495213	5089.813333	1082.354492	63.546398
-15645.495213	5089.813333	1081.208984	98.038345
-15645.495213	5089.813333	1080.063477	-177.526337
-15645.495213	5089.813333	1078.917969	-1.767764
-15645.495213	5089.813333	1077.771484	39.194881
-15645.495213	5089.813333	1076.625977	-58.771992
-15645.495213	5089.813333	1075.479492	-120.184151
-15645.495213	5089.813333	1074.332031	131.323166
-15645.495213	5089.813333	1073.185547	-103.824028
-15645.495213	5089.813333	1072.038086	-54.288002
-15645.495213	5089.813333	1070.890625	-11.732697
-15645.495213	5089.813333	1069.743164	73.454231
-15645.495213	5089.813333	1068.594727	83.175064
-15645.495213	5089.813333	1067.447266	50.842144
-15645.495213	5089.813333	1066.298828	85.980705
-15645.495213	5089.813333	1065.149414	-52.459023
-15645.495213	5089.813333	1064.000977	-125.541260
-15645.495213	5089.813333	1062.851563	14.032680
-15645.495213	5089.813333	1061.702148	-96.143326
-15645.495213	5089.813333	1060.552734	-21.906639
-15645.495213	5089.813333	1059.402344	-59.410137
-15645.495213	5089.813333	1058.252930	76.119362
-15645.495213	5089.813333	1057.102539	22.754955
-15645.495213	5089.813333	1055.951172	-26.701553
-15645.495213	5089.813333	1054.800781	35.120193
-15645.495213	5089.813333	1053.649414	70.908035
-15645.495213	5089.813333	1052.498047	57.779312
-15645.495213	5089.813333	1051.346680	-70.687805
-15645.495213	5089.813333	1050.194336	127.485153
-15645.495213	5089.813333	1049.042969	72.916603
-15645.495213	5089.813333	1047.890625	127.879341
-15645.495213	5089.813333	1046.738281	228.497543
-15645.495213	5089.813333	1045.584961	177.486038
-15645.495213	5089.813333	1044.431641	115.394249
-15645.495213	5089.813333	1043.278320	114.874611
-15645.495213	5089.813333	1042.125000	45.162029
-15645.495213	5089.813333	1040.971680	86.929901
-15645.495213	5089.813333	1039.817383	128.345200
-15645.495213	5089.813333	1038.663086	32.398773
-15645.495213	5089.813333	1037.508789	8.226933
-15645.495213	5089.813333	1036.353516	35.097710
-15645.495213	5089.813333	1035.198242	93.211945
-15645.495213	5089.813333	1034.042969	80.207390
-15645.495213	5089.813333	1032.887695	160.692505
-15645.495213	5089.813333	1031.732422	76.209358
-15645.495213	5089.813333	1030.576172	160.187119
-15645.495213	5089.813333	1029.419922	125.028282
-15645.495213	5089.813333	1028.263672	-31.427731
-15645.495213	5089.813333	1027.106445	98.365944
-15645.495213	5089.813333	1025.949219	44.198517
-15645.495213	5089.813333	1024.792969	88.712715
-15645.495213	5089.813333	1023.634766	53.233078
-15645.495213	5089.813333	1022.477539	126.519188
-15645.495213	5089.813333	1021.319336	-10.587735
-15645.495213	5089.813333	1020.161133	118.653671
-15645.495213	5089.813333	1019.002930	-4.288254
-15645.495213	5089.813333	1017.843750	96.152885
-15645.495213	5089.813333	1016.684570	125.149605
-15645.495213	5089.813333	1015.525391	98.624825
-15645.495213	5089.813333	1014.366211	48.154308
-15645.495213	5089.813333	1013.207031	39.428066
-15645.495213	5089.813333	1012.046875	-3.061214
-15645.495213	5089.813333	1010.886719	211.716400
-15645.495213	5089.813333	1009.726563	3.096411
-15645.495213	5089.813333	1008.565430	35.647709
-15645.495213	5089.813333	1007.404297	60.888485
-15645.495213	5089.813333	1006.243164	68.265594
-15645.495213	5089.813333	1005.082031	18.700508
-15645.495213	5089.813333	1003.920898	107.081482
-15645.495213	5089.813333	1002.758789	-94.801422
-15645.495213	5089.813333	1001.596680	16.900564
-15645.495213	5089.813333	1000.433594	203.239731
-15645.495213	5089.813333	999.271484	48.304600
-15645.495213	5089.813333	998.108398	70.272926
-15645.495213	5089.813333	996.945313	114.392372
-15645.495213	5089.813333	995.782227	-55.095272
-15645.495213	5089.813333	994.618164	70.032692
-15645.495213	5089.813333	993.454102	158.572281
-15645.495213	5089.813333	992.290039	57.227676
-15645.495213	5089.813333	991.125977	-56.632881
-15645.495213	5089.813333	989.960938	51.881783
-15645.495213	5089.813333	988.796875	90.144836
-15645.495213	5089.813333	987.630859	-71.958916
-15645.495213	5089.813333	986.465820	34.695641
-15645.495213	5089.813333	985.300781	120.965027
-15645.495213	5089.813333	984.134766	250.991898
-15645.495213	5089.813333	982.968750	165.128876
-15645.495213	5089.813333	981.801758	79.816475
-15645.495213	5089.813333	980.635742	43.957600
-15645.495213	5089.813333	979.468750	184.947861
-15645.495213	5089.813333	978.301758	41.304424
-15645.495213	5089.813333	977.133789	94.473183
-15645.495213	5089.813333	975.966797	-28.093189
-15645.495213	5089.813333	974.798828	50.372536
-15645.495213	5089.813333	973.630859	5.147750
-15645.495213	5089.813333	972.461914	129.804352
-15645.495213	5089.813333	971.293945	106.159248
-15645.495213	5089.813333	970.125000	-89.124817
-15645.495213	5089.813333	968.956055	16.934631
-15645.495213	5089.813333	967.786133	-12.444018
-15645.495213	5089.813333	966.617188	190.314896
-15645.495213	5089.813333	965.447266	62.028442
-15645.495213	5089.813333	964.276367	-49.407272
-15645.495213	5089.813333	963.106445	-69.451294
-15645.495213	5089.813333	961.935547	-15.421277
-15645.495213	5089.813333	960.764648	-19.460770
-15645.495213	5089.813333	959.593750	30.016245
-15645.495213	5089.813333	958.422852	60.831615
-15645.495213	5089.813333	957.250977	-34.137047
-15645.495213	5089.813333	956.079102	56.156151
-15645.495213	5089.813333	954.907227	234.644867
-15645.495213	5089.813333	953.734375	216.793167
-15645.495213	5089.813333	952.562500	56.389946
-15645.495213	5089.813333	951.389648	43.772438
-15645.495213	5089.813333	950.215820	7.391891
-15645.495213	5089.813333	949.042969	32.436607
-15645.495213	5089.813333	947.869141	30.761404
-15645.495213	5089.813333	946.695313	77.612808
-15645.495213	5089.813333	945.521484	-31.626297
-15645.495213	5089.813333	944.346680	34.081905
-15645.495213	5089.813333	943.172852	72.661980
-15645.495213	5089.813333	941.998047	-77.073433
-15645.495213	5089.813333	940.822266	74.886734
-15645.495213	5089.813333	939.647461	116.319794
-15645.495213	5089.813333	938.471680	-0.853674
-15645.495213	5089.813333	937.295898	35.370129
-15645.495213	5089.813333	936.119141	63.304443
-15645.495213	5089.813333	934.943359	-13.484644
-15645.495213	5089.813333	933.766602	-66.148537
-15645.495213	5089.813333	932.589844	-78.450798
-15645.495213	5089.813333	931.413086	129.854965
-15645.495213	5089.813333	930.235352	-116.354004
-15645.495213	5089.813333	929.057617	19.323008
-15645.495213	5089.813333	927.879883	-84.351006
-15645.495213	5089.813333	926.702148	-21.298117
-15645.495213	5089.813333	925.523438	-57.705265
-15645.495213	5089.813333	924.344727	-126.311417
-15645.495213	5089.813333	923.166016	6.584646
-15645.495213	5089.813333	921.987305	107.211494
-15645.495213	5089.813333	920.807617	60.122913
-15645.495213	5089.813333	919.627930	62.233238
-15645.495213	5089.813333	919.497070	-29.659075
-15645.495213	5089.813333	918.331055	-92.811264
-15645.495213	5089.813333	917.165039	-45.897705
-15645.495213	5089.813333	915.999023	-125.102928
-15645.495213	5089.813333	914.833008	34.484737
-15645.495213	5089.813333	913.666016	19.683748
-15645.495213	5089.813333	912.499023	93.386909
-15645.495213	5089.813333	911.332031	27.658697
-15645.495213	5089.813333	910.165039	45.059216
-15645.495213	5089.813333	908.997070	43.704067
-15645.495213	5089.813333	907.830078	-27.306814
-15645.495213	5089.813333	906.661133	91.917793
-15645.495213	5089.813333	905.493164	90.580475
-15645.495213	5089.813333	904.325195	6.243368
-15645.495213	5089.813333	903.156250	37.068748
-15645.495213	5089.813333	901.987305	38.448112
-15645.495213	5089.813333	900.818359	55.891979
-15645.495213	5089.813333	899.648438	73.339737
-15645.495213	5089.813333	898.478516	61.364738
-15645.495213	5089.813333	897.308594	22.659388
-15645.495213	5089.813333	896.138672	-141.693542
-15645.495213	5089.813333	894.968750	-11.903513
-15645.495213	5089.813333	893.797852	26.969378
-15645.495213	5089.813333	892.626953	-65.104095
-15645.495213	5089.813333	891.456055	-18.202782
-15645.495213	5089.813333	890.284180	-118.222946
-15645.495213	5089.813333	889.113281	-12.558329
-15645.495213	5089.813333	887.941406	-91.160141
-15645.495213	5089.813333	886.768555	33.164501
-15645.495213	5089.813333	885.596680	29.335054
-15645.495213	5089.813333	884.423828	-38.524227
-15645.495213	5089.813333	883.250977	-50.320820
-15645.495213	5089.813333	882.078125	-46.099648
-15645.495213	5089.813333	880.905273	-41.870975
-15645.495213	5089.813333	879.731445	-80.292992
-15645.495213	5089.813333	878.557617	59.911858
-15645.495213	5089.813333	877.383789	-31.800142
-15645.495213	5089.813333	876.209961	68.386414
-15645.495213	5089.813333	875.035156	-31.261580
-15645.495213	5089.813333	873.860352	-26.982729
-15645.495213	5089.813333	872.685547	-121.226517
-15645.495213	5089.813333	871.510742	56.144962
-15645.495213	5089.813333	870.334961	-40.719059
-15645.495213	5089.813333	869.159180	-172.131912
-15645.495213	5089.813333	867.983398	-45.384914
-15645.495213	5089.813333	866.807617	-14.450008
-15645.495213	5089.813333	865.630859	-50.009247
-15645.495213	5089.813333	864.454102	124.528046
-15645.495213	5089.813333	863.277344	96.948441
-15645.495213	5089.813333	862.100586	-52.882385
-15645.495213	5089.813333	860.922852	95.001740
-15645.495213	5089.813333	859.745117	3.705844
-15645.495213	5089.813333	858.567383	2.774807
-15645.495213	5089.813333	857.389648	36.379223
-15645.495213	5089.813333	856.210938	59.359051
-15645.495213	5089.813333	855.032227	98.266808
-15645.495213	5089.813333	853.853516	-53.939320
-15645.495213	5089.813333	852.674805	173.406128
-15645.495213	5089.813333	851.495117	45.144360
-15645.495213	5089.813333	850.315430	-22.046183
-15645.495213	5089.813333	849.135742	11.577842
-15645.495213	5089.813333	847.956055	34.590092
-15645.495213	5089.813333	846.775391	33.744366
-15645.495213	5089.813333	845.595703	22.302853
-15645.495213	5089.813333	844.415039	5.576461
-15645.495213	5089.813333	843.233398	-0.535707
-15645.495213	5089.813333	842.052734	62.229221
-15645.495213	5089.813333	840.871094	13.751031
-15645.495213	5089.813333	839.689453	-5.574611
-15645.495213	5089.813333	838.506836	104.828880
-15645.495213	5089.813333	837.325195	56.394478
-15645.495213	5089.813333	836.142578	45.034481
-15645.495213	5089.813333	834.959961	-154.146500
-15645.495213	5089.813333	833.777344	-14.679556
-15645.495213	5089.813333	832.593750	48.050461
-15645.495213	5089.813333	831.410156	68.458946
-15645.495213	5089.813333	830.226563	51.858768
-15645.495213	5089.813333	829.042969	14.129704
-15645.495213	5089.813333	827.858398	179.879608
-15645.495213	5089.813333	826.673828	31.202532
-15645.495213	5089.813333	825.489258	-69.865738
-15645.495213	5089.813333	824.304688	6.036471
-15645.495213	5089.813333	823.120117	-71.211563
-15645.495213	5089.813333	821.934570	-103.547386
-15645.495213	5089.813333	820.749023	-125.308128
-15645.495213	5089.813333	819.562500	159.009354
-15645.495213	5089.813333	818.376953	-7.870422
-15645.495213	5089.813333	817.190430	-16.431284
-15645.495213	5089.813333	816.003906	-43.441292
-15645.495213	5089.813333	814.817383	74.560349
-15645.495213	5089.813333	813.629883	-113.224503
-15645.495213	5089.813333	812.442383	60.094280
-15645.495213	5089.813333	811.254883	33.112743
-15645.495213	5089.813333	810.067383	137.852219
-15645.495213	5089.813333	808.878906	50.305565
-15645.495213	5089.813333	807.690430	141.844116
-15645.495213	5089.813333	806.501953	62.238438
-15645.495213	5089.813333	805.313477	-77.864647
-15645.495213	5089.813333	804.124023	-12.656105
-15645.495213	5089.813333	802.934570	10.435794
-15645.495213	5089.813333	801.745117	-29.605240
-15645.495213	5089.813333	800.555664	40.822670
-15645.495213	5089.813333	799.365234	-1.828861
-15645.495213	5089.813333	798.175781	-70.748764
-15645.495213	5089.813333	796.985352	-94.956955
-15645.495213	5089.813333	795.793945	22.738508
-15645.495213	5089.813333	794.603516	56.320316
-15645.495213	5089.813333	793.412109	26.857166
-15645.495213	5089.813333	792.220703	7.911955
-15645.495213	5089.813333	791.028320	-95.033920
-15645.495213	5089.813333	789.836914	54.047607
-15645.495213	5089.813333	788.644531	-4.248879
-15645.495213	5089.813333	787.452148	-10.044826
-15645.495213	5089.813333	786.258789	15.643353
-15645.495213	5089.813333	785.066406	30.828825
-15645.495213	5089.813333	783.873047	-35.275188
-15645.495213	5089.813333	782.679688	-1.731058
-15645.495213	5089.813333	781.485352	86.843224
-15645.495213	5089.813333	780.291992	-36.881702
-15645.495213	5089.813333	779.097656	22.843256
-15645.495213	5089.813333	777.903320	45.871487
-15645.495213	5089.813333	776.708008	53.178261
-15645.495213	5089.813333	775.512695	-2.358629
-15645.495213	5089.813333	774.318359	96.572960
-15645.495213	5089.813333	773.122070	-37.467220
-15645.495213	5089.813333	771.926758	14.329509
-15645.495213	5089.813333	770.730469	19.014215
-15645.495213	5089.813333	769.534180	-62.619778
-15645.495213	5089.813333	768.337891	-16.084419
-15645.495213	5089.813333	767.141602	46.115894
-15645.495213	5089.813333	765.944336	-48.548248
-15645.495213	5089.813333	764.747070	21.469654
-15645.495213	5089.813333	763.549805	-13.060133
-15645.495213	5089.813333	762.351563	41.242622
-15645.495213	5089.813333	761.154297	100.740250
-15645.495213	5089.813333	759.956055	-27.798744
-15645.495213	5089.813333	758.757813	-106.685257
-15645.495213	5089.813333	757.558594	112.017563
-15645.495213	5089.813333	756.359375	95.758568
-15645.495213	5089.813333	755.160156	89.937416
-15645.495213	5089.813333	753.960938	89.330452
-15645.495213	5089.813333	752.761719	104.365883
-15645.495213	5089.813333	751.561523	-42.270195
-15645.495213	5089.813333	750.361328	64.018303
-15645.495213	5089.813333	749.160156	26.908419
-15645.495213	5089.813333	747.959961	78.402702
-15645.495213	5089.813333	746.758789	20.449226
-15645.495213	5089.813333	745.557617	-11.439874
-15645.495213	5089.813333	744.356445	26.989773
-15645.495213	5089.813333	743.154297	34.153931
-15645.495213	5089.813333	741.952148	176.668259
-15645.495213	5089.813333	740.750000	-60.858379
-15645.495213	5089.813333	739.547852	-32.889393
-15645.495213	5089.813333	738.344727	-30.953386
-15645.495213	5089.813333	737.142578	62.002598
-15645.495213	5089.813333	735.939453	50.897453
-15645.495213	5089.813333	734.735352	86.586098
-15645.495213	5089.813333	733.532227	23.474567
-15645.495213	5089.813333	732.328125	12.355962
-15645.495213	5089.813333	731.124023	86.972473
-15645.495213	5089.813333	729.918945	109.595718
-15645.495213	5089.813333	728.714844	119.210411
-15645.495213	5089.813333	727.509766	43.124485
-15645.495213	5089.813333	726.303711	8.597383
-15645.495213	5089.813333	725.098633	189.496445
-15645.495213	5089.813333	723.892578	53.725494
-15645.495213	5089.813333	722.686523	3.614164
-15645.495213	5089.813333	721.480469	-20.550465
-15645.495213	5089.813333	720.274414	-26.565060
-15645.495213	5089.813333	719.067383	45.194687
-15645.495213	5089.813333	717.860352	85.803833
-15645.495213	5089.813333	716.653320	-44.670033
-15645.495213	5089.813333	715.445313	50.328518
-15645.495213	5089.813333	714.238281	5.377724
-15645.495213	5089.813333	713.030273	74.395340
-15645.495213	5089.813333	711.821289	32.021427
-15645.495213	5089.813333	710.613281	93.206871
-15645.495213	5089.813333	709.404297	-65.664108
-15645.495213	5089.813333	708.195313	-27.805159
-15645.495213	5089.813333	706.986328	22.958244
-15645.495213	5089.813333	705.776367	102.140648
-15645.495213	5089.813333	704.566406	72.649284
-15645.495213	5089.813333	703.356445	43.153313
-15645.495213	5089.813333	702.146484	-38.051884
-15645.495213	5089.813333	700.935547	28.085541
-15645.495213	5089.813333	699.724609	52.831280
-15645.495213	5089.813333	698.513672	139.553482
-15645.495213	5089.813333	697.302734	-11.416362
-15645.495213	5089.813333	696.090820	-74.536209
-15645.495213	5089.813333	694.878906	76.650620
-15645.495213	5089.813333	693.666992	67.708801
-15645.495213	5089.813333	692.455078	-10.931764
-15645.495213	5089.813333	691.242188	-68.915382
-15645.495213	5089.813333	690.029297	22.730560
-15645.495213	5089.813333	688.816406	67.891548
-15645.495213	5089.813333	687.602539	-5.604608
-15645.495213	5089.813333	686.389648	-45.577152
-15645.495213	5089.813333	685.175781	120.653702
-15645.495213	5089.813333	683.960938	65.168938
-15645.495213	5089.813333	682.747070	76.672882
-15645.495213	5089.813333	681.532227	72.695541
-15645.495213	5089.813333	680.317383	14.613508
-15645.495213	5089.813333	679.102539	116.175072
-15645.495213	5089.813333	677.886719	34.894924
-15645.495213	5089.813333	676.670898	56.576954
-15645.495213	5089.813333	675.455078	75.653053
-15645.495213	5089.813333	674.239258	71.542923
-15645.495213	5089.813333	673.022461	82.844673
-15645.495213	5089.813333	671.805664	27.255354
-15645.495213	5089.813333	670.588867	107.931725
-15645.495213	5089.813333	669.372070	229.677765
-15645.495213	5089.813333	668.154297	94.349571
-15645.495213	5089.813333	666.936523	257.109406
-15645.495213	5089.813333	665.718750	134.625946
-15645.495213	5089.813333	664.500977	48.125843
-15645.495213	5089.813333	663.282227	108.003204
-15645.495213	5089.813333	662.063477	165.261902
-15645.495213	5089.813333	660.844727	81.299194
-15645.495213	5089.813333	659.625000	-51.411243
-15645.495213	5089.813333	658.405273	-17.324942
-15645.495213	5089.813333	657.185547	-21.756779
-15645.495213	5089.813333	655.965820	-159.571686
-15645.495213	5089.813333	654.745117	118.018394
-15645.495213	5089.813333	653.525391	34.010071
-15645.495213	5089.813333	652.303711	-11.544016
-15645.495213	5089.813333	651.083008	6.952345
-15645.495213	5089.813333	649.861328	66.403427
-15645.495213	5089.813333	648.640625	-107.280602
-15645.495213	5089.813333	647.417969	100.638908
-15645.495213	5089.813333	646.196289	29.374666
-15645.495213	5089.813333	644.973633	-26.529312
-15645.495213	5089.813333	643.750977	-46.610508
-15645.495213	5089.813333	642.528320	-107.650291
-15645.495213	5089.813333	641.305664	105.020645
-15645.495213	5089.813333	640.082031	-124.880684
-15645.495213	5089.813333	638.858398	-134.812775
-15645.495213	5089.813333	637.634766	-29.730089
-15645.495213	5089.813333	636.410156	-57.628307
-15645.495213	5089.813333	635.185547	26.891581
-15645.495213	5089.813333	633.960938	98.571182
-15645.495213	5089.813333	632.736328	34.813240
-15645.495213	5089.813333	631.510742	-16.178780
-15645.495213	5089.813333	630.285156	11.969831
-15645.495213	5089.813333	629.059570	88.576637
-15645.495213	5089.813333	627.833984	17.097380
-15645.495213	5089.813333	626.607422	6.856059
-15645.495213	5089.813333	625.380859	70.568565
-15645.495213	5089.813333	624.154297	-13.705806
-15645.495213	5089.813333	622.927734	100.921570
-15645.495213	5089.813333	621.700195	131.339066
-15645.495213	5089.813333	620.472656	54.659927
-15645.495213	5089.813333	619.245117	189.494003
-15645.495213	5089.813333	618.016602	143.346771
-15645.495213	5089.813333	616.788086	196.531052
-15645.495213	5089.813333	615.559570	272.581757
-15645.495213	5089.813333	614.331055	305.284546
-15645.495213	5089.813333	613.101563	358.307190
-15645.495213	5089.813333	611.872070	345.104218
-15645.495213	5089.813333	610.642578	296.251587
-15645.495213	5089.813333	609.413086	186.332581
-15645.495213	5089.813333	608.182617	216.320099
-15645.495213	5089.813333	606.952148	248.806747
-15645.495213	5089.813333	605.721680	82.942451
-15645.495213	5089.813333	604.491211	46.751724
-15645.495213	5089.813333	603.259766	150.317230
-15645.495213	5089.813333	602.028320	75.954353
-15645.495213	5089.813333	600.796875	16.833586
-15645.495213	5089.813333	599.564453	-16.895786
-15645.495213	5089.813333	598.332031	-81.111412
-15645.495213	5089.813333	597.099609	121.223198
-15645.495213	5089.813333	595.867188	-6.507065
-15645.495213	5089.813333	594.633789	10.425376
-15645.495213	5089.813333	593.400391	-104.602844
-15645.495213	5089.813333	592.166992	36.568573
-15645.495213	5089.813333	590.933594	-10.007005
-15645.495213	5089.813333	589.699219	110.741211
-15645.495213	5089.813333	588.464844	130.015167
-15645.495213	5089.813333	587.230469	134.045761
-15645.495213	5089.813333	585.995117	49.363678
-15645.495213	5089.813333	584.760742	-88.508698
-15645.495213	5089.813333	583.525391	-122.512352
-15645.495213	5089.813333	582.289063	-22.328304
-15645.495213	5089.813333	581.053711	-13.352227
-15645.495213	5089.813333	579.817383	66.460129
-15645.495213	5089.813333	578.581055	-25.864325
-15645.495213	5089.813333	577.343750	31.090258
-15645.495213	5089.813333	576.107422	90.522156
-15645.495213	5089.813333	574.870117	68.976219
-15645.495213	5089.813333	573.631836	90.393555
-15645.495213	5089.813333	572.394531	-34.837955
-15645.495213	5089.813333	571.156250	29.501724
-15645.495213	5089.813333	569.917969	81.153328
-15645.495213	5089.813333	568.679688	31.708933
-15645.495213	5089.813333	567.440430	75.708069
-15645.495213	5089.813333	566.202148	-26.793406
-15645.495213	5089.813333	564.961914	-28.295235
-15645.495213	5089.813333	563.722656	-12.152762
-15645.495213	5089.813333	562.482422	-64.177200
-15645.495213	5089.813333	561.243164	123.476807
-15645.495213	5089.813333	560.001953	-110.217781
-15645.495213	5089.813333	558.761719	-73.995461
-15645.495213	5089.813333	557.520508	0.006774
-15645.495213	5089.813333	556.279297	0.850985
-15645.495213	5089.813333	555.038086	-36.132133
-15645.495213	5089.813333	553.795898	52.863171
-15645.495213	5089.813333	552.554688	114.087578
-15645.495213	5089.813333	551.311523	-11.116885
-15645.495213	5089.813333	550.069336	77.749840
-15645.495213	5089.813333	548.826172	-29.813219
-15645.495213	5089.813333	547.583984	-31.635307
-15645.495213	5089.813333	546.339844	16.850771
-15645.495213	5089.813333	545.096680	14.978063
-15645.495213	5089.813333	543.852539	-105.138306
-15645.495213	5089.813333	542.608398	-64.271202
-15645.495213	5089.813333	541.364258	94.733124
-15645.495213	5089.813333	540.119141	17.353905
-15645.495213	5089.813333	538.875000	128.484558
-15645.495213	5089.813333	537.628906	58.632698
-15645.495213	5089.813333	536.383789	51.599228
-15645.495213	5089.813333	535.137695	-20.751606
-15645.495213	5089.813333	533.892578	-12.731347
-15645.495213	5089.813333	532.645508	53.010498
-15645.495213	5089.813333	531.399414	68.509384
-15645.495213	5089.813333	530.152344	-91.677910
-15645.495213	5089.813333	528.905273	54.280441
-15645.495213	5089.813333	527.658203	-15.560894
-15645.495213	5089.813333	526.410156	-25.197857
-15645.495213	5089.813333	525.163086	32.855553
-15645.495213	5089.813333	523.914063	43.240158
-15645.495213	5089.813333	522.666016	-1.528122
-15645.495213	5089.813333	521.416992	-8.704147
-15645.495213	5089.813333	520.167969	99.350136
-15645.495213	5089.813333	518.918945	152.245316
-15645.495213	5089.813333	517.669922	197.595428
-15645.495213	5089.813333	516.419922	87.694275
-15645.495213	5089.813333	515.169922	102.982658
-15645.495213	5089.813333	513.919922	115.753319
-15645.495213	5089.813333	512.668945	113.497543
-15645.495213	5089.813333	511.417969	123.742355
-15645.495213	5089.813333	510.166992	-13.576453
-15645.495213	5089.813333	508.916016	244.211044
-15645.495213	5089.813333	507.664063	144.408371
-15645.495213	5089.813333	506.412109	112.123360
-15645.495213	5089.813333	505.160156	9.882384
-15645.495213	5089.813333	503.907227	80.054619
-15645.495213	5089.813333	502.655273	155.189026
-15645.495213	5089.813333	501.402344	152.875275
-15645.495213	5089.813333	500.148438	135.578674
-15645.495213	5089.813333	498.895508	133.264191
-15645.495213	5089.813333	497.641602	73.550308
-15645.495213	5089.813333	496.387695	-163.282318
-15645.495213	5089.813333	495.132813	-130.617493
-15645.495213	5089.813333	493.878906	-25.643797
-15645.495213	5089.813333	492.624023	31.909279
-15645.495213	5089.813333	491.368164	-144.888992
-15645.495213	5089.813333	490.113281	-107.273407
-15645.495213	5089.813333	488.857422	-82.133354
-15645.495213	5089.813333	487.601563	-42.056137
-15645.495213	5089.813333	486.344727	-1.995927
-15645.495213	5089.813333	485.088867	-98.907524
-15645.495213	5089.813333	483.832031	-93.703072
-15645.495213	5089.813333	482.575195	-13.826371
-15645.495213	5089.813333	481.317383	58.551819
-15645.495213	5089.813333	480.059570	63.725952
-15645.495213	5089.813333	478.801758	29.102091
-15645.495213	5089.813333	477.543945	116.355568
-15645.495213	5089.813333	476.285156	-7.767926
-15645.495213	5089.813333	475.027344	24.775431
-15645.495213	5089.813333	473.767578	10.085940
-15645.495213	5089.813333	472.508789	-26.954325
-15645.495213	5089.813333	471.249023	45.331257
-15645.495213	5089.813333	469.989258	-46.333340
-15645.495213	5089.813333	468.729492	-6.345675
-15645.495213	5089.813333	467.469727	38.595165
-15645.495213	5089.813333	466.208984	123.234505
-15645.495213	5089.813333	464.948242	-0.608089
-15645.495213	5089.813333	463.686523	151.000412
-15645.495213	5089.813333	462.425781	295.108643
-15645.495213	5089.813333	461.164063	230.843567
-15645.495213	5089.813333	459.901367	404.634125
-15645.495213	5089.813333	458.639648	409.792725
-15645.495213	5089.813333	457.376953	209.250961
-15645.495213	5089.813333	456.114258	254.103806
-15645.495213	5089.813333	454.851563	147.829132
-15645.495213	5089.813333	453.587891	286.800934
-15645.495213	5089.813333	452.324219	180.573563
-15645.495213	5089.813333	451.060547	165.996353
-15645.495213	5089.813333	449.796875	2.922057
-15645.495213	5089.813333	448.532227	79.956711
-15645.495213	5089.813333	447.267578	166.857605
-15645.495213	5089.813333	446.002930	139.942200
-15645.495213	5089.813333	444.737305	98.202187
-15645.495213	5089.813333	443.471680	44.120041
-15645.495213	5089.813333	442.206055	101.299477
-15645.495213	5089.813333	440.940430	173.283386
-15645.495213	5089.813333	439.673828	25.330338
-15645.495213	5089.813333	438.407227	171.408234
-15645.495213	5089.813333	437.140625	67.974617
-15645.495213	5089.813333	435.873047	179.407043
-15645.495213	5089.813333	434.605469	98.229416
-15645.495213	5089.813333	433.337891	160.237717
-15645.495213	5089.813333	432.070313	214.811874
-15645.495213	5089.813333	430.801758	215.079727
-15645.495213	5089.813333	429.533203	173.409409
-15645.495213	5089.813333	428.264648	139.147476
-15645.495213	5089.813333	426.996094	149.271027
-15645.495213	5089.813333	425.726563	134.729385
-15645.495213	5089.813333	424.457031	51.178558
-15645.495213	5089.813333	423.186523	73.598022
-15645.495213	5089.813333	421.916992	108.311249
-15645.495213	5089.813333	420.646484	133.141678
-15645.495213	5089.813333	419.375977	44.678425
-15645.495213	5089.813333	418.104492	32.548065
-15645.495213	5089.813333	416.833008	22.863501
-15645.495213	5089.813333	415.561523	99.285019
-15645.495213	5089.813333	414.290039	5.897637
-15645.495213	5089.813333	413.017578	52.722084
-15645.495213	5089.813333	411.746094	202.780914
-15645.495213	5089.813333	410.472656	133.929367
-15645.495213	5089.813333	409.200195	227.305862
-15645.495213	5089.813333	407.926758	259.167969
-15645.495213	5089.813333	406.653320	389.256958
-15645.495213	5089.813333	405.379883	379.232635
-15645.495213	5089.813333	404.105469	695.802429
-15645.495213	5089.813333	402.831055	1022.010132
-15645.495213	5089.813333	401.556641	1512.501343
-15645.495213	5089.813333	400.282227	1639.491943
-15645.495213	5089.813333	399.006836	1577.431396
-15645.495213	5089.813333	397.731445	1294.548950
-15645.495213	5089.813333	396.456055	938.147522
-15645.495213	5089.813333	395.179688	638.234802
-15645.495213	5089.813333	393.903320	441.352325
-15645.495213	5089.813333	392.626953	281.249908
-15645.495213	5089.813333	391.350586	388.253387
-15645.495213	5089.813333	390.073242	122.723724
-15645.495213	5089.813333	388.795898	131.570343
-15645.495213	5089.813333	387.518555	218.692215
-15645.495213	5089.813333	386.240234	139.188446
-15645.495213	5089.813333	384.961914	159.986801
-15645.495213	5089.813333	383.683594	60.753674
-15645.495213	5089.813333	382.405273	142.524185
-15645.495213	5089.813333	381.125977	153.202957
-15645.495213	5089.813333	379.846680	195.556351
-15645.495213	5089.813333	378.567383	47.041664
-15645.495213	5089.813333	377.287109	74.481476
-15645.495213	5089.813333	376.006836	197.100433
-15645.495213	5089.813333	374.726563	89.825340
-15645.495213	5089.813333	373.446289	89.950989
-15645.495213	5089.813333	372.165039	82.595978
-15645.495213	5089.813333	370.883789	228.937836
-15645.495213	5089.813333	369.602539	60.097744
-15645.495213	5089.813333	368.320313	186.518860
-15645.495213	5089.813333	367.039063	200.451736
-15645.495213	5089.813333	365.755859	184.909836
-15645.495213	5089.813333	364.473633	54.537289
-15645.495213	5089.813333	363.190430	11.819644
-15645.495213	5089.813333	361.907227	-33.522072
-15645.495213	5089.813333	360.624023	81.838539
-15645.495213	5089.813333	359.340820	131.122452
-15645.495213	5089.813333	358.056641	128.980499
-15645.495213	5089.813333	356.772461	-34.186821
-15645.495213	5089.813333	355.487305	99.618896
-15645.495213	5089.813333	354.202148	-93.197784
-15645.495213	5089.813333	352.916992	-8.647701
-15645.495213	5089.813333	351.631836	-19.336386
-15645.495213	5089.813333	350.346680	-88.707733
-15645.495213	5089.813333	349.060547	109.285500
-15645.495213	5089.813333	347.774414	-45.820969
-15645.495213	5089.813333	346.487305	-47.965225
-15645.495213	5089.813333	345.200195	12.785349
-15645.495213	5089.813333	343.913086	-43.508049
-15645.495213	5089.813333	342.625977	45.700642
-15645.495213	5089.813333	341.338867	-69.592346
-15645.495213	5089.813333	340.050781	-92.897301
-15645.495213	5089.813333	338.762695	19.440001
-15645.495213	5089.813333	337.473633	17.199377
-15645.495213	5089.813333	336.184570	12.127057
-15645.495213	5089.813333	334.895508	-7.923990
-15645.495213	5089.813333	333.606445	32.269283
-15645.495213	5089.813333	332.317383	72.000908
-15645.495213	5089.813333	331.027344	-90.077621
-15645.495213	5089.813333	329.736328	-114.338997
-15645.495213	5089.813333	328.446289	-68.754303
-15645.495213	5089.813333	327.155273	-11.582022
-15645.495213	5089.813333	325.864258	-61.584599
-15645.495213	5089.813333	324.573242	-138.749954
-15645.495213	5089.813333	323.281250	-22.647459
-15645.495213	5089.813333	321.989258	39.558216
-15645.495213	5089.813333	320.697266	-0.541331
-15645.495213	5089.813333	319.405273	-4.908072
-15645.495213	5089.813333	318.112305	79.649597
-15645.495213	5089.813333	316.819336	-54.242729
-15645.495213	5089.813333	315.526367	16.909630
-15645.495213	5089.813333	314.232422	9.947516
-15645.495213	5089.813333	312.938477	50.663757
-15645.495213	5089.813333	311.644531	54.389744
-15645.495213	5089.813333	310.349609	40.450336
-15645.495213	5089.813333	309.054688	-24.979992
-15645.495213	5089.813333	307.759766	-83.901161
-15645.495213	5089.813333	306.464844	32.750439
-15645.495213	5089.813333	305.168945	240.292252
-15645.495213	5089.813333	303.873047	154.756668
-15645.495213	5089.813333	302.577148	336.354431
-15645.495213	5089.813333	301.281250	270.824677
-15645.495213	5089.813333	299.984375	177.858841
