#X		#Y		#Wave		#Intensity
9577.699468	4855.243333	1999.946289	-73.115913
9577.699468	4855.243333	1998.981445	85.317444
9577.699468	4855.243333	1998.017578	122.924347
9577.699468	4855.243333	1997.052734	-10.307632
9577.699468	4855.243333	1996.088867	111.877167
9577.699468	4855.243333	1995.124023	-33.364819
9577.699468	4855.243333	1994.159180	-42.178211
9577.699468	4855.243333	1993.193359	23.446569
9577.699468	4855.243333	1992.228516	-22.215200
9577.699468	4855.243333	1991.262695	110.502380
9577.699468	4855.243333	1990.296875	258.157562
9577.699468	4855.243333	1989.331055	173.292831
9577.699468	4855.243333	1988.365234	31.687035
9577.699468	4855.243333	1987.398438	-65.223061
9577.699468	4855.243333	1986.432617	-110.039246
9577.699468	4855.243333	1985.465820	-162.143250
9577.699468	4855.243333	1984.499023	70.180122
9577.699468	4855.243333	1983.532227	-6.434316
9577.699468	4855.243333	1982.565430	-107.628059
9577.699468	4855.243333	1981.597656	1.328840
9577.699468	4855.243333	1980.629883	-13.172757
9577.699468	4855.243333	1979.662109	-84.380539
9577.699468	4855.243333	1978.694336	-160.410263
9577.699468	4855.243333	1977.726563	106.856735
9577.699468	4855.243333	1976.758789	-8.504706
9577.699468	4855.243333	1975.790039	167.481476
9577.699468	4855.243333	1974.821289	-61.199234
9577.699468	4855.243333	1973.852539	43.338749
9577.699468	4855.243333	1972.883789	56.643192
9577.699468	4855.243333	1971.915039	18.221905
9577.699468	4855.243333	1970.945313	307.820221
9577.699468	4855.243333	1969.975586	-80.573463
9577.699468	4855.243333	1969.005859	78.425781
9577.699468	4855.243333	1968.036133	161.028198
9577.699468	4855.243333	1967.066406	228.872787
9577.699468	4855.243333	1966.096680	-1.331090
9577.699468	4855.243333	1965.125977	83.861877
9577.699468	4855.243333	1964.155273	1.618789
9577.699468	4855.243333	1963.184570	22.859163
9577.699468	4855.243333	1962.213867	73.675438
9577.699468	4855.243333	1961.242188	-84.685898
9577.699468	4855.243333	1960.271484	-149.441238
9577.699468	4855.243333	1959.299805	73.711456
9577.699468	4855.243333	1958.328125	55.757687
9577.699468	4855.243333	1957.356445	-28.558451
9577.699468	4855.243333	1956.384766	98.650734
9577.699468	4855.243333	1955.412109	122.588333
9577.699468	4855.243333	1954.439453	-86.961235
9577.699468	4855.243333	1953.467773	-107.179436
9577.699468	4855.243333	1952.495117	2.856697
9577.699468	4855.243333	1951.521484	-66.457977
9577.699468	4855.243333	1950.548828	6.730332
9577.699468	4855.243333	1949.575195	-8.494964
9577.699468	4855.243333	1948.601563	-188.195023
9577.699468	4855.243333	1947.627930	-26.602810
9577.699468	4855.243333	1946.654297	41.681568
9577.699468	4855.243333	1945.680664	46.152771
9577.699468	4855.243333	1944.706055	259.170868
9577.699468	4855.243333	1943.732422	187.581924
9577.699468	4855.243333	1942.757813	91.503067
9577.699468	4855.243333	1941.783203	54.316685
9577.699468	4855.243333	1940.807617	78.438705
9577.699468	4855.243333	1939.833008	134.421326
9577.699468	4855.243333	1938.857422	-86.535088
9577.699468	4855.243333	1937.881836	72.372856
9577.699468	4855.243333	1936.906250	98.937057
9577.699468	4855.243333	1935.930664	-75.346466
9577.699468	4855.243333	1934.955078	-36.518764
9577.699468	4855.243333	1933.978516	21.879335
9577.699468	4855.243333	1933.001953	-179.223602
9577.699468	4855.243333	1932.025391	-0.899788
9577.699468	4855.243333	1931.048828	40.321587
9577.699468	4855.243333	1930.072266	174.492401
9577.699468	4855.243333	1929.094727	330.620789
9577.699468	4855.243333	1928.118164	249.460541
9577.699468	4855.243333	1927.140625	53.400833
9577.699468	4855.243333	1926.163086	52.981800
9577.699468	4855.243333	1925.184570	-125.875252
9577.699468	4855.243333	1924.207031	-55.407616
9577.699468	4855.243333	1923.228516	0.363822
9577.699468	4855.243333	1922.250000	219.777161
9577.699468	4855.243333	1921.271484	28.769308
9577.699468	4855.243333	1920.292969	-152.410324
9577.699468	4855.243333	1919.314453	64.433037
9577.699468	4855.243333	1918.334961	193.302826
9577.699468	4855.243333	1917.355469	148.829315
9577.699468	4855.243333	1916.375977	123.879196
9577.699468	4855.243333	1915.396484	113.562363
9577.699468	4855.243333	1914.416992	71.525841
9577.699468	4855.243333	1913.436523	48.997723
9577.699468	4855.243333	1912.457031	-12.548778
9577.699468	4855.243333	1911.476563	38.052937
9577.699468	4855.243333	1910.496094	-16.189680
9577.699468	4855.243333	1909.515625	-89.923462
9577.699468	4855.243333	1908.534180	-90.553108
9577.699468	4855.243333	1907.552734	76.887917
9577.699468	4855.243333	1906.572266	25.046890
9577.699468	4855.243333	1905.590820	75.481926
9577.699468	4855.243333	1904.608398	79.619469
9577.699468	4855.243333	1903.626953	-1.459393
9577.699468	4855.243333	1902.644531	78.101250
9577.699468	4855.243333	1901.663086	57.848385
9577.699468	4855.243333	1900.680664	22.986530
9577.699468	4855.243333	1899.698242	63.522507
9577.699468	4855.243333	1898.714844	72.407066
9577.699468	4855.243333	1897.732422	173.667862
9577.699468	4855.243333	1896.749023	12.314994
9577.699468	4855.243333	1895.765625	-51.772541
9577.699468	4855.243333	1894.782227	200.062363
9577.699468	4855.243333	1893.798828	172.368439
9577.699468	4855.243333	1892.814453	171.385437
9577.699468	4855.243333	1891.831055	119.378616
9577.699468	4855.243333	1890.846680	-102.612793
9577.699468	4855.243333	1889.862305	-120.601204
9577.699468	4855.243333	1888.877930	140.550034
9577.699468	4855.243333	1887.892578	66.660744
9577.699468	4855.243333	1886.908203	-104.280937
9577.699468	4855.243333	1885.922852	-1.036722
9577.699468	4855.243333	1884.937500	46.358669
9577.699468	4855.243333	1883.952148	-29.965876
9577.699468	4855.243333	1882.965820	77.991020
9577.699468	4855.243333	1881.980469	149.525375
9577.699468	4855.243333	1880.994141	177.382156
9577.699468	4855.243333	1880.007813	-114.672470
9577.699468	4855.243333	1879.021484	85.205284
9577.699468	4855.243333	1878.035156	-58.997265
9577.699468	4855.243333	1877.047852	-50.583500
9577.699468	4855.243333	1876.061523	-78.514954
9577.699468	4855.243333	1875.074219	-159.721664
9577.699468	4855.243333	1874.086914	-64.215607
9577.699468	4855.243333	1873.098633	-82.514091
9577.699468	4855.243333	1872.111328	100.009407
9577.699468	4855.243333	1871.123047	241.315353
9577.699468	4855.243333	1870.135742	-55.251881
9577.699468	4855.243333	1869.147461	-141.335419
9577.699468	4855.243333	1868.158203	161.870407
9577.699468	4855.243333	1867.169922	-13.707852
9577.699468	4855.243333	1866.180664	-174.740784
9577.699468	4855.243333	1865.192383	41.246094
9577.699468	4855.243333	1864.203125	71.092873
9577.699468	4855.243333	1863.213867	79.166718
9577.699468	4855.243333	1862.223633	-108.413124
9577.699468	4855.243333	1861.234375	-78.616356
9577.699468	4855.243333	1860.244141	100.830574
9577.699468	4855.243333	1859.253906	-23.949221
9577.699468	4855.243333	1858.263672	131.246490
9577.699468	4855.243333	1857.273438	-77.983559
9577.699468	4855.243333	1856.282227	-7.313204
9577.699468	4855.243333	1855.291992	193.560547
9577.699468	4855.243333	1854.300781	68.780167
9577.699468	4855.243333	1853.309570	-34.274277
9577.699468	4855.243333	1852.317383	50.717457
9577.699468	4855.243333	1851.326172	171.813400
9577.699468	4855.243333	1850.333984	47.049416
9577.699468	4855.243333	1849.342773	170.470917
9577.699468	4855.243333	1848.350586	84.257271
9577.699468	4855.243333	1847.357422	116.064758
9577.699468	4855.243333	1846.365234	58.749439
9577.699468	4855.243333	1845.372070	11.065763
9577.699468	4855.243333	1844.379883	-128.083267
9577.699468	4855.243333	1843.386719	230.955154
9577.699468	4855.243333	1842.393555	-26.122293
9577.699468	4855.243333	1841.399414	-52.181110
9577.699468	4855.243333	1840.406250	61.255070
9577.699468	4855.243333	1839.412109	80.842842
9577.699468	4855.243333	1838.417969	-79.917358
9577.699468	4855.243333	1837.423828	-50.732471
9577.699468	4855.243333	1836.429688	-4.752805
9577.699468	4855.243333	1835.434570	-90.972870
9577.699468	4855.243333	1834.440430	-13.806733
9577.699468	4855.243333	1833.445313	149.781876
9577.699468	4855.243333	1832.450195	125.968285
9577.699468	4855.243333	1831.454102	-121.161034
9577.699468	4855.243333	1830.458984	44.702648
9577.699468	4855.243333	1829.462891	-3.135999
9577.699468	4855.243333	1828.466797	165.004288
9577.699468	4855.243333	1827.470703	81.136253
9577.699468	4855.243333	1826.474609	23.669167
9577.699468	4855.243333	1825.478516	-62.575630
9577.699468	4855.243333	1824.481445	-48.092842
9577.699468	4855.243333	1823.484375	-28.837864
9577.699468	4855.243333	1822.487305	-146.240326
9577.699468	4855.243333	1821.490234	-95.853889
9577.699468	4855.243333	1820.493164	100.661346
9577.699468	4855.243333	1819.495117	-28.732380
9577.699468	4855.243333	1818.498047	-2.400814
9577.699468	4855.243333	1817.500000	110.113647
9577.699468	4855.243333	1816.500977	83.693810
9577.699468	4855.243333	1815.502930	-134.242783
9577.699468	4855.243333	1814.504883	-19.425327
9577.699468	4855.243333	1813.505859	71.398323
9577.699468	4855.243333	1812.506836	-86.652855
9577.699468	4855.243333	1811.507813	51.957291
9577.699468	4855.243333	1810.508789	-41.490929
9577.699468	4855.243333	1809.508789	-111.012024
9577.699468	4855.243333	1808.508789	75.284508
9577.699468	4855.243333	1807.508789	89.392822
9577.699468	4855.243333	1806.508789	77.190865
9577.699468	4855.243333	1805.508789	158.162064
9577.699468	4855.243333	1804.508789	45.582767
9577.699468	4855.243333	1803.507813	73.946205
9577.699468	4855.243333	1802.506836	47.356808
9577.699468	4855.243333	1801.505859	-67.578979
9577.699468	4855.243333	1800.504883	-151.456848
9577.699468	4855.243333	1799.502930	65.396973
9577.699468	4855.243333	1798.501953	160.457169
9577.699468	4855.243333	1797.500000	69.373039
9577.699468	4855.243333	1796.498047	-129.033112
9577.699468	4855.243333	1795.496094	111.432060
9577.699468	4855.243333	1794.493164	-234.778442
9577.699468	4855.243333	1793.491211	96.171494
9577.699468	4855.243333	1792.488281	-35.423454
9577.699468	4855.243333	1791.485352	54.636993
9577.699468	4855.243333	1790.482422	30.281527
9577.699468	4855.243333	1789.478516	-41.728352
9577.699468	4855.243333	1788.475586	162.552017
9577.699468	4855.243333	1787.471680	-71.415871
9577.699468	4855.243333	1786.467773	-83.898460
9577.699468	4855.243333	1785.463867	58.328808
9577.699468	4855.243333	1784.459961	183.824493
9577.699468	4855.243333	1783.455078	199.798264
9577.699468	4855.243333	1782.450195	106.313751
9577.699468	4855.243333	1781.445313	181.723480
9577.699468	4855.243333	1780.440430	47.815475
9577.699468	4855.243333	1779.435547	51.842621
9577.699468	4855.243333	1778.429688	-65.389832
9577.699468	4855.243333	1777.424805	2.793569
9577.699468	4855.243333	1776.418945	-78.776909
9577.699468	4855.243333	1775.413086	196.039658
9577.699468	4855.243333	1774.406250	-125.489639
9577.699468	4855.243333	1773.400391	-57.423615
9577.699468	4855.243333	1772.393555	91.326675
9577.699468	4855.243333	1771.386719	183.025238
9577.699468	4855.243333	1770.379883	-7.785019
9577.699468	4855.243333	1769.373047	190.650711
9577.699468	4855.243333	1768.365234	196.802551
9577.699468	4855.243333	1767.358398	-79.358833
9577.699468	4855.243333	1766.350586	38.277744
9577.699468	4855.243333	1765.342773	6.456852
9577.699468	4855.243333	1764.334961	292.324890
9577.699468	4855.243333	1763.326172	158.497437
9577.699468	4855.243333	1762.318359	-58.244186
9577.699468	4855.243333	1761.309570	113.674919
9577.699468	4855.243333	1760.300781	-84.065048
9577.699468	4855.243333	1759.291016	-47.260731
9577.699468	4855.243333	1758.282227	-72.058372
9577.699468	4855.243333	1757.272461	4.940995
9577.699468	4855.243333	1756.262695	143.440094
9577.699468	4855.243333	1755.252930	12.050151
9577.699468	4855.243333	1754.243164	-131.141998
9577.699468	4855.243333	1753.233398	-70.831749
9577.699468	4855.243333	1752.222656	-34.223118
9577.699468	4855.243333	1751.211914	-132.454117
9577.699468	4855.243333	1750.201172	-100.617592
9577.699468	4855.243333	1749.190430	-47.536907
9577.699468	4855.243333	1748.179688	149.685318
9577.699468	4855.243333	1747.167969	41.954372
9577.699468	4855.243333	1746.156250	99.636223
9577.699468	4855.243333	1745.144531	69.869446
9577.699468	4855.243333	1744.132813	89.692039
9577.699468	4855.243333	1743.121094	38.642967
9577.699468	4855.243333	1742.108398	-38.382351
9577.699468	4855.243333	1741.095703	-84.713158
9577.699468	4855.243333	1740.083008	53.036190
9577.699468	4855.243333	1739.070313	84.528687
9577.699468	4855.243333	1738.057617	167.889236
9577.699468	4855.243333	1737.043945	-79.027855
9577.699468	4855.243333	1736.030273	-9.865211
9577.699468	4855.243333	1735.016602	12.090941
9577.699468	4855.243333	1734.002930	177.816086
9577.699468	4855.243333	1732.989258	161.974213
9577.699468	4855.243333	1731.974609	-190.862717
9577.699468	4855.243333	1730.959961	-44.113583
9577.699468	4855.243333	1729.945313	114.333824
9577.699468	4855.243333	1728.930664	-193.613373
9577.699468	4855.243333	1727.916016	-37.597824
9577.699468	4855.243333	1726.900391	123.038284
9577.699468	4855.243333	1725.885742	198.859863
9577.699468	4855.243333	1724.870117	180.491241
9577.699468	4855.243333	1723.853516	98.575836
9577.699468	4855.243333	1722.837891	-25.671930
9577.699468	4855.243333	1721.822266	155.858871
9577.699468	4855.243333	1720.805664	97.439240
9577.699468	4855.243333	1719.789063	215.346786
9577.699468	4855.243333	1718.772461	173.343170
9577.699468	4855.243333	1717.754883	-12.031164
9577.699468	4855.243333	1716.738281	4.719740
9577.699468	4855.243333	1715.720703	-46.693233
9577.699468	4855.243333	1714.703125	200.188309
9577.699468	4855.243333	1713.685547	228.552780
9577.699468	4855.243333	1712.667969	130.095398
9577.699468	4855.243333	1711.649414	193.621170
9577.699468	4855.243333	1710.630859	90.459679
9577.699468	4855.243333	1709.612305	-80.736794
9577.699468	4855.243333	1708.593750	118.792419
9577.699468	4855.243333	1707.575195	-12.518181
9577.699468	4855.243333	1706.555664	39.118736
9577.699468	4855.243333	1705.536133	318.152008
9577.699468	4855.243333	1704.516602	93.026886
9577.699468	4855.243333	1703.497070	60.158348
9577.699468	4855.243333	1702.477539	81.176224
9577.699468	4855.243333	1701.457031	-10.306080
9577.699468	4855.243333	1700.437500	132.476639
9577.699468	4855.243333	1699.416992	228.332275
9577.699468	4855.243333	1698.395508	-99.709991
9577.699468	4855.243333	1697.375000	-76.473679
9577.699468	4855.243333	1696.354492	349.330383
9577.699468	4855.243333	1695.333008	107.965820
9577.699468	4855.243333	1694.311523	177.863220
9577.699468	4855.243333	1693.290039	158.811600
9577.699468	4855.243333	1692.267578	219.259140
9577.699468	4855.243333	1691.246094	455.047668
9577.699468	4855.243333	1690.223633	279.223907
9577.699468	4855.243333	1689.201172	208.631638
9577.699468	4855.243333	1688.178711	28.196642
9577.699468	4855.243333	1687.155273	81.465614
9577.699468	4855.243333	1686.132813	379.995453
9577.699468	4855.243333	1685.109375	241.591492
9577.699468	4855.243333	1684.085938	61.177715
9577.699468	4855.243333	1683.062500	420.162323
9577.699468	4855.243333	1682.039063	260.740601
9577.699468	4855.243333	1681.014648	75.675949
9577.699468	4855.243333	1679.990234	250.017456
9577.699468	4855.243333	1678.965820	209.623535
9577.699468	4855.243333	1677.941406	327.836945
9577.699468	4855.243333	1676.916992	490.288574
9577.699468	4855.243333	1675.891602	309.884277
9577.699468	4855.243333	1674.866211	134.185028
9577.699468	4855.243333	1673.840820	163.639038
9577.699468	4855.243333	1672.815430	314.235626
9577.699468	4855.243333	1671.790039	257.383972
9577.699468	4855.243333	1670.763672	251.770187
9577.699468	4855.243333	1669.737305	472.049011
9577.699468	4855.243333	1668.710938	401.143372
9577.699468	4855.243333	1667.684570	379.130463
9577.699468	4855.243333	1666.658203	464.171448
9577.699468	4855.243333	1665.630859	304.790222
9577.699468	4855.243333	1664.603516	312.972717
9577.699468	4855.243333	1663.576172	442.094025
9577.699468	4855.243333	1662.548828	422.283112
9577.699468	4855.243333	1661.520508	744.286438
9577.699468	4855.243333	1660.493164	503.499939
9577.699468	4855.243333	1659.464844	797.416504
9577.699468	4855.243333	1658.436523	661.238953
9577.699468	4855.243333	1657.408203	778.363892
9577.699468	4855.243333	1656.378906	1030.156860
9577.699468	4855.243333	1655.350586	1091.367554
9577.699468	4855.243333	1654.321289	1117.689697
9577.699468	4855.243333	1653.291992	976.804016
9577.699468	4855.243333	1652.261719	1054.151978
9577.699468	4855.243333	1651.232422	897.035400
9577.699468	4855.243333	1650.202148	911.664368
9577.699468	4855.243333	1649.171875	1046.905151
9577.699468	4855.243333	1648.141602	1056.809814
9577.699468	4855.243333	1647.111328	908.984619
9577.699468	4855.243333	1646.080078	974.506042
9577.699468	4855.243333	1645.049805	810.476807
9577.699468	4855.243333	1644.018555	1042.822632
9577.699468	4855.243333	1642.987305	827.807495
9577.699468	4855.243333	1641.955078	714.787781
9577.699468	4855.243333	1640.923828	798.691589
9577.699468	4855.243333	1639.891602	785.262085
9577.699468	4855.243333	1638.859375	1003.367615
9577.699468	4855.243333	1637.827148	848.634338
9577.699468	4855.243333	1636.794922	807.354431
9577.699468	4855.243333	1635.761719	708.206604
9577.699468	4855.243333	1634.729492	761.788025
9577.699468	4855.243333	1633.696289	806.065308
9577.699468	4855.243333	1632.662109	706.899902
9577.699468	4855.243333	1631.628906	619.318848
9577.699468	4855.243333	1630.594727	781.433105
9577.699468	4855.243333	1629.561523	818.647888
9577.699468	4855.243333	1628.527344	860.441162
9577.699468	4855.243333	1627.493164	953.029297
9577.699468	4855.243333	1626.458008	798.367126
9577.699468	4855.243333	1625.423828	821.596436
9577.699468	4855.243333	1624.388672	897.902039
9577.699468	4855.243333	1623.353516	918.746521
9577.699468	4855.243333	1622.318359	958.027527
9577.699468	4855.243333	1621.282227	884.178528
9577.699468	4855.243333	1620.247070	854.185913
9577.699468	4855.243333	1619.210938	944.142761
9577.699468	4855.243333	1618.174805	1107.855469
9577.699468	4855.243333	1617.137695	999.355103
9577.699468	4855.243333	1616.101563	1024.613525
9577.699468	4855.243333	1615.064453	1001.425842
9577.699468	4855.243333	1614.027344	1194.876831
9577.699468	4855.243333	1612.990234	1312.191406
9577.699468	4855.243333	1611.953125	1143.760498
9577.699468	4855.243333	1610.916016	1240.270874
9577.699468	4855.243333	1609.877930	1184.723145
9577.699468	4855.243333	1608.839844	1442.323364
9577.699468	4855.243333	1607.801758	1181.836304
9577.699468	4855.243333	1606.763672	1379.458618
9577.699468	4855.243333	1605.724609	1457.318970
9577.699468	4855.243333	1604.685547	1408.591919
9577.699468	4855.243333	1603.646484	1362.167603
9577.699468	4855.243333	1602.607422	1327.243530
9577.699468	4855.243333	1601.568359	1430.281860
9577.699468	4855.243333	1600.528320	1287.270630
9577.699468	4855.243333	1599.489258	1663.766113
9577.699468	4855.243333	1598.449219	1350.679443
9577.699468	4855.243333	1597.408203	1517.891724
9577.699468	4855.243333	1596.368164	1643.683105
9577.699468	4855.243333	1595.327148	1388.151855
9577.699468	4855.243333	1594.287109	1396.782593
9577.699468	4855.243333	1593.246094	1244.683350
9577.699468	4855.243333	1592.204102	1303.796631
9577.699468	4855.243333	1591.163086	1404.190186
9577.699468	4855.243333	1590.121094	1199.361450
9577.699468	4855.243333	1589.079102	1311.175049
9577.699468	4855.243333	1588.037109	1416.052246
9577.699468	4855.243333	1586.995117	984.289307
9577.699468	4855.243333	1585.953125	1082.289917
9577.699468	4855.243333	1584.910156	1150.436279
9577.699468	4855.243333	1583.867188	1195.628296
9577.699468	4855.243333	1582.824219	1169.761597
9577.699468	4855.243333	1581.781250	1157.641479
9577.699468	4855.243333	1580.737305	1200.481323
9577.699468	4855.243333	1579.693359	1142.536133
9577.699468	4855.243333	1578.649414	1027.367920
9577.699468	4855.243333	1577.605469	1202.948730
9577.699468	4855.243333	1576.561523	1145.014404
9577.699468	4855.243333	1575.516602	1084.801758
9577.699468	4855.243333	1574.472656	880.484741
9577.699468	4855.243333	1573.427734	980.443970
9577.699468	4855.243333	1572.381836	1089.499023
9577.699468	4855.243333	1571.336914	1116.203125
9577.699468	4855.243333	1570.291016	1012.585938
9577.699468	4855.243333	1569.246094	758.170349
9577.699468	4855.243333	1568.200195	1063.678589
9577.699468	4855.243333	1567.153320	985.244812
9577.699468	4855.243333	1566.107422	824.617432
9577.699468	4855.243333	1565.060547	967.774475
9577.699468	4855.243333	1564.013672	1154.254517
9577.699468	4855.243333	1562.966797	680.932007
9577.699468	4855.243333	1561.919922	817.180420
9577.699468	4855.243333	1560.872070	941.959290
9577.699468	4855.243333	1559.825195	900.148743
9577.699468	4855.243333	1558.777344	878.877441
9577.699468	4855.243333	1557.729492	679.730591
9577.699468	4855.243333	1556.680664	813.553528
9577.699468	4855.243333	1555.632813	858.424744
9577.699468	4855.243333	1554.583984	809.825256
9577.699468	4855.243333	1553.535156	610.850220
9577.699468	4855.243333	1552.486328	915.463013
9577.699468	4855.243333	1551.436523	834.994263
9577.699468	4855.243333	1550.387695	886.657166
9577.699468	4855.243333	1549.337891	706.046143
9577.699468	4855.243333	1548.288086	739.505310
9577.699468	4855.243333	1547.238281	702.397522
9577.699468	4855.243333	1546.187500	808.667725
9577.699468	4855.243333	1545.136719	625.955872
9577.699468	4855.243333	1544.086914	684.449829
9577.699468	4855.243333	1543.035156	547.327393
9577.699468	4855.243333	1541.984375	421.642181
9577.699468	4855.243333	1540.933594	623.382202
9577.699468	4855.243333	1539.881836	718.217163
9577.699468	4855.243333	1538.830078	549.415833
9577.699468	4855.243333	1537.778320	860.091064
9577.699468	4855.243333	1536.725586	525.515137
9577.699468	4855.243333	1535.673828	754.332520
9577.699468	4855.243333	1534.621094	603.858765
9577.699468	4855.243333	1533.568359	510.212219
9577.699468	4855.243333	1532.515625	779.783081
9577.699468	4855.243333	1531.461914	656.656189
9577.699468	4855.243333	1530.409180	554.017883
9577.699468	4855.243333	1529.355469	614.756104
9577.699468	4855.243333	1528.301758	682.290039
9577.699468	4855.243333	1527.247070	695.383179
9577.699468	4855.243333	1526.193359	724.364441
9577.699468	4855.243333	1525.138672	442.809357
9577.699468	4855.243333	1524.083984	557.971008
9577.699468	4855.243333	1523.029297	478.248291
9577.699468	4855.243333	1521.974609	681.740356
9577.699468	4855.243333	1520.918945	525.048889
9577.699468	4855.243333	1519.863281	456.750092
9577.699468	4855.243333	1518.807617	517.544617
9577.699468	4855.243333	1517.751953	426.679169
9577.699468	4855.243333	1516.696289	342.659119
9577.699468	4855.243333	1515.639648	371.818573
9577.699468	4855.243333	1514.583008	315.024750
9577.699468	4855.243333	1513.526367	274.108185
9577.699468	4855.243333	1512.469727	382.475647
9577.699468	4855.243333	1511.412109	314.471222
9577.699468	4855.243333	1510.355469	201.315628
9577.699468	4855.243333	1509.297852	140.201324
9577.699468	4855.243333	1508.240234	228.263840
9577.699468	4855.243333	1507.181641	264.352173
9577.699468	4855.243333	1506.124023	318.527740
9577.699468	4855.243333	1505.065430	185.274200
9577.699468	4855.243333	1504.006836	239.490631
9577.699468	4855.243333	1502.948242	22.841629
9577.699468	4855.243333	1501.888672	25.212484
9577.699468	4855.243333	1500.830078	162.998291
9577.699468	4855.243333	1499.770508	-3.796521
9577.699468	4855.243333	1498.710938	3.176247
9577.699468	4855.243333	1497.650391	-125.130623
9577.699468	4855.243333	1496.590820	-70.729523
9577.699468	4855.243333	1495.530273	206.834457
9577.699468	4855.243333	1494.469727	98.940598
9577.699468	4855.243333	1493.409180	-71.968185
9577.699468	4855.243333	1492.348633	142.450409
9577.699468	4855.243333	1491.287109	-53.114304
9577.699468	4855.243333	1490.225586	-25.629833
9577.699468	4855.243333	1489.164063	-25.138641
9577.699468	4855.243333	1488.102539	-303.735931
9577.699468	4855.243333	1487.041016	-6.048108
9577.699468	4855.243333	1485.978516	-160.715805
9577.699468	4855.243333	1484.916016	-40.786797
9577.699468	4855.243333	1483.853516	-244.834778
9577.699468	4855.243333	1482.791016	48.252083
9577.699468	4855.243333	1481.727539	224.348953
9577.699468	4855.243333	1480.664063	222.843445
9577.699468	4855.243333	1479.600586	-23.588150
9577.699468	4855.243333	1478.537109	-40.637718
9577.699468	4855.243333	1477.473633	41.119061
9577.699468	4855.243333	1476.409180	-56.765697
9577.699468	4855.243333	1475.344727	58.752659
9577.699468	4855.243333	1474.280273	-27.642771
9577.699468	4855.243333	1473.215820	29.473307
9577.699468	4855.243333	1472.151367	-56.822453
9577.699468	4855.243333	1471.085938	-161.061722
9577.699468	4855.243333	1470.020508	75.610481
9577.699468	4855.243333	1468.955078	-194.060242
9577.699468	4855.243333	1467.888672	-164.045883
9577.699468	4855.243333	1466.823242	-99.534813
9577.699468	4855.243333	1465.756836	-144.965546
9577.699468	4855.243333	1464.690430	17.490288
9577.699468	4855.243333	1463.624023	-124.349457
9577.699468	4855.243333	1462.556641	-93.279793
9577.699468	4855.243333	1461.490234	241.395218
9577.699468	4855.243333	1460.422852	198.247238
9577.699468	4855.243333	1459.355469	35.159107
9577.699468	4855.243333	1458.287109	-32.948177
9577.699468	4855.243333	1457.219727	182.997864
9577.699468	4855.243333	1456.151367	100.030228
9577.699468	4855.243333	1455.083008	66.511032
9577.699468	4855.243333	1454.014648	62.323517
9577.699468	4855.243333	1452.945313	-84.968506
9577.699468	4855.243333	1451.876953	-154.212006
9577.699468	4855.243333	1450.807617	133.487808
9577.699468	4855.243333	1449.738281	363.887329
9577.699468	4855.243333	1448.668945	159.963516
9577.699468	4855.243333	1447.598633	194.594894
9577.699468	4855.243333	1446.528320	339.569885
9577.699468	4855.243333	1445.458008	362.545197
9577.699468	4855.243333	1444.387695	461.587555
9577.699468	4855.243333	1443.317383	560.409363
9577.699468	4855.243333	1442.246094	517.005493
9577.699468	4855.243333	1441.174805	596.923950
9577.699468	4855.243333	1440.103516	776.406250
9577.699468	4855.243333	1439.032227	697.924561
9577.699468	4855.243333	1437.960938	808.803345
9577.699468	4855.243333	1436.888672	686.628784
9577.699468	4855.243333	1435.816406	780.801880
9577.699468	4855.243333	1434.744141	771.170776
9577.699468	4855.243333	1433.670898	809.738586
9577.699468	4855.243333	1432.598633	792.751099
9577.699468	4855.243333	1431.525391	430.131348
9577.699468	4855.243333	1430.452148	366.053589
9577.699468	4855.243333	1429.378906	502.582642
9577.699468	4855.243333	1428.304688	412.752228
9577.699468	4855.243333	1427.231445	406.580933
9577.699468	4855.243333	1426.157227	459.553864
9577.699468	4855.243333	1425.083008	531.399658
9577.699468	4855.243333	1424.007813	579.819336
9577.699468	4855.243333	1422.933594	756.869995
9577.699468	4855.243333	1421.858398	3531.123047
9577.699468	4855.243333	1420.783203	2305.193848
9577.699468	4855.243333	1419.708008	640.739868
9577.699468	4855.243333	1418.631836	547.918213
9577.699468	4855.243333	1417.555664	572.862488
9577.699468	4855.243333	1416.479492	551.087585
9577.699468	4855.243333	1415.403320	661.610352
9577.699468	4855.243333	1414.327148	643.526855
9577.699468	4855.243333	1413.250000	488.369568
9577.699468	4855.243333	1412.173828	583.582092
9577.699468	4855.243333	1411.096680	424.550629
9577.699468	4855.243333	1410.018555	259.464050
9577.699468	4855.243333	1408.941406	249.132751
9577.699468	4855.243333	1407.863281	463.918823
9577.699468	4855.243333	1406.785156	157.974655
9577.699468	4855.243333	1405.707031	187.574860
9577.699468	4855.243333	1404.628906	291.181580
9577.699468	4855.243333	1403.549805	369.860077
9577.699468	4855.243333	1402.470703	208.026154
9577.699468	4855.243333	1401.391602	197.349899
9577.699468	4855.243333	1400.312500	218.565887
9577.699468	4855.243333	1399.233398	60.583508
9577.699468	4855.243333	1398.153320	324.494720
9577.699468	4855.243333	1397.073242	253.264694
9577.699468	4855.243333	1395.993164	234.884842
9577.699468	4855.243333	1394.913086	32.306484
9577.699468	4855.243333	1393.832031	-5.349834
9577.699468	4855.243333	1392.750977	74.811440
9577.699468	4855.243333	1391.669922	200.613693
9577.699468	4855.243333	1390.588867	6.594202
9577.699468	4855.243333	1389.506836	99.888367
9577.699468	4855.243333	1388.425781	82.497337
9577.699468	4855.243333	1387.343750	169.108841
9577.699468	4855.243333	1386.261719	-3.176902
9577.699468	4855.243333	1385.178711	-2.901983
9577.699468	4855.243333	1384.096680	177.712494
9577.699468	4855.243333	1383.013672	2.282535
9577.699468	4855.243333	1381.930664	117.819160
9577.699468	4855.243333	1380.846680	82.466103
9577.699468	4855.243333	1379.763672	325.622772
9577.699468	4855.243333	1378.679688	185.935959
9577.699468	4855.243333	1377.595703	215.634186
9577.699468	4855.243333	1376.511719	300.360077
9577.699468	4855.243333	1375.427734	75.927177
9577.699468	4855.243333	1374.342773	180.050873
9577.699468	4855.243333	1373.257813	245.349045
9577.699468	4855.243333	1372.172852	151.850021
9577.699468	4855.243333	1371.087891	156.754074
9577.699468	4855.243333	1370.001953	7.941828
9577.699468	4855.243333	1368.916992	255.249786
9577.699468	4855.243333	1367.831055	260.263519
9577.699468	4855.243333	1366.744141	45.705879
9577.699468	4855.243333	1365.658203	316.979340
9577.699468	4855.243333	1364.571289	340.422791
9577.699468	4855.243333	1363.484375	335.330170
9577.699468	4855.243333	1362.397461	275.075531
9577.699468	4855.243333	1361.310547	333.060150
9577.699468	4855.243333	1360.222656	192.959259
9577.699468	4855.243333	1359.135742	345.227142
9577.699468	4855.243333	1358.047852	175.494507
9577.699468	4855.243333	1356.958984	94.069130
9577.699468	4855.243333	1355.871094	415.245728
9577.699468	4855.243333	1354.782227	280.912201
9577.699468	4855.243333	1353.693359	574.935059
9577.699468	4855.243333	1352.604492	448.710754
9577.699468	4855.243333	1351.515625	436.917908
9577.699468	4855.243333	1350.425781	493.459778
9577.699468	4855.243333	1349.335938	569.361755
9577.699468	4855.243333	1348.246094	266.459625
9577.699468	4855.243333	1347.156250	446.387146
9577.699468	4855.243333	1346.066406	372.612946
9577.699468	4855.243333	1344.975586	502.191925
9577.699468	4855.243333	1343.884766	316.589539
9577.699468	4855.243333	1342.793945	236.556656
9577.699468	4855.243333	1341.702148	380.798767
9577.699468	4855.243333	1340.611328	441.492401
9577.699468	4855.243333	1339.519531	227.895416
9577.699468	4855.243333	1338.427734	75.595001
9577.699468	4855.243333	1337.334961	166.367203
9577.699468	4855.243333	1336.243164	84.409447
9577.699468	4855.243333	1335.150391	18.068035
9577.699468	4855.243333	1334.057617	132.568497
9577.699468	4855.243333	1332.964844	5.187990
9577.699468	4855.243333	1331.871094	157.812241
9577.699468	4855.243333	1330.778320	195.643845
9577.699468	4855.243333	1329.684570	215.623474
9577.699468	4855.243333	1328.590820	193.327866
9577.699468	4855.243333	1327.496094	121.804123
9577.699468	4855.243333	1326.402344	175.493530
9577.699468	4855.243333	1325.307617	134.392960
9577.699468	4855.243333	1324.212891	317.532898
9577.699468	4855.243333	1323.117188	97.873840
9577.699468	4855.243333	1322.022461	200.638718
9577.699468	4855.243333	1320.926758	44.885418
9577.699468	4855.243333	1319.831055	-10.388026
9577.699468	4855.243333	1318.735352	13.893306
9577.699468	4855.243333	1317.638672	132.490906
9577.699468	4855.243333	1316.542969	21.102671
9577.699468	4855.243333	1315.446289	15.114225
9577.699468	4855.243333	1314.349609	-43.697445
9577.699468	4855.243333	1313.251953	-5.335274
9577.699468	4855.243333	1312.155273	41.589516
9577.699468	4855.243333	1311.057617	-52.251816
9577.699468	4855.243333	1309.959961	52.698689
9577.699468	4855.243333	1308.862305	-56.963608
9577.699468	4855.243333	1307.763672	18.001814
9577.699468	4855.243333	1306.665039	166.038437
9577.699468	4855.243333	1305.566406	-152.440002
9577.699468	4855.243333	1304.467773	-87.154602
9577.699468	4855.243333	1303.369141	-3.144763
9577.699468	4855.243333	1302.269531	168.899628
9577.699468	4855.243333	1301.169922	34.595558
9577.699468	4855.243333	1300.070313	94.849876
9577.699468	4855.243333	1298.970703	237.319412
9577.699468	4855.243333	1297.870117	131.578186
9577.699468	4855.243333	1296.769531	-222.659439
9577.699468	4855.243333	1295.668945	15.511422
9577.699468	4855.243333	1294.568359	266.378448
9577.699468	4855.243333	1293.466797	93.145706
9577.699468	4855.243333	1292.366211	-7.123499
9577.699468	4855.243333	1291.264648	41.876926
9577.699468	4855.243333	1290.162109	32.830307
9577.699468	4855.243333	1289.060547	19.161882
9577.699468	4855.243333	1287.958008	34.192715
9577.699468	4855.243333	1286.855469	48.001865
9577.699468	4855.243333	1285.752930	46.232437
9577.699468	4855.243333	1284.650391	130.931824
9577.699468	4855.243333	1283.546875	-83.979637
9577.699468	4855.243333	1282.444336	12.455832
9577.699468	4855.243333	1281.339844	-35.244766
9577.699468	4855.243333	1280.236328	242.472870
9577.699468	4855.243333	1279.132813	-4.717950
9577.699468	4855.243333	1278.028320	70.573090
9577.699468	4855.243333	1276.923828	96.904999
9577.699468	4855.243333	1275.819336	152.464767
9577.699468	4855.243333	1274.713867	149.538345
9577.699468	4855.243333	1273.608398	45.677750
9577.699468	4855.243333	1272.503906	269.088074
9577.699468	4855.243333	1271.397461	66.707611
9577.699468	4855.243333	1270.291992	108.065773
9577.699468	4855.243333	1269.185547	57.749962
9577.699468	4855.243333	1268.080078	-11.015862
9577.699468	4855.243333	1266.972656	105.574303
9577.699468	4855.243333	1265.866211	171.836411
9577.699468	4855.243333	1264.759766	179.144592
9577.699468	4855.243333	1263.652344	139.603546
9577.699468	4855.243333	1262.544922	121.843887
9577.699468	4855.243333	1261.436523	17.516310
9577.699468	4855.243333	1260.329102	103.131226
9577.699468	4855.243333	1259.220703	-72.226135
9577.699468	4855.243333	1258.112305	-89.363861
9577.699468	4855.243333	1257.003906	-11.708306
9577.699468	4855.243333	1255.895508	-24.068651
9577.699468	4855.243333	1254.786133	-21.177727
9577.699468	4855.243333	1253.676758	97.493095
9577.699468	4855.243333	1252.567383	-64.818497
9577.699468	4855.243333	1251.458008	55.561714
9577.699468	4855.243333	1250.347656	190.534821
9577.699468	4855.243333	1249.237305	202.173233
9577.699468	4855.243333	1248.126953	333.091553
9577.699468	4855.243333	1247.016602	192.684723
9577.699468	4855.243333	1245.905273	295.485779
9577.699468	4855.243333	1244.793945	346.061096
9577.699468	4855.243333	1243.682617	328.757751
9577.699468	4855.243333	1242.571289	360.039917
9577.699468	4855.243333	1241.459961	375.256592
9577.699468	4855.243333	1240.347656	579.304321
9577.699468	4855.243333	1239.235352	423.559784
9577.699468	4855.243333	1238.123047	509.415924
9577.699468	4855.243333	1237.009766	508.496887
9577.699468	4855.243333	1235.897461	466.187286
9577.699468	4855.243333	1234.784180	346.663788
9577.699468	4855.243333	1233.670898	477.848846
9577.699468	4855.243333	1232.556641	483.079590
9577.699468	4855.243333	1231.443359	280.191528
9577.699468	4855.243333	1230.329102	352.486633
9577.699468	4855.243333	1229.214844	347.339294
9577.699468	4855.243333	1228.099609	132.757690
9577.699468	4855.243333	1226.985352	200.958939
9577.699468	4855.243333	1225.870117	326.102600
9577.699468	4855.243333	1224.754883	273.889160
9577.699468	4855.243333	1223.639648	196.635361
9577.699468	4855.243333	1222.523438	106.272308
9577.699468	4855.243333	1221.408203	222.941650
9577.699468	4855.243333	1220.291992	248.567856
9577.699468	4855.243333	1219.174805	210.195251
9577.699468	4855.243333	1218.058594	358.808105
9577.699468	4855.243333	1216.941406	125.144470
9577.699468	4855.243333	1215.824219	241.804062
9577.699468	4855.243333	1214.707031	281.286194
9577.699468	4855.243333	1213.589844	157.348038
9577.699468	4855.243333	1212.471680	297.025360
9577.699468	4855.243333	1211.353516	251.534973
9577.699468	4855.243333	1210.235352	187.827362
9577.699468	4855.243333	1209.117188	286.058105
9577.699468	4855.243333	1207.998047	191.781631
9577.699468	4855.243333	1206.878906	347.338684
9577.699468	4855.243333	1205.759766	295.401398
9577.699468	4855.243333	1204.640625	259.117584
9577.699468	4855.243333	1203.520508	197.007523
9577.699468	4855.243333	1202.401367	296.334229
9577.699468	4855.243333	1201.281250	213.007187
9577.699468	4855.243333	1200.160156	234.819717
9577.699468	4855.243333	1199.040039	409.633362
9577.699468	4855.243333	1197.918945	216.924088
9577.699468	4855.243333	1196.797852	321.587189
9577.699468	4855.243333	1195.676758	28.594610
9577.699468	4855.243333	1194.555664	245.075577
9577.699468	4855.243333	1193.433594	190.092514
9577.699468	4855.243333	1192.311523	152.358017
9577.699468	4855.243333	1191.189453	269.109680
9577.699468	4855.243333	1190.066406	134.974426
9577.699468	4855.243333	1188.944336	194.943451
9577.699468	4855.243333	1187.821289	49.713669
9577.699468	4855.243333	1186.698242	64.670471
9577.699468	4855.243333	1185.574219	138.672241
9577.699468	4855.243333	1184.451172	20.174032
9577.699468	4855.243333	1183.327148	31.031946
9577.699468	4855.243333	1182.203125	57.867699
9577.699468	4855.243333	1181.078125	163.470352
9577.699468	4855.243333	1179.954102	136.650406
9577.699468	4855.243333	1178.829102	19.244455
9577.699468	4855.243333	1177.704102	-150.734177
9577.699468	4855.243333	1176.579102	-104.120171
9577.699468	4855.243333	1175.453125	-158.200577
9577.699468	4855.243333	1174.327148	-256.086151
9577.699468	4855.243333	1173.201172	-110.291229
9577.699468	4855.243333	1172.075195	-115.930717
9577.699468	4855.243333	1170.949219	29.574806
9577.699468	4855.243333	1169.822266	-272.563721
9577.699468	4855.243333	1168.695313	-275.014587
9577.699468	4855.243333	1167.568359	-151.611496
9577.699468	4855.243333	1166.440430	-117.945244
9577.699468	4855.243333	1165.313477	-98.387932
9577.699468	4855.243333	1164.185547	-148.865631
9577.699468	4855.243333	1163.057617	-75.154068
9577.699468	4855.243333	1161.928711	-131.668274
9577.699468	4855.243333	1160.800781	-61.649464
9577.699468	4855.243333	1159.671875	-64.635056
9577.699468	4855.243333	1158.541992	-53.054424
9577.699468	4855.243333	1157.413086	-335.682892
9577.699468	4855.243333	1156.283203	-227.705414
9577.699468	4855.243333	1155.154297	-32.604286
9577.699468	4855.243333	1154.023438	-153.394943
9577.699468	4855.243333	1152.893555	-317.437225
9577.699468	4855.243333	1151.763672	-200.142288
9577.699468	4855.243333	1150.632813	-74.904724
9577.699468	4855.243333	1149.501953	-234.835083
9577.699468	4855.243333	1148.370117	-170.671722
9577.699468	4855.243333	1147.239258	-139.274734
9577.699468	4855.243333	1146.107422	24.555569
9577.699468	4855.243333	1144.975586	-184.721024
9577.699468	4855.243333	1143.843750	-5.763301
9577.699468	4855.243333	1142.710938	10.056542
9577.699468	4855.243333	1141.578125	38.689575
9577.699468	4855.243333	1140.445313	-36.298386
9577.699468	4855.243333	1139.312500	-65.301460
9577.699468	4855.243333	1138.178711	39.312977
9577.699468	4855.243333	1137.045898	-56.869541
9577.699468	4855.243333	1135.912109	-165.476730
9577.699468	4855.243333	1134.777344	-312.354889
9577.699468	4855.243333	1133.643555	113.418495
9577.699468	4855.243333	1132.508789	32.267418
9577.699468	4855.243333	1131.374023	28.529829
9577.699468	4855.243333	1130.239258	-87.904190
9577.699468	4855.243333	1129.104492	30.433580
9577.699468	4855.243333	1127.968750	44.880711
9577.699468	4855.243333	1126.833008	-47.598747
9577.699468	4855.243333	1125.697266	-45.793411
9577.699468	4855.243333	1124.560547	-22.665552
9577.699468	4855.243333	1123.424805	102.793739
9577.699468	4855.243333	1122.288086	24.697523
9577.699468	4855.243333	1121.151367	79.290253
9577.699468	4855.243333	1120.013672	-23.176556
9577.699468	4855.243333	1118.876953	27.259342
9577.699468	4855.243333	1117.739258	-30.228617
9577.699468	4855.243333	1116.601563	80.863899
9577.699468	4855.243333	1115.462891	21.367430
9577.699468	4855.243333	1114.324219	30.491444
9577.699468	4855.243333	1113.186523	-150.667755
9577.699468	4855.243333	1112.046875	73.172287
9577.699468	4855.243333	1110.908203	88.761398
9577.699468	4855.243333	1109.769531	92.820709
9577.699468	4855.243333	1108.629883	305.663055
9577.699468	4855.243333	1107.490234	71.562523
9577.699468	4855.243333	1106.349609	54.928593
9577.699468	4855.243333	1105.209961	106.049423
9577.699468	4855.243333	1104.069336	-36.533012
9577.699468	4855.243333	1102.928711	-89.015152
9577.699468	4855.243333	1101.787109	192.176422
9577.699468	4855.243333	1100.646484	-101.407188
9577.699468	4855.243333	1099.504883	141.228928
9577.699468	4855.243333	1098.363281	180.774200
9577.699468	4855.243333	1097.221680	263.664764
9577.699468	4855.243333	1096.079102	299.399719
9577.699468	4855.243333	1094.936523	182.279892
9577.699468	4855.243333	1093.793945	240.989532
9577.699468	4855.243333	1092.651367	294.468689
9577.699468	4855.243333	1091.507813	-26.978033
9577.699468	4855.243333	1090.364258	47.695553
9577.699468	4855.243333	1089.220703	193.339676
9577.699468	4855.243333	1088.077148	196.225494
9577.699468	4855.243333	1086.933594	259.324341
9577.699468	4855.243333	1085.789063	255.680923
9577.699468	4855.243333	1084.644531	80.775223
9577.699468	4855.243333	1083.499023	236.330597
9577.699468	4855.243333	1082.354492	144.390533
9577.699468	4855.243333	1081.208984	249.282959
9577.699468	4855.243333	1080.063477	6.897136
9577.699468	4855.243333	1078.917969	-46.838486
9577.699468	4855.243333	1077.771484	170.145004
9577.699468	4855.243333	1076.625977	9.447190
9577.699468	4855.243333	1075.479492	58.572365
9577.699468	4855.243333	1074.332031	76.880516
9577.699468	4855.243333	1073.185547	60.598400
9577.699468	4855.243333	1072.038086	-127.412453
9577.699468	4855.243333	1070.890625	177.097977
9577.699468	4855.243333	1069.743164	191.094284
9577.699468	4855.243333	1068.594727	19.499632
9577.699468	4855.243333	1067.447266	-63.722458
9577.699468	4855.243333	1066.298828	155.478638
9577.699468	4855.243333	1065.149414	21.497137
9577.699468	4855.243333	1064.000977	99.121986
9577.699468	4855.243333	1062.851563	264.755188
9577.699468	4855.243333	1061.702148	-6.777736
9577.699468	4855.243333	1060.552734	24.734015
9577.699468	4855.243333	1059.402344	120.510208
9577.699468	4855.243333	1058.252930	79.550194
9577.699468	4855.243333	1057.102539	20.066135
9577.699468	4855.243333	1055.951172	143.661285
9577.699468	4855.243333	1054.800781	-99.818077
9577.699468	4855.243333	1053.649414	174.801910
9577.699468	4855.243333	1052.498047	99.977089
9577.699468	4855.243333	1051.346680	71.971962
9577.699468	4855.243333	1050.194336	170.079300
9577.699468	4855.243333	1049.042969	64.457359
9577.699468	4855.243333	1047.890625	211.015945
9577.699468	4855.243333	1046.738281	109.008987
9577.699468	4855.243333	1045.584961	166.431229
9577.699468	4855.243333	1044.431641	-42.720135
9577.699468	4855.243333	1043.278320	109.778450
9577.699468	4855.243333	1042.125000	87.446457
9577.699468	4855.243333	1040.971680	173.005508
9577.699468	4855.243333	1039.817383	240.954102
9577.699468	4855.243333	1038.663086	78.880463
9577.699468	4855.243333	1037.508789	256.993561
9577.699468	4855.243333	1036.353516	257.651154
9577.699468	4855.243333	1035.198242	218.010971
9577.699468	4855.243333	1034.042969	359.769287
9577.699468	4855.243333	1032.887695	430.502258
9577.699468	4855.243333	1031.732422	336.982361
9577.699468	4855.243333	1030.576172	406.418732
9577.699468	4855.243333	1029.419922	246.823837
9577.699468	4855.243333	1028.263672	239.409622
9577.699468	4855.243333	1027.106445	459.863647
9577.699468	4855.243333	1025.949219	333.525665
9577.699468	4855.243333	1024.792969	211.974854
9577.699468	4855.243333	1023.634766	370.654510
9577.699468	4855.243333	1022.477539	349.521820
9577.699468	4855.243333	1021.319336	215.398941
9577.699468	4855.243333	1020.161133	213.456894
9577.699468	4855.243333	1019.002930	151.081512
9577.699468	4855.243333	1017.843750	264.845795
9577.699468	4855.243333	1016.684570	113.435638
9577.699468	4855.243333	1015.525391	78.040558
9577.699468	4855.243333	1014.366211	48.960468
9577.699468	4855.243333	1013.207031	-22.308426
9577.699468	4855.243333	1012.046875	88.478600
9577.699468	4855.243333	1010.886719	244.187317
9577.699468	4855.243333	1009.726563	98.993660
9577.699468	4855.243333	1008.565430	-20.018913
9577.699468	4855.243333	1007.404297	156.888580
9577.699468	4855.243333	1006.243164	51.687004
9577.699468	4855.243333	1005.082031	337.104034
9577.699468	4855.243333	1003.920898	157.349808
9577.699468	4855.243333	1002.758789	298.725403
9577.699468	4855.243333	1001.596680	357.682892
9577.699468	4855.243333	1000.433594	90.031158
9577.699468	4855.243333	999.271484	303.403015
9577.699468	4855.243333	998.108398	156.815323
9577.699468	4855.243333	996.945313	265.219391
9577.699468	4855.243333	995.782227	174.623260
9577.699468	4855.243333	994.618164	-34.165394
9577.699468	4855.243333	993.454102	191.463074
9577.699468	4855.243333	992.290039	10.517662
9577.699468	4855.243333	991.125977	110.392166
9577.699468	4855.243333	989.960938	162.255463
9577.699468	4855.243333	988.796875	174.817322
9577.699468	4855.243333	987.630859	231.912933
9577.699468	4855.243333	986.465820	258.523041
9577.699468	4855.243333	985.300781	169.454163
9577.699468	4855.243333	984.134766	214.289139
9577.699468	4855.243333	982.968750	330.842072
9577.699468	4855.243333	981.801758	277.170319
9577.699468	4855.243333	980.635742	270.608246
9577.699468	4855.243333	979.468750	298.965515
9577.699468	4855.243333	978.301758	-41.941631
9577.699468	4855.243333	977.133789	233.602249
9577.699468	4855.243333	975.966797	271.678894
9577.699468	4855.243333	974.798828	97.910202
9577.699468	4855.243333	973.630859	265.410461
9577.699468	4855.243333	972.461914	200.943787
9577.699468	4855.243333	971.293945	17.754320
9577.699468	4855.243333	970.125000	155.693207
9577.699468	4855.243333	968.956055	-42.879990
9577.699468	4855.243333	967.786133	29.223526
9577.699468	4855.243333	966.617188	95.419098
9577.699468	4855.243333	965.447266	275.800781
9577.699468	4855.243333	964.276367	108.009392
9577.699468	4855.243333	963.106445	-134.517975
9577.699468	4855.243333	961.935547	191.319351
9577.699468	4855.243333	960.764648	125.489601
9577.699468	4855.243333	959.593750	54.252895
9577.699468	4855.243333	958.422852	344.919159
9577.699468	4855.243333	957.250977	45.933758
9577.699468	4855.243333	956.079102	196.993591
9577.699468	4855.243333	954.907227	-202.601166
9577.699468	4855.243333	953.734375	102.226616
9577.699468	4855.243333	952.562500	108.332550
9577.699468	4855.243333	951.389648	109.518936
9577.699468	4855.243333	950.215820	64.583916
9577.699468	4855.243333	949.042969	102.806145
9577.699468	4855.243333	947.869141	55.209446
9577.699468	4855.243333	946.695313	71.453857
9577.699468	4855.243333	945.521484	-34.823505
9577.699468	4855.243333	944.346680	210.088058
9577.699468	4855.243333	943.172852	167.746826
9577.699468	4855.243333	941.998047	-9.485795
9577.699468	4855.243333	940.822266	88.161995
9577.699468	4855.243333	939.647461	56.419552
9577.699468	4855.243333	938.471680	126.611984
9577.699468	4855.243333	937.295898	127.182808
9577.699468	4855.243333	936.119141	81.954849
9577.699468	4855.243333	934.943359	-59.980026
9577.699468	4855.243333	933.766602	154.990219
9577.699468	4855.243333	932.589844	184.775024
9577.699468	4855.243333	931.413086	166.209747
9577.699468	4855.243333	930.235352	96.690369
9577.699468	4855.243333	929.057617	182.718185
9577.699468	4855.243333	927.879883	13.879574
9577.699468	4855.243333	926.702148	231.315567
9577.699468	4855.243333	925.523438	188.521637
9577.699468	4855.243333	924.344727	6.257988
9577.699468	4855.243333	923.166016	17.063139
9577.699468	4855.243333	921.987305	-68.650383
9577.699468	4855.243333	920.807617	81.472191
9577.699468	4855.243333	919.627930	83.639404
9577.699468	4855.243333	919.497070	103.145927
9577.699468	4855.243333	918.331055	108.447945
9577.699468	4855.243333	917.165039	161.929840
9577.699468	4855.243333	915.999023	-108.625732
9577.699468	4855.243333	914.833008	-17.689087
9577.699468	4855.243333	913.666016	182.927429
9577.699468	4855.243333	912.499023	174.711746
9577.699468	4855.243333	911.332031	-28.829845
9577.699468	4855.243333	910.165039	86.003242
9577.699468	4855.243333	908.997070	-160.269394
9577.699468	4855.243333	907.830078	82.843552
9577.699468	4855.243333	906.661133	213.563095
9577.699468	4855.243333	905.493164	4.771568
9577.699468	4855.243333	904.325195	49.902615
9577.699468	4855.243333	903.156250	-1.182461
9577.699468	4855.243333	901.987305	265.594269
9577.699468	4855.243333	900.818359	-20.558748
9577.699468	4855.243333	899.648438	21.796852
9577.699468	4855.243333	898.478516	-72.024605
9577.699468	4855.243333	897.308594	98.398178
9577.699468	4855.243333	896.138672	151.324387
9577.699468	4855.243333	894.968750	102.835449
9577.699468	4855.243333	893.797852	-17.665447
9577.699468	4855.243333	892.626953	144.541336
9577.699468	4855.243333	891.456055	-141.254745
9577.699468	4855.243333	890.284180	-115.066589
9577.699468	4855.243333	889.113281	158.949142
9577.699468	4855.243333	887.941406	25.161741
9577.699468	4855.243333	886.768555	69.904579
9577.699468	4855.243333	885.596680	-165.050262
9577.699468	4855.243333	884.423828	-56.402847
9577.699468	4855.243333	883.250977	25.562622
9577.699468	4855.243333	882.078125	-132.084137
9577.699468	4855.243333	880.905273	66.934555
9577.699468	4855.243333	879.731445	76.948479
9577.699468	4855.243333	878.557617	-128.530624
9577.699468	4855.243333	877.383789	-81.268997
9577.699468	4855.243333	876.209961	-26.060255
9577.699468	4855.243333	875.035156	74.311058
9577.699468	4855.243333	873.860352	-27.378632
9577.699468	4855.243333	872.685547	43.700111
9577.699468	4855.243333	871.510742	8.461679
9577.699468	4855.243333	870.334961	-45.364861
9577.699468	4855.243333	869.159180	20.334833
9577.699468	4855.243333	867.983398	-123.770958
9577.699468	4855.243333	866.807617	50.745808
9577.699468	4855.243333	865.630859	-77.397552
9577.699468	4855.243333	864.454102	189.901581
9577.699468	4855.243333	863.277344	19.316362
9577.699468	4855.243333	862.100586	-116.722252
9577.699468	4855.243333	860.922852	76.142647
9577.699468	4855.243333	859.745117	184.073273
9577.699468	4855.243333	858.567383	56.018131
9577.699468	4855.243333	857.389648	92.334930
9577.699468	4855.243333	856.210938	-48.909500
9577.699468	4855.243333	855.032227	-102.674057
9577.699468	4855.243333	853.853516	235.599136
9577.699468	4855.243333	852.674805	181.787292
9577.699468	4855.243333	851.495117	241.844894
9577.699468	4855.243333	850.315430	-134.906677
9577.699468	4855.243333	849.135742	123.677345
9577.699468	4855.243333	847.956055	-17.404776
9577.699468	4855.243333	846.775391	32.046539
9577.699468	4855.243333	845.595703	144.951172
9577.699468	4855.243333	844.415039	80.629883
9577.699468	4855.243333	843.233398	-12.750130
9577.699468	4855.243333	842.052734	105.371635
9577.699468	4855.243333	840.871094	199.657700
9577.699468	4855.243333	839.689453	16.464602
9577.699468	4855.243333	838.506836	-127.029663
9577.699468	4855.243333	837.325195	-122.561462
9577.699468	4855.243333	836.142578	-17.753469
9577.699468	4855.243333	834.959961	-31.795084
9577.699468	4855.243333	833.777344	199.645874
9577.699468	4855.243333	832.593750	-112.644226
9577.699468	4855.243333	831.410156	232.168640
9577.699468	4855.243333	830.226563	99.374634
9577.699468	4855.243333	829.042969	-12.266359
9577.699468	4855.243333	827.858398	44.894314
9577.699468	4855.243333	826.673828	86.213104
9577.699468	4855.243333	825.489258	-180.868484
9577.699468	4855.243333	824.304688	113.456284
9577.699468	4855.243333	823.120117	-19.156269
9577.699468	4855.243333	821.934570	43.211029
9577.699468	4855.243333	820.749023	-2.424273
9577.699468	4855.243333	819.562500	-111.233894
9577.699468	4855.243333	818.376953	-154.188675
9577.699468	4855.243333	817.190430	-233.971985
9577.699468	4855.243333	816.003906	-308.459839
9577.699468	4855.243333	814.817383	130.096786
9577.699468	4855.243333	813.629883	-33.866428
9577.699468	4855.243333	812.442383	-18.939407
9577.699468	4855.243333	811.254883	356.183502
9577.699468	4855.243333	810.067383	37.181049
9577.699468	4855.243333	808.878906	-84.579544
9577.699468	4855.243333	807.690430	292.951416
9577.699468	4855.243333	806.501953	16.191916
9577.699468	4855.243333	805.313477	-263.081757
9577.699468	4855.243333	804.124023	-51.184006
9577.699468	4855.243333	802.934570	-201.683319
9577.699468	4855.243333	801.745117	7.486637
9577.699468	4855.243333	800.555664	-108.848030
9577.699468	4855.243333	799.365234	123.829285
9577.699468	4855.243333	798.175781	65.228287
9577.699468	4855.243333	796.985352	-197.919495
9577.699468	4855.243333	795.793945	-30.924734
9577.699468	4855.243333	794.603516	-168.108978
9577.699468	4855.243333	793.412109	-82.445839
9577.699468	4855.243333	792.220703	26.764688
9577.699468	4855.243333	791.028320	112.348709
9577.699468	4855.243333	789.836914	32.870365
9577.699468	4855.243333	788.644531	-190.616623
9577.699468	4855.243333	787.452148	-8.167192
9577.699468	4855.243333	786.258789	-213.231628
9577.699468	4855.243333	785.066406	-177.426483
9577.699468	4855.243333	783.873047	-196.588715
9577.699468	4855.243333	782.679688	-121.563309
9577.699468	4855.243333	781.485352	-127.656075
9577.699468	4855.243333	780.291992	-152.056824
9577.699468	4855.243333	779.097656	-168.606461
9577.699468	4855.243333	777.903320	37.037487
9577.699468	4855.243333	776.708008	-162.494308
9577.699468	4855.243333	775.512695	3.862294
9577.699468	4855.243333	774.318359	16.012270
9577.699468	4855.243333	773.122070	-139.002518
9577.699468	4855.243333	771.926758	-90.278191
9577.699468	4855.243333	770.730469	-130.345215
9577.699468	4855.243333	769.534180	59.298027
9577.699468	4855.243333	768.337891	-64.303848
9577.699468	4855.243333	767.141602	96.533432
9577.699468	4855.243333	765.944336	152.955063
9577.699468	4855.243333	764.747070	133.712662
9577.699468	4855.243333	763.549805	109.256096
9577.699468	4855.243333	762.351563	142.155304
9577.699468	4855.243333	761.154297	328.810364
9577.699468	4855.243333	759.956055	-31.853313
9577.699468	4855.243333	758.757813	-30.234545
9577.699468	4855.243333	757.558594	-5.181382
9577.699468	4855.243333	756.359375	22.456207
9577.699468	4855.243333	755.160156	292.215912
9577.699468	4855.243333	753.960938	150.553421
9577.699468	4855.243333	752.761719	94.825729
9577.699468	4855.243333	751.561523	135.386841
9577.699468	4855.243333	750.361328	61.453220
9577.699468	4855.243333	749.160156	169.607330
9577.699468	4855.243333	747.959961	285.505188
9577.699468	4855.243333	746.758789	258.347321
9577.699468	4855.243333	745.557617	25.837486
9577.699468	4855.243333	744.356445	258.599243
9577.699468	4855.243333	743.154297	119.696449
9577.699468	4855.243333	741.952148	48.378761
9577.699468	4855.243333	740.750000	190.045120
9577.699468	4855.243333	739.547852	134.290756
9577.699468	4855.243333	738.344727	-22.704357
9577.699468	4855.243333	737.142578	233.043076
9577.699468	4855.243333	735.939453	-6.981519
9577.699468	4855.243333	734.735352	295.323853
9577.699468	4855.243333	733.532227	218.767715
9577.699468	4855.243333	732.328125	170.752426
9577.699468	4855.243333	731.124023	260.159515
9577.699468	4855.243333	729.918945	85.094574
9577.699468	4855.243333	728.714844	47.444427
9577.699468	4855.243333	727.509766	77.161995
9577.699468	4855.243333	726.303711	119.799423
9577.699468	4855.243333	725.098633	12.167396
9577.699468	4855.243333	723.892578	114.317375
9577.699468	4855.243333	722.686523	71.412247
9577.699468	4855.243333	721.480469	15.558873
9577.699468	4855.243333	720.274414	-161.929840
9577.699468	4855.243333	719.067383	-243.634995
9577.699468	4855.243333	717.860352	-152.008911
9577.699468	4855.243333	716.653320	-143.211319
9577.699468	4855.243333	715.445313	-38.767750
9577.699468	4855.243333	714.238281	169.013657
9577.699468	4855.243333	713.030273	92.360718
9577.699468	4855.243333	711.821289	-12.714525
9577.699468	4855.243333	710.613281	55.328548
9577.699468	4855.243333	709.404297	-31.672037
9577.699468	4855.243333	708.195313	75.023949
9577.699468	4855.243333	706.986328	-104.959084
9577.699468	4855.243333	705.776367	120.393150
9577.699468	4855.243333	704.566406	4.935224
9577.699468	4855.243333	703.356445	70.120621
9577.699468	4855.243333	702.146484	132.663574
9577.699468	4855.243333	700.935547	-129.845551
9577.699468	4855.243333	699.724609	79.634415
9577.699468	4855.243333	698.513672	85.310867
9577.699468	4855.243333	697.302734	-86.912498
9577.699468	4855.243333	696.090820	3.769387
9577.699468	4855.243333	694.878906	238.664413
9577.699468	4855.243333	693.666992	35.492676
9577.699468	4855.243333	692.455078	82.193008
9577.699468	4855.243333	691.242188	69.608452
9577.699468	4855.243333	690.029297	75.010880
9577.699468	4855.243333	688.816406	294.003204
9577.699468	4855.243333	687.602539	188.619781
9577.699468	4855.243333	686.389648	75.519501
9577.699468	4855.243333	685.175781	237.657425
9577.699468	4855.243333	683.960938	8.779893
9577.699468	4855.243333	682.747070	101.353653
9577.699468	4855.243333	681.532227	281.245636
9577.699468	4855.243333	680.317383	16.387192
9577.699468	4855.243333	679.102539	-60.826790
9577.699468	4855.243333	677.886719	-43.001865
9577.699468	4855.243333	676.670898	21.001421
9577.699468	4855.243333	675.455078	118.313332
9577.699468	4855.243333	674.239258	35.817074
9577.699468	4855.243333	673.022461	53.413788
9577.699468	4855.243333	671.805664	230.064362
9577.699468	4855.243333	670.588867	332.183289
9577.699468	4855.243333	669.372070	-119.883354
9577.699468	4855.243333	668.154297	125.785957
9577.699468	4855.243333	666.936523	4.623972
9577.699468	4855.243333	665.718750	-93.465561
9577.699468	4855.243333	664.500977	57.050003
9577.699468	4855.243333	663.282227	176.697495
9577.699468	4855.243333	662.063477	186.072952
9577.699468	4855.243333	660.844727	315.779358
9577.699468	4855.243333	659.625000	294.278961
9577.699468	4855.243333	658.405273	239.447266
9577.699468	4855.243333	657.185547	443.124542
9577.699468	4855.243333	655.965820	139.918716
9577.699468	4855.243333	654.745117	-7.134858
9577.699468	4855.243333	653.525391	244.898407
9577.699468	4855.243333	652.303711	187.284637
9577.699468	4855.243333	651.083008	78.495041
9577.699468	4855.243333	649.861328	299.489319
9577.699468	4855.243333	648.640625	67.910454
9577.699468	4855.243333	647.417969	20.361952
9577.699468	4855.243333	646.196289	-4.231256
9577.699468	4855.243333	644.973633	83.517906
9577.699468	4855.243333	643.750977	15.379125
9577.699468	4855.243333	642.528320	72.320740
9577.699468	4855.243333	641.305664	315.529846
9577.699468	4855.243333	640.082031	145.102905
9577.699468	4855.243333	638.858398	186.477753
9577.699468	4855.243333	637.634766	156.336685
9577.699468	4855.243333	636.410156	225.616821
9577.699468	4855.243333	635.185547	269.301117
9577.699468	4855.243333	633.960938	231.315094
9577.699468	4855.243333	632.736328	134.651550
9577.699468	4855.243333	631.510742	-61.430256
9577.699468	4855.243333	630.285156	-7.797665
9577.699468	4855.243333	629.059570	155.283432
9577.699468	4855.243333	627.833984	-58.707752
9577.699468	4855.243333	626.607422	-46.056057
9577.699468	4855.243333	625.380859	233.829437
9577.699468	4855.243333	624.154297	-74.422585
9577.699468	4855.243333	622.927734	62.710148
9577.699468	4855.243333	621.700195	72.505112
9577.699468	4855.243333	620.472656	-118.718964
9577.699468	4855.243333	619.245117	-30.192690
9577.699468	4855.243333	618.016602	58.224571
9577.699468	4855.243333	616.788086	16.891808
9577.699468	4855.243333	615.559570	-14.326838
9577.699468	4855.243333	614.331055	20.462101
9577.699468	4855.243333	613.101563	103.429398
9577.699468	4855.243333	611.872070	77.078835
9577.699468	4855.243333	610.642578	109.073463
9577.699468	4855.243333	609.413086	36.893719
9577.699468	4855.243333	608.182617	160.114532
9577.699468	4855.243333	606.952148	232.459686
9577.699468	4855.243333	605.721680	-162.133270
9577.699468	4855.243333	604.491211	92.743896
9577.699468	4855.243333	603.259766	185.130798
9577.699468	4855.243333	602.028320	51.744705
9577.699468	4855.243333	600.796875	123.679451
9577.699468	4855.243333	599.564453	111.872986
9577.699468	4855.243333	598.332031	-39.364445
9577.699468	4855.243333	597.099609	126.063988
9577.699468	4855.243333	595.867188	126.718033
9577.699468	4855.243333	594.633789	172.878265
9577.699468	4855.243333	593.400391	234.140381
9577.699468	4855.243333	592.166992	381.367889
9577.699468	4855.243333	590.933594	217.189926
9577.699468	4855.243333	589.699219	166.864502
9577.699468	4855.243333	588.464844	235.383102
9577.699468	4855.243333	587.230469	189.995041
9577.699468	4855.243333	585.995117	40.884972
9577.699468	4855.243333	584.760742	-65.250023
9577.699468	4855.243333	583.525391	-75.369118
9577.699468	4855.243333	582.289063	68.585541
9577.699468	4855.243333	581.053711	197.257690
9577.699468	4855.243333	579.817383	234.873459
9577.699468	4855.243333	578.581055	141.091888
9577.699468	4855.243333	577.343750	-18.363523
9577.699468	4855.243333	576.107422	203.343826
9577.699468	4855.243333	574.870117	84.190720
9577.699468	4855.243333	573.631836	96.221481
9577.699468	4855.243333	572.394531	173.775986
9577.699468	4855.243333	571.156250	157.911850
9577.699468	4855.243333	569.917969	268.067902
9577.699468	4855.243333	568.679688	105.848236
9577.699468	4855.243333	567.440430	87.295479
9577.699468	4855.243333	566.202148	398.801819
9577.699468	4855.243333	564.961914	377.548462
9577.699468	4855.243333	563.722656	217.711960
9577.699468	4855.243333	562.482422	90.617981
9577.699468	4855.243333	561.243164	117.106453
9577.699468	4855.243333	560.001953	120.860016
9577.699468	4855.243333	558.761719	44.026588
9577.699468	4855.243333	557.520508	-156.128021
9577.699468	4855.243333	556.279297	250.007584
9577.699468	4855.243333	555.038086	235.898087
9577.699468	4855.243333	553.795898	201.619003
9577.699468	4855.243333	552.554688	333.228729
9577.699468	4855.243333	551.311523	153.050781
9577.699468	4855.243333	550.069336	261.887390
9577.699468	4855.243333	548.826172	69.135712
9577.699468	4855.243333	547.583984	218.031296
9577.699468	4855.243333	546.339844	-2.357626
9577.699468	4855.243333	545.096680	151.406433
9577.699468	4855.243333	543.852539	-84.032478
9577.699468	4855.243333	542.608398	99.699348
9577.699468	4855.243333	541.364258	300.871429
9577.699468	4855.243333	540.119141	215.923325
9577.699468	4855.243333	538.875000	38.176083
9577.699468	4855.243333	537.628906	88.634842
9577.699468	4855.243333	536.383789	236.808182
9577.699468	4855.243333	535.137695	204.406189
9577.699468	4855.243333	533.892578	-30.995916
9577.699468	4855.243333	532.645508	51.836185
9577.699468	4855.243333	531.399414	-248.642242
9577.699468	4855.243333	530.152344	-3.095345
9577.699468	4855.243333	528.905273	-180.826691
9577.699468	4855.243333	527.658203	-160.761978
9577.699468	4855.243333	526.410156	-138.243103
9577.699468	4855.243333	525.163086	-90.739342
9577.699468	4855.243333	523.914063	31.748768
9577.699468	4855.243333	522.666016	-5.910856
9577.699468	4855.243333	521.416992	23.924953
9577.699468	4855.243333	520.167969	-18.781553
9577.699468	4855.243333	518.918945	-93.991219
9577.699468	4855.243333	517.669922	-341.621918
9577.699468	4855.243333	516.419922	20.432564
9577.699468	4855.243333	515.169922	-29.841072
9577.699468	4855.243333	513.919922	-42.657574
9577.699468	4855.243333	512.668945	-87.955734
9577.699468	4855.243333	511.417969	-48.382576
9577.699468	4855.243333	510.166992	-176.061096
9577.699468	4855.243333	508.916016	-116.564468
9577.699468	4855.243333	507.664063	-169.378464
9577.699468	4855.243333	506.412109	159.413391
9577.699468	4855.243333	505.160156	-5.682057
9577.699468	4855.243333	503.907227	21.236078
9577.699468	4855.243333	502.655273	25.700932
9577.699468	4855.243333	501.402344	-124.357811
9577.699468	4855.243333	500.148438	54.498238
9577.699468	4855.243333	498.895508	-45.708546
9577.699468	4855.243333	497.641602	-120.987061
9577.699468	4855.243333	496.387695	-114.078163
9577.699468	4855.243333	495.132813	-39.977634
9577.699468	4855.243333	493.878906	-55.506920
9577.699468	4855.243333	492.624023	-275.077423
9577.699468	4855.243333	491.368164	-362.719635
9577.699468	4855.243333	490.113281	-99.636963
9577.699468	4855.243333	488.857422	-115.179367
9577.699468	4855.243333	487.601563	-13.876003
9577.699468	4855.243333	486.344727	134.599365
9577.699468	4855.243333	485.088867	-181.684311
9577.699468	4855.243333	483.832031	-107.779350
9577.699468	4855.243333	482.575195	-53.780487
9577.699468	4855.243333	481.317383	141.738907
9577.699468	4855.243333	480.059570	-114.709572
9577.699468	4855.243333	478.801758	8.746433
9577.699468	4855.243333	477.543945	-138.367462
9577.699468	4855.243333	476.285156	-94.369972
9577.699468	4855.243333	475.027344	-10.695510
9577.699468	4855.243333	473.767578	-61.000824
9577.699468	4855.243333	472.508789	-81.524673
9577.699468	4855.243333	471.249023	-218.566010
9577.699468	4855.243333	469.989258	93.072777
9577.699468	4855.243333	468.729492	-29.083189
9577.699468	4855.243333	467.469727	17.282177
9577.699468	4855.243333	466.208984	-32.984371
9577.699468	4855.243333	464.948242	-93.137718
9577.699468	4855.243333	463.686523	136.405045
9577.699468	4855.243333	462.425781	187.623718
9577.699468	4855.243333	461.164063	149.713821
9577.699468	4855.243333	459.901367	114.282867
9577.699468	4855.243333	458.639648	-52.244316
9577.699468	4855.243333	457.376953	75.600899
9577.699468	4855.243333	456.114258	104.473099
9577.699468	4855.243333	454.851563	118.488167
9577.699468	4855.243333	453.587891	125.064102
9577.699468	4855.243333	452.324219	213.169586
9577.699468	4855.243333	451.060547	76.400620
9577.699468	4855.243333	449.796875	176.795456
9577.699468	4855.243333	448.532227	106.726624
9577.699468	4855.243333	447.267578	123.080276
9577.699468	4855.243333	446.002930	112.249733
9577.699468	4855.243333	444.737305	175.429306
9577.699468	4855.243333	443.471680	73.239151
9577.699468	4855.243333	442.206055	99.337738
9577.699468	4855.243333	440.940430	80.997650
9577.699468	4855.243333	439.673828	104.539452
9577.699468	4855.243333	438.407227	152.683289
9577.699468	4855.243333	437.140625	126.822342
9577.699468	4855.243333	435.873047	142.809738
9577.699468	4855.243333	434.605469	126.711884
9577.699468	4855.243333	433.337891	344.560059
9577.699468	4855.243333	432.070313	286.448792
9577.699468	4855.243333	430.801758	65.799706
9577.699468	4855.243333	429.533203	96.249779
9577.699468	4855.243333	428.264648	242.279694
9577.699468	4855.243333	426.996094	289.752747
9577.699468	4855.243333	425.726563	263.318878
9577.699468	4855.243333	424.457031	411.422028
9577.699468	4855.243333	423.186523	202.831726
9577.699468	4855.243333	421.916992	200.736115
9577.699468	4855.243333	420.646484	296.839294
9577.699468	4855.243333	419.375977	-7.739720
9577.699468	4855.243333	418.104492	88.128578
9577.699468	4855.243333	416.833008	471.200531
9577.699468	4855.243333	415.561523	215.510025
9577.699468	4855.243333	414.290039	170.928589
9577.699468	4855.243333	413.017578	69.756058
9577.699468	4855.243333	411.746094	-53.608212
9577.699468	4855.243333	410.472656	156.576828
9577.699468	4855.243333	409.200195	15.731998
9577.699468	4855.243333	407.926758	61.141506
9577.699468	4855.243333	406.653320	116.148041
9577.699468	4855.243333	405.379883	109.645378
9577.699468	4855.243333	404.105469	58.809067
9577.699468	4855.243333	402.831055	181.744873
9577.699468	4855.243333	401.556641	390.137543
9577.699468	4855.243333	400.282227	130.390137
9577.699468	4855.243333	399.006836	93.323547
9577.699468	4855.243333	397.731445	183.311279
9577.699468	4855.243333	396.456055	-15.842355
9577.699468	4855.243333	395.179688	83.335991
9577.699468	4855.243333	393.903320	216.417450
9577.699468	4855.243333	392.626953	87.395538
9577.699468	4855.243333	391.350586	-66.358696
9577.699468	4855.243333	390.073242	249.032623
9577.699468	4855.243333	388.795898	189.922073
9577.699468	4855.243333	387.518555	20.484024
9577.699468	4855.243333	386.240234	239.212311
9577.699468	4855.243333	384.961914	169.178604
9577.699468	4855.243333	383.683594	233.075424
9577.699468	4855.243333	382.405273	167.085953
9577.699468	4855.243333	381.125977	254.449753
9577.699468	4855.243333	379.846680	150.917450
9577.699468	4855.243333	378.567383	273.868927
9577.699468	4855.243333	377.287109	169.344757
9577.699468	4855.243333	376.006836	113.109596
9577.699468	4855.243333	374.726563	61.215542
9577.699468	4855.243333	373.446289	-3.426529
9577.699468	4855.243333	372.165039	138.532425
9577.699468	4855.243333	370.883789	-129.614304
9577.699468	4855.243333	369.602539	50.019920
9577.699468	4855.243333	368.320313	70.550346
9577.699468	4855.243333	367.039063	182.938553
9577.699468	4855.243333	365.755859	-12.276895
9577.699468	4855.243333	364.473633	-18.256390
9577.699468	4855.243333	363.190430	103.968063
9577.699468	4855.243333	361.907227	-151.824966
9577.699468	4855.243333	360.624023	-50.717339
9577.699468	4855.243333	359.340820	-147.522079
9577.699468	4855.243333	358.056641	-67.678116
9577.699468	4855.243333	356.772461	-205.161255
9577.699468	4855.243333	355.487305	-34.862614
9577.699468	4855.243333	354.202148	234.017181
9577.699468	4855.243333	352.916992	47.431778
9577.699468	4855.243333	351.631836	-11.375903
9577.699468	4855.243333	350.346680	-107.665688
9577.699468	4855.243333	349.060547	-59.373753
9577.699468	4855.243333	347.774414	-36.529179
9577.699468	4855.243333	346.487305	87.021111
9577.699468	4855.243333	345.200195	-23.644661
9577.699468	4855.243333	343.913086	-2.102226
9577.699468	4855.243333	342.625977	-139.521942
9577.699468	4855.243333	341.338867	7.906360
9577.699468	4855.243333	340.050781	59.303833
9577.699468	4855.243333	338.762695	68.045593
9577.699468	4855.243333	337.473633	-176.742599
9577.699468	4855.243333	336.184570	13.148389
9577.699468	4855.243333	334.895508	104.507172
9577.699468	4855.243333	333.606445	155.469971
9577.699468	4855.243333	332.317383	35.275490
9577.699468	4855.243333	331.027344	31.996250
9577.699468	4855.243333	329.736328	-91.666382
9577.699468	4855.243333	328.446289	70.888802
9577.699468	4855.243333	327.155273	-119.290863
9577.699468	4855.243333	325.864258	7.940285
9577.699468	4855.243333	324.573242	-314.176056
9577.699468	4855.243333	323.281250	14.481584
9577.699468	4855.243333	321.989258	-74.795006
9577.699468	4855.243333	320.697266	102.045670
9577.699468	4855.243333	319.405273	88.172050
9577.699468	4855.243333	318.112305	-53.610607
9577.699468	4855.243333	316.819336	-76.915642
9577.699468	4855.243333	315.526367	-49.484802
9577.699468	4855.243333	314.232422	-26.995857
9577.699468	4855.243333	312.938477	-113.221275
9577.699468	4855.243333	311.644531	-170.632523
9577.699468	4855.243333	310.349609	123.841347
9577.699468	4855.243333	309.054688	208.053162
9577.699468	4855.243333	307.759766	221.913788
9577.699468	4855.243333	306.464844	206.374649
9577.699468	4855.243333	305.168945	375.794983
9577.699468	4855.243333	303.873047	539.699646
9577.699468	4855.243333	302.577148	257.166199
9577.699468	4855.243333	301.281250	602.585205
9577.699468	4855.243333	299.984375	465.312836
