#X		#Y		#Wave		#Intensity
387.297340	6248.711667	1999.946289	-76.268951
387.297340	6248.711667	1998.981445	-40.162373
387.297340	6248.711667	1998.017578	-7.760930
387.297340	6248.711667	1997.052734	-134.067108
387.297340	6248.711667	1996.088867	29.462273
387.297340	6248.711667	1995.124023	-22.676243
387.297340	6248.711667	1994.159180	14.277028
387.297340	6248.711667	1993.193359	58.558304
387.297340	6248.711667	1992.228516	-92.852646
387.297340	6248.711667	1991.262695	70.080345
387.297340	6248.711667	1990.296875	-101.238808
387.297340	6248.711667	1989.331055	63.950993
387.297340	6248.711667	1988.365234	63.246277
387.297340	6248.711667	1987.398438	8.050481
387.297340	6248.711667	1986.432617	64.091141
387.297340	6248.711667	1985.465820	80.479393
387.297340	6248.711667	1984.499023	-108.393829
387.297340	6248.711667	1983.532227	80.904694
387.297340	6248.711667	1982.565430	42.716347
387.297340	6248.711667	1981.597656	93.428291
387.297340	6248.711667	1980.629883	94.654716
387.297340	6248.711667	1979.662109	-12.850511
387.297340	6248.711667	1978.694336	77.179123
387.297340	6248.711667	1977.726563	53.549633
387.297340	6248.711667	1976.758789	-58.988651
387.297340	6248.711667	1975.790039	-23.455381
387.297340	6248.711667	1974.821289	12.014734
387.297340	6248.711667	1973.852539	141.174347
387.297340	6248.711667	1972.883789	38.375198
387.297340	6248.711667	1971.915039	14.487537
387.297340	6248.711667	1970.945313	89.193947
387.297340	6248.711667	1969.975586	87.408119
387.297340	6248.711667	1969.005859	38.751183
387.297340	6248.711667	1968.036133	17.181639
387.297340	6248.711667	1967.066406	111.385971
387.297340	6248.711667	1966.096680	-13.726222
387.297340	6248.711667	1965.125977	-20.604620
387.297340	6248.711667	1964.155273	-108.776405
387.297340	6248.711667	1963.184570	150.203079
387.297340	6248.711667	1962.213867	25.045059
387.297340	6248.711667	1961.242188	-60.718452
387.297340	6248.711667	1960.271484	193.098282
387.297340	6248.711667	1959.299805	122.041336
387.297340	6248.711667	1958.328125	41.145554
387.297340	6248.711667	1957.356445	-10.232973
387.297340	6248.711667	1956.384766	-0.144909
387.297340	6248.711667	1955.412109	113.168472
387.297340	6248.711667	1954.439453	-24.292179
387.297340	6248.711667	1953.467773	-65.879684
387.297340	6248.711667	1952.495117	79.261566
387.297340	6248.711667	1951.521484	-65.546730
387.297340	6248.711667	1950.548828	20.556637
387.297340	6248.711667	1949.575195	20.661955
387.297340	6248.711667	1948.601563	-1.345898
387.297340	6248.711667	1947.627930	-101.913338
387.297340	6248.711667	1946.654297	42.971687
387.297340	6248.711667	1945.680664	-15.879479
387.297340	6248.711667	1944.706055	-20.749098
387.297340	6248.711667	1943.732422	43.054146
387.297340	6248.711667	1942.757813	-52.589294
387.297340	6248.711667	1941.783203	-42.772156
387.297340	6248.711667	1940.807617	87.156281
387.297340	6248.711667	1939.833008	38.097763
387.297340	6248.711667	1938.857422	-10.952671
387.297340	6248.711667	1937.881836	52.715420
387.297340	6248.711667	1936.906250	206.991302
387.297340	6248.711667	1935.930664	8.508348
387.297340	6248.711667	1934.955078	-13.593228
387.297340	6248.711667	1933.978516	101.414230
387.297340	6248.711667	1933.001953	-18.625595
387.297340	6248.711667	1932.025391	169.752625
387.297340	6248.711667	1931.048828	71.757866
387.297340	6248.711667	1930.072266	81.443314
387.297340	6248.711667	1929.094727	-1.831653
387.297340	6248.711667	1928.118164	0.519679
387.297340	6248.711667	1927.140625	63.994904
387.297340	6248.711667	1926.163086	-46.130764
387.297340	6248.711667	1925.184570	-21.784634
387.297340	6248.711667	1924.207031	-75.650070
387.297340	6248.711667	1923.228516	-12.217851
387.297340	6248.711667	1922.250000	-141.798752
387.297340	6248.711667	1921.271484	-75.937386
387.297340	6248.711667	1920.292969	-44.289253
387.297340	6248.711667	1919.314453	-12.653397
387.297340	6248.711667	1918.334961	-5.441623
387.297340	6248.711667	1917.355469	50.580132
387.297340	6248.711667	1916.375977	-37.388203
387.297340	6248.711667	1915.396484	47.895763
387.297340	6248.711667	1914.416992	-44.916412
387.297340	6248.711667	1913.436523	-30.387964
387.297340	6248.711667	1912.457031	45.095398
387.297340	6248.711667	1911.476563	3.532981
387.297340	6248.711667	1910.496094	-42.887646
387.297340	6248.711667	1909.515625	44.743313
387.297340	6248.711667	1908.534180	3.206804
387.297340	6248.711667	1907.552734	27.460861
387.297340	6248.711667	1906.572266	197.845337
387.297340	6248.711667	1905.590820	-4.411024
387.297340	6248.711667	1904.608398	-2.077187
387.297340	6248.711667	1903.626953	87.891159
387.297340	6248.711667	1902.644531	-48.514553
387.297340	6248.711667	1901.663086	29.266554
387.297340	6248.711667	1900.680664	12.137034
387.297340	6248.711667	1899.698242	70.421028
387.297340	6248.711667	1898.714844	-73.168968
387.297340	6248.711667	1897.732422	-58.654163
387.297340	6248.711667	1896.749023	2.046204
387.297340	6248.711667	1895.765625	26.266472
387.297340	6248.711667	1894.782227	-34.574944
387.297340	6248.711667	1893.798828	-10.353088
387.297340	6248.711667	1892.814453	57.586887
387.297340	6248.711667	1891.831055	-100.372513
387.297340	6248.711667	1890.846680	-93.145653
387.297340	6248.711667	1889.862305	-83.492523
387.297340	6248.711667	1888.877930	37.819717
387.297340	6248.711667	1887.892578	6.188069
387.297340	6248.711667	1886.908203	-25.428848
387.297340	6248.711667	1885.922852	-35.199825
387.297340	6248.711667	1884.937500	-59.519646
387.297340	6248.711667	1883.952148	8.326415
387.297340	6248.711667	1882.965820	131.914536
387.297340	6248.711667	1881.980469	49.397617
387.297340	6248.711667	1880.994141	-11.274494
387.297340	6248.711667	1880.007813	-40.420444
387.297340	6248.711667	1879.021484	10.399547
387.297340	6248.711667	1878.035156	-45.385479
387.297340	6248.711667	1877.047852	56.276215
387.297340	6248.711667	1876.061523	128.843140
387.297340	6248.711667	1875.074219	70.644051
387.297340	6248.711667	1874.086914	97.187378
387.297340	6248.711667	1873.098633	24.492144
387.297340	6248.711667	1872.111328	-77.212166
387.297340	6248.711667	1871.123047	-45.821934
387.297340	6248.711667	1870.135742	-50.725346
387.297340	6248.711667	1869.147461	26.593306
387.297340	6248.711667	1868.158203	-72.625465
387.297340	6248.711667	1867.169922	60.265793
387.297340	6248.711667	1866.180664	-72.764099
387.297340	6248.711667	1865.192383	40.740406
387.297340	6248.711667	1864.203125	38.226639
387.297340	6248.711667	1863.213867	-22.263777
387.297340	6248.711667	1862.223633	-3.035622
387.297340	6248.711667	1861.234375	83.795364
387.297340	6248.711667	1860.244141	-73.251244
387.297340	6248.711667	1859.253906	119.759232
387.297340	6248.711667	1858.263672	85.837791
387.297340	6248.711667	1857.273438	20.557426
387.297340	6248.711667	1856.282227	-10.930614
387.297340	6248.711667	1855.291992	75.777489
387.297340	6248.711667	1854.300781	-114.880302
387.297340	6248.711667	1853.309570	140.579544
387.297340	6248.711667	1852.317383	3.002575
387.297340	6248.711667	1851.326172	-33.299160
387.297340	6248.711667	1850.333984	142.461395
387.297340	6248.711667	1849.342773	2.535745
387.297340	6248.711667	1848.350586	52.951653
387.297340	6248.711667	1847.357422	-84.512352
387.297340	6248.711667	1846.365234	180.191177
387.297340	6248.711667	1845.372070	-5.408577
387.297340	6248.711667	1844.379883	54.569839
387.297340	6248.711667	1843.386719	92.857727
387.297340	6248.711667	1842.393555	39.691097
387.297340	6248.711667	1841.399414	138.090225
387.297340	6248.711667	1840.406250	48.839954
387.297340	6248.711667	1839.412109	173.634888
387.297340	6248.711667	1838.417969	178.159332
387.297340	6248.711667	1837.423828	173.057053
387.297340	6248.711667	1836.429688	54.987949
387.297340	6248.711667	1835.434570	-27.004784
387.297340	6248.711667	1834.440430	1.539562
387.297340	6248.711667	1833.445313	25.256424
387.297340	6248.711667	1832.450195	-11.085388
387.297340	6248.711667	1831.454102	60.624653
387.297340	6248.711667	1830.458984	7.462576
387.297340	6248.711667	1829.462891	117.522240
387.297340	6248.711667	1828.466797	177.133530
387.297340	6248.711667	1827.470703	78.355774
387.297340	6248.711667	1826.474609	-32.391842
387.297340	6248.711667	1825.478516	87.137497
387.297340	6248.711667	1824.481445	120.280823
387.297340	6248.711667	1823.484375	107.845627
387.297340	6248.711667	1822.487305	-14.862680
387.297340	6248.711667	1821.490234	49.396881
387.297340	6248.711667	1820.493164	106.429733
387.297340	6248.711667	1819.495117	225.713486
387.297340	6248.711667	1818.498047	265.896698
387.297340	6248.711667	1817.500000	83.332275
387.297340	6248.711667	1816.500977	-41.715424
387.297340	6248.711667	1815.502930	75.053650
387.297340	6248.711667	1814.504883	43.370007
387.297340	6248.711667	1813.505859	100.221909
387.297340	6248.711667	1812.506836	18.269054
387.297340	6248.711667	1811.507813	151.619141
387.297340	6248.711667	1810.508789	40.956043
387.297340	6248.711667	1809.508789	112.046288
387.297340	6248.711667	1808.508789	-22.509930
387.297340	6248.711667	1807.508789	74.824791
387.297340	6248.711667	1806.508789	57.393993
387.297340	6248.711667	1805.508789	42.342007
387.297340	6248.711667	1804.508789	41.611504
387.297340	6248.711667	1803.507813	138.788773
387.297340	6248.711667	1802.506836	104.570793
387.297340	6248.711667	1801.505859	22.596050
387.297340	6248.711667	1800.504883	-130.979385
387.297340	6248.711667	1799.502930	-193.824173
387.297340	6248.711667	1798.501953	134.677246
387.297340	6248.711667	1797.500000	55.068092
387.297340	6248.711667	1796.498047	149.597244
387.297340	6248.711667	1795.496094	86.671280
387.297340	6248.711667	1794.493164	54.744503
387.297340	6248.711667	1793.491211	29.964403
387.297340	6248.711667	1792.488281	76.676300
387.297340	6248.711667	1791.485352	-45.845440
387.297340	6248.711667	1790.482422	0.823343
387.297340	6248.711667	1789.478516	140.355652
387.297340	6248.711667	1788.475586	-75.055923
387.297340	6248.711667	1787.471680	154.883987
387.297340	6248.711667	1786.467773	20.454725
387.297340	6248.711667	1785.463867	12.213779
387.297340	6248.711667	1784.459961	96.770393
387.297340	6248.711667	1783.455078	107.508896
387.297340	6248.711667	1782.450195	11.167227
387.297340	6248.711667	1781.445313	-1.910492
387.297340	6248.711667	1780.440430	15.910389
387.297340	6248.711667	1779.435547	-1.962039
387.297340	6248.711667	1778.429688	53.840851
387.297340	6248.711667	1777.424805	140.500900
387.297340	6248.711667	1776.418945	-15.277741
387.297340	6248.711667	1775.413086	-42.724747
387.297340	6248.711667	1774.406250	107.967896
387.297340	6248.711667	1773.400391	42.464638
387.297340	6248.711667	1772.393555	-53.906998
387.297340	6248.711667	1771.386719	27.786999
387.297340	6248.711667	1770.379883	26.352703
387.297340	6248.711667	1769.373047	-55.790524
387.297340	6248.711667	1768.365234	28.158888
387.297340	6248.711667	1767.358398	85.962334
387.297340	6248.711667	1766.350586	112.884613
387.297340	6248.711667	1765.342773	113.688995
387.297340	6248.711667	1764.334961	-124.988358
387.297340	6248.711667	1763.326172	-22.260012
387.297340	6248.711667	1762.318359	-28.609953
387.297340	6248.711667	1761.309570	-20.766724
387.297340	6248.711667	1760.300781	-5.842435
387.297340	6248.711667	1759.291016	134.586395
387.297340	6248.711667	1758.282227	-193.955719
387.297340	6248.711667	1757.272461	-119.887421
387.297340	6248.711667	1756.262695	-69.543861
387.297340	6248.711667	1755.252930	-19.242929
387.297340	6248.711667	1754.243164	-68.371834
387.297340	6248.711667	1753.233398	41.010338
387.297340	6248.711667	1752.222656	-124.069542
387.297340	6248.711667	1751.211914	34.896290
387.297340	6248.711667	1750.201172	106.289177
387.297340	6248.711667	1749.190430	132.713150
387.297340	6248.711667	1748.179688	85.829826
387.297340	6248.711667	1747.167969	24.758297
387.297340	6248.711667	1746.156250	-0.871978
387.297340	6248.711667	1745.144531	79.787170
387.297340	6248.711667	1744.132813	68.279732
387.297340	6248.711667	1743.121094	87.451431
387.297340	6248.711667	1742.108398	12.150768
387.297340	6248.711667	1741.095703	10.030758
387.297340	6248.711667	1740.083008	38.568504
387.297340	6248.711667	1739.070313	-43.829685
387.297340	6248.711667	1738.057617	-86.113953
387.297340	6248.711667	1737.043945	-88.310898
387.297340	6248.711667	1736.030273	65.114471
387.297340	6248.711667	1735.016602	18.044546
387.297340	6248.711667	1734.002930	-43.174892
387.297340	6248.711667	1732.989258	53.518242
387.297340	6248.711667	1731.974609	103.019142
387.297340	6248.711667	1730.959961	46.457653
387.297340	6248.711667	1729.945313	-125.527473
387.297340	6248.711667	1728.930664	126.449120
387.297340	6248.711667	1727.916016	-123.235023
387.297340	6248.711667	1726.900391	-19.719477
387.297340	6248.711667	1725.885742	29.601355
387.297340	6248.711667	1724.870117	64.757317
387.297340	6248.711667	1723.853516	69.286545
387.297340	6248.711667	1722.837891	-180.264328
387.297340	6248.711667	1721.822266	28.888958
387.297340	6248.711667	1720.805664	-81.867874
387.297340	6248.711667	1719.789063	164.755447
387.297340	6248.711667	1718.772461	53.970959
387.297340	6248.711667	1717.754883	20.758108
387.297340	6248.711667	1716.738281	6.337612
387.297340	6248.711667	1715.720703	-73.881607
387.297340	6248.711667	1714.703125	-6.116492
387.297340	6248.711667	1713.685547	-53.468456
387.297340	6248.711667	1712.667969	-39.778160
387.297340	6248.711667	1711.649414	16.136868
387.297340	6248.711667	1710.630859	69.662308
387.297340	6248.711667	1709.612305	45.710445
387.297340	6248.711667	1708.593750	113.244820
387.297340	6248.711667	1707.575195	47.030750
387.297340	6248.711667	1706.555664	147.327774
387.297340	6248.711667	1705.536133	97.501686
387.297340	6248.711667	1704.516602	-118.771080
387.297340	6248.711667	1703.497070	-37.310635
387.297340	6248.711667	1702.477539	86.280174
387.297340	6248.711667	1701.457031	43.450287
387.297340	6248.711667	1700.437500	136.486969
387.297340	6248.711667	1699.416992	-28.161322
387.297340	6248.711667	1698.395508	-7.782034
387.297340	6248.711667	1697.375000	124.949806
387.297340	6248.711667	1696.354492	16.519739
387.297340	6248.711667	1695.333008	-108.272789
387.297340	6248.711667	1694.311523	164.732162
387.297340	6248.711667	1693.290039	112.443504
387.297340	6248.711667	1692.267578	53.136234
387.297340	6248.711667	1691.246094	73.346458
387.297340	6248.711667	1690.223633	11.696701
387.297340	6248.711667	1689.201172	85.632629
387.297340	6248.711667	1688.178711	-76.524712
387.297340	6248.711667	1687.155273	-21.330957
387.297340	6248.711667	1686.132813	78.217453
387.297340	6248.711667	1685.109375	114.641342
387.297340	6248.711667	1684.085938	-7.765379
387.297340	6248.711667	1683.062500	-27.406765
387.297340	6248.711667	1682.039063	-21.377775
387.297340	6248.711667	1681.014648	101.328400
387.297340	6248.711667	1679.990234	123.631226
387.297340	6248.711667	1678.965820	19.924990
387.297340	6248.711667	1677.941406	128.512695
387.297340	6248.711667	1676.916992	127.432213
387.297340	6248.711667	1675.891602	-11.236947
387.297340	6248.711667	1674.866211	64.610298
387.297340	6248.711667	1673.840820	133.422455
387.297340	6248.711667	1672.815430	20.426367
387.297340	6248.711667	1671.790039	-113.508553
387.297340	6248.711667	1670.763672	62.411545
387.297340	6248.711667	1669.737305	-20.270226
387.297340	6248.711667	1668.710938	-42.389023
387.297340	6248.711667	1667.684570	0.676042
387.297340	6248.711667	1666.658203	6.470668
387.297340	6248.711667	1665.630859	68.100677
387.297340	6248.711667	1664.603516	69.200066
387.297340	6248.711667	1663.576172	-18.111727
387.297340	6248.711667	1662.548828	217.896561
387.297340	6248.711667	1661.520508	163.120743
387.297340	6248.711667	1660.493164	47.911171
387.297340	6248.711667	1659.464844	160.536743
387.297340	6248.711667	1658.436523	12.812196
387.297340	6248.711667	1657.408203	44.055695
387.297340	6248.711667	1656.378906	126.384254
387.297340	6248.711667	1655.350586	-5.014331
387.297340	6248.711667	1654.321289	137.655167
387.297340	6248.711667	1653.291992	110.767586
387.297340	6248.711667	1652.261719	251.018997
387.297340	6248.711667	1651.232422	228.747665
387.297340	6248.711667	1650.202148	141.500229
387.297340	6248.711667	1649.171875	121.561226
387.297340	6248.711667	1648.141602	352.139465
387.297340	6248.711667	1647.111328	104.880272
387.297340	6248.711667	1646.080078	140.586685
387.297340	6248.711667	1645.049805	250.462692
387.297340	6248.711667	1644.018555	316.249298
387.297340	6248.711667	1642.987305	259.186066
387.297340	6248.711667	1641.955078	269.326569
387.297340	6248.711667	1640.923828	279.463654
387.297340	6248.711667	1639.891602	236.320724
387.297340	6248.711667	1638.859375	264.973846
387.297340	6248.711667	1637.827148	305.188477
387.297340	6248.711667	1636.794922	150.954193
387.297340	6248.711667	1635.761719	262.906067
387.297340	6248.711667	1634.729492	245.247147
387.297340	6248.711667	1633.696289	266.915680
387.297340	6248.711667	1632.662109	244.625366
387.297340	6248.711667	1631.628906	418.902039
387.297340	6248.711667	1630.594727	267.120453
387.297340	6248.711667	1629.561523	427.455353
387.297340	6248.711667	1628.527344	340.440674
387.297340	6248.711667	1627.493164	493.763794
387.297340	6248.711667	1626.458008	432.178497
387.297340	6248.711667	1625.423828	402.958557
387.297340	6248.711667	1624.388672	364.510559
387.297340	6248.711667	1623.353516	411.505249
387.297340	6248.711667	1622.318359	384.615845
387.297340	6248.711667	1621.282227	572.371948
387.297340	6248.711667	1620.247070	471.628448
387.297340	6248.711667	1619.210938	400.914459
387.297340	6248.711667	1618.174805	487.078003
387.297340	6248.711667	1617.137695	455.595978
387.297340	6248.711667	1616.101563	428.745575
387.297340	6248.711667	1615.064453	300.476379
387.297340	6248.711667	1614.027344	464.968445
387.297340	6248.711667	1612.990234	507.272827
387.297340	6248.711667	1611.953125	475.842102
387.297340	6248.711667	1610.916016	455.946564
387.297340	6248.711667	1609.877930	537.392273
387.297340	6248.711667	1608.839844	409.282135
387.297340	6248.711667	1607.801758	423.958221
387.297340	6248.711667	1606.763672	424.826691
387.297340	6248.711667	1605.724609	503.938202
387.297340	6248.711667	1604.685547	412.772583
387.297340	6248.711667	1603.646484	521.775940
387.297340	6248.711667	1602.607422	458.257721
387.297340	6248.711667	1601.568359	475.251923
387.297340	6248.711667	1600.528320	393.390381
387.297340	6248.711667	1599.489258	578.200012
387.297340	6248.711667	1598.449219	252.777191
387.297340	6248.711667	1597.408203	527.160828
387.297340	6248.711667	1596.368164	580.926636
387.297340	6248.711667	1595.327148	434.864838
387.297340	6248.711667	1594.287109	490.946075
387.297340	6248.711667	1593.246094	260.037811
387.297340	6248.711667	1592.204102	495.185364
387.297340	6248.711667	1591.163086	500.766479
387.297340	6248.711667	1590.121094	554.538391
387.297340	6248.711667	1589.079102	615.184204
387.297340	6248.711667	1588.037109	538.206360
387.297340	6248.711667	1586.995117	685.997559
387.297340	6248.711667	1585.953125	670.966492
387.297340	6248.711667	1584.910156	653.659241
387.297340	6248.711667	1583.867188	595.122070
387.297340	6248.711667	1582.824219	541.205566
387.297340	6248.711667	1581.781250	519.398193
387.297340	6248.711667	1580.737305	403.704193
387.297340	6248.711667	1579.693359	397.990173
387.297340	6248.711667	1578.649414	651.011841
387.297340	6248.711667	1577.605469	539.987793
387.297340	6248.711667	1576.561523	337.479797
387.297340	6248.711667	1575.516602	517.190430
387.297340	6248.711667	1574.472656	294.212189
387.297340	6248.711667	1573.427734	501.344818
387.297340	6248.711667	1572.381836	790.737061
387.297340	6248.711667	1571.336914	291.235901
387.297340	6248.711667	1570.291016	299.423706
387.297340	6248.711667	1569.246094	259.636597
387.297340	6248.711667	1568.200195	535.216919
387.297340	6248.711667	1567.153320	461.163025
387.297340	6248.711667	1566.107422	336.911469
387.297340	6248.711667	1565.060547	249.264679
387.297340	6248.711667	1564.013672	417.397552
387.297340	6248.711667	1562.966797	391.447632
387.297340	6248.711667	1561.919922	317.600708
387.297340	6248.711667	1560.872070	298.566925
387.297340	6248.711667	1559.825195	423.298035
387.297340	6248.711667	1558.777344	331.304352
387.297340	6248.711667	1557.729492	223.405594
387.297340	6248.711667	1556.680664	332.179138
387.297340	6248.711667	1555.632813	452.335938
387.297340	6248.711667	1554.583984	371.895142
387.297340	6248.711667	1553.535156	382.660828
387.297340	6248.711667	1552.486328	345.602020
387.297340	6248.711667	1551.436523	367.804504
387.297340	6248.711667	1550.387695	246.548767
387.297340	6248.711667	1549.337891	460.077850
387.297340	6248.711667	1548.288086	272.880249
387.297340	6248.711667	1547.238281	286.077362
387.297340	6248.711667	1546.187500	269.709137
387.297340	6248.711667	1545.136719	376.233276
387.297340	6248.711667	1544.086914	387.207397
387.297340	6248.711667	1543.035156	393.649078
387.297340	6248.711667	1541.984375	445.595947
387.297340	6248.711667	1540.933594	513.463501
387.297340	6248.711667	1539.881836	433.587830
387.297340	6248.711667	1538.830078	358.317017
387.297340	6248.711667	1537.778320	396.707001
387.297340	6248.711667	1536.725586	600.933655
387.297340	6248.711667	1535.673828	600.708923
387.297340	6248.711667	1534.621094	414.313171
387.297340	6248.711667	1533.568359	756.988831
387.297340	6248.711667	1532.515625	536.647827
387.297340	6248.711667	1531.461914	538.818237
387.297340	6248.711667	1530.409180	502.448975
387.297340	6248.711667	1529.355469	658.941284
387.297340	6248.711667	1528.301758	602.209839
387.297340	6248.711667	1527.247070	527.387939
387.297340	6248.711667	1526.193359	488.904083
387.297340	6248.711667	1525.138672	389.264282
387.297340	6248.711667	1524.083984	339.552094
387.297340	6248.711667	1523.029297	344.270142
387.297340	6248.711667	1521.974609	315.039215
387.297340	6248.711667	1520.918945	242.816986
387.297340	6248.711667	1519.863281	258.968536
387.297340	6248.711667	1518.807617	132.516037
387.297340	6248.711667	1517.751953	141.958710
387.297340	6248.711667	1516.696289	-59.035778
387.297340	6248.711667	1515.639648	108.890259
387.297340	6248.711667	1514.583008	66.400093
387.297340	6248.711667	1513.526367	109.906990
387.297340	6248.711667	1512.469727	58.456543
387.297340	6248.711667	1511.412109	77.144821
387.297340	6248.711667	1510.355469	161.414520
387.297340	6248.711667	1509.297852	254.722794
387.297340	6248.711667	1508.240234	110.781982
387.297340	6248.711667	1507.181641	-39.845863
387.297340	6248.711667	1506.124023	60.328526
387.297340	6248.711667	1505.065430	205.660004
387.297340	6248.711667	1504.006836	68.756325
387.297340	6248.711667	1502.948242	114.780708
387.297340	6248.711667	1501.888672	122.455498
387.297340	6248.711667	1500.830078	308.418060
387.297340	6248.711667	1499.770508	115.347786
387.297340	6248.711667	1498.710938	48.696957
387.297340	6248.711667	1497.650391	81.328178
387.297340	6248.711667	1496.590820	5.766208
387.297340	6248.711667	1495.530273	-8.868849
387.297340	6248.711667	1494.469727	53.164680
387.297340	6248.711667	1493.409180	-67.301041
387.297340	6248.711667	1492.348633	6.058319
387.297340	6248.711667	1491.287109	-134.547272
387.297340	6248.711667	1490.225586	62.723793
387.297340	6248.711667	1489.164063	-145.304138
387.297340	6248.711667	1488.102539	-137.115845
387.297340	6248.711667	1487.041016	-68.127701
387.297340	6248.711667	1485.978516	-91.383492
387.297340	6248.711667	1484.916016	-121.320618
387.297340	6248.711667	1483.853516	10.695311
387.297340	6248.711667	1482.791016	19.036934
387.297340	6248.711667	1481.727539	85.874962
387.297340	6248.711667	1480.664063	136.973022
387.297340	6248.711667	1479.600586	109.441063
387.297340	6248.711667	1478.537109	-41.611462
387.297340	6248.711667	1477.473633	18.612886
387.297340	6248.711667	1476.409180	-145.692062
387.297340	6248.711667	1475.344727	-152.799515
387.297340	6248.711667	1474.280273	-72.301201
387.297340	6248.711667	1473.215820	59.902081
387.297340	6248.711667	1472.151367	-75.039726
387.297340	6248.711667	1471.085938	122.140144
387.297340	6248.711667	1470.020508	-86.513359
387.297340	6248.711667	1468.955078	39.032047
387.297340	6248.711667	1467.888672	103.698975
387.297340	6248.711667	1466.823242	197.714630
387.297340	6248.711667	1465.756836	112.748451
387.297340	6248.711667	1464.690430	159.765121
387.297340	6248.711667	1463.624023	142.160660
387.297340	6248.711667	1462.556641	-50.398495
387.297340	6248.711667	1461.490234	81.712921
387.297340	6248.711667	1460.422852	39.762836
387.297340	6248.711667	1459.355469	260.975494
387.297340	6248.711667	1458.287109	227.672760
387.297340	6248.711667	1457.219727	150.354538
387.297340	6248.711667	1456.151367	444.947784
387.297340	6248.711667	1455.083008	231.062271
387.297340	6248.711667	1454.014648	439.757599
387.297340	6248.711667	1452.945313	645.036987
387.297340	6248.711667	1451.876953	537.624023
387.297340	6248.711667	1450.807617	682.508972
387.297340	6248.711667	1449.738281	919.045654
387.297340	6248.711667	1448.668945	980.776001
387.297340	6248.711667	1447.598633	857.092102
387.297340	6248.711667	1446.528320	803.994934
387.297340	6248.711667	1445.458008	984.016785
387.297340	6248.711667	1444.387695	855.149719
387.297340	6248.711667	1443.317383	666.908997
387.297340	6248.711667	1442.246094	535.137390
387.297340	6248.711667	1441.174805	542.800598
387.297340	6248.711667	1440.103516	468.649658
387.297340	6248.711667	1439.032227	353.491089
387.297340	6248.711667	1437.960938	230.198883
387.297340	6248.711667	1436.888672	79.494545
387.297340	6248.711667	1435.816406	218.108215
387.297340	6248.711667	1434.744141	125.705841
387.297340	6248.711667	1433.670898	108.234123
387.297340	6248.711667	1432.598633	126.825432
387.297340	6248.711667	1431.525391	-144.090164
387.297340	6248.711667	1430.452148	-58.752930
387.297340	6248.711667	1429.378906	-12.861172
387.297340	6248.711667	1428.304688	48.295143
387.297340	6248.711667	1427.231445	17.611181
387.297340	6248.711667	1426.157227	0.363570
387.297340	6248.711667	1425.083008	120.964668
387.297340	6248.711667	1424.007813	14.231589
387.297340	6248.711667	1422.933594	-21.518452
387.297340	6248.711667	1421.858398	35.119873
387.297340	6248.711667	1420.783203	-12.173655
387.297340	6248.711667	1419.708008	263.719513
387.297340	6248.711667	1418.631836	75.994598
387.297340	6248.711667	1417.555664	66.496277
387.297340	6248.711667	1416.479492	129.726898
387.297340	6248.711667	1415.403320	121.194160
387.297340	6248.711667	1414.327148	258.018066
387.297340	6248.711667	1413.250000	136.745041
387.297340	6248.711667	1412.173828	101.805832
387.297340	6248.711667	1411.096680	95.330574
387.297340	6248.711667	1410.018555	138.787033
387.297340	6248.711667	1408.941406	49.735550
387.297340	6248.711667	1407.863281	109.998894
387.297340	6248.711667	1406.785156	121.717262
387.297340	6248.711667	1405.707031	115.089729
387.297340	6248.711667	1404.628906	85.177681
387.297340	6248.711667	1403.549805	88.945831
387.297340	6248.711667	1402.470703	155.022018
387.297340	6248.711667	1401.391602	137.396332
387.297340	6248.711667	1400.312500	81.713638
387.297340	6248.711667	1399.233398	83.689590
387.297340	6248.711667	1398.153320	45.089859
387.297340	6248.711667	1397.073242	215.130463
387.297340	6248.711667	1395.993164	183.703339
387.297340	6248.711667	1394.913086	-121.905067
387.297340	6248.711667	1393.832031	96.426979
387.297340	6248.711667	1392.750977	18.205900
387.297340	6248.711667	1391.669922	-28.344366
387.297340	6248.711667	1390.588867	148.806763
387.297340	6248.711667	1389.506836	147.883698
387.297340	6248.711667	1388.425781	64.551857
387.297340	6248.711667	1387.343750	11.398943
387.297340	6248.711667	1386.261719	-30.238300
387.297340	6248.711667	1385.178711	57.993073
387.297340	6248.711667	1384.096680	102.954506
387.297340	6248.711667	1383.013672	66.778862
387.297340	6248.711667	1381.930664	208.283707
387.297340	6248.711667	1380.846680	45.203461
387.297340	6248.711667	1379.763672	55.386105
387.297340	6248.711667	1378.679688	23.262602
387.297340	6248.711667	1377.595703	150.695313
387.297340	6248.711667	1376.511719	161.203537
387.297340	6248.711667	1375.427734	140.476059
387.297340	6248.711667	1374.342773	42.046749
387.297340	6248.711667	1373.257813	53.942883
387.297340	6248.711667	1372.172852	88.231613
387.297340	6248.711667	1371.087891	62.499645
387.297340	6248.711667	1370.001953	256.843475
387.297340	6248.711667	1368.916992	213.453247
387.297340	6248.711667	1367.831055	226.183334
387.297340	6248.711667	1366.744141	217.399857
387.297340	6248.711667	1365.658203	-25.879663
387.297340	6248.711667	1364.571289	30.969889
387.297340	6248.711667	1363.484375	129.067749
387.297340	6248.711667	1362.397461	189.106567
387.297340	6248.711667	1361.310547	185.749176
387.297340	6248.711667	1360.222656	224.971725
387.297340	6248.711667	1359.135742	122.278732
387.297340	6248.711667	1358.047852	184.984100
387.297340	6248.711667	1356.958984	111.153580
387.297340	6248.711667	1355.871094	207.110352
387.297340	6248.711667	1354.782227	191.409714
387.297340	6248.711667	1353.693359	274.806335
387.297340	6248.711667	1352.604492	121.123741
387.297340	6248.711667	1351.515625	179.256668
387.297340	6248.711667	1350.425781	129.341156
387.297340	6248.711667	1349.335938	205.378876
387.297340	6248.711667	1348.246094	154.488235
387.297340	6248.711667	1347.156250	212.095718
387.297340	6248.711667	1346.066406	132.165894
387.297340	6248.711667	1344.975586	314.998993
387.297340	6248.711667	1343.884766	216.506729
387.297340	6248.711667	1342.793945	384.629730
387.297340	6248.711667	1341.702148	414.969543
387.297340	6248.711667	1340.611328	414.588379
387.297340	6248.711667	1339.519531	350.985077
387.297340	6248.711667	1338.427734	335.263550
387.297340	6248.711667	1337.334961	226.666595
387.297340	6248.711667	1336.243164	111.400719
387.297340	6248.711667	1335.150391	194.697372
387.297340	6248.711667	1334.057617	255.420151
387.297340	6248.711667	1332.964844	49.613693
387.297340	6248.711667	1331.871094	249.438843
387.297340	6248.711667	1330.778320	204.493500
387.297340	6248.711667	1329.684570	7.185084
387.297340	6248.711667	1328.590820	168.719376
387.297340	6248.711667	1327.496094	51.785637
387.297340	6248.711667	1326.402344	46.672466
387.297340	6248.711667	1325.307617	106.832901
387.297340	6248.711667	1324.212891	115.221153
387.297340	6248.711667	1323.117188	29.941093
387.297340	6248.711667	1322.022461	27.950605
387.297340	6248.711667	1320.926758	34.080811
387.297340	6248.711667	1319.831055	181.179382
387.297340	6248.711667	1318.735352	198.964279
387.297340	6248.711667	1317.638672	127.077087
387.297340	6248.711667	1316.542969	98.425659
387.297340	6248.711667	1315.446289	59.784679
387.297340	6248.711667	1314.349609	5.793707
387.297340	6248.711667	1313.251953	140.840973
387.297340	6248.711667	1312.155273	211.986511
387.297340	6248.711667	1311.057617	180.698044
387.297340	6248.711667	1309.959961	138.077942
387.297340	6248.711667	1308.862305	195.765533
387.297340	6248.711667	1307.763672	273.258026
387.297340	6248.711667	1306.665039	274.417969
387.297340	6248.711667	1305.566406	315.675262
387.297340	6248.711667	1304.467773	301.195129
387.297340	6248.711667	1303.369141	246.125168
387.297340	6248.711667	1302.269531	263.969025
387.297340	6248.711667	1301.169922	217.981781
387.297340	6248.711667	1300.070313	228.388702
387.297340	6248.711667	1298.970703	89.186050
387.297340	6248.711667	1297.870117	142.763733
387.297340	6248.711667	1296.769531	95.187805
387.297340	6248.711667	1295.668945	150.924255
387.297340	6248.711667	1294.568359	41.868763
387.297340	6248.711667	1293.466797	168.270187
387.297340	6248.711667	1292.366211	109.712898
387.297340	6248.711667	1291.264648	-11.774791
387.297340	6248.711667	1290.162109	74.493843
387.297340	6248.711667	1289.060547	77.949799
387.297340	6248.711667	1287.958008	20.681986
387.297340	6248.711667	1286.855469	23.494604
387.297340	6248.711667	1285.752930	242.442032
387.297340	6248.711667	1284.650391	-82.691383
387.297340	6248.711667	1283.546875	-70.373970
387.297340	6248.711667	1282.444336	-82.320381
387.297340	6248.711667	1281.339844	-27.823149
387.297340	6248.711667	1280.236328	71.973595
387.297340	6248.711667	1279.132813	54.914524
387.297340	6248.711667	1278.028320	114.977142
387.297340	6248.711667	1276.923828	-85.152603
387.297340	6248.711667	1275.819336	-117.835876
387.297340	6248.711667	1274.713867	0.010350
387.297340	6248.711667	1273.608398	42.556843
387.297340	6248.711667	1272.503906	-87.016869
387.297340	6248.711667	1271.397461	-31.859020
387.297340	6248.711667	1270.291992	-204.885468
387.297340	6248.711667	1269.185547	1.741064
387.297340	6248.711667	1268.080078	1.300342
387.297340	6248.711667	1266.972656	-69.419762
387.297340	6248.711667	1265.866211	-107.017799
387.297340	6248.711667	1264.759766	-36.875076
387.297340	6248.711667	1263.652344	-70.512993
387.297340	6248.711667	1262.544922	-6.231061
387.297340	6248.711667	1261.436523	-3.440326
387.297340	6248.711667	1260.329102	-88.365997
387.297340	6248.711667	1259.220703	10.150614
387.297340	6248.711667	1258.112305	-121.703201
387.297340	6248.711667	1257.003906	-105.338402
387.297340	6248.711667	1255.895508	13.804780
387.297340	6248.711667	1254.786133	-143.336044
387.297340	6248.711667	1253.676758	-6.230834
387.297340	6248.711667	1252.567383	-60.020508
387.297340	6248.711667	1251.458008	66.842972
387.297340	6248.711667	1250.347656	-80.976204
387.297340	6248.711667	1249.237305	-83.179436
387.297340	6248.711667	1248.126953	-113.416451
387.297340	6248.711667	1247.016602	1.986786
387.297340	6248.711667	1245.905273	59.337536
387.297340	6248.711667	1244.793945	-39.237000
387.297340	6248.711667	1243.682617	-39.673145
387.297340	6248.711667	1242.571289	-14.246592
387.297340	6248.711667	1241.459961	-55.487411
387.297340	6248.711667	1240.347656	-45.577095
387.297340	6248.711667	1239.235352	-128.452896
387.297340	6248.711667	1238.123047	27.703737
387.297340	6248.711667	1237.009766	85.354393
387.297340	6248.711667	1235.897461	94.310890
387.297340	6248.711667	1234.784180	117.100189
387.297340	6248.711667	1233.670898	-40.807240
387.297340	6248.711667	1232.556641	68.591194
387.297340	6248.711667	1231.443359	-105.015717
387.297340	6248.711667	1230.329102	85.371147
387.297340	6248.711667	1229.214844	158.140228
387.297340	6248.711667	1228.099609	127.145203
387.297340	6248.711667	1226.985352	132.188644
387.297340	6248.711667	1225.870117	104.009903
387.297340	6248.711667	1224.754883	138.946167
387.297340	6248.711667	1223.639648	190.479584
387.297340	6248.711667	1222.523438	172.956482
387.297340	6248.711667	1221.408203	133.139938
387.297340	6248.711667	1220.291992	89.108635
387.297340	6248.711667	1219.174805	117.676239
387.297340	6248.711667	1218.058594	45.454010
387.297340	6248.711667	1216.941406	101.900475
387.297340	6248.711667	1215.824219	87.081383
387.297340	6248.711667	1214.707031	100.152725
387.297340	6248.711667	1213.589844	116.960442
387.297340	6248.711667	1212.471680	54.090572
387.297340	6248.711667	1211.353516	47.873058
387.297340	6248.711667	1210.235352	42.752472
387.297340	6248.711667	1209.117188	49.826710
387.297340	6248.711667	1207.998047	3.052401
387.297340	6248.711667	1206.878906	79.458244
387.297340	6248.711667	1205.759766	60.095764
387.297340	6248.711667	1204.640625	-35.573383
387.297340	6248.711667	1203.520508	-0.824999
387.297340	6248.711667	1202.401367	12.412803
387.297340	6248.711667	1201.281250	-35.941143
387.297340	6248.711667	1200.160156	128.603622
387.297340	6248.711667	1199.040039	135.195709
387.297340	6248.711667	1197.918945	142.038071
387.297340	6248.711667	1196.797852	80.655106
387.297340	6248.711667	1195.676758	190.624222
387.297340	6248.711667	1194.555664	112.326546
387.297340	6248.711667	1193.433594	7.981317
387.297340	6248.711667	1192.311523	83.068054
387.297340	6248.711667	1191.189453	-20.636129
387.297340	6248.711667	1190.066406	10.162707
387.297340	6248.711667	1188.944336	15.585024
387.297340	6248.711667	1187.821289	38.873680
387.297340	6248.711667	1186.698242	33.803165
387.297340	6248.711667	1185.574219	-74.975204
387.297340	6248.711667	1184.451172	54.701130
387.297340	6248.711667	1183.327148	-83.632584
387.297340	6248.711667	1182.203125	-85.726212
387.297340	6248.711667	1181.078125	0.416261
387.297340	6248.711667	1179.954102	-25.361864
387.297340	6248.711667	1178.829102	-127.143570
387.297340	6248.711667	1177.704102	-97.503860
387.297340	6248.711667	1176.579102	-59.410713
387.297340	6248.711667	1175.453125	-149.806152
387.297340	6248.711667	1174.327148	-52.508793
387.297340	6248.711667	1173.201172	-97.831818
387.297340	6248.711667	1172.075195	-39.537613
387.297340	6248.711667	1170.949219	-50.166882
387.297340	6248.711667	1169.822266	-5.569908
387.297340	6248.711667	1168.695313	-7.720026
387.297340	6248.711667	1167.568359	-5.009012
387.297340	6248.711667	1166.440430	66.226982
387.297340	6248.711667	1165.313477	22.604078
387.297340	6248.711667	1164.185547	-12.170472
387.297340	6248.711667	1163.057617	67.285049
387.297340	6248.711667	1161.928711	15.166669
387.297340	6248.711667	1160.800781	41.516903
387.297340	6248.711667	1159.671875	117.084885
387.297340	6248.711667	1158.541992	40.947086
387.297340	6248.711667	1157.413086	-46.550179
387.297340	6248.711667	1156.283203	-14.068987
387.297340	6248.711667	1155.154297	7.564196
387.297340	6248.711667	1154.023438	46.438011
387.297340	6248.711667	1152.893555	34.503086
387.297340	6248.711667	1151.763672	-71.835640
387.297340	6248.711667	1150.632813	-13.895435
387.297340	6248.711667	1149.501953	42.501511
387.297340	6248.711667	1148.370117	-19.516298
387.297340	6248.711667	1147.239258	118.639931
387.297340	6248.711667	1146.107422	-33.893784
387.297340	6248.711667	1144.975586	-22.272560
387.297340	6248.711667	1143.843750	20.308661
387.297340	6248.711667	1142.710938	27.647253
387.297340	6248.711667	1141.578125	39.779072
387.297340	6248.711667	1140.445313	65.584381
387.297340	6248.711667	1139.312500	-21.553633
387.297340	6248.711667	1138.178711	32.905514
387.297340	6248.711667	1137.045898	62.570465
387.297340	6248.711667	1135.912109	26.965149
387.297340	6248.711667	1134.777344	-24.664488
387.297340	6248.711667	1133.643555	123.144791
387.297340	6248.711667	1132.508789	110.492516
387.297340	6248.711667	1131.374023	119.623695
387.297340	6248.711667	1130.239258	25.769691
387.297340	6248.711667	1129.104492	194.994370
387.297340	6248.711667	1127.968750	78.981651
387.297340	6248.711667	1126.833008	104.750549
387.297340	6248.711667	1125.697266	179.286331
387.297340	6248.711667	1124.560547	166.102463
387.297340	6248.711667	1123.424805	38.508202
387.297340	6248.711667	1122.288086	115.326431
387.297340	6248.711667	1121.151367	163.712982
387.297340	6248.711667	1120.013672	128.886322
387.297340	6248.711667	1118.876953	133.387817
387.297340	6248.711667	1117.739258	174.008469
387.297340	6248.711667	1116.601563	167.820206
387.297340	6248.711667	1115.462891	192.109314
387.297340	6248.711667	1114.324219	185.091797
387.297340	6248.711667	1113.186523	181.034531
387.297340	6248.711667	1112.046875	187.411606
387.297340	6248.711667	1110.908203	63.917786
387.297340	6248.711667	1109.769531	53.804661
387.297340	6248.711667	1108.629883	165.442398
387.297340	6248.711667	1107.490234	138.989044
387.297340	6248.711667	1106.349609	122.844032
387.297340	6248.711667	1105.209961	143.862167
387.297340	6248.711667	1104.069336	164.142136
387.297340	6248.711667	1102.928711	134.494431
387.297340	6248.711667	1101.787109	180.799377
387.297340	6248.711667	1100.646484	200.296204
387.297340	6248.711667	1099.504883	239.327621
387.297340	6248.711667	1098.363281	154.479568
387.297340	6248.711667	1097.221680	190.166092
387.297340	6248.711667	1096.079102	31.410013
387.297340	6248.711667	1094.936523	132.988266
387.297340	6248.711667	1093.793945	212.283142
387.297340	6248.711667	1092.651367	104.610573
387.297340	6248.711667	1091.507813	76.047997
387.297340	6248.711667	1090.364258	121.797226
387.297340	6248.711667	1089.220703	158.368027
387.297340	6248.711667	1088.077148	156.832184
387.297340	6248.711667	1086.933594	127.739990
387.297340	6248.711667	1085.789063	-69.551888
387.297340	6248.711667	1084.644531	6.710712
387.297340	6248.711667	1083.499023	162.710098
387.297340	6248.711667	1082.354492	155.360474
387.297340	6248.711667	1081.208984	102.301353
387.297340	6248.711667	1080.063477	-39.425922
387.297340	6248.711667	1078.917969	80.269981
387.297340	6248.711667	1077.771484	59.139656
387.297340	6248.711667	1076.625977	109.286949
387.297340	6248.711667	1075.479492	143.479141
387.297340	6248.711667	1074.332031	101.973999
387.297340	6248.711667	1073.185547	85.207527
387.297340	6248.711667	1072.038086	69.547478
387.297340	6248.711667	1070.890625	28.783415
387.297340	6248.711667	1069.743164	14.174159
387.297340	6248.711667	1068.594727	104.917450
387.297340	6248.711667	1067.447266	114.428467
387.297340	6248.711667	1066.298828	78.307716
387.297340	6248.711667	1065.149414	125.145508
387.297340	6248.711667	1064.000977	83.695541
387.297340	6248.711667	1062.851563	136.533279
387.297340	6248.711667	1061.702148	90.476311
387.297340	6248.711667	1060.552734	62.450932
387.297340	6248.711667	1059.402344	6.115695
387.297340	6248.711667	1058.252930	13.121939
387.297340	6248.711667	1057.102539	48.356499
387.297340	6248.711667	1055.951172	23.909721
387.297340	6248.711667	1054.800781	88.720650
387.297340	6248.711667	1053.649414	173.194580
387.297340	6248.711667	1052.498047	39.814743
387.297340	6248.711667	1051.346680	37.082195
387.297340	6248.711667	1050.194336	-12.361732
387.297340	6248.711667	1049.042969	-4.572443
387.297340	6248.711667	1047.890625	23.520720
387.297340	6248.711667	1046.738281	63.888885
387.297340	6248.711667	1045.584961	92.304665
387.297340	6248.711667	1044.431641	150.760223
387.297340	6248.711667	1043.278320	1.773235
387.297340	6248.711667	1042.125000	-4.786599
387.297340	6248.711667	1040.971680	-2.305902
387.297340	6248.711667	1039.817383	31.341864
387.297340	6248.711667	1038.663086	-92.405243
387.297340	6248.711667	1037.508789	86.850830
387.297340	6248.711667	1036.353516	-30.941172
387.297340	6248.711667	1035.198242	-107.190781
387.297340	6248.711667	1034.042969	48.637264
387.297340	6248.711667	1032.887695	18.721272
387.297340	6248.711667	1031.732422	0.469065
387.297340	6248.711667	1030.576172	104.094467
387.297340	6248.711667	1029.419922	31.405306
387.297340	6248.711667	1028.263672	56.012535
387.297340	6248.711667	1027.106445	-7.351517
387.297340	6248.711667	1025.949219	-19.090876
387.297340	6248.711667	1024.792969	58.251339
387.297340	6248.711667	1023.634766	-24.364017
387.297340	6248.711667	1022.477539	98.338745
387.297340	6248.711667	1021.319336	-129.862427
387.297340	6248.711667	1020.161133	-140.391998
387.297340	6248.711667	1019.002930	112.458649
387.297340	6248.711667	1017.843750	-129.362930
387.297340	6248.711667	1016.684570	-4.837780
387.297340	6248.711667	1015.525391	-30.822714
387.297340	6248.711667	1014.366211	-84.418686
387.297340	6248.711667	1013.207031	-152.330154
387.297340	6248.711667	1012.046875	-59.798630
387.297340	6248.711667	1010.886719	15.886851
387.297340	6248.711667	1009.726563	-85.696938
387.297340	6248.711667	1008.565430	11.712387
387.297340	6248.711667	1007.404297	-7.973019
387.297340	6248.711667	1006.243164	54.972557
387.297340	6248.711667	1005.082031	123.480881
387.297340	6248.711667	1003.920898	5.861656
387.297340	6248.711667	1002.758789	103.122803
387.297340	6248.711667	1001.596680	75.184845
387.297340	6248.711667	1000.433594	-48.852020
387.297340	6248.711667	999.271484	27.766802
387.297340	6248.711667	998.108398	122.470047
387.297340	6248.711667	996.945313	170.069916
387.297340	6248.711667	995.782227	20.507933
387.297340	6248.711667	994.618164	21.516064
387.297340	6248.711667	993.454102	64.790817
387.297340	6248.711667	992.290039	70.138481
387.297340	6248.711667	991.125977	248.676865
387.297340	6248.711667	989.960938	22.861992
387.297340	6248.711667	988.796875	96.341782
387.297340	6248.711667	987.630859	154.443954
387.297340	6248.711667	986.465820	168.038345
387.297340	6248.711667	985.300781	-102.341423
387.297340	6248.711667	984.134766	69.021858
387.297340	6248.711667	982.968750	-75.492081
387.297340	6248.711667	981.801758	-80.909218
387.297340	6248.711667	980.635742	16.516665
387.297340	6248.711667	979.468750	-7.788528
387.297340	6248.711667	978.301758	129.972458
387.297340	6248.711667	977.133789	-16.090649
387.297340	6248.711667	975.966797	25.158104
387.297340	6248.711667	974.798828	-63.868164
387.297340	6248.711667	973.630859	-15.958572
387.297340	6248.711667	972.461914	37.385216
387.297340	6248.711667	971.293945	17.224072
387.297340	6248.711667	970.125000	11.915835
387.297340	6248.711667	968.956055	-74.608833
387.297340	6248.711667	967.786133	64.055092
387.297340	6248.711667	966.617188	3.700990
387.297340	6248.711667	965.447266	-37.092678
387.297340	6248.711667	964.276367	-47.176876
387.297340	6248.711667	963.106445	-76.454460
387.297340	6248.711667	961.935547	4.006496
387.297340	6248.711667	960.764648	7.045891
387.297340	6248.711667	959.593750	6.837694
387.297340	6248.711667	958.422852	-58.585732
387.297340	6248.711667	957.250977	-16.928333
387.297340	6248.711667	956.079102	224.647385
387.297340	6248.711667	954.907227	56.991676
387.297340	6248.711667	953.734375	-43.872898
387.297340	6248.711667	952.562500	-24.654179
387.297340	6248.711667	951.389648	89.784157
387.297340	6248.711667	950.215820	-117.373215
387.297340	6248.711667	949.042969	127.428604
387.297340	6248.711667	947.869141	77.823448
387.297340	6248.711667	946.695313	-14.617232
387.297340	6248.711667	945.521484	172.714615
387.297340	6248.711667	944.346680	115.367859
387.297340	6248.711667	943.172852	205.107925
387.297340	6248.711667	941.998047	9.323450
387.297340	6248.711667	940.822266	74.294800
387.297340	6248.711667	939.647461	24.924166
387.297340	6248.711667	938.471680	152.483917
387.297340	6248.711667	937.295898	-56.782555
387.297340	6248.711667	936.119141	27.152575
387.297340	6248.711667	934.943359	-10.936867
387.297340	6248.711667	933.766602	53.946518
387.297340	6248.711667	932.589844	151.485611
387.297340	6248.711667	931.413086	216.392441
387.297340	6248.711667	930.235352	129.249954
387.297340	6248.711667	929.057617	283.684906
387.297340	6248.711667	927.879883	-69.535973
387.297340	6248.711667	926.702148	-83.343742
387.297340	6248.711667	925.523438	71.053024
387.297340	6248.711667	924.344727	19.203461
387.297340	6248.711667	923.166016	97.574471
387.297340	6248.711667	921.987305	-27.523767
387.297340	6248.711667	920.807617	42.682056
387.297340	6248.711667	919.627930	43.580948
387.297340	6248.711667	919.497070	37.032352
387.297340	6248.711667	918.331055	31.267591
387.297340	6248.711667	917.165039	163.721191
387.297340	6248.711667	915.999023	98.304871
387.297340	6248.711667	914.833008	-34.821106
387.297340	6248.711667	913.666016	-18.925470
387.297340	6248.711667	912.499023	-5.751519
387.297340	6248.711667	911.332031	161.738434
387.297340	6248.711667	910.165039	158.614807
387.297340	6248.711667	908.997070	60.762173
387.297340	6248.711667	907.830078	14.353539
387.297340	6248.711667	906.661133	-53.684139
387.297340	6248.711667	905.493164	56.813187
387.297340	6248.711667	904.325195	-32.852436
387.297340	6248.711667	903.156250	-11.637300
387.297340	6248.711667	901.987305	-36.389648
387.297340	6248.711667	900.818359	17.235821
387.297340	6248.711667	899.648438	-10.225992
387.297340	6248.711667	898.478516	-102.517365
387.297340	6248.711667	897.308594	26.696747
387.297340	6248.711667	896.138672	196.357819
387.297340	6248.711667	894.968750	149.960068
387.297340	6248.711667	893.797852	233.139923
387.297340	6248.711667	892.626953	154.358261
387.297340	6248.711667	891.456055	124.169823
387.297340	6248.711667	890.284180	77.803329
387.297340	6248.711667	889.113281	168.998810
387.297340	6248.711667	887.941406	-90.391853
387.297340	6248.711667	886.768555	73.581573
387.297340	6248.711667	885.596680	113.494614
387.297340	6248.711667	884.423828	99.489632
387.297340	6248.711667	883.250977	-151.612625
387.297340	6248.711667	882.078125	114.580948
387.297340	6248.711667	880.905273	122.114365
387.297340	6248.711667	879.731445	161.951614
387.297340	6248.711667	878.557617	16.014055
387.297340	6248.711667	877.383789	203.881302
387.297340	6248.711667	876.209961	-127.693169
387.297340	6248.711667	875.035156	-15.214622
387.297340	6248.711667	873.860352	-26.521477
387.297340	6248.711667	872.685547	58.987381
387.297340	6248.711667	871.510742	104.124977
387.297340	6248.711667	870.334961	141.175095
387.297340	6248.711667	869.159180	127.139153
387.297340	6248.711667	867.983398	24.428812
387.297340	6248.711667	866.807617	53.398594
387.297340	6248.711667	865.630859	197.852280
387.297340	6248.711667	864.454102	3.870882
387.297340	6248.711667	863.277344	78.457367
387.297340	6248.711667	862.100586	-64.425842
387.297340	6248.711667	860.922852	165.797943
387.297340	6248.711667	859.745117	20.263483
387.297340	6248.711667	858.567383	30.382406
387.297340	6248.711667	857.389648	-58.748104
387.297340	6248.711667	856.210938	176.631241
387.297340	6248.711667	855.032227	12.428643
387.297340	6248.711667	853.853516	-1.601505
387.297340	6248.711667	852.674805	-50.470432
387.297340	6248.711667	851.495117	45.366295
387.297340	6248.711667	850.315430	-27.610373
387.297340	6248.711667	849.135742	49.424267
387.297340	6248.711667	847.956055	43.412102
387.297340	6248.711667	846.775391	80.233963
387.297340	6248.711667	845.595703	42.088608
387.297340	6248.711667	844.415039	78.886139
387.297340	6248.711667	843.233398	80.882385
387.297340	6248.711667	842.052734	2.621336
387.297340	6248.711667	840.871094	31.367554
387.297340	6248.711667	839.689453	9.292923
387.297340	6248.711667	838.506836	123.564857
387.297340	6248.711667	837.325195	69.396797
387.297340	6248.711667	836.142578	23.263226
387.297340	6248.711667	834.959961	102.715431
387.297340	6248.711667	833.777344	29.872522
387.297340	6248.711667	832.593750	-61.639133
387.297340	6248.711667	831.410156	113.889954
387.297340	6248.711667	830.226563	107.813759
387.297340	6248.711667	829.042969	64.369530
387.297340	6248.711667	827.858398	-37.767056
387.297340	6248.711667	826.673828	22.873743
387.297340	6248.711667	825.489258	219.518448
387.297340	6248.711667	824.304688	136.064957
387.297340	6248.711667	823.120117	-78.004356
387.297340	6248.711667	821.934570	-30.754103
387.297340	6248.711667	820.749023	-36.830723
387.297340	6248.711667	819.562500	-88.208504
387.297340	6248.711667	818.376953	100.192291
387.297340	6248.711667	817.190430	165.989563
387.297340	6248.711667	816.003906	106.596413
387.297340	6248.711667	814.817383	28.586046
387.297340	6248.711667	813.629883	27.795170
387.297340	6248.711667	812.442383	21.675983
387.297340	6248.711667	811.254883	-141.429291
387.297340	6248.711667	810.067383	-14.513908
387.297340	6248.711667	808.878906	61.810600
387.297340	6248.711667	807.690430	-138.446915
387.297340	6248.711667	806.501953	97.370682
387.297340	6248.711667	805.313477	46.023090
387.297340	6248.711667	804.124023	-63.773148
387.297340	6248.711667	802.934570	132.010849
387.297340	6248.711667	801.745117	6.291504
387.297340	6248.711667	800.555664	-39.709591
387.297340	6248.711667	799.365234	-69.766151
387.297340	6248.711667	798.175781	-59.997528
387.297340	6248.711667	796.985352	-111.284554
387.297340	6248.711667	795.793945	-45.799229
387.297340	6248.711667	794.603516	162.914825
387.297340	6248.711667	793.412109	21.407862
387.297340	6248.711667	792.220703	166.361160
387.297340	6248.711667	791.028320	-57.295456
387.297340	6248.711667	789.836914	29.280180
387.297340	6248.711667	788.644531	110.512299
387.297340	6248.711667	787.452148	3.571927
387.297340	6248.711667	786.258789	-71.541786
387.297340	6248.711667	785.066406	-109.552078
387.297340	6248.711667	783.873047	-25.741793
387.297340	6248.711667	782.679688	95.090378
387.297340	6248.711667	781.485352	-22.364540
387.297340	6248.711667	780.291992	-20.689613
387.297340	6248.711667	779.097656	110.625229
387.297340	6248.711667	777.903320	128.126526
387.297340	6248.711667	776.708008	222.311447
387.297340	6248.711667	775.512695	70.533150
387.297340	6248.711667	774.318359	114.442261
387.297340	6248.711667	773.122070	163.610443
387.297340	6248.711667	771.926758	17.196737
387.297340	6248.711667	770.730469	150.891281
387.297340	6248.711667	769.534180	28.295362
387.297340	6248.711667	768.337891	138.144196
387.297340	6248.711667	767.141602	200.410324
387.297340	6248.711667	765.944336	236.242172
387.297340	6248.711667	764.747070	-49.945473
387.297340	6248.711667	763.549805	189.086517
387.297340	6248.711667	762.351563	180.018280
387.297340	6248.711667	761.154297	339.752319
387.297340	6248.711667	759.956055	156.586578
387.297340	6248.711667	758.757813	-0.148651
387.297340	6248.711667	757.558594	80.411339
387.297340	6248.711667	756.359375	68.685272
387.297340	6248.711667	755.160156	143.904968
387.297340	6248.711667	753.960938	313.918915
387.297340	6248.711667	752.761719	241.539993
387.297340	6248.711667	751.561523	200.778793
387.297340	6248.711667	750.361328	233.738693
387.297340	6248.711667	749.160156	285.097778
387.297340	6248.711667	747.959961	199.579544
387.297340	6248.711667	746.758789	103.560791
387.297340	6248.711667	745.557617	99.637589
387.297340	6248.711667	744.356445	43.104237
387.297340	6248.711667	743.154297	-13.418353
387.297340	6248.711667	741.952148	219.245499
387.297340	6248.711667	740.750000	31.268034
387.297340	6248.711667	739.547852	329.493835
387.297340	6248.711667	738.344727	25.947594
387.297340	6248.711667	737.142578	21.956009
387.297340	6248.711667	735.939453	120.371292
387.297340	6248.711667	734.735352	137.338791
387.297340	6248.711667	733.532227	112.284882
387.297340	6248.711667	732.328125	5.868854
387.297340	6248.711667	731.124023	125.140991
387.297340	6248.711667	729.918945	-33.729088
387.297340	6248.711667	728.714844	4.165082
387.297340	6248.711667	727.509766	86.608170
387.297340	6248.711667	726.303711	1.210378
387.297340	6248.711667	725.098633	-39.605667
387.297340	6248.711667	723.892578	108.265945
387.297340	6248.711667	722.686523	15.012791
387.297340	6248.711667	721.480469	2.989243
387.297340	6248.711667	720.274414	140.237671
387.297340	6248.711667	719.067383	70.556000
387.297340	6248.711667	717.860352	-90.738235
387.297340	6248.711667	716.653320	62.101425
387.297340	6248.711667	715.445313	-25.884916
387.297340	6248.711667	714.238281	-108.617661
387.297340	6248.711667	713.030273	-42.236717
387.297340	6248.711667	711.821289	-43.894085
387.297340	6248.711667	710.613281	61.632488
387.297340	6248.711667	709.404297	88.675682
387.297340	6248.711667	708.195313	160.120987
387.297340	6248.711667	706.986328	59.064507
387.297340	6248.711667	705.776367	62.529152
387.297340	6248.711667	704.566406	112.989334
387.297340	6248.711667	703.356445	9.343884
387.297340	6248.711667	702.146484	122.418869
387.297340	6248.711667	700.935547	133.629761
387.297340	6248.711667	699.724609	110.892906
387.297340	6248.711667	698.513672	-18.825960
387.297340	6248.711667	697.302734	-5.036196
387.297340	6248.711667	696.090820	79.146355
387.297340	6248.711667	694.878906	17.257261
387.297340	6248.711667	693.666992	44.012260
387.297340	6248.711667	692.455078	78.556786
387.297340	6248.711667	691.242188	-25.040962
387.297340	6248.711667	690.029297	-141.639404
387.297340	6248.711667	688.816406	-47.222973
387.297340	6248.711667	687.602539	36.717892
387.297340	6248.711667	686.389648	6.045680
387.297340	6248.711667	685.175781	115.934860
387.297340	6248.711667	683.960938	22.759361
387.297340	6248.711667	682.747070	181.999435
387.297340	6248.711667	681.532227	-2.238403
387.297340	6248.711667	680.317383	29.457603
387.297340	6248.711667	679.102539	123.530273
387.297340	6248.711667	677.886719	100.552078
387.297340	6248.711667	676.670898	103.557861
387.297340	6248.711667	675.455078	25.983133
387.297340	6248.711667	674.239258	164.070053
387.297340	6248.711667	673.022461	182.588303
387.297340	6248.711667	671.805664	55.643597
387.297340	6248.711667	670.588867	211.755463
387.297340	6248.711667	669.372070	222.406769
387.297340	6248.711667	668.154297	160.361801
387.297340	6248.711667	666.936523	69.780067
387.297340	6248.711667	665.718750	184.170349
387.297340	6248.711667	664.500977	142.865631
387.297340	6248.711667	663.282227	220.847458
387.297340	6248.711667	662.063477	195.069321
387.297340	6248.711667	660.844727	99.294930
387.297340	6248.711667	659.625000	125.346085
387.297340	6248.711667	658.405273	128.047455
387.297340	6248.711667	657.185547	60.784328
387.297340	6248.711667	655.965820	156.698807
387.297340	6248.711667	654.745117	86.829475
387.297340	6248.711667	653.525391	29.916155
387.297340	6248.711667	652.303711	24.771738
387.297340	6248.711667	651.083008	180.054123
387.297340	6248.711667	649.861328	138.621124
387.297340	6248.711667	648.640625	-81.293625
387.297340	6248.711667	647.417969	200.573776
387.297340	6248.711667	646.196289	156.520065
387.297340	6248.711667	644.973633	202.941574
387.297340	6248.711667	643.750977	-1.371002
387.297340	6248.711667	642.528320	60.530178
387.297340	6248.711667	641.305664	119.802910
387.297340	6248.711667	640.082031	-12.100293
387.297340	6248.711667	638.858398	-7.103477
387.297340	6248.711667	637.634766	46.925777
387.297340	6248.711667	636.410156	118.980980
387.297340	6248.711667	635.185547	15.502386
387.297340	6248.711667	633.960938	175.221069
387.297340	6248.711667	632.736328	-113.991264
387.297340	6248.711667	631.510742	148.811478
387.297340	6248.711667	630.285156	60.811352
387.297340	6248.711667	629.059570	-86.461739
387.297340	6248.711667	627.833984	134.876617
387.297340	6248.711667	626.607422	75.226616
387.297340	6248.711667	625.380859	188.196136
387.297340	6248.711667	624.154297	113.070969
387.297340	6248.711667	622.927734	25.084198
387.297340	6248.711667	621.700195	-116.950951
387.297340	6248.711667	620.472656	42.227779
387.297340	6248.711667	619.245117	77.791962
387.297340	6248.711667	618.016602	154.490829
387.297340	6248.711667	616.788086	-41.540730
387.297340	6248.711667	615.559570	-16.320114
387.297340	6248.711667	614.331055	109.157753
387.297340	6248.711667	613.101563	147.156754
387.297340	6248.711667	611.872070	131.148239
387.297340	6248.711667	610.642578	-57.041405
387.297340	6248.711667	609.413086	-31.923189
387.297340	6248.711667	608.182617	-91.598015
387.297340	6248.711667	606.952148	-63.946011
387.297340	6248.711667	605.721680	43.273289
387.297340	6248.711667	604.491211	1.546444
387.297340	6248.711667	603.259766	16.283766
387.297340	6248.711667	602.028320	-22.883089
387.297340	6248.711667	600.796875	63.655991
387.297340	6248.711667	599.564453	39.855732
387.297340	6248.711667	598.332031	208.374207
387.297340	6248.711667	597.099609	76.850357
387.297340	6248.711667	595.867188	37.644787
387.297340	6248.711667	594.633789	-70.749199
387.297340	6248.711667	593.400391	-45.880520
387.297340	6248.711667	592.166992	45.566544
387.297340	6248.711667	590.933594	11.473623
387.297340	6248.711667	589.699219	-4.694323
387.297340	6248.711667	588.464844	-33.665836
387.297340	6248.711667	587.230469	21.823050
387.297340	6248.711667	585.995117	-25.076187
387.297340	6248.711667	584.760742	-2.890676
387.297340	6248.711667	583.525391	60.197845
387.297340	6248.711667	582.289063	-76.212662
387.297340	6248.711667	581.053711	-115.419792
387.297340	6248.711667	579.817383	-57.488594
387.297340	6248.711667	578.581055	166.519958
387.297340	6248.711667	577.343750	-46.483418
387.297340	6248.711667	576.107422	39.470379
387.297340	6248.711667	574.870117	10.451989
387.297340	6248.711667	573.631836	81.018387
387.297340	6248.711667	572.394531	57.094749
387.297340	6248.711667	571.156250	84.219482
387.297340	6248.711667	569.917969	159.809204
387.297340	6248.711667	568.679688	-78.436493
387.297340	6248.711667	567.440430	94.067429
387.297340	6248.711667	566.202148	121.138283
387.297340	6248.711667	564.961914	84.450401
387.297340	6248.711667	563.722656	24.834105
387.297340	6248.711667	562.482422	225.182251
387.297340	6248.711667	561.243164	25.418152
387.297340	6248.711667	560.001953	-87.656441
387.297340	6248.711667	558.761719	13.250737
387.297340	6248.711667	557.520508	78.462227
387.297340	6248.711667	556.279297	186.921585
387.297340	6248.711667	555.038086	147.711197
387.297340	6248.711667	553.795898	220.479111
387.297340	6248.711667	552.554688	155.834717
387.297340	6248.711667	551.311523	315.048004
387.297340	6248.711667	550.069336	197.004974
387.297340	6248.711667	548.826172	389.193756
387.297340	6248.711667	547.583984	370.321350
387.297340	6248.711667	546.339844	287.919983
387.297340	6248.711667	545.096680	274.159851
387.297340	6248.711667	543.852539	168.954361
387.297340	6248.711667	542.608398	216.181580
387.297340	6248.711667	541.364258	210.067978
387.297340	6248.711667	540.119141	226.806061
387.297340	6248.711667	538.875000	215.622314
387.297340	6248.711667	537.628906	255.195526
387.297340	6248.711667	536.383789	157.756836
387.297340	6248.711667	535.137695	210.016052
387.297340	6248.711667	533.892578	-6.551822
387.297340	6248.711667	532.645508	268.844818
387.297340	6248.711667	531.399414	285.573792
387.297340	6248.711667	530.152344	135.034363
387.297340	6248.711667	528.905273	27.639744
387.297340	6248.711667	527.658203	67.225716
387.297340	6248.711667	526.410156	195.444260
387.297340	6248.711667	525.163086	103.319588
387.297340	6248.711667	523.914063	61.870457
387.297340	6248.711667	522.666016	-22.578959
387.297340	6248.711667	521.416992	9.418542
387.297340	6248.711667	520.167969	-24.368959
387.297340	6248.711667	518.918945	-22.720942
387.297340	6248.711667	517.669922	-0.833403
387.297340	6248.711667	516.419922	3.354344
387.297340	6248.711667	515.169922	-68.284210
387.297340	6248.711667	513.919922	-28.682390
387.297340	6248.711667	512.668945	-37.096405
387.297340	6248.711667	511.417969	-103.598618
387.297340	6248.711667	510.166992	24.412281
387.297340	6248.711667	508.916016	46.325687
387.297340	6248.711667	507.664063	123.779427
387.297340	6248.711667	506.412109	-71.381470
387.297340	6248.711667	505.160156	-173.078186
387.297340	6248.711667	503.907227	-113.254456
387.297340	6248.711667	502.655273	19.706228
387.297340	6248.711667	501.402344	-33.994907
387.297340	6248.711667	500.148438	23.274137
387.297340	6248.711667	498.895508	95.657585
387.297340	6248.711667	497.641602	29.409422
387.297340	6248.711667	496.387695	38.792450
387.297340	6248.711667	495.132813	-113.041374
387.297340	6248.711667	493.878906	-85.975815
387.297340	6248.711667	492.624023	4.040483
387.297340	6248.711667	491.368164	-82.195053
387.297340	6248.711667	490.113281	-17.362219
387.297340	6248.711667	488.857422	9.708528
387.297340	6248.711667	487.601563	-18.568848
387.297340	6248.711667	486.344727	154.403839
387.297340	6248.711667	485.088867	68.292816
387.297340	6248.711667	483.832031	-22.797806
387.297340	6248.711667	482.575195	-71.103607
387.297340	6248.711667	481.317383	46.491119
387.297340	6248.711667	480.059570	-62.088142
387.297340	6248.711667	478.801758	27.845411
387.297340	6248.711667	477.543945	37.382858
387.297340	6248.711667	476.285156	159.921585
387.297340	6248.711667	475.027344	56.479500
387.297340	6248.711667	473.767578	-149.816177
387.297340	6248.711667	472.508789	-79.980057
387.297340	6248.711667	471.249023	17.432243
387.297340	6248.711667	469.989258	-33.176567
387.297340	6248.711667	468.729492	144.450394
387.297340	6248.711667	467.469727	191.635880
387.297340	6248.711667	466.208984	108.461205
387.297340	6248.711667	464.948242	80.465607
387.297340	6248.711667	463.686523	177.766937
387.297340	6248.711667	462.425781	164.813263
387.297340	6248.711667	461.164063	81.743637
387.297340	6248.711667	459.901367	93.864502
387.297340	6248.711667	458.639648	-81.769768
387.297340	6248.711667	457.376953	25.499311
387.297340	6248.711667	456.114258	-39.935818
387.297340	6248.711667	454.851563	-0.264975
387.297340	6248.711667	453.587891	71.905266
387.297340	6248.711667	452.324219	74.024834
387.297340	6248.711667	451.060547	151.147903
387.297340	6248.711667	449.796875	-49.222664
387.297340	6248.711667	448.532227	-37.088161
387.297340	6248.711667	447.267578	107.460609
387.297340	6248.711667	446.002930	134.535736
387.297340	6248.711667	444.737305	-5.739252
387.297340	6248.711667	443.471680	143.682892
387.297340	6248.711667	442.206055	135.758804
387.297340	6248.711667	440.940430	137.810822
387.297340	6248.711667	439.673828	62.494911
387.297340	6248.711667	438.407227	206.737518
387.297340	6248.711667	437.140625	69.054619
387.297340	6248.711667	435.873047	68.566849
387.297340	6248.711667	434.605469	50.608181
387.297340	6248.711667	433.337891	199.642151
387.297340	6248.711667	432.070313	47.049255
387.297340	6248.711667	430.801758	4.124098
387.297340	6248.711667	429.533203	63.322029
387.297340	6248.711667	428.264648	-61.826786
387.297340	6248.711667	426.996094	84.448479
387.297340	6248.711667	425.726563	126.072929
387.297340	6248.711667	424.457031	50.669659
387.297340	6248.711667	423.186523	107.139648
387.297340	6248.711667	421.916992	123.742622
387.297340	6248.711667	420.646484	50.755352
387.297340	6248.711667	419.375977	176.688904
387.297340	6248.711667	418.104492	118.544868
387.297340	6248.711667	416.833008	189.626205
387.297340	6248.711667	415.561523	-10.247205
387.297340	6248.711667	414.290039	276.874847
387.297340	6248.711667	413.017578	208.602798
387.297340	6248.711667	411.746094	145.266098
387.297340	6248.711667	410.472656	-37.291332
387.297340	6248.711667	409.200195	48.257793
387.297340	6248.711667	407.926758	39.386284
387.297340	6248.711667	406.653320	147.062698
387.297340	6248.711667	405.379883	204.997772
387.297340	6248.711667	404.105469	2.400511
387.297340	6248.711667	402.831055	161.835007
387.297340	6248.711667	401.556641	125.257309
387.297340	6248.711667	400.282227	56.378212
387.297340	6248.711667	399.006836	12.207252
387.297340	6248.711667	397.731445	215.702896
387.297340	6248.711667	396.456055	99.471603
387.297340	6248.711667	395.179688	45.085781
387.297340	6248.711667	393.903320	22.791859
387.297340	6248.711667	392.626953	-96.153679
387.297340	6248.711667	391.350586	178.321442
387.297340	6248.711667	390.073242	160.575378
387.297340	6248.711667	388.795898	162.489182
387.297340	6248.711667	387.518555	191.463837
387.297340	6248.711667	386.240234	222.745911
387.297340	6248.711667	384.961914	239.026917
387.297340	6248.711667	383.683594	277.384674
387.297340	6248.711667	382.405273	-69.925903
387.297340	6248.711667	381.125977	79.312889
387.297340	6248.711667	379.846680	112.219193
387.297340	6248.711667	378.567383	100.475716
387.297340	6248.711667	377.287109	56.445259
387.297340	6248.711667	376.006836	31.982235
387.297340	6248.711667	374.726563	46.809898
387.297340	6248.711667	373.446289	-17.534678
387.297340	6248.711667	372.165039	88.130836
387.297340	6248.711667	370.883789	-43.234711
387.297340	6248.711667	369.602539	37.271946
387.297340	6248.711667	368.320313	-119.159119
387.297340	6248.711667	367.039063	-4.659075
387.297340	6248.711667	365.755859	1.101570
387.297340	6248.711667	364.473633	-126.432625
387.297340	6248.711667	363.190430	9.349414
387.297340	6248.711667	361.907227	-47.284855
387.297340	6248.711667	360.624023	58.300941
387.297340	6248.711667	359.340820	94.619453
387.297340	6248.711667	358.056641	7.560687
387.297340	6248.711667	356.772461	75.219810
387.297340	6248.711667	355.487305	-49.352455
387.297340	6248.711667	354.202148	44.662735
387.297340	6248.711667	352.916992	32.561180
387.297340	6248.711667	351.631836	27.478807
387.297340	6248.711667	350.346680	-0.091739
387.297340	6248.711667	349.060547	112.013565
387.297340	6248.711667	347.774414	120.500977
387.297340	6248.711667	346.487305	67.169197
387.297340	6248.711667	345.200195	231.983871
387.297340	6248.711667	343.913086	30.508278
387.297340	6248.711667	342.625977	-14.235567
387.297340	6248.711667	341.338867	-12.788368
387.297340	6248.711667	340.050781	123.116905
387.297340	6248.711667	338.762695	179.995102
387.297340	6248.711667	337.473633	111.279007
387.297340	6248.711667	336.184570	10.215083
387.297340	6248.711667	334.895508	-182.017487
387.297340	6248.711667	333.606445	-83.066406
387.297340	6248.711667	332.317383	12.846104
387.297340	6248.711667	331.027344	73.847733
387.297340	6248.711667	329.736328	38.719322
387.297340	6248.711667	328.446289	-114.500153
387.297340	6248.711667	327.155273	25.488697
387.297340	6248.711667	325.864258	5.708693
387.297340	6248.711667	324.573242	-14.699832
387.297340	6248.711667	323.281250	-138.518509
387.297340	6248.711667	321.989258	-33.040928
387.297340	6248.711667	320.697266	-50.563725
387.297340	6248.711667	319.405273	-137.237350
387.297340	6248.711667	318.112305	-82.845787
387.297340	6248.711667	316.819336	24.544651
387.297340	6248.711667	315.526367	30.958813
387.297340	6248.711667	314.232422	51.229630
387.297340	6248.711667	312.938477	-122.233490
387.297340	6248.711667	311.644531	157.702164
387.297340	6248.711667	310.349609	87.585892
387.297340	6248.711667	309.054688	4.442061
387.297340	6248.711667	307.759766	18.059042
387.297340	6248.711667	306.464844	74.684822
387.297340	6248.711667	305.168945	127.905128
387.297340	6248.711667	303.873047	194.792755
387.297340	6248.711667	302.577148	102.228851
387.297340	6248.711667	301.281250	137.901291
387.297340	6248.711667	299.984375	184.708725
