#X		#Y		#Wave		#Intensity
29677.851702	-1286.634667	1999.980469	-316.855591
29677.851702	-1286.634667	1999.016602	-263.182861
29677.851702	-1286.634667	1998.052734	-326.873718
29677.851702	-1286.634667	1997.087891	109.085091
29677.851702	-1286.634667	1996.123047	65.739967
29677.851702	-1286.634667	1995.158203	-77.603081
29677.851702	-1286.634667	1994.193359	77.891708
29677.851702	-1286.634667	1993.228516	-12.697252
29677.851702	-1286.634667	1992.262695	86.552322
29677.851702	-1286.634667	1991.297852	120.561569
29677.851702	-1286.634667	1990.332031	94.373688
29677.851702	-1286.634667	1989.366211	-31.561327
29677.851702	-1286.634667	1988.399414	57.043922
29677.851702	-1286.634667	1987.433594	-53.014671
29677.851702	-1286.634667	1986.466797	219.593948
29677.851702	-1286.634667	1985.500977	256.499725
29677.851702	-1286.634667	1984.534180	80.128632
29677.851702	-1286.634667	1983.567383	63.834000
29677.851702	-1286.634667	1982.599609	148.247101
29677.851702	-1286.634667	1981.632813	4.697883
29677.851702	-1286.634667	1980.665039	-82.560585
29677.851702	-1286.634667	1979.697266	56.869030
29677.851702	-1286.634667	1978.729492	294.472656
29677.851702	-1286.634667	1977.761719	269.744629
29677.851702	-1286.634667	1976.792969	74.192299
29677.851702	-1286.634667	1975.825195	-102.048210
29677.851702	-1286.634667	1974.856445	202.478165
29677.851702	-1286.634667	1973.887695	131.427582
29677.851702	-1286.634667	1972.918945	240.021011
29677.851702	-1286.634667	1971.949219	15.209835
29677.851702	-1286.634667	1970.980469	83.486603
29677.851702	-1286.634667	1970.010742	208.043167
29677.851702	-1286.634667	1969.041016	75.826241
29677.851702	-1286.634667	1968.071289	189.724960
29677.851702	-1286.634667	1967.101563	256.412231
29677.851702	-1286.634667	1966.130859	76.389847
29677.851702	-1286.634667	1965.161133	115.311050
29677.851702	-1286.634667	1964.190430	217.931580
29677.851702	-1286.634667	1963.219727	184.798981
29677.851702	-1286.634667	1962.249023	102.157822
29677.851702	-1286.634667	1961.277344	144.791946
29677.851702	-1286.634667	1960.306641	251.125565
29677.851702	-1286.634667	1959.334961	290.741028
29677.851702	-1286.634667	1958.363281	231.711212
29677.851702	-1286.634667	1957.391602	106.073128
29677.851702	-1286.634667	1956.419922	157.303879
29677.851702	-1286.634667	1955.447266	21.469294
29677.851702	-1286.634667	1954.474609	45.257317
29677.851702	-1286.634667	1953.501953	250.705750
29677.851702	-1286.634667	1952.529297	217.568939
29677.851702	-1286.634667	1951.556641	137.604813
29677.851702	-1286.634667	1950.583984	143.479294
29677.851702	-1286.634667	1949.610352	387.403015
29677.851702	-1286.634667	1948.636719	-76.003929
29677.851702	-1286.634667	1947.663086	130.781967
29677.851702	-1286.634667	1946.689453	-47.954304
29677.851702	-1286.634667	1945.715820	217.409897
29677.851702	-1286.634667	1944.741211	168.535553
29677.851702	-1286.634667	1943.767578	379.596436
29677.851702	-1286.634667	1942.792969	149.042511
29677.851702	-1286.634667	1941.818359	210.283096
29677.851702	-1286.634667	1940.842773	166.007202
29677.851702	-1286.634667	1939.868164	-71.954422
29677.851702	-1286.634667	1938.892578	170.437546
29677.851702	-1286.634667	1937.916992	192.167969
29677.851702	-1286.634667	1936.941406	71.756866
29677.851702	-1286.634667	1935.965820	125.249420
29677.851702	-1286.634667	1934.990234	171.340012
29677.851702	-1286.634667	1934.013672	92.512779
29677.851702	-1286.634667	1933.037109	-103.808746
29677.851702	-1286.634667	1932.060547	-62.672962
29677.851702	-1286.634667	1931.083984	32.268047
29677.851702	-1286.634667	1930.107422	-19.628250
29677.851702	-1286.634667	1929.129883	-66.620926
29677.851702	-1286.634667	1928.153320	201.895477
29677.851702	-1286.634667	1927.175781	198.897705
29677.851702	-1286.634667	1926.198242	-75.454590
29677.851702	-1286.634667	1925.219727	-66.159431
29677.851702	-1286.634667	1924.242188	-15.303551
29677.851702	-1286.634667	1923.263672	-101.275993
29677.851702	-1286.634667	1922.285156	-55.276245
29677.851702	-1286.634667	1921.306641	-97.194466
29677.851702	-1286.634667	1920.328125	31.873920
29677.851702	-1286.634667	1919.349609	-151.588516
29677.851702	-1286.634667	1918.370117	-20.050440
29677.851702	-1286.634667	1917.391602	-34.955551
29677.851702	-1286.634667	1916.412109	-162.063660
29677.851702	-1286.634667	1915.431641	-140.259872
29677.851702	-1286.634667	1914.452148	13.306378
29677.851702	-1286.634667	1913.472656	15.657969
29677.851702	-1286.634667	1912.492188	86.331543
29677.851702	-1286.634667	1911.511719	-16.057976
29677.851702	-1286.634667	1910.531250	-147.603516
29677.851702	-1286.634667	1909.550781	-45.093437
29677.851702	-1286.634667	1908.569336	-100.938652
29677.851702	-1286.634667	1907.588867	-107.979752
29677.851702	-1286.634667	1906.607422	28.742922
29677.851702	-1286.634667	1905.625977	-75.604050
29677.851702	-1286.634667	1904.644531	-126.285210
29677.851702	-1286.634667	1903.662109	-47.868965
29677.851702	-1286.634667	1902.680664	-139.780121
29677.851702	-1286.634667	1901.698242	-129.391937
29677.851702	-1286.634667	1900.715820	-62.984009
29677.851702	-1286.634667	1899.733398	56.980328
29677.851702	-1286.634667	1898.750000	108.870972
29677.851702	-1286.634667	1897.767578	95.161339
29677.851702	-1286.634667	1896.784180	152.024261
29677.851702	-1286.634667	1895.800781	-48.708401
29677.851702	-1286.634667	1894.817383	-37.873497
29677.851702	-1286.634667	1893.833984	-165.467148
29677.851702	-1286.634667	1892.850586	-18.437693
29677.851702	-1286.634667	1891.866211	-97.273788
29677.851702	-1286.634667	1890.881836	30.397636
29677.851702	-1286.634667	1889.897461	-213.376892
29677.851702	-1286.634667	1888.913086	-265.224762
29677.851702	-1286.634667	1887.927734	-324.268463
29677.851702	-1286.634667	1886.943359	-60.493084
29677.851702	-1286.634667	1885.958008	45.555084
29677.851702	-1286.634667	1884.972656	52.177948
29677.851702	-1286.634667	1883.987305	75.840523
29677.851702	-1286.634667	1883.001953	89.859337
29677.851702	-1286.634667	1882.015625	-41.518978
29677.851702	-1286.634667	1881.029297	127.764771
29677.851702	-1286.634667	1880.042969	-54.338322
29677.851702	-1286.634667	1879.056641	68.972389
29677.851702	-1286.634667	1878.070313	17.880302
29677.851702	-1286.634667	1877.083984	3.194750
29677.851702	-1286.634667	1876.096680	160.500275
29677.851702	-1286.634667	1875.109375	102.327026
29677.851702	-1286.634667	1874.122070	73.276169
29677.851702	-1286.634667	1873.134766	-45.256264
29677.851702	-1286.634667	1872.146484	22.625809
29677.851702	-1286.634667	1871.159180	-103.009926
29677.851702	-1286.634667	1870.170898	-114.865005
29677.851702	-1286.634667	1869.182617	-90.394234
29677.851702	-1286.634667	1868.194336	-244.811172
29677.851702	-1286.634667	1867.205078	-19.587904
29677.851702	-1286.634667	1866.216797	58.157059
29677.851702	-1286.634667	1865.227539	-16.329317
29677.851702	-1286.634667	1864.238281	-49.676098
29677.851702	-1286.634667	1863.249023	-15.336279
29677.851702	-1286.634667	1862.259766	236.392380
29677.851702	-1286.634667	1861.269531	152.412857
29677.851702	-1286.634667	1860.279297	25.038157
29677.851702	-1286.634667	1859.290039	136.709122
29677.851702	-1286.634667	1858.298828	-21.930885
29677.851702	-1286.634667	1857.308594	138.017685
29677.851702	-1286.634667	1856.318359	-78.414360
29677.851702	-1286.634667	1855.327148	-53.542816
29677.851702	-1286.634667	1854.335938	190.790741
29677.851702	-1286.634667	1853.344727	-30.293695
29677.851702	-1286.634667	1852.353516	40.408806
29677.851702	-1286.634667	1851.362305	147.250641
29677.851702	-1286.634667	1850.370117	102.249954
29677.851702	-1286.634667	1849.377930	1.860909
29677.851702	-1286.634667	1848.385742	101.449509
29677.851702	-1286.634667	1847.393555	78.177650
29677.851702	-1286.634667	1846.401367	-0.465642
29677.851702	-1286.634667	1845.408203	87.037766
29677.851702	-1286.634667	1844.415039	61.375320
29677.851702	-1286.634667	1843.421875	-91.830185
29677.851702	-1286.634667	1842.428711	269.924896
29677.851702	-1286.634667	1841.435547	-102.192726
29677.851702	-1286.634667	1840.441406	69.396553
29677.851702	-1286.634667	1839.448242	-11.592259
29677.851702	-1286.634667	1838.454102	70.927979
29677.851702	-1286.634667	1837.459961	-12.467582
29677.851702	-1286.634667	1836.464844	-119.884995
29677.851702	-1286.634667	1835.470703	39.443623
29677.851702	-1286.634667	1834.475586	76.159943
29677.851702	-1286.634667	1833.480469	230.535477
29677.851702	-1286.634667	1832.485352	2.971302
29677.851702	-1286.634667	1831.490234	78.005249
29677.851702	-1286.634667	1830.495117	49.747406
29677.851702	-1286.634667	1829.499023	218.284897
29677.851702	-1286.634667	1828.502930	48.350323
29677.851702	-1286.634667	1827.506836	178.356522
29677.851702	-1286.634667	1826.510742	8.410676
29677.851702	-1286.634667	1825.513672	54.343922
29677.851702	-1286.634667	1824.517578	148.171967
29677.851702	-1286.634667	1823.520508	160.399094
29677.851702	-1286.634667	1822.523438	4.776730
29677.851702	-1286.634667	1821.526367	36.094730
29677.851702	-1286.634667	1820.529297	275.811890
29677.851702	-1286.634667	1819.531250	0.303084
29677.851702	-1286.634667	1818.533203	256.585571
29677.851702	-1286.634667	1817.535156	74.459076
29677.851702	-1286.634667	1816.537109	196.420502
29677.851702	-1286.634667	1815.539063	356.572296
29677.851702	-1286.634667	1814.540039	90.560539
29677.851702	-1286.634667	1813.541992	178.743149
29677.851702	-1286.634667	1812.542969	240.501190
29677.851702	-1286.634667	1811.543945	84.480453
29677.851702	-1286.634667	1810.543945	12.148092
29677.851702	-1286.634667	1809.544922	138.235703
29677.851702	-1286.634667	1808.544922	-27.477709
29677.851702	-1286.634667	1807.544922	-37.841114
29677.851702	-1286.634667	1806.544922	56.867226
29677.851702	-1286.634667	1805.544922	251.807541
29677.851702	-1286.634667	1804.544922	-19.257364
29677.851702	-1286.634667	1803.543945	-49.073669
29677.851702	-1286.634667	1802.542969	92.968170
29677.851702	-1286.634667	1801.541992	19.978680
29677.851702	-1286.634667	1800.541016	192.795929
29677.851702	-1286.634667	1799.539063	133.940094
29677.851702	-1286.634667	1798.538086	175.230789
29677.851702	-1286.634667	1797.536133	125.743217
29677.851702	-1286.634667	1796.534180	38.005585
29677.851702	-1286.634667	1795.532227	248.306290
29677.851702	-1286.634667	1794.529297	38.760815
29677.851702	-1286.634667	1793.527344	193.935028
29677.851702	-1286.634667	1792.524414	158.257736
29677.851702	-1286.634667	1791.521484	277.381805
29677.851702	-1286.634667	1790.518555	358.225647
29677.851702	-1286.634667	1789.514648	167.355484
29677.851702	-1286.634667	1788.511719	333.701691
29677.851702	-1286.634667	1787.507813	280.786865
29677.851702	-1286.634667	1786.503906	156.349472
29677.851702	-1286.634667	1785.500000	310.341278
29677.851702	-1286.634667	1784.496094	145.244339
29677.851702	-1286.634667	1783.491211	251.341187
29677.851702	-1286.634667	1782.486328	354.894287
29677.851702	-1286.634667	1781.481445	-3.157163
29677.851702	-1286.634667	1780.476563	-35.400337
29677.851702	-1286.634667	1779.471680	276.998535
29677.851702	-1286.634667	1778.465820	192.153519
29677.851702	-1286.634667	1777.460938	-37.768696
29677.851702	-1286.634667	1776.455078	41.178932
29677.851702	-1286.634667	1775.449219	260.137878
29677.851702	-1286.634667	1774.442383	51.302910
29677.851702	-1286.634667	1773.436523	-7.961891
29677.851702	-1286.634667	1772.429688	101.242744
29677.851702	-1286.634667	1771.422852	36.962257
29677.851702	-1286.634667	1770.416016	262.145905
29677.851702	-1286.634667	1769.409180	133.505722
29677.851702	-1286.634667	1768.402344	-87.760956
29677.851702	-1286.634667	1767.394531	56.233292
29677.851702	-1286.634667	1766.386719	0.800343
29677.851702	-1286.634667	1765.378906	42.468723
29677.851702	-1286.634667	1764.371094	-60.647068
29677.851702	-1286.634667	1763.362305	184.579208
29677.851702	-1286.634667	1762.354492	71.704376
29677.851702	-1286.634667	1761.345703	-12.845600
29677.851702	-1286.634667	1760.336914	174.932587
29677.851702	-1286.634667	1759.328125	11.933859
29677.851702	-1286.634667	1758.318359	104.605209
29677.851702	-1286.634667	1757.308594	102.382095
29677.851702	-1286.634667	1756.299805	73.975983
29677.851702	-1286.634667	1755.290039	99.860146
29677.851702	-1286.634667	1754.279297	-21.139112
29677.851702	-1286.634667	1753.269531	-213.215057
29677.851702	-1286.634667	1752.258789	72.449539
29677.851702	-1286.634667	1751.249023	64.596634
29677.851702	-1286.634667	1750.238281	-163.320343
29677.851702	-1286.634667	1749.226563	27.139345
29677.851702	-1286.634667	1748.215820	-205.717941
29677.851702	-1286.634667	1747.204102	-192.873108
29677.851702	-1286.634667	1746.193359	1.754295
29677.851702	-1286.634667	1745.181641	181.970917
29677.851702	-1286.634667	1744.168945	158.833847
29677.851702	-1286.634667	1743.157227	145.004578
29677.851702	-1286.634667	1742.144531	3.523350
29677.851702	-1286.634667	1741.132813	-43.628334
29677.851702	-1286.634667	1740.120117	15.275766
29677.851702	-1286.634667	1739.106445	-41.628017
29677.851702	-1286.634667	1738.093750	38.175003
29677.851702	-1286.634667	1737.080078	30.509895
29677.851702	-1286.634667	1736.067383	95.808006
29677.851702	-1286.634667	1735.053711	24.162436
29677.851702	-1286.634667	1734.040039	-99.472656
29677.851702	-1286.634667	1733.025391	-34.672649
29677.851702	-1286.634667	1732.011719	-52.518593
29677.851702	-1286.634667	1730.997070	-89.371552
29677.851702	-1286.634667	1729.982422	-145.210251
29677.851702	-1286.634667	1728.967773	10.779134
29677.851702	-1286.634667	1727.952148	-59.503757
29677.851702	-1286.634667	1726.937500	39.599892
29677.851702	-1286.634667	1725.921875	-19.200975
29677.851702	-1286.634667	1724.906250	-40.479927
29677.851702	-1286.634667	1723.890625	-139.547989
29677.851702	-1286.634667	1722.875000	-106.994453
29677.851702	-1286.634667	1721.858398	24.164566
29677.851702	-1286.634667	1720.841797	35.195065
29677.851702	-1286.634667	1719.825195	46.070316
29677.851702	-1286.634667	1718.808594	-93.649460
29677.851702	-1286.634667	1717.791992	133.161407
29677.851702	-1286.634667	1716.774414	138.850525
29677.851702	-1286.634667	1715.756836	-139.873871
29677.851702	-1286.634667	1714.739258	-82.758102
29677.851702	-1286.634667	1713.721680	-68.082626
29677.851702	-1286.634667	1712.704102	45.053749
29677.851702	-1286.634667	1711.685547	0.707084
29677.851702	-1286.634667	1710.667969	-104.777260
29677.851702	-1286.634667	1709.649414	106.408211
29677.851702	-1286.634667	1708.630859	-60.356255
29677.851702	-1286.634667	1707.611328	-77.090202
29677.851702	-1286.634667	1706.592773	37.386860
29677.851702	-1286.634667	1705.573242	102.424454
29677.851702	-1286.634667	1704.553711	-83.545761
29677.851702	-1286.634667	1703.534180	-246.145782
29677.851702	-1286.634667	1702.513672	-144.028503
29677.851702	-1286.634667	1701.494141	96.162796
29677.851702	-1286.634667	1700.473633	69.062607
29677.851702	-1286.634667	1699.453125	-28.424959
29677.851702	-1286.634667	1698.432617	-37.027264
29677.851702	-1286.634667	1697.412109	-87.900352
29677.851702	-1286.634667	1696.390625	-26.545353
29677.851702	-1286.634667	1695.369141	-37.894493
29677.851702	-1286.634667	1694.347656	55.923603
29677.851702	-1286.634667	1693.326172	-0.143511
29677.851702	-1286.634667	1692.304688	48.935734
29677.851702	-1286.634667	1691.282227	-26.085382
29677.851702	-1286.634667	1690.260742	90.532616
29677.851702	-1286.634667	1689.238281	-19.780289
29677.851702	-1286.634667	1688.214844	145.593155
29677.851702	-1286.634667	1687.192383	-32.693745
29677.851702	-1286.634667	1686.168945	-138.625687
29677.851702	-1286.634667	1685.146484	-183.887756
29677.851702	-1286.634667	1684.123047	-2.739435
29677.851702	-1286.634667	1683.099609	-155.664078
29677.851702	-1286.634667	1682.075195	-23.860346
29677.851702	-1286.634667	1681.051758	26.107679
29677.851702	-1286.634667	1680.027344	269.610626
29677.851702	-1286.634667	1679.002930	419.587524
29677.851702	-1286.634667	1677.978516	119.200111
29677.851702	-1286.634667	1676.953125	161.635040
29677.851702	-1286.634667	1675.928711	250.599823
29677.851702	-1286.634667	1674.903320	185.545258
29677.851702	-1286.634667	1673.877930	213.646286
29677.851702	-1286.634667	1672.852539	285.912384
29677.851702	-1286.634667	1671.826172	132.031845
29677.851702	-1286.634667	1670.800781	271.644745
29677.851702	-1286.634667	1669.774414	175.858307
29677.851702	-1286.634667	1668.748047	215.071671
29677.851702	-1286.634667	1667.721680	221.584412
29677.851702	-1286.634667	1666.694336	411.872528
29677.851702	-1286.634667	1665.667969	199.404205
29677.851702	-1286.634667	1664.640625	342.910919
29677.851702	-1286.634667	1663.613281	602.593079
29677.851702	-1286.634667	1662.585938	336.439697
29677.851702	-1286.634667	1661.557617	491.194153
29677.851702	-1286.634667	1660.530273	641.175964
29677.851702	-1286.634667	1659.501953	291.225372
29677.851702	-1286.634667	1658.473633	431.716980
29677.851702	-1286.634667	1657.444336	395.464203
29677.851702	-1286.634667	1656.416016	549.672852
29677.851702	-1286.634667	1655.386719	627.080200
29677.851702	-1286.634667	1654.358398	657.960754
29677.851702	-1286.634667	1653.328125	530.838379
29677.851702	-1286.634667	1652.298828	754.249573
29677.851702	-1286.634667	1651.269531	622.404236
29677.851702	-1286.634667	1650.239258	680.810669
29677.851702	-1286.634667	1649.208984	1038.420288
29677.851702	-1286.634667	1648.178711	1217.223389
29677.851702	-1286.634667	1647.148438	901.921204
29677.851702	-1286.634667	1646.117188	1031.858765
29677.851702	-1286.634667	1645.086914	864.974670
29677.851702	-1286.634667	1644.055664	1115.292236
29677.851702	-1286.634667	1643.024414	1205.565063
29677.851702	-1286.634667	1641.992188	1242.448730
29677.851702	-1286.634667	1640.960938	1182.000122
29677.851702	-1286.634667	1639.928711	1267.422241
29677.851702	-1286.634667	1638.896484	1283.302612
29677.851702	-1286.634667	1637.864258	1403.317993
29677.851702	-1286.634667	1636.832031	1402.887451
29677.851702	-1286.634667	1635.798828	1499.600220
29677.851702	-1286.634667	1634.766602	1221.431519
29677.851702	-1286.634667	1633.733398	1521.650269
29677.851702	-1286.634667	1632.699219	1347.565063
29677.851702	-1286.634667	1631.666016	1642.961914
29677.851702	-1286.634667	1630.632813	1561.367554
29677.851702	-1286.634667	1629.598633	1528.304565
29677.851702	-1286.634667	1628.564453	1663.941772
29677.851702	-1286.634667	1627.530273	1600.793945
29677.851702	-1286.634667	1626.495117	1717.829102
29677.851702	-1286.634667	1625.460938	1601.539551
29677.851702	-1286.634667	1624.425781	1621.512207
29677.851702	-1286.634667	1623.390625	1472.920044
29677.851702	-1286.634667	1622.355469	1672.943848
29677.851702	-1286.634667	1621.319336	1519.749878
29677.851702	-1286.634667	1620.284180	1631.992432
29677.851702	-1286.634667	1619.248047	1575.755493
29677.851702	-1286.634667	1618.211914	1805.555176
29677.851702	-1286.634667	1617.174805	1913.024048
29677.851702	-1286.634667	1616.138672	1727.652710
29677.851702	-1286.634667	1615.101563	1726.759521
29677.851702	-1286.634667	1614.065430	1824.998901
29677.851702	-1286.634667	1613.027344	1685.824219
29677.851702	-1286.634667	1611.990234	1945.309692
29677.851702	-1286.634667	1610.953125	1352.432007
29677.851702	-1286.634667	1609.915039	1701.710938
29677.851702	-1286.634667	1608.876953	1710.091919
29677.851702	-1286.634667	1607.838867	1879.639404
29677.851702	-1286.634667	1606.800781	2005.412109
29677.851702	-1286.634667	1605.761719	2011.476807
29677.851702	-1286.634667	1604.723633	1891.045898
29677.851702	-1286.634667	1603.684570	1887.985352
29677.851702	-1286.634667	1602.644531	2062.027832
29677.851702	-1286.634667	1601.605469	1973.922729
29677.851702	-1286.634667	1600.566406	1993.936035
29677.851702	-1286.634667	1599.526367	1981.781128
29677.851702	-1286.634667	1598.486328	2008.738892
29677.851702	-1286.634667	1597.446289	2095.463867
29677.851702	-1286.634667	1596.405273	2147.720459
29677.851702	-1286.634667	1595.365234	1669.481812
29677.851702	-1286.634667	1594.324219	1958.409668
29677.851702	-1286.634667	1593.283203	1822.548218
29677.851702	-1286.634667	1592.242188	2138.979736
29677.851702	-1286.634667	1591.200195	2127.148193
29677.851702	-1286.634667	1590.159180	1860.710449
29677.851702	-1286.634667	1589.117188	1876.578247
29677.851702	-1286.634667	1588.075195	1791.582886
29677.851702	-1286.634667	1587.032227	1858.010498
29677.851702	-1286.634667	1585.990234	1715.859009
29677.851702	-1286.634667	1584.947266	1910.769287
29677.851702	-1286.634667	1583.904297	1564.808594
29677.851702	-1286.634667	1582.861328	1539.840210
29677.851702	-1286.634667	1581.818359	1815.059326
29677.851702	-1286.634667	1580.775391	1551.991333
29677.851702	-1286.634667	1579.731445	1575.333130
29677.851702	-1286.634667	1578.687500	1763.586914
29677.851702	-1286.634667	1577.643555	1452.827026
29677.851702	-1286.634667	1576.598633	1755.605957
29677.851702	-1286.634667	1575.554688	1733.445190
29677.851702	-1286.634667	1574.509766	1670.180664
29677.851702	-1286.634667	1573.464844	1433.191162
29677.851702	-1286.634667	1572.419922	1482.242188
29677.851702	-1286.634667	1571.374023	1439.888550
29677.851702	-1286.634667	1570.329102	1313.082642
29677.851702	-1286.634667	1569.283203	1346.387695
29677.851702	-1286.634667	1568.237305	1345.502197
29677.851702	-1286.634667	1567.191406	1328.719116
29677.851702	-1286.634667	1566.144531	1348.574097
29677.851702	-1286.634667	1565.098633	1256.637695
29677.851702	-1286.634667	1564.051758	1397.718018
29677.851702	-1286.634667	1563.004883	1317.413696
29677.851702	-1286.634667	1561.957031	1524.809570
29677.851702	-1286.634667	1560.910156	1405.934326
29677.851702	-1286.634667	1559.862305	1501.659424
29677.851702	-1286.634667	1558.814453	1362.512573
29677.851702	-1286.634667	1557.766602	1627.196533
29677.851702	-1286.634667	1556.718750	1606.875122
29677.851702	-1286.634667	1555.669922	1570.706299
29677.851702	-1286.634667	1554.621094	1473.133057
29677.851702	-1286.634667	1553.573242	1430.424316
29677.851702	-1286.634667	1552.523438	1312.637451
29677.851702	-1286.634667	1551.474609	1046.975952
29677.851702	-1286.634667	1550.424805	1136.807739
29677.851702	-1286.634667	1549.375000	1090.112305
29677.851702	-1286.634667	1548.325195	1025.352173
29677.851702	-1286.634667	1547.275391	824.183167
29677.851702	-1286.634667	1546.225586	930.436707
29677.851702	-1286.634667	1545.174805	966.236816
29677.851702	-1286.634667	1544.124023	790.605347
29677.851702	-1286.634667	1543.073242	942.680359
29677.851702	-1286.634667	1542.022461	867.447693
29677.851702	-1286.634667	1540.970703	810.559021
29677.851702	-1286.634667	1539.919922	635.652771
29677.851702	-1286.634667	1538.868164	656.380737
29677.851702	-1286.634667	1537.815430	463.658661
29677.851702	-1286.634667	1536.763672	786.825256
29677.851702	-1286.634667	1535.710938	871.527161
29677.851702	-1286.634667	1534.659180	740.639587
29677.851702	-1286.634667	1533.606445	584.967957
29677.851702	-1286.634667	1532.552734	747.271851
29677.851702	-1286.634667	1531.500000	626.003540
29677.851702	-1286.634667	1530.446289	409.631409
29677.851702	-1286.634667	1529.393555	656.279114
29677.851702	-1286.634667	1528.338867	415.339111
29677.851702	-1286.634667	1527.285156	489.854919
29677.851702	-1286.634667	1526.231445	569.036194
29677.851702	-1286.634667	1525.176758	344.599121
29677.851702	-1286.634667	1524.122070	213.328186
29677.851702	-1286.634667	1523.067383	-31.015778
29677.851702	-1286.634667	1522.012695	89.619102
29677.851702	-1286.634667	1520.957031	185.447617
29677.851702	-1286.634667	1519.901367	86.661697
29677.851702	-1286.634667	1518.845703	-25.499327
29677.851702	-1286.634667	1517.790039	-74.069603
29677.851702	-1286.634667	1516.734375	20.125685
29677.851702	-1286.634667	1515.677734	109.919228
29677.851702	-1286.634667	1514.621094	-282.000854
29677.851702	-1286.634667	1513.564453	-67.441231
29677.851702	-1286.634667	1512.507813	-38.218376
29677.851702	-1286.634667	1511.450195	294.113281
29677.851702	-1286.634667	1510.393555	13.927182
29677.851702	-1286.634667	1509.335938	118.213287
29677.851702	-1286.634667	1508.278320	-30.426325
29677.851702	-1286.634667	1507.219727	-178.839432
29677.851702	-1286.634667	1506.162109	-225.364975
29677.851702	-1286.634667	1505.103516	-113.626930
29677.851702	-1286.634667	1504.044922	14.052198
29677.851702	-1286.634667	1502.986328	-131.266312
29677.851702	-1286.634667	1501.926758	-57.439213
29677.851702	-1286.634667	1500.868164	5.268878
29677.851702	-1286.634667	1499.808594	-184.533890
29677.851702	-1286.634667	1498.749023	83.787987
29677.851702	-1286.634667	1497.688477	137.956482
29677.851702	-1286.634667	1496.628906	208.080521
29677.851702	-1286.634667	1495.568359	68.722702
29677.851702	-1286.634667	1494.507813	314.992340
29677.851702	-1286.634667	1493.447266	49.866592
29677.851702	-1286.634667	1492.386719	174.771759
29677.851702	-1286.634667	1491.325195	331.344849
29677.851702	-1286.634667	1490.263672	172.782318
29677.851702	-1286.634667	1489.202148	-66.577492
29677.851702	-1286.634667	1488.140625	-222.361038
29677.851702	-1286.634667	1487.079102	168.998505
29677.851702	-1286.634667	1486.016602	51.865540
29677.851702	-1286.634667	1484.954102	-38.027416
29677.851702	-1286.634667	1483.891602	301.909882
29677.851702	-1286.634667	1482.829102	286.603577
29677.851702	-1286.634667	1481.765625	289.481171
29677.851702	-1286.634667	1480.702148	135.206085
29677.851702	-1286.634667	1479.638672	75.585236
29677.851702	-1286.634667	1478.575195	204.909927
29677.851702	-1286.634667	1477.511719	-56.481678
29677.851702	-1286.634667	1476.447266	77.705971
29677.851702	-1286.634667	1475.382813	-30.485888
29677.851702	-1286.634667	1474.318359	411.575775
29677.851702	-1286.634667	1473.253906	135.508331
29677.851702	-1286.634667	1472.189453	400.573669
29677.851702	-1286.634667	1471.124023	140.726395
29677.851702	-1286.634667	1470.058594	17.791842
29677.851702	-1286.634667	1468.993164	45.500614
29677.851702	-1286.634667	1467.927734	24.288347
29677.851702	-1286.634667	1466.861328	164.698181
29677.851702	-1286.634667	1465.794922	208.712875
29677.851702	-1286.634667	1464.728516	120.775803
29677.851702	-1286.634667	1463.662109	-9.421603
29677.851702	-1286.634667	1462.594727	194.162521
29677.851702	-1286.634667	1461.528320	-36.719471
29677.851702	-1286.634667	1460.460938	182.971390
29677.851702	-1286.634667	1459.393555	277.732239
29677.851702	-1286.634667	1458.326172	126.420387
29677.851702	-1286.634667	1457.257813	207.057083
29677.851702	-1286.634667	1456.189453	190.226715
29677.851702	-1286.634667	1455.121094	142.017044
29677.851702	-1286.634667	1454.052734	208.088043
29677.851702	-1286.634667	1452.984375	78.853630
29677.851702	-1286.634667	1451.915039	69.906151
29677.851702	-1286.634667	1450.845703	139.375854
29677.851702	-1286.634667	1449.776367	231.418762
29677.851702	-1286.634667	1448.707031	88.218216
29677.851702	-1286.634667	1447.636719	141.953186
29677.851702	-1286.634667	1446.567383	117.087341
29677.851702	-1286.634667	1445.497070	-8.167437
29677.851702	-1286.634667	1444.425781	-55.068726
29677.851702	-1286.634667	1443.355469	-7.695046
29677.851702	-1286.634667	1442.285156	-74.757767
29677.851702	-1286.634667	1441.213867	105.061752
29677.851702	-1286.634667	1440.142578	420.901489
29677.851702	-1286.634667	1439.070313	43.076508
29677.851702	-1286.634667	1437.999023	-22.616682
29677.851702	-1286.634667	1436.926758	-36.785660
29677.851702	-1286.634667	1435.854492	122.946976
29677.851702	-1286.634667	1434.782227	206.154938
29677.851702	-1286.634667	1433.709961	233.628769
29677.851702	-1286.634667	1432.636719	282.637604
29677.851702	-1286.634667	1431.563477	192.186996
29677.851702	-1286.634667	1430.490234	-28.809582
29677.851702	-1286.634667	1429.416992	5.323078
29677.851702	-1286.634667	1428.343750	257.687897
29677.851702	-1286.634667	1427.269531	-93.273247
29677.851702	-1286.634667	1426.195313	-150.040222
29677.851702	-1286.634667	1425.121094	140.769135
29677.851702	-1286.634667	1424.046875	84.601448
29677.851702	-1286.634667	1422.971680	324.746857
29677.851702	-1286.634667	1421.896484	42.047028
29677.851702	-1286.634667	1420.821289	304.448486
29677.851702	-1286.634667	1419.746094	189.530563
29677.851702	-1286.634667	1418.669922	246.101685
29677.851702	-1286.634667	1417.594727	321.416046
29677.851702	-1286.634667	1416.518555	204.671356
29677.851702	-1286.634667	1415.442383	465.952271
29677.851702	-1286.634667	1414.365234	9.649778
29677.851702	-1286.634667	1413.289063	373.143646
29677.851702	-1286.634667	1412.211914	270.357483
29677.851702	-1286.634667	1411.134766	338.644714
29677.851702	-1286.634667	1410.057617	379.682220
29677.851702	-1286.634667	1408.979492	165.568787
29677.851702	-1286.634667	1407.902344	298.606262
29677.851702	-1286.634667	1406.824219	265.672974
29677.851702	-1286.634667	1405.746094	53.773754
29677.851702	-1286.634667	1404.666992	548.136963
29677.851702	-1286.634667	1403.588867	118.281769
29677.851702	-1286.634667	1402.509766	-2.619242
29677.851702	-1286.634667	1401.430664	-15.306102
29677.851702	-1286.634667	1400.351563	17.044415
29677.851702	-1286.634667	1399.271484	297.157471
29677.851702	-1286.634667	1398.192383	124.554474
29677.851702	-1286.634667	1397.112305	186.954453
29677.851702	-1286.634667	1396.031250	-28.684151
29677.851702	-1286.634667	1394.951172	269.446136
29677.851702	-1286.634667	1393.871094	-159.546448
29677.851702	-1286.634667	1392.790039	172.298508
29677.851702	-1286.634667	1391.708984	-51.145344
29677.851702	-1286.634667	1390.626953	125.578773
29677.851702	-1286.634667	1389.545898	-138.029892
29677.851702	-1286.634667	1388.463867	-138.605362
29677.851702	-1286.634667	1387.381836	51.162830
29677.851702	-1286.634667	1386.299805	22.611425
29677.851702	-1286.634667	1385.217773	-187.618179
29677.851702	-1286.634667	1384.134766	58.066387
29677.851702	-1286.634667	1383.051758	99.072617
29677.851702	-1286.634667	1381.968750	254.868042
29677.851702	-1286.634667	1380.885742	49.437775
29677.851702	-1286.634667	1379.802734	96.208313
29677.851702	-1286.634667	1378.718750	193.387924
29677.851702	-1286.634667	1377.634766	34.885269
29677.851702	-1286.634667	1376.550781	320.298676
29677.851702	-1286.634667	1375.465820	223.479416
29677.851702	-1286.634667	1374.381836	403.150970
29677.851702	-1286.634667	1373.296875	246.325821
29677.851702	-1286.634667	1372.211914	-4.777598
29677.851702	-1286.634667	1371.126953	299.243713
29677.851702	-1286.634667	1370.041016	428.268890
29677.851702	-1286.634667	1368.955078	315.766052
29677.851702	-1286.634667	1367.869141	376.452515
29677.851702	-1286.634667	1366.783203	536.201965
29677.851702	-1286.634667	1365.697266	553.270874
29677.851702	-1286.634667	1364.610352	637.232361
29677.851702	-1286.634667	1363.523438	713.549805
29677.851702	-1286.634667	1362.436523	576.962158
29677.851702	-1286.634667	1361.349609	564.022644
29677.851702	-1286.634667	1360.261719	758.720825
29677.851702	-1286.634667	1359.174805	720.962158
29677.851702	-1286.634667	1358.086914	788.803528
29677.851702	-1286.634667	1356.998047	564.230164
29677.851702	-1286.634667	1355.910156	602.517700
29677.851702	-1286.634667	1354.821289	544.089111
29677.851702	-1286.634667	1353.732422	413.303040
29677.851702	-1286.634667	1352.643555	433.347504
29677.851702	-1286.634667	1351.554688	194.291336
29677.851702	-1286.634667	1350.464844	295.580231
29677.851702	-1286.634667	1349.375000	169.693527
29677.851702	-1286.634667	1348.285156	-35.705231
29677.851702	-1286.634667	1347.195313	-84.891930
29677.851702	-1286.634667	1346.105469	192.634872
29677.851702	-1286.634667	1345.014648	-137.817368
29677.851702	-1286.634667	1343.923828	-129.426071
29677.851702	-1286.634667	1342.833008	-56.653725
29677.851702	-1286.634667	1341.741211	38.617031
29677.851702	-1286.634667	1340.650391	-3.241607
29677.851702	-1286.634667	1339.558594	33.767384
29677.851702	-1286.634667	1338.466797	17.275574
29677.851702	-1286.634667	1337.374023	-57.916718
29677.851702	-1286.634667	1336.282227	-105.090416
29677.851702	-1286.634667	1335.189453	6.890908
29677.851702	-1286.634667	1334.096680	125.329330
29677.851702	-1286.634667	1333.003906	2.101226
29677.851702	-1286.634667	1331.910156	261.813019
29677.851702	-1286.634667	1330.817383	210.800995
29677.851702	-1286.634667	1329.723633	498.757172
29677.851702	-1286.634667	1328.629883	501.585724
29677.851702	-1286.634667	1327.535156	420.531006
29677.851702	-1286.634667	1326.441406	478.323242
29677.851702	-1286.634667	1325.346680	362.956818
29677.851702	-1286.634667	1324.251953	594.315002
29677.851702	-1286.634667	1323.156250	318.733368
29677.851702	-1286.634667	1322.061523	114.805702
29677.851702	-1286.634667	1320.965820	514.627563
29677.851702	-1286.634667	1319.870117	383.149384
29677.851702	-1286.634667	1318.774414	477.100952
29677.851702	-1286.634667	1317.678711	650.697510
29677.851702	-1286.634667	1316.582031	584.535767
29677.851702	-1286.634667	1315.485352	268.219147
29677.851702	-1286.634667	1314.388672	619.135681
29677.851702	-1286.634667	1313.291016	547.897827
29677.851702	-1286.634667	1312.194336	378.359924
29677.851702	-1286.634667	1311.096680	372.389221
29677.851702	-1286.634667	1309.999023	437.799774
29677.851702	-1286.634667	1308.901367	348.114380
29677.851702	-1286.634667	1307.802734	470.415558
29677.851702	-1286.634667	1306.705078	515.528687
29677.851702	-1286.634667	1305.606445	579.980835
29677.851702	-1286.634667	1304.506836	546.312500
29677.851702	-1286.634667	1303.408203	452.478668
29677.851702	-1286.634667	1302.308594	560.451965
29677.851702	-1286.634667	1301.208984	667.996216
29677.851702	-1286.634667	1300.109375	952.777771
29677.851702	-1286.634667	1299.009766	739.995239
29677.851702	-1286.634667	1297.909180	636.781372
29677.851702	-1286.634667	1296.808594	808.566833
29677.851702	-1286.634667	1295.708008	692.666321
29677.851702	-1286.634667	1294.607422	534.072510
29677.851702	-1286.634667	1293.506836	559.527954
29677.851702	-1286.634667	1292.405273	558.236877
29677.851702	-1286.634667	1291.303711	478.815277
29677.851702	-1286.634667	1290.202148	531.244934
29677.851702	-1286.634667	1289.099609	487.988068
29677.851702	-1286.634667	1287.998047	463.468170
29677.851702	-1286.634667	1286.895508	440.964752
29677.851702	-1286.634667	1285.792969	205.971497
29677.851702	-1286.634667	1284.689453	188.711502
29677.851702	-1286.634667	1283.586914	303.710541
29677.851702	-1286.634667	1282.483398	135.084351
29677.851702	-1286.634667	1281.379883	70.083328
29677.851702	-1286.634667	1280.276367	258.929565
29677.851702	-1286.634667	1279.171875	195.781845
29677.851702	-1286.634667	1278.067383	249.610229
29677.851702	-1286.634667	1276.962891	67.703239
29677.851702	-1286.634667	1275.858398	229.723450
29677.851702	-1286.634667	1274.753906	373.904694
29677.851702	-1286.634667	1273.648438	249.884354
29677.851702	-1286.634667	1272.542969	94.959587
29677.851702	-1286.634667	1271.437500	180.839859
29677.851702	-1286.634667	1270.331055	206.917465
29677.851702	-1286.634667	1269.225586	197.122116
29677.851702	-1286.634667	1268.119141	156.578781
29677.851702	-1286.634667	1267.012695	70.599266
29677.851702	-1286.634667	1265.906250	70.980919
29677.851702	-1286.634667	1264.798828	-128.870209
29677.851702	-1286.634667	1263.691406	-108.157967
29677.851702	-1286.634667	1262.583984	-34.830090
29677.851702	-1286.634667	1261.476563	-88.525703
29677.851702	-1286.634667	1260.368164	-115.360222
29677.851702	-1286.634667	1259.260742	-20.630526
29677.851702	-1286.634667	1258.152344	-121.704666
29677.851702	-1286.634667	1257.043945	-136.498398
29677.851702	-1286.634667	1255.934570	-133.325333
29677.851702	-1286.634667	1254.825195	-222.277985
29677.851702	-1286.634667	1253.716797	-89.246613
29677.851702	-1286.634667	1252.606445	-161.370575
29677.851702	-1286.634667	1251.497070	-204.950760
29677.851702	-1286.634667	1250.387695	-156.615234
29677.851702	-1286.634667	1249.277344	72.004936
29677.851702	-1286.634667	1248.166992	-24.345688
29677.851702	-1286.634667	1247.055664	-206.765945
29677.851702	-1286.634667	1245.945313	-98.736015
29677.851702	-1286.634667	1244.833984	-41.089916
29677.851702	-1286.634667	1243.722656	-9.996102
29677.851702	-1286.634667	1242.611328	-79.951965
29677.851702	-1286.634667	1241.499023	71.228752
29677.851702	-1286.634667	1240.387695	39.953835
29677.851702	-1286.634667	1239.275391	-28.050375
29677.851702	-1286.634667	1238.162109	137.769485
29677.851702	-1286.634667	1237.049805	129.897507
29677.851702	-1286.634667	1235.936523	26.195686
29677.851702	-1286.634667	1234.823242	-18.274702
29677.851702	-1286.634667	1233.709961	-11.998279
29677.851702	-1286.634667	1232.596680	308.178040
29677.851702	-1286.634667	1231.482422	13.013600
29677.851702	-1286.634667	1230.369141	56.866940
29677.851702	-1286.634667	1229.253906	76.075058
29677.851702	-1286.634667	1228.139648	28.782001
29677.851702	-1286.634667	1227.025391	0.549852
29677.851702	-1286.634667	1225.910156	-14.316272
29677.851702	-1286.634667	1224.794922	19.125170
29677.851702	-1286.634667	1223.679688	162.120117
29677.851702	-1286.634667	1222.563477	81.039024
29677.851702	-1286.634667	1221.447266	-23.304352
29677.851702	-1286.634667	1220.331055	117.669945
29677.851702	-1286.634667	1219.214844	20.602419
29677.851702	-1286.634667	1218.098633	137.616028
29677.851702	-1286.634667	1216.981445	118.034180
29677.851702	-1286.634667	1215.864258	86.656258
29677.851702	-1286.634667	1214.747070	291.029053
29677.851702	-1286.634667	1213.629883	12.555852
29677.851702	-1286.634667	1212.511719	150.842133
29677.851702	-1286.634667	1211.393555	288.535156
29677.851702	-1286.634667	1210.275391	249.213043
29677.851702	-1286.634667	1209.157227	139.729279
29677.851702	-1286.634667	1208.038086	261.801514
29677.851702	-1286.634667	1206.918945	175.579193
29677.851702	-1286.634667	1205.799805	291.235199
29677.851702	-1286.634667	1204.680664	431.112335
29677.851702	-1286.634667	1203.560547	282.251343
29677.851702	-1286.634667	1202.441406	288.900909
29677.851702	-1286.634667	1201.321289	400.950073
29677.851702	-1286.634667	1200.200195	285.157532
29677.851702	-1286.634667	1199.080078	331.014557
29677.851702	-1286.634667	1197.958984	104.405899
29677.851702	-1286.634667	1196.837891	158.125198
29677.851702	-1286.634667	1195.716797	160.590530
29677.851702	-1286.634667	1194.594727	196.114731
29677.851702	-1286.634667	1193.473633	82.977806
29677.851702	-1286.634667	1192.351563	259.560120
29677.851702	-1286.634667	1191.229492	189.151672
29677.851702	-1286.634667	1190.106445	-37.739571
29677.851702	-1286.634667	1188.984375	113.705048
29677.851702	-1286.634667	1187.861328	149.437668
29677.851702	-1286.634667	1186.738281	28.475201
29677.851702	-1286.634667	1185.614258	107.768715
29677.851702	-1286.634667	1184.491211	31.186295
29677.851702	-1286.634667	1183.367188	-8.960063
29677.851702	-1286.634667	1182.243164	19.772659
29677.851702	-1286.634667	1181.119141	108.050774
29677.851702	-1286.634667	1179.994141	-109.630013
29677.851702	-1286.634667	1178.869141	5.129615
29677.851702	-1286.634667	1177.744141	-126.230560
29677.851702	-1286.634667	1176.619141	-119.396706
29677.851702	-1286.634667	1175.493164	-212.980774
29677.851702	-1286.634667	1174.368164	-48.583046
29677.851702	-1286.634667	1173.242188	-129.966888
29677.851702	-1286.634667	1172.115234	14.291721
29677.851702	-1286.634667	1170.989258	-104.068169
29677.851702	-1286.634667	1169.862305	-260.011505
29677.851702	-1286.634667	1168.735352	-76.281731
29677.851702	-1286.634667	1167.608398	6.472154
29677.851702	-1286.634667	1166.481445	61.828751
29677.851702	-1286.634667	1165.353516	-54.379131
29677.851702	-1286.634667	1164.225586	-101.202240
29677.851702	-1286.634667	1163.097656	-135.313904
29677.851702	-1286.634667	1161.968750	-157.788712
29677.851702	-1286.634667	1160.840820	-34.785564
29677.851702	-1286.634667	1159.711914	-13.626106
29677.851702	-1286.634667	1158.583008	-53.890907
29677.851702	-1286.634667	1157.453125	39.157650
29677.851702	-1286.634667	1156.324219	20.999086
29677.851702	-1286.634667	1155.194336	-36.693733
29677.851702	-1286.634667	1154.064453	-55.916050
29677.851702	-1286.634667	1152.933594	73.197426
29677.851702	-1286.634667	1151.803711	71.091736
29677.851702	-1286.634667	1150.672852	207.365921
29677.851702	-1286.634667	1149.541992	327.082733
29677.851702	-1286.634667	1148.411133	381.900055
29677.851702	-1286.634667	1147.279297	262.360596
29677.851702	-1286.634667	1146.147461	257.205078
29677.851702	-1286.634667	1145.015625	363.997711
29677.851702	-1286.634667	1143.883789	385.958954
29677.851702	-1286.634667	1142.750977	375.430969
29677.851702	-1286.634667	1141.619141	170.907318
29677.851702	-1286.634667	1140.486328	347.524689
29677.851702	-1286.634667	1139.352539	380.571747
29677.851702	-1286.634667	1138.219727	395.723145
29677.851702	-1286.634667	1137.085938	310.361267
29677.851702	-1286.634667	1135.952148	603.768799
29677.851702	-1286.634667	1134.818359	440.227753
29677.851702	-1286.634667	1133.683594	784.011414
29677.851702	-1286.634667	1132.549805	903.756348
29677.851702	-1286.634667	1131.415039	1080.164429
29677.851702	-1286.634667	1130.279297	1100.314453
29677.851702	-1286.634667	1129.144531	1464.462646
29677.851702	-1286.634667	1128.008789	1330.931519
29677.851702	-1286.634667	1126.873047	1384.585449
29677.851702	-1286.634667	1125.737305	1079.783936
29677.851702	-1286.634667	1124.601563	1081.817749
29677.851702	-1286.634667	1123.464844	1075.221436
29677.851702	-1286.634667	1122.328125	838.340149
29677.851702	-1286.634667	1121.191406	946.325378
29677.851702	-1286.634667	1120.054688	759.919189
29677.851702	-1286.634667	1118.916992	686.957458
29677.851702	-1286.634667	1117.779297	643.313232
29677.851702	-1286.634667	1116.641602	675.782410
29677.851702	-1286.634667	1115.503906	711.698120
29677.851702	-1286.634667	1114.365234	784.755188
29677.851702	-1286.634667	1113.226563	734.236267
29677.851702	-1286.634667	1112.087891	597.313293
29677.851702	-1286.634667	1110.949219	747.564514
29677.851702	-1286.634667	1109.809570	772.497009
29677.851702	-1286.634667	1108.669922	745.957214
29677.851702	-1286.634667	1107.530273	745.788086
29677.851702	-1286.634667	1106.390625	870.890198
29677.851702	-1286.634667	1105.250000	585.169617
29677.851702	-1286.634667	1104.109375	611.568115
29677.851702	-1286.634667	1102.968750	653.549561
29677.851702	-1286.634667	1101.828125	726.686523
29677.851702	-1286.634667	1100.686523	597.150513
29677.851702	-1286.634667	1099.544922	593.500610
29677.851702	-1286.634667	1098.403320	800.400269
29677.851702	-1286.634667	1097.261719	706.396423
29677.851702	-1286.634667	1096.120117	781.123230
29677.851702	-1286.634667	1094.977539	912.849487
29677.851702	-1286.634667	1093.834961	751.654297
29677.851702	-1286.634667	1092.691406	657.594482
29677.851702	-1286.634667	1091.548828	748.772095
29677.851702	-1286.634667	1090.405273	791.325684
29677.851702	-1286.634667	1089.261719	628.567200
29677.851702	-1286.634667	1088.118164	605.366089
29677.851702	-1286.634667	1086.973633	548.737793
29677.851702	-1286.634667	1085.829102	606.795349
29677.851702	-1286.634667	1084.684570	571.699158
29677.851702	-1286.634667	1083.540039	401.446655
29677.851702	-1286.634667	1082.395508	338.195435
29677.851702	-1286.634667	1081.250000	350.217377
29677.851702	-1286.634667	1080.104492	423.142517
29677.851702	-1286.634667	1078.958984	412.935150
29677.851702	-1286.634667	1077.812500	257.104187
29677.851702	-1286.634667	1076.666016	50.415730
29677.851702	-1286.634667	1075.519531	114.231506
29677.851702	-1286.634667	1074.373047	259.953308
29677.851702	-1286.634667	1073.226563	280.398895
29677.851702	-1286.634667	1072.079102	332.292755
29677.851702	-1286.634667	1070.931641	181.119141
29677.851702	-1286.634667	1069.784180	324.004486
29677.851702	-1286.634667	1068.635742	506.779419
29677.851702	-1286.634667	1067.487305	321.916840
29677.851702	-1286.634667	1066.338867	497.798004
29677.851702	-1286.634667	1065.190430	573.626587
29677.851702	-1286.634667	1064.041992	790.019165
29677.851702	-1286.634667	1062.892578	799.755432
29677.851702	-1286.634667	1061.743164	818.883667
29677.851702	-1286.634667	1060.593750	607.945557
29677.851702	-1286.634667	1059.443359	570.579712
29677.851702	-1286.634667	1058.292969	809.978333
29677.851702	-1286.634667	1057.142578	588.751465
29677.851702	-1286.634667	1055.992188	367.794037
29677.851702	-1286.634667	1054.841797	367.547089
29677.851702	-1286.634667	1053.690430	323.127502
29677.851702	-1286.634667	1052.539063	534.742554
29677.851702	-1286.634667	1051.387695	457.017792
29677.851702	-1286.634667	1050.235352	329.337524
29677.851702	-1286.634667	1049.083984	258.472870
29677.851702	-1286.634667	1047.931641	237.803131
29677.851702	-1286.634667	1046.778320	259.476135
29677.851702	-1286.634667	1045.625977	377.220428
29677.851702	-1286.634667	1044.472656	396.586823
29677.851702	-1286.634667	1043.319336	350.231445
29677.851702	-1286.634667	1042.166016	346.496704
29677.851702	-1286.634667	1041.012695	296.792328
29677.851702	-1286.634667	1039.858398	290.484497
29677.851702	-1286.634667	1038.704102	546.698425
29677.851702	-1286.634667	1037.549805	278.902435
29677.851702	-1286.634667	1036.394531	455.320923
29677.851702	-1286.634667	1035.239258	367.668121
29677.851702	-1286.634667	1034.083984	626.206421
29677.851702	-1286.634667	1032.928711	467.171753
29677.851702	-1286.634667	1031.773438	611.111694
29677.851702	-1286.634667	1030.617188	416.591064
29677.851702	-1286.634667	1029.460938	413.009064
29677.851702	-1286.634667	1028.304688	558.730591
29677.851702	-1286.634667	1027.147461	736.621155
29677.851702	-1286.634667	1025.991211	598.707458
29677.851702	-1286.634667	1024.833984	481.282349
29677.851702	-1286.634667	1023.675781	494.198853
29677.851702	-1286.634667	1022.518555	426.247711
29677.851702	-1286.634667	1021.360352	438.684326
29677.851702	-1286.634667	1020.202148	349.764771
29677.851702	-1286.634667	1019.043945	267.083435
29677.851702	-1286.634667	1017.884766	288.163666
29677.851702	-1286.634667	1016.726563	172.875839
29677.851702	-1286.634667	1015.567383	126.064644
29677.851702	-1286.634667	1014.407227	19.876108
29677.851702	-1286.634667	1013.248047	246.922211
29677.851702	-1286.634667	1012.087891	138.134201
29677.851702	-1286.634667	1010.927734	246.270599
29677.851702	-1286.634667	1009.767578	174.311569
29677.851702	-1286.634667	1008.606445	181.580765
29677.851702	-1286.634667	1007.446289	97.400650
29677.851702	-1286.634667	1006.285156	48.250809
29677.851702	-1286.634667	1005.123047	90.320251
29677.851702	-1286.634667	1003.961914	-74.725471
29677.851702	-1286.634667	1002.799805	141.889786
29677.851702	-1286.634667	1001.637695	9.883934
29677.851702	-1286.634667	1000.475586	33.370941
29677.851702	-1286.634667	999.312500	20.090088
29677.851702	-1286.634667	998.149414	160.819977
29677.851702	-1286.634667	996.986328	46.773190
29677.851702	-1286.634667	995.823242	122.990463
29677.851702	-1286.634667	994.659180	172.035126
29677.851702	-1286.634667	993.496094	95.551079
29677.851702	-1286.634667	992.332031	99.660332
29677.851702	-1286.634667	991.166992	-27.497883
29677.851702	-1286.634667	990.002930	99.656151
29677.851702	-1286.634667	988.837891	70.815468
29677.851702	-1286.634667	987.672852	121.546173
29677.851702	-1286.634667	986.506836	76.863426
29677.851702	-1286.634667	985.341797	-9.024789
29677.851702	-1286.634667	984.175781	63.843758
29677.851702	-1286.634667	983.009766	-49.910965
29677.851702	-1286.634667	981.843750	296.577911
29677.851702	-1286.634667	980.676758	107.689636
29677.851702	-1286.634667	979.509766	-127.195976
29677.851702	-1286.634667	978.342773	-82.620239
29677.851702	-1286.634667	977.175781	216.735855
29677.851702	-1286.634667	976.007813	-6.354096
29677.851702	-1286.634667	974.839844	81.735992
29677.851702	-1286.634667	973.671875	100.973564
29677.851702	-1286.634667	972.503906	-24.213985
29677.851702	-1286.634667	971.334961	320.666534
29677.851702	-1286.634667	970.166016	62.048935
29677.851702	-1286.634667	968.997070	108.618431
29677.851702	-1286.634667	967.828125	89.543610
29677.851702	-1286.634667	966.658203	30.616350
29677.851702	-1286.634667	965.488281	175.630936
29677.851702	-1286.634667	964.318359	310.628998
29677.851702	-1286.634667	963.148438	75.455887
29677.851702	-1286.634667	961.977539	178.901382
29677.851702	-1286.634667	960.806641	233.121185
29677.851702	-1286.634667	959.635742	316.258514
29677.851702	-1286.634667	958.463867	307.679199
29677.851702	-1286.634667	957.292969	437.716766
29677.851702	-1286.634667	956.121094	295.416748
29677.851702	-1286.634667	954.948242	480.991608
29677.851702	-1286.634667	953.776367	409.978088
29677.851702	-1286.634667	952.603516	328.104187
29677.851702	-1286.634667	951.430664	293.111725
29677.851702	-1286.634667	950.257813	358.093109
29677.851702	-1286.634667	949.084961	324.921906
29677.851702	-1286.634667	947.911133	324.861176
29677.851702	-1286.634667	946.737305	174.249527
29677.851702	-1286.634667	945.563477	298.869690
29677.851702	-1286.634667	944.388672	390.132141
29677.851702	-1286.634667	943.213867	234.013168
29677.851702	-1286.634667	942.039063	266.684235
29677.851702	-1286.634667	940.864258	63.208328
29677.851702	-1286.634667	939.688477	294.287781
29677.851702	-1286.634667	938.513672	171.778275
29677.851702	-1286.634667	937.337891	290.817261
29677.851702	-1286.634667	936.161133	272.261658
29677.851702	-1286.634667	934.985352	226.256256
29677.851702	-1286.634667	933.808594	192.698196
29677.851702	-1286.634667	932.631836	268.277802
29677.851702	-1286.634667	931.454102	473.365173
29677.851702	-1286.634667	930.277344	211.030090
29677.851702	-1286.634667	929.099609	405.951691
29677.851702	-1286.634667	927.921875	547.481506
29677.851702	-1286.634667	926.743164	506.135040
29677.851702	-1286.634667	925.565430	581.550537
29677.851702	-1286.634667	924.386719	398.017334
29677.851702	-1286.634667	923.208008	425.182892
29677.851702	-1286.634667	922.028320	315.311615
29677.851702	-1286.634667	920.849609	301.869049
29677.851702	-1286.634667	919.669922	305.829895
29677.851702	-1286.634667	919.474609	271.321289
29677.851702	-1286.634667	918.309570	113.263893
29677.851702	-1286.634667	917.143555	54.145260
29677.851702	-1286.634667	915.977539	228.258377
29677.851702	-1286.634667	914.810547	-66.594376
29677.851702	-1286.634667	913.644531	-49.663227
29677.851702	-1286.634667	912.477539	17.919901
29677.851702	-1286.634667	911.310547	-101.976791
29677.851702	-1286.634667	910.143555	-143.331497
29677.851702	-1286.634667	908.975586	-70.742317
29677.851702	-1286.634667	907.807617	146.095490
29677.851702	-1286.634667	906.639648	-67.419342
29677.851702	-1286.634667	905.471680	12.664637
29677.851702	-1286.634667	904.303711	-140.042908
29677.851702	-1286.634667	903.134766	38.648891
29677.851702	-1286.634667	901.965820	-83.674934
29677.851702	-1286.634667	900.796875	-168.034653
29677.851702	-1286.634667	899.626953	129.331879
29677.851702	-1286.634667	898.457031	-172.402435
29677.851702	-1286.634667	897.287109	-135.434647
29677.851702	-1286.634667	896.117188	-270.278198
29677.851702	-1286.634667	894.947266	64.712662
29677.851702	-1286.634667	893.776367	-77.708862
29677.851702	-1286.634667	892.605469	-66.072952
29677.851702	-1286.634667	891.434570	139.911575
29677.851702	-1286.634667	890.262695	58.106335
29677.851702	-1286.634667	889.091797	74.727127
29677.851702	-1286.634667	887.919922	252.784042
29677.851702	-1286.634667	886.748047	281.954895
29677.851702	-1286.634667	885.575195	197.634399
29677.851702	-1286.634667	884.403320	130.985672
29677.851702	-1286.634667	883.230469	54.275539
29677.851702	-1286.634667	882.057617	133.835129
29677.851702	-1286.634667	880.883789	36.986843
29677.851702	-1286.634667	879.710938	106.425056
29677.851702	-1286.634667	878.537109	-10.541493
29677.851702	-1286.634667	877.362305	-49.405907
29677.851702	-1286.634667	876.188477	-141.132965
29677.851702	-1286.634667	875.013672	54.109421
29677.851702	-1286.634667	873.839844	45.427788
29677.851702	-1286.634667	872.664063	-3.506972
29677.851702	-1286.634667	871.489258	173.957581
29677.851702	-1286.634667	870.313477	119.971809
29677.851702	-1286.634667	869.138672	15.709648
29677.851702	-1286.634667	867.962891	-73.430534
29677.851702	-1286.634667	866.786133	-49.437035
29677.851702	-1286.634667	865.610352	-48.078293
29677.851702	-1286.634667	864.433594	-127.121040
29677.851702	-1286.634667	863.256836	127.936714
29677.851702	-1286.634667	862.079102	-86.732285
29677.851702	-1286.634667	860.902344	-30.156225
29677.851702	-1286.634667	859.724609	-139.287476
29677.851702	-1286.634667	858.546875	77.890594
29677.851702	-1286.634667	857.368164	-129.091904
29677.851702	-1286.634667	856.190430	-92.649849
29677.851702	-1286.634667	855.011719	-86.327515
29677.851702	-1286.634667	853.833008	98.033348
29677.851702	-1286.634667	852.654297	-31.090799
29677.851702	-1286.634667	851.474609	-97.499023
29677.851702	-1286.634667	850.294922	-8.505751
29677.851702	-1286.634667	849.115234	67.914291
29677.851702	-1286.634667	847.935547	-76.157974
29677.851702	-1286.634667	846.754883	35.295715
29677.851702	-1286.634667	845.575195	-81.182457
29677.851702	-1286.634667	844.393555	-34.882236
29677.851702	-1286.634667	843.212891	-203.877457
29677.851702	-1286.634667	842.032227	10.080560
29677.851702	-1286.634667	840.850586	-1.240987
29677.851702	-1286.634667	839.668945	14.949911
29677.851702	-1286.634667	838.486328	161.181168
29677.851702	-1286.634667	837.304688	-5.225691
29677.851702	-1286.634667	836.122070	205.928879
29677.851702	-1286.634667	834.939453	-5.426386
29677.851702	-1286.634667	833.756836	-104.251671
29677.851702	-1286.634667	832.573242	-73.124619
29677.851702	-1286.634667	831.389648	-91.980751
29677.851702	-1286.634667	830.206055	-58.393547
29677.851702	-1286.634667	829.022461	-129.703094
29677.851702	-1286.634667	827.838867	-86.159630
29677.851702	-1286.634667	826.654297	-134.991287
29677.851702	-1286.634667	825.469727	-221.245880
29677.851702	-1286.634667	824.284180	-87.927925
29677.851702	-1286.634667	823.099609	-261.483307
29677.851702	-1286.634667	821.914063	-220.509689
29677.851702	-1286.634667	820.728516	-0.047066
29677.851702	-1286.634667	819.542969	33.350563
29677.851702	-1286.634667	818.356445	-110.228638
29677.851702	-1286.634667	817.169922	-159.076599
29677.851702	-1286.634667	815.983398	-18.583273
29677.851702	-1286.634667	814.796875	24.698278
29677.851702	-1286.634667	813.609375	-61.543270
29677.851702	-1286.634667	812.422852	121.122330
29677.851702	-1286.634667	811.235352	-22.387234
29677.851702	-1286.634667	810.046875	40.710857
29677.851702	-1286.634667	808.859375	-172.424561
29677.851702	-1286.634667	807.670898	-161.597595
29677.851702	-1286.634667	806.482422	40.718281
29677.851702	-1286.634667	805.293945	51.462135
29677.851702	-1286.634667	804.104492	89.532448
29677.851702	-1286.634667	802.915039	33.114941
29677.851702	-1286.634667	801.725586	140.718018
29677.851702	-1286.634667	800.536133	14.707499
29677.851702	-1286.634667	799.345703	15.418310
29677.851702	-1286.634667	798.155273	-93.166924
29677.851702	-1286.634667	796.964844	-42.815189
29677.851702	-1286.634667	795.774414	106.796341
29677.851702	-1286.634667	794.583008	199.239807
29677.851702	-1286.634667	793.392578	110.473228
29677.851702	-1286.634667	792.200195	108.558464
29677.851702	-1286.634667	791.008789	99.178925
29677.851702	-1286.634667	789.816406	104.660805
29677.851702	-1286.634667	788.625000	90.279640
29677.851702	-1286.634667	787.432617	383.268768
29677.851702	-1286.634667	786.239258	24.293734
29677.851702	-1286.634667	785.046875	242.787399
29677.851702	-1286.634667	783.853516	188.656799
29677.851702	-1286.634667	782.660156	231.120117
29677.851702	-1286.634667	781.465820	65.527557
29677.851702	-1286.634667	780.272461	211.931290
29677.851702	-1286.634667	779.078125	24.078981
29677.851702	-1286.634667	777.883789	-77.104065
29677.851702	-1286.634667	776.688477	-5.070493
29677.851702	-1286.634667	775.494141	101.534782
29677.851702	-1286.634667	774.298828	99.244392
29677.851702	-1286.634667	773.103516	166.163422
29677.851702	-1286.634667	771.907227	5.579333
29677.851702	-1286.634667	770.711914	121.863045
29677.851702	-1286.634667	769.515625	158.990341
29677.851702	-1286.634667	768.318359	139.245865
29677.851702	-1286.634667	767.122070	-60.847008
29677.851702	-1286.634667	765.924805	-26.268682
29677.851702	-1286.634667	764.727539	50.236458
29677.851702	-1286.634667	763.530273	27.931631
29677.851702	-1286.634667	762.333008	8.070283
29677.851702	-1286.634667	761.134766	111.564667
29677.851702	-1286.634667	759.936523	-73.670319
29677.851702	-1286.634667	758.738281	-29.470085
29677.851702	-1286.634667	757.540039	46.734249
29677.851702	-1286.634667	756.340820	-22.596355
29677.851702	-1286.634667	755.141602	26.387697
29677.851702	-1286.634667	753.942383	92.564857
29677.851702	-1286.634667	752.742188	60.117683
29677.851702	-1286.634667	751.541992	-65.967422
29677.851702	-1286.634667	750.341797	-95.982895
29677.851702	-1286.634667	749.141602	-133.411606
29677.851702	-1286.634667	747.941406	43.326077
29677.851702	-1286.634667	746.740234	119.030724
29677.851702	-1286.634667	745.539063	27.319765
29677.851702	-1286.634667	744.337891	127.519920
29677.851702	-1286.634667	743.135742	77.582039
29677.851702	-1286.634667	741.933594	177.646133
29677.851702	-1286.634667	740.731445	4.689315
29677.851702	-1286.634667	739.529297	-23.194120
29677.851702	-1286.634667	738.326172	-33.903042
29677.851702	-1286.634667	737.124023	11.865833
29677.851702	-1286.634667	735.919922	-35.786491
29677.851702	-1286.634667	734.716797	31.982492
29677.851702	-1286.634667	733.513672	70.208466
29677.851702	-1286.634667	732.309570	-41.399208
29677.851702	-1286.634667	731.105469	178.387711
29677.851702	-1286.634667	729.900391	-31.458790
29677.851702	-1286.634667	728.696289	45.823132
29677.851702	-1286.634667	727.491211	-31.528231
29677.851702	-1286.634667	726.286133	-96.631149
29677.851702	-1286.634667	725.080078	-107.805756
29677.851702	-1286.634667	723.874023	-106.765945
29677.851702	-1286.634667	722.668945	51.098789
29677.851702	-1286.634667	721.461914	132.879349
29677.851702	-1286.634667	720.255859	251.326874
29677.851702	-1286.634667	719.048828	90.415520
29677.851702	-1286.634667	717.841797	56.874954
29677.851702	-1286.634667	716.634766	-150.553940
29677.851702	-1286.634667	715.427734	-95.999405
29677.851702	-1286.634667	714.219727	-75.786766
29677.851702	-1286.634667	713.011719	-70.316032
29677.851702	-1286.634667	711.803711	-79.580658
29677.851702	-1286.634667	710.594727	-118.245926
29677.851702	-1286.634667	709.385742	92.497299
29677.851702	-1286.634667	708.176758	78.155586
29677.851702	-1286.634667	706.967773	22.209114
29677.851702	-1286.634667	705.758789	-160.856049
29677.851702	-1286.634667	704.548828	-114.211212
29677.851702	-1286.634667	703.338867	-33.437611
29677.851702	-1286.634667	702.127930	115.635170
29677.851702	-1286.634667	700.917969	176.680191
29677.851702	-1286.634667	699.707031	71.625404
29677.851702	-1286.634667	698.496094	-35.882675
29677.851702	-1286.634667	697.285156	51.832508
29677.851702	-1286.634667	696.073242	-75.257057
29677.851702	-1286.634667	694.861328	80.619331
29677.851702	-1286.634667	693.649414	31.507383
29677.851702	-1286.634667	692.436523	145.729584
29677.851702	-1286.634667	691.224609	62.380665
29677.851702	-1286.634667	690.011719	-128.235092
29677.851702	-1286.634667	688.798828	-111.696342
29677.851702	-1286.634667	687.584961	38.773365
29677.851702	-1286.634667	686.372070	-56.892948
29677.851702	-1286.634667	685.158203	112.868439
29677.851702	-1286.634667	683.943359	-75.412437
29677.851702	-1286.634667	682.729492	74.690926
29677.851702	-1286.634667	681.514648	-8.968939
29677.851702	-1286.634667	680.299805	94.707451
29677.851702	-1286.634667	679.084961	122.867508
29677.851702	-1286.634667	677.869141	240.947525
29677.851702	-1286.634667	676.653320	52.523739
29677.851702	-1286.634667	675.437500	-9.457606
29677.851702	-1286.634667	674.221680	-219.742599
29677.851702	-1286.634667	673.004883	136.229904
29677.851702	-1286.634667	671.789063	219.872711
29677.851702	-1286.634667	670.571289	150.381897
29677.851702	-1286.634667	669.354492	-25.997152
29677.851702	-1286.634667	668.136719	91.440712
29677.851702	-1286.634667	666.919922	138.370407
29677.851702	-1286.634667	665.701172	-8.949979
29677.851702	-1286.634667	664.483398	-22.802795
29677.851702	-1286.634667	663.264648	220.453323
29677.851702	-1286.634667	662.045898	245.246841
29677.851702	-1286.634667	660.827148	192.368912
29677.851702	-1286.634667	659.608398	115.210258
29677.851702	-1286.634667	658.388672	-32.273804
29677.851702	-1286.634667	657.168945	-136.131149
29677.851702	-1286.634667	655.949219	4.720436
29677.851702	-1286.634667	654.728516	-154.936722
29677.851702	-1286.634667	653.507813	128.636795
29677.851702	-1286.634667	652.287109	-130.375198
29677.851702	-1286.634667	651.066406	116.643715
29677.851702	-1286.634667	649.844727	-89.124840
29677.851702	-1286.634667	648.623047	220.582230
29677.851702	-1286.634667	647.401367	205.897980
29677.851702	-1286.634667	646.179688	-9.606989
29677.851702	-1286.634667	644.957031	-113.833229
29677.851702	-1286.634667	643.734375	4.373207
29677.851702	-1286.634667	642.511719	18.526297
29677.851702	-1286.634667	641.289063	167.962296
29677.851702	-1286.634667	640.065430	314.859650
29677.851702	-1286.634667	638.841797	63.025833
29677.851702	-1286.634667	637.618164	192.865509
29677.851702	-1286.634667	636.393555	346.740631
29677.851702	-1286.634667	635.168945	329.079956
29677.851702	-1286.634667	633.944336	55.510788
29677.851702	-1286.634667	632.719727	105.383171
29677.851702	-1286.634667	631.494141	263.753265
29677.851702	-1286.634667	630.269531	166.305862
29677.851702	-1286.634667	629.042969	150.840347
29677.851702	-1286.634667	627.817383	181.146103
29677.851702	-1286.634667	626.590820	122.187439
29677.851702	-1286.634667	625.365234	46.333088
29677.851702	-1286.634667	624.137695	175.279495
29677.851702	-1286.634667	622.911133	116.206215
29677.851702	-1286.634667	621.683594	119.730583
29677.851702	-1286.634667	620.456055	231.572037
29677.851702	-1286.634667	619.228516	109.773087
29677.851702	-1286.634667	618.000977	43.341122
29677.851702	-1286.634667	616.772461	92.405228
29677.851702	-1286.634667	615.543945	136.589310
29677.851702	-1286.634667	614.314453	12.310501
29677.851702	-1286.634667	613.085938	142.982330
29677.851702	-1286.634667	611.856445	78.777351
29677.851702	-1286.634667	610.626953	339.105774
29677.851702	-1286.634667	609.397461	53.667431
29677.851702	-1286.634667	608.166992	92.716255
29677.851702	-1286.634667	606.936523	160.534668
29677.851702	-1286.634667	605.706055	127.396759
29677.851702	-1286.634667	604.474609	-227.579361
29677.851702	-1286.634667	603.244141	104.249931
29677.851702	-1286.634667	602.012695	42.209099
29677.851702	-1286.634667	600.780273	128.951050
29677.851702	-1286.634667	599.548828	138.836441
29677.851702	-1286.634667	598.316406	-9.658110
29677.851702	-1286.634667	597.083984	-26.212748
29677.851702	-1286.634667	595.851563	-179.481064
29677.851702	-1286.634667	594.618164	-121.750359
29677.851702	-1286.634667	593.384766	60.561028
29677.851702	-1286.634667	592.151367	120.540749
29677.851702	-1286.634667	590.917969	151.709076
29677.851702	-1286.634667	589.683594	98.986626
29677.851702	-1286.634667	588.449219	53.437622
29677.851702	-1286.634667	587.214844	-37.617836
29677.851702	-1286.634667	585.979492	134.655838
29677.851702	-1286.634667	584.745117	-128.764755
29677.851702	-1286.634667	583.509766	-274.857666
29677.851702	-1286.634667	582.273438	-26.183672
29677.851702	-1286.634667	581.038086	-50.310997
29677.851702	-1286.634667	579.801758	-105.547844
29677.851702	-1286.634667	578.565430	47.212223
29677.851702	-1286.634667	577.329102	-46.321022
29677.851702	-1286.634667	576.091797	139.762100
29677.851702	-1286.634667	574.854492	-113.888924
29677.851702	-1286.634667	573.617188	57.746223
29677.851702	-1286.634667	572.378906	102.702164
29677.851702	-1286.634667	571.141602	152.395401
29677.851702	-1286.634667	569.903320	163.845566
29677.851702	-1286.634667	568.664063	120.369804
29677.851702	-1286.634667	567.425781	138.937439
29677.851702	-1286.634667	566.186523	-40.540409
29677.851702	-1286.634667	564.947266	111.582962
29677.851702	-1286.634667	563.708008	306.547577
29677.851702	-1286.634667	562.467773	198.614502
29677.851702	-1286.634667	561.227539	290.940247
29677.851702	-1286.634667	559.987305	371.294098
29677.851702	-1286.634667	558.747070	199.036194
29677.851702	-1286.634667	557.505859	222.169785
29677.851702	-1286.634667	556.264648	195.265381
29677.851702	-1286.634667	555.023438	261.223145
29677.851702	-1286.634667	553.781250	158.111710
29677.851702	-1286.634667	552.539063	304.944946
29677.851702	-1286.634667	551.296875	104.282219
29677.851702	-1286.634667	550.054688	-91.547676
29677.851702	-1286.634667	548.811523	221.711319
29677.851702	-1286.634667	547.569336	-78.713486
29677.851702	-1286.634667	546.325195	115.509041
29677.851702	-1286.634667	545.082031	36.282536
29677.851702	-1286.634667	543.837891	-19.156126
29677.851702	-1286.634667	542.593750	-48.440525
29677.851702	-1286.634667	541.349609	95.696564
29677.851702	-1286.634667	540.105469	-147.362411
29677.851702	-1286.634667	538.860352	46.585743
29677.851702	-1286.634667	537.615234	-32.565289
29677.851702	-1286.634667	536.369141	-294.449280
29677.851702	-1286.634667	535.124023	-152.809677
29677.851702	-1286.634667	533.877930	40.956425
29677.851702	-1286.634667	532.631836	-97.438957
29677.851702	-1286.634667	531.384766	-19.976349
29677.851702	-1286.634667	530.138672	-72.946198
29677.851702	-1286.634667	528.891602	9.218244
29677.851702	-1286.634667	527.643555	3.654122
29677.851702	-1286.634667	526.396484	-89.570694
29677.851702	-1286.634667	525.148438	-12.196157
29677.851702	-1286.634667	523.900391	-15.380567
29677.851702	-1286.634667	522.652344	-122.749580
29677.851702	-1286.634667	521.403320	-99.867882
29677.851702	-1286.634667	520.154297	-228.474915
29677.851702	-1286.634667	518.905273	-158.248199
29677.851702	-1286.634667	517.656250	-166.123062
29677.851702	-1286.634667	516.406250	-190.553940
29677.851702	-1286.634667	515.156250	-300.105621
29677.851702	-1286.634667	513.906250	-189.722351
29677.851702	-1286.634667	512.655273	-334.683838
29677.851702	-1286.634667	511.404297	-179.435837
29677.851702	-1286.634667	510.153320	-19.525236
29677.851702	-1286.634667	508.902344	-289.622986
29677.851702	-1286.634667	507.650391	-134.479614
29677.851702	-1286.634667	506.398438	-80.935616
29677.851702	-1286.634667	505.146484	-143.091736
29677.851702	-1286.634667	503.893555	82.733025
29677.851702	-1286.634667	502.641602	-132.813248
29677.851702	-1286.634667	501.388672	-246.818634
29677.851702	-1286.634667	500.134766	37.853237
29677.851702	-1286.634667	498.881836	60.641331
29677.851702	-1286.634667	497.627930	-46.260349
29677.851702	-1286.634667	496.374023	35.463570
29677.851702	-1286.634667	495.119141	15.809201
29677.851702	-1286.634667	493.865234	-81.589409
29677.851702	-1286.634667	492.610352	9.505492
29677.851702	-1286.634667	491.355469	13.416882
29677.851702	-1286.634667	490.099609	-60.386700
29677.851702	-1286.634667	488.843750	-44.701542
29677.851702	-1286.634667	487.587891	39.228317
29677.851702	-1286.634667	486.332031	141.942947
29677.851702	-1286.634667	485.075195	30.507353
29677.851702	-1286.634667	483.818359	170.795883
29677.851702	-1286.634667	482.561523	47.628689
29677.851702	-1286.634667	481.304688	-66.092079
29677.851702	-1286.634667	480.046875	-62.245090
29677.851702	-1286.634667	478.789063	28.541817
29677.851702	-1286.634667	477.531250	-17.002287
29677.851702	-1286.634667	476.272461	97.193893
29677.851702	-1286.634667	475.013672	16.387093
29677.851702	-1286.634667	473.754883	-31.528807
29677.851702	-1286.634667	472.496094	106.017746
29677.851702	-1286.634667	471.236328	201.229538
29677.851702	-1286.634667	469.976563	202.512436
29677.851702	-1286.634667	468.716797	109.925056
29677.851702	-1286.634667	467.456055	-45.985390
29677.851702	-1286.634667	466.196289	161.633667
29677.851702	-1286.634667	464.935547	-34.141075
29677.851702	-1286.634667	463.673828	84.235893
29677.851702	-1286.634667	462.413086	134.565262
29677.851702	-1286.634667	461.151367	128.595200
29677.851702	-1286.634667	459.889648	209.260330
29677.851702	-1286.634667	458.626953	179.765244
29677.851702	-1286.634667	457.364258	51.891132
29677.851702	-1286.634667	456.101563	235.379303
29677.851702	-1286.634667	454.838867	123.828377
29677.851702	-1286.634667	453.575195	272.006866
29677.851702	-1286.634667	452.312500	92.533569
29677.851702	-1286.634667	451.047852	-98.628922
29677.851702	-1286.634667	449.784180	-65.274002
29677.851702	-1286.634667	448.519531	133.990234
29677.851702	-1286.634667	447.254883	19.870239
29677.851702	-1286.634667	445.990234	99.693382
29677.851702	-1286.634667	444.725586	116.315262
29677.851702	-1286.634667	443.459961	-49.366077
29677.851702	-1286.634667	442.194336	46.507915
29677.851702	-1286.634667	440.927734	212.290970
29677.851702	-1286.634667	439.662109	111.781555
29677.851702	-1286.634667	438.395508	97.564011
29677.851702	-1286.634667	437.127930	127.575974
29677.851702	-1286.634667	435.861328	85.148216
29677.851702	-1286.634667	434.593750	170.901321
29677.851702	-1286.634667	433.326172	268.155365
29677.851702	-1286.634667	432.058594	-68.404236
29677.851702	-1286.634667	430.790039	33.257122
29677.851702	-1286.634667	429.521484	127.746490
29677.851702	-1286.634667	428.252930	121.866043
29677.851702	-1286.634667	426.984375	-49.548988
29677.851702	-1286.634667	425.714844	39.787960
29677.851702	-1286.634667	424.445313	187.135132
29677.851702	-1286.634667	423.174805	271.392792
29677.851702	-1286.634667	421.905273	194.858292
29677.851702	-1286.634667	420.634766	125.151215
29677.851702	-1286.634667	419.364258	236.746490
29677.851702	-1286.634667	418.092773	120.156487
29677.851702	-1286.634667	416.822266	61.560867
29677.851702	-1286.634667	415.550781	307.333313
29677.851702	-1286.634667	414.278320	387.748474
29677.851702	-1286.634667	413.006836	209.964951
29677.851702	-1286.634667	411.734375	231.831528
29677.851702	-1286.634667	410.461914	172.152145
29677.851702	-1286.634667	409.188477	68.119431
29677.851702	-1286.634667	407.916016	172.854645
29677.851702	-1286.634667	406.642578	105.494469
29677.851702	-1286.634667	405.368164	279.251678
29677.851702	-1286.634667	404.094727	206.709106
29677.851702	-1286.634667	402.820313	287.008484
29677.851702	-1286.634667	401.545898	204.624725
29677.851702	-1286.634667	400.270508	-3.256196
29677.851702	-1286.634667	398.996094	-83.844391
29677.851702	-1286.634667	397.720703	50.823582
29677.851702	-1286.634667	396.444336	85.443398
29677.851702	-1286.634667	395.168945	140.564590
29677.851702	-1286.634667	393.892578	-22.437429
29677.851702	-1286.634667	392.616211	138.476929
29677.851702	-1286.634667	391.339844	106.775749
29677.851702	-1286.634667	390.062500	-54.940701
29677.851702	-1286.634667	388.785156	188.015793
29677.851702	-1286.634667	387.507813	-215.091400
29677.851702	-1286.634667	386.229492	117.167458
29677.851702	-1286.634667	384.951172	-32.211567
29677.851702	-1286.634667	383.672852	16.884827
29677.851702	-1286.634667	382.394531	-17.723253
29677.851702	-1286.634667	381.115234	194.505951
29677.851702	-1286.634667	379.835938	47.989811
29677.851702	-1286.634667	378.556641	88.171806
29677.851702	-1286.634667	377.277344	-1.519500
29677.851702	-1286.634667	375.997070	-147.133667
29677.851702	-1286.634667	374.716797	-230.884583
29677.851702	-1286.634667	373.435547	-72.799713
29677.851702	-1286.634667	372.155273	-5.335165
29677.851702	-1286.634667	370.874023	96.112312
29677.851702	-1286.634667	369.591797	143.847458
29677.851702	-1286.634667	368.310547	-23.511747
29677.851702	-1286.634667	367.028320	-39.260952
29677.851702	-1286.634667	365.746094	13.512135
29677.851702	-1286.634667	364.463867	125.530533
29677.851702	-1286.634667	363.180664	-92.699867
29677.851702	-1286.634667	361.897461	-90.364746
29677.851702	-1286.634667	360.614258	72.490540
29677.851702	-1286.634667	359.330078	234.530640
29677.851702	-1286.634667	358.045898	32.007099
29677.851702	-1286.634667	356.761719	54.383530
29677.851702	-1286.634667	355.477539	108.193581
29677.851702	-1286.634667	354.192383	32.322144
29677.851702	-1286.634667	352.907227	13.178140
29677.851702	-1286.634667	351.622070	-20.586473
29677.851702	-1286.634667	350.336914	82.768860
29677.851702	-1286.634667	349.050781	272.536499
29677.851702	-1286.634667	347.764648	134.985077
29677.851702	-1286.634667	346.477539	60.894257
29677.851702	-1286.634667	345.191406	-82.980545
29677.851702	-1286.634667	343.904297	100.662437
29677.851702	-1286.634667	342.616211	-10.692093
29677.851702	-1286.634667	341.329102	-97.704323
29677.851702	-1286.634667	340.041016	110.361732
29677.851702	-1286.634667	338.752930	175.031311
29677.851702	-1286.634667	337.463867	96.341408
29677.851702	-1286.634667	336.175781	-13.176757
29677.851702	-1286.634667	334.886719	-158.179413
29677.851702	-1286.634667	333.596680	-185.058365
29677.851702	-1286.634667	332.307617	-245.128036
29677.851702	-1286.634667	331.017578	-365.963745
29677.851702	-1286.634667	329.727539	-123.638412
29677.851702	-1286.634667	328.436523	18.821032
29677.851702	-1286.634667	327.146484	-169.776901
29677.851702	-1286.634667	325.855469	-45.912457
29677.851702	-1286.634667	324.563477	145.237717
29677.851702	-1286.634667	323.272461	-143.315979
29677.851702	-1286.634667	321.980469	-99.053680
29677.851702	-1286.634667	320.688477	-234.627289
29677.851702	-1286.634667	319.395508	-33.080765
29677.851702	-1286.634667	318.103516	-198.877426
29677.851702	-1286.634667	316.810547	56.844536
29677.851702	-1286.634667	315.516602	11.493566
29677.851702	-1286.634667	314.223633	-37.585491
29677.851702	-1286.634667	312.929688	199.639267
29677.851702	-1286.634667	311.635742	56.010151
29677.851702	-1286.634667	310.340820	2.139820
29677.851702	-1286.634667	309.045898	127.036186
29677.851702	-1286.634667	307.750977	-60.231995
29677.851702	-1286.634667	306.456055	218.746445
29677.851702	-1286.634667	305.160156	233.424438
29677.851702	-1286.634667	303.865234	360.464874
29677.851702	-1286.634667	302.568359	444.490021
29677.851702	-1286.634667	301.272461	410.430817
29677.851702	-1286.634667	299.975586	620.684326
29677.851702	-1286.634667	298.678711	628.389526
