#X		#Y		#Wave		#Intensity
29475.646117	-1351.730333	1999.980469	-109.339867
29475.646117	-1351.730333	1999.016602	-95.281258
29475.646117	-1351.730333	1998.052734	-95.878632
29475.646117	-1351.730333	1997.087891	61.754513
29475.646117	-1351.730333	1996.123047	-105.607231
29475.646117	-1351.730333	1995.158203	-5.718730
29475.646117	-1351.730333	1994.193359	-101.870224
29475.646117	-1351.730333	1993.228516	165.700546
29475.646117	-1351.730333	1992.262695	56.529644
29475.646117	-1351.730333	1991.297852	132.744614
29475.646117	-1351.730333	1990.332031	-68.554214
29475.646117	-1351.730333	1989.366211	-0.349140
29475.646117	-1351.730333	1988.399414	-68.514336
29475.646117	-1351.730333	1987.433594	-55.294731
29475.646117	-1351.730333	1986.466797	130.778000
29475.646117	-1351.730333	1985.500977	-39.521881
29475.646117	-1351.730333	1984.534180	-22.112236
29475.646117	-1351.730333	1983.567383	-84.033531
29475.646117	-1351.730333	1982.599609	-5.291469
29475.646117	-1351.730333	1981.632813	107.801407
29475.646117	-1351.730333	1980.665039	200.886185
29475.646117	-1351.730333	1979.697266	145.548553
29475.646117	-1351.730333	1978.729492	178.944229
29475.646117	-1351.730333	1977.761719	167.707245
29475.646117	-1351.730333	1976.792969	111.868713
29475.646117	-1351.730333	1975.825195	189.163193
29475.646117	-1351.730333	1974.856445	-44.643608
29475.646117	-1351.730333	1973.887695	71.818214
29475.646117	-1351.730333	1972.918945	40.095879
29475.646117	-1351.730333	1971.949219	62.504047
29475.646117	-1351.730333	1970.980469	77.381424
29475.646117	-1351.730333	1970.010742	106.921135
29475.646117	-1351.730333	1969.041016	96.897263
29475.646117	-1351.730333	1968.071289	-29.056887
29475.646117	-1351.730333	1967.101563	27.262156
29475.646117	-1351.730333	1966.130859	12.020928
29475.646117	-1351.730333	1965.161133	134.624908
29475.646117	-1351.730333	1964.190430	116.730827
29475.646117	-1351.730333	1963.219727	93.839027
29475.646117	-1351.730333	1962.249023	-155.588013
29475.646117	-1351.730333	1961.277344	259.519379
29475.646117	-1351.730333	1960.306641	93.685883
29475.646117	-1351.730333	1959.334961	75.466164
29475.646117	-1351.730333	1958.363281	-46.112431
29475.646117	-1351.730333	1957.391602	-66.863564
29475.646117	-1351.730333	1956.419922	99.224182
29475.646117	-1351.730333	1955.447266	83.280891
29475.646117	-1351.730333	1954.474609	313.104065
29475.646117	-1351.730333	1953.501953	-113.344093
29475.646117	-1351.730333	1952.529297	-26.138678
29475.646117	-1351.730333	1951.556641	105.228134
29475.646117	-1351.730333	1950.583984	89.157585
29475.646117	-1351.730333	1949.610352	31.325720
29475.646117	-1351.730333	1948.636719	152.732590
29475.646117	-1351.730333	1947.663086	94.886482
29475.646117	-1351.730333	1946.689453	115.593430
29475.646117	-1351.730333	1945.715820	114.204247
29475.646117	-1351.730333	1944.741211	71.102394
29475.646117	-1351.730333	1943.767578	116.329811
29475.646117	-1351.730333	1942.792969	-81.254158
29475.646117	-1351.730333	1941.818359	-210.099472
29475.646117	-1351.730333	1940.842773	-34.897312
29475.646117	-1351.730333	1939.868164	-53.379658
29475.646117	-1351.730333	1938.892578	-113.504913
29475.646117	-1351.730333	1937.916992	-26.578957
29475.646117	-1351.730333	1936.941406	-152.792969
29475.646117	-1351.730333	1935.965820	2.731125
29475.646117	-1351.730333	1934.990234	158.219894
29475.646117	-1351.730333	1934.013672	66.387878
29475.646117	-1351.730333	1933.037109	119.044785
29475.646117	-1351.730333	1932.060547	44.444263
29475.646117	-1351.730333	1931.083984	40.865261
29475.646117	-1351.730333	1930.107422	-94.793251
29475.646117	-1351.730333	1929.129883	-10.222334
29475.646117	-1351.730333	1928.153320	-84.610870
29475.646117	-1351.730333	1927.175781	95.360603
29475.646117	-1351.730333	1926.198242	77.280251
29475.646117	-1351.730333	1925.219727	-124.078339
29475.646117	-1351.730333	1924.242188	38.810158
29475.646117	-1351.730333	1923.263672	-67.094200
29475.646117	-1351.730333	1922.285156	-97.187126
29475.646117	-1351.730333	1921.306641	-90.588966
29475.646117	-1351.730333	1920.328125	-59.531479
29475.646117	-1351.730333	1919.349609	22.831644
29475.646117	-1351.730333	1918.370117	22.208336
29475.646117	-1351.730333	1917.391602	24.074890
29475.646117	-1351.730333	1916.412109	-93.586060
29475.646117	-1351.730333	1915.431641	-69.657852
29475.646117	-1351.730333	1914.452148	161.647812
29475.646117	-1351.730333	1913.472656	-155.816849
29475.646117	-1351.730333	1912.492188	-136.627243
29475.646117	-1351.730333	1911.511719	192.213165
29475.646117	-1351.730333	1910.531250	18.865494
29475.646117	-1351.730333	1909.550781	-149.497498
29475.646117	-1351.730333	1908.569336	-137.451263
29475.646117	-1351.730333	1907.588867	47.600952
29475.646117	-1351.730333	1906.607422	-86.437988
29475.646117	-1351.730333	1905.625977	200.900467
29475.646117	-1351.730333	1904.644531	13.409869
29475.646117	-1351.730333	1903.662109	25.639723
29475.646117	-1351.730333	1902.680664	-83.777840
29475.646117	-1351.730333	1901.698242	-98.213203
29475.646117	-1351.730333	1900.715820	65.001884
29475.646117	-1351.730333	1899.733398	147.927307
29475.646117	-1351.730333	1898.750000	92.239494
29475.646117	-1351.730333	1897.767578	-36.329540
29475.646117	-1351.730333	1896.784180	17.517010
29475.646117	-1351.730333	1895.800781	183.193024
29475.646117	-1351.730333	1894.817383	-27.829733
29475.646117	-1351.730333	1893.833984	108.712486
29475.646117	-1351.730333	1892.850586	-99.712540
29475.646117	-1351.730333	1891.866211	-4.426478
29475.646117	-1351.730333	1890.881836	-3.846932
29475.646117	-1351.730333	1889.897461	-5.660531
29475.646117	-1351.730333	1888.913086	-43.851791
29475.646117	-1351.730333	1887.927734	-137.819550
29475.646117	-1351.730333	1886.943359	69.168869
29475.646117	-1351.730333	1885.958008	48.058125
29475.646117	-1351.730333	1884.972656	-67.616699
29475.646117	-1351.730333	1883.987305	-188.070770
29475.646117	-1351.730333	1883.001953	164.363556
29475.646117	-1351.730333	1882.015625	-145.133514
29475.646117	-1351.730333	1881.029297	-69.107201
29475.646117	-1351.730333	1880.042969	157.160797
29475.646117	-1351.730333	1879.056641	68.386826
29475.646117	-1351.730333	1878.070313	-88.163025
29475.646117	-1351.730333	1877.083984	-181.665054
29475.646117	-1351.730333	1876.096680	73.581436
29475.646117	-1351.730333	1875.109375	-24.729834
29475.646117	-1351.730333	1874.122070	114.228676
29475.646117	-1351.730333	1873.134766	-131.659866
29475.646117	-1351.730333	1872.146484	-36.270016
29475.646117	-1351.730333	1871.159180	-35.256943
29475.646117	-1351.730333	1870.170898	-29.402340
29475.646117	-1351.730333	1869.182617	-212.176758
29475.646117	-1351.730333	1868.194336	233.774567
29475.646117	-1351.730333	1867.205078	232.328949
29475.646117	-1351.730333	1866.216797	85.866234
29475.646117	-1351.730333	1865.227539	173.858566
29475.646117	-1351.730333	1864.238281	49.197628
29475.646117	-1351.730333	1863.249023	16.371851
29475.646117	-1351.730333	1862.259766	-14.033631
29475.646117	-1351.730333	1861.269531	184.958984
29475.646117	-1351.730333	1860.279297	-21.732330
29475.646117	-1351.730333	1859.290039	119.233292
29475.646117	-1351.730333	1858.298828	161.178482
29475.646117	-1351.730333	1857.308594	77.621658
29475.646117	-1351.730333	1856.318359	131.588379
29475.646117	-1351.730333	1855.327148	86.618790
29475.646117	-1351.730333	1854.335938	205.629913
29475.646117	-1351.730333	1853.344727	230.538818
29475.646117	-1351.730333	1852.353516	-67.615372
29475.646117	-1351.730333	1851.362305	-11.387280
29475.646117	-1351.730333	1850.370117	-17.864855
29475.646117	-1351.730333	1849.377930	74.408066
29475.646117	-1351.730333	1848.385742	-4.415155
29475.646117	-1351.730333	1847.393555	155.185059
29475.646117	-1351.730333	1846.401367	-44.093983
29475.646117	-1351.730333	1845.408203	108.151772
29475.646117	-1351.730333	1844.415039	118.283897
29475.646117	-1351.730333	1843.421875	75.423523
29475.646117	-1351.730333	1842.428711	-17.994743
29475.646117	-1351.730333	1841.435547	165.226395
29475.646117	-1351.730333	1840.441406	64.510315
29475.646117	-1351.730333	1839.448242	45.545513
29475.646117	-1351.730333	1838.454102	288.601471
29475.646117	-1351.730333	1837.459961	202.182663
29475.646117	-1351.730333	1836.464844	127.753242
29475.646117	-1351.730333	1835.470703	228.710175
29475.646117	-1351.730333	1834.475586	211.842026
29475.646117	-1351.730333	1833.480469	-105.337692
29475.646117	-1351.730333	1832.485352	91.476723
29475.646117	-1351.730333	1831.490234	122.471886
29475.646117	-1351.730333	1830.495117	223.006256
29475.646117	-1351.730333	1829.499023	189.016281
29475.646117	-1351.730333	1828.502930	126.168098
29475.646117	-1351.730333	1827.506836	68.067291
29475.646117	-1351.730333	1826.510742	115.462013
29475.646117	-1351.730333	1825.513672	210.725922
29475.646117	-1351.730333	1824.517578	114.039719
29475.646117	-1351.730333	1823.520508	-47.430504
29475.646117	-1351.730333	1822.523438	138.652786
29475.646117	-1351.730333	1821.526367	262.266327
29475.646117	-1351.730333	1820.529297	206.033325
29475.646117	-1351.730333	1819.531250	125.771332
29475.646117	-1351.730333	1818.533203	131.676682
29475.646117	-1351.730333	1817.535156	29.721235
29475.646117	-1351.730333	1816.537109	265.312439
29475.646117	-1351.730333	1815.539063	-18.760405
29475.646117	-1351.730333	1814.540039	372.126495
29475.646117	-1351.730333	1813.541992	-36.494503
29475.646117	-1351.730333	1812.542969	179.388535
29475.646117	-1351.730333	1811.543945	249.167938
29475.646117	-1351.730333	1810.543945	115.519951
29475.646117	-1351.730333	1809.544922	-32.526203
29475.646117	-1351.730333	1808.544922	218.622742
29475.646117	-1351.730333	1807.544922	20.190645
29475.646117	-1351.730333	1806.544922	223.213989
29475.646117	-1351.730333	1805.544922	124.984177
29475.646117	-1351.730333	1804.544922	103.121712
29475.646117	-1351.730333	1803.543945	38.151779
29475.646117	-1351.730333	1802.542969	190.397476
29475.646117	-1351.730333	1801.541992	96.544800
29475.646117	-1351.730333	1800.541016	-76.170433
29475.646117	-1351.730333	1799.539063	-81.882629
29475.646117	-1351.730333	1798.538086	-35.214199
29475.646117	-1351.730333	1797.536133	68.561569
29475.646117	-1351.730333	1796.534180	131.619171
29475.646117	-1351.730333	1795.532227	180.213074
29475.646117	-1351.730333	1794.529297	235.805023
29475.646117	-1351.730333	1793.527344	40.932144
29475.646117	-1351.730333	1792.524414	5.688164
29475.646117	-1351.730333	1791.521484	17.983644
29475.646117	-1351.730333	1790.518555	1.544832
29475.646117	-1351.730333	1789.514648	25.463795
29475.646117	-1351.730333	1788.511719	49.241920
29475.646117	-1351.730333	1787.507813	-189.077072
29475.646117	-1351.730333	1786.503906	-20.329922
29475.646117	-1351.730333	1785.500000	102.983162
29475.646117	-1351.730333	1784.496094	16.672531
29475.646117	-1351.730333	1783.491211	194.360825
29475.646117	-1351.730333	1782.486328	331.390625
29475.646117	-1351.730333	1781.481445	59.107552
29475.646117	-1351.730333	1780.476563	195.812256
29475.646117	-1351.730333	1779.471680	-93.286362
29475.646117	-1351.730333	1778.465820	38.329250
29475.646117	-1351.730333	1777.460938	41.405956
29475.646117	-1351.730333	1776.455078	-0.832734
29475.646117	-1351.730333	1775.449219	-36.082134
29475.646117	-1351.730333	1774.442383	30.657217
29475.646117	-1351.730333	1773.436523	49.724270
29475.646117	-1351.730333	1772.429688	42.496727
29475.646117	-1351.730333	1771.422852	-76.468102
29475.646117	-1351.730333	1770.416016	-112.471825
29475.646117	-1351.730333	1769.409180	-20.474266
29475.646117	-1351.730333	1768.402344	-113.744766
29475.646117	-1351.730333	1767.394531	34.816811
29475.646117	-1351.730333	1766.386719	19.503035
29475.646117	-1351.730333	1765.378906	115.483101
29475.646117	-1351.730333	1764.371094	180.438934
29475.646117	-1351.730333	1763.362305	-157.780853
29475.646117	-1351.730333	1762.354492	-29.142248
29475.646117	-1351.730333	1761.345703	-59.490414
29475.646117	-1351.730333	1760.336914	35.565960
29475.646117	-1351.730333	1759.328125	-78.023506
29475.646117	-1351.730333	1758.318359	-118.338585
29475.646117	-1351.730333	1757.308594	49.551643
29475.646117	-1351.730333	1756.299805	-62.121441
29475.646117	-1351.730333	1755.290039	-62.693993
29475.646117	-1351.730333	1754.279297	87.995155
29475.646117	-1351.730333	1753.269531	79.949890
29475.646117	-1351.730333	1752.258789	121.395638
29475.646117	-1351.730333	1751.249023	-66.743088
29475.646117	-1351.730333	1750.238281	2.740972
29475.646117	-1351.730333	1749.226563	22.362623
29475.646117	-1351.730333	1748.215820	-40.913513
29475.646117	-1351.730333	1747.204102	18.532003
29475.646117	-1351.730333	1746.193359	-85.239799
29475.646117	-1351.730333	1745.181641	-66.321022
29475.646117	-1351.730333	1744.168945	-118.457481
29475.646117	-1351.730333	1743.157227	-66.834152
29475.646117	-1351.730333	1742.144531	15.269432
29475.646117	-1351.730333	1741.132813	-228.574173
29475.646117	-1351.730333	1740.120117	-170.428299
29475.646117	-1351.730333	1739.106445	-29.910736
29475.646117	-1351.730333	1738.093750	25.458429
29475.646117	-1351.730333	1737.080078	92.406906
29475.646117	-1351.730333	1736.067383	64.835228
29475.646117	-1351.730333	1735.053711	187.980255
29475.646117	-1351.730333	1734.040039	-66.281357
29475.646117	-1351.730333	1733.025391	-240.504517
29475.646117	-1351.730333	1732.011719	6.983227
29475.646117	-1351.730333	1730.997070	-136.918427
29475.646117	-1351.730333	1729.982422	-134.898453
29475.646117	-1351.730333	1728.967773	-57.694946
29475.646117	-1351.730333	1727.952148	0.446018
29475.646117	-1351.730333	1726.937500	-177.020065
29475.646117	-1351.730333	1725.921875	-25.085653
29475.646117	-1351.730333	1724.906250	183.091507
29475.646117	-1351.730333	1723.890625	33.374023
29475.646117	-1351.730333	1722.875000	31.737801
29475.646117	-1351.730333	1721.858398	168.672256
29475.646117	-1351.730333	1720.841797	-157.873138
29475.646117	-1351.730333	1719.825195	-122.405815
29475.646117	-1351.730333	1718.808594	-2.508357
29475.646117	-1351.730333	1717.791992	63.113628
29475.646117	-1351.730333	1716.774414	20.427383
29475.646117	-1351.730333	1715.756836	38.661617
29475.646117	-1351.730333	1714.739258	21.480909
29475.646117	-1351.730333	1713.721680	67.537170
29475.646117	-1351.730333	1712.704102	52.354397
29475.646117	-1351.730333	1711.685547	196.612045
29475.646117	-1351.730333	1710.667969	28.504589
29475.646117	-1351.730333	1709.649414	-13.016010
29475.646117	-1351.730333	1708.630859	137.688446
29475.646117	-1351.730333	1707.611328	159.129868
29475.646117	-1351.730333	1706.592773	-42.384567
29475.646117	-1351.730333	1705.573242	215.561737
29475.646117	-1351.730333	1704.553711	93.457329
29475.646117	-1351.730333	1703.534180	43.889874
29475.646117	-1351.730333	1702.513672	174.595245
29475.646117	-1351.730333	1701.494141	197.324661
29475.646117	-1351.730333	1700.473633	79.305794
29475.646117	-1351.730333	1699.453125	-38.836205
29475.646117	-1351.730333	1698.432617	219.902481
29475.646117	-1351.730333	1697.412109	110.810829
29475.646117	-1351.730333	1696.390625	13.278244
29475.646117	-1351.730333	1695.369141	93.480377
29475.646117	-1351.730333	1694.347656	201.565643
29475.646117	-1351.730333	1693.326172	180.780167
29475.646117	-1351.730333	1692.304688	40.556591
29475.646117	-1351.730333	1691.282227	166.790512
29475.646117	-1351.730333	1690.260742	337.260101
29475.646117	-1351.730333	1689.238281	383.591339
29475.646117	-1351.730333	1688.214844	296.507599
29475.646117	-1351.730333	1687.192383	150.907059
29475.646117	-1351.730333	1686.168945	378.979401
29475.646117	-1351.730333	1685.146484	179.384201
29475.646117	-1351.730333	1684.123047	306.634827
29475.646117	-1351.730333	1683.099609	501.396240
29475.646117	-1351.730333	1682.075195	446.122498
29475.646117	-1351.730333	1681.051758	414.082764
29475.646117	-1351.730333	1680.027344	491.557953
29475.646117	-1351.730333	1679.002930	494.197021
29475.646117	-1351.730333	1677.978516	697.293213
29475.646117	-1351.730333	1676.953125	533.988647
29475.646117	-1351.730333	1675.928711	904.593750
29475.646117	-1351.730333	1674.903320	752.680359
29475.646117	-1351.730333	1673.877930	882.713562
29475.646117	-1351.730333	1672.852539	1129.075562
29475.646117	-1351.730333	1671.826172	974.428345
29475.646117	-1351.730333	1670.800781	1232.046753
29475.646117	-1351.730333	1669.774414	1193.615601
29475.646117	-1351.730333	1668.748047	1138.762817
29475.646117	-1351.730333	1667.721680	1221.157837
29475.646117	-1351.730333	1666.694336	1198.615479
29475.646117	-1351.730333	1665.667969	1392.408936
29475.646117	-1351.730333	1664.640625	1327.698364
29475.646117	-1351.730333	1663.613281	1288.473755
29475.646117	-1351.730333	1662.585938	1339.846069
29475.646117	-1351.730333	1661.557617	1270.123779
29475.646117	-1351.730333	1660.530273	1525.829224
29475.646117	-1351.730333	1659.501953	1448.876587
29475.646117	-1351.730333	1658.473633	1474.092285
29475.646117	-1351.730333	1657.444336	1559.565918
29475.646117	-1351.730333	1656.416016	1702.995361
29475.646117	-1351.730333	1655.386719	1704.537109
29475.646117	-1351.730333	1654.358398	1450.537354
29475.646117	-1351.730333	1653.328125	1677.091064
29475.646117	-1351.730333	1652.298828	1573.833130
29475.646117	-1351.730333	1651.269531	1530.849609
29475.646117	-1351.730333	1650.239258	1580.566406
29475.646117	-1351.730333	1649.208984	1704.397949
29475.646117	-1351.730333	1648.178711	1695.858521
29475.646117	-1351.730333	1647.148438	2141.773193
29475.646117	-1351.730333	1646.117188	2167.699219
29475.646117	-1351.730333	1645.086914	2341.911133
29475.646117	-1351.730333	1644.055664	2548.377930
29475.646117	-1351.730333	1643.024414	2599.403564
29475.646117	-1351.730333	1641.992188	2719.794922
29475.646117	-1351.730333	1640.960938	2793.744141
29475.646117	-1351.730333	1639.928711	2909.231201
29475.646117	-1351.730333	1638.896484	3057.002197
29475.646117	-1351.730333	1637.864258	3341.218750
29475.646117	-1351.730333	1636.832031	3308.130859
29475.646117	-1351.730333	1635.798828	3497.106445
29475.646117	-1351.730333	1634.766602	3743.797852
29475.646117	-1351.730333	1633.733398	3900.064453
29475.646117	-1351.730333	1632.699219	3963.646240
29475.646117	-1351.730333	1631.666016	4177.463379
29475.646117	-1351.730333	1630.632813	4393.434082
29475.646117	-1351.730333	1629.598633	4562.987305
29475.646117	-1351.730333	1628.564453	4589.114746
29475.646117	-1351.730333	1627.530273	4622.094727
29475.646117	-1351.730333	1626.495117	4913.706055
29475.646117	-1351.730333	1625.460938	5429.208984
29475.646117	-1351.730333	1624.425781	5032.252441
29475.646117	-1351.730333	1623.390625	5420.389648
29475.646117	-1351.730333	1622.355469	5595.946289
29475.646117	-1351.730333	1621.319336	5824.426270
29475.646117	-1351.730333	1620.284180	5648.981934
29475.646117	-1351.730333	1619.248047	5701.918457
29475.646117	-1351.730333	1618.211914	5817.059570
29475.646117	-1351.730333	1617.174805	5876.727539
29475.646117	-1351.730333	1616.138672	6321.403320
29475.646117	-1351.730333	1615.101563	6249.455566
29475.646117	-1351.730333	1614.065430	6112.986816
29475.646117	-1351.730333	1613.027344	6220.730469
29475.646117	-1351.730333	1611.990234	6296.165527
29475.646117	-1351.730333	1610.953125	6318.552246
29475.646117	-1351.730333	1609.915039	6218.806152
29475.646117	-1351.730333	1608.876953	6192.745605
29475.646117	-1351.730333	1607.838867	6238.025391
29475.646117	-1351.730333	1606.800781	6073.810059
29475.646117	-1351.730333	1605.761719	6390.549805
29475.646117	-1351.730333	1604.723633	6477.093262
29475.646117	-1351.730333	1603.684570	6259.908691
29475.646117	-1351.730333	1602.644531	6337.139160
29475.646117	-1351.730333	1601.605469	6133.820313
29475.646117	-1351.730333	1600.566406	6436.334473
29475.646117	-1351.730333	1599.526367	6580.085938
29475.646117	-1351.730333	1598.486328	6397.442871
29475.646117	-1351.730333	1597.446289	6249.322266
29475.646117	-1351.730333	1596.405273	6239.051270
29475.646117	-1351.730333	1595.365234	6718.004883
29475.646117	-1351.730333	1594.324219	6806.372559
29475.646117	-1351.730333	1593.283203	6949.801270
29475.646117	-1351.730333	1592.242188	6964.630371
29475.646117	-1351.730333	1591.200195	7009.258301
29475.646117	-1351.730333	1590.159180	7138.795898
29475.646117	-1351.730333	1589.117188	6942.507813
29475.646117	-1351.730333	1588.075195	7487.126465
29475.646117	-1351.730333	1587.032227	7295.418457
29475.646117	-1351.730333	1585.990234	7450.020508
29475.646117	-1351.730333	1584.947266	7636.637207
29475.646117	-1351.730333	1583.904297	7814.027344
29475.646117	-1351.730333	1582.861328	7425.407227
29475.646117	-1351.730333	1581.818359	7825.021484
29475.646117	-1351.730333	1580.775391	7422.848633
29475.646117	-1351.730333	1579.731445	7339.134766
29475.646117	-1351.730333	1578.687500	7264.638184
29475.646117	-1351.730333	1577.643555	6933.822266
29475.646117	-1351.730333	1576.598633	6902.946289
29475.646117	-1351.730333	1575.554688	6792.057129
29475.646117	-1351.730333	1574.509766	6628.598633
29475.646117	-1351.730333	1573.464844	6547.583008
29475.646117	-1351.730333	1572.419922	6720.476563
29475.646117	-1351.730333	1571.374023	6463.471680
29475.646117	-1351.730333	1570.329102	6382.657227
29475.646117	-1351.730333	1569.283203	6304.174805
29475.646117	-1351.730333	1568.237305	6212.059082
29475.646117	-1351.730333	1567.191406	5864.154785
29475.646117	-1351.730333	1566.144531	5648.887207
29475.646117	-1351.730333	1565.098633	5342.439941
29475.646117	-1351.730333	1564.051758	5305.563477
29475.646117	-1351.730333	1563.004883	5152.333984
29475.646117	-1351.730333	1561.957031	4907.900879
29475.646117	-1351.730333	1560.910156	4663.654785
29475.646117	-1351.730333	1559.862305	4633.998047
29475.646117	-1351.730333	1558.814453	4155.056641
29475.646117	-1351.730333	1557.766602	4166.692871
29475.646117	-1351.730333	1556.718750	3968.624268
29475.646117	-1351.730333	1555.669922	3624.776855
29475.646117	-1351.730333	1554.621094	3910.207764
29475.646117	-1351.730333	1553.573242	3632.769043
29475.646117	-1351.730333	1552.523438	3653.922363
29475.646117	-1351.730333	1551.474609	3404.108398
29475.646117	-1351.730333	1550.424805	3088.400879
29475.646117	-1351.730333	1549.375000	3287.501221
29475.646117	-1351.730333	1548.325195	3243.018799
29475.646117	-1351.730333	1547.275391	3396.662598
29475.646117	-1351.730333	1546.225586	3081.551758
29475.646117	-1351.730333	1545.174805	3073.782227
29475.646117	-1351.730333	1544.124023	3238.990479
29475.646117	-1351.730333	1543.073242	3215.461670
29475.646117	-1351.730333	1542.022461	3223.873535
29475.646117	-1351.730333	1540.970703	3211.896484
29475.646117	-1351.730333	1539.919922	3122.769531
29475.646117	-1351.730333	1538.868164	2938.310303
29475.646117	-1351.730333	1537.815430	3356.099365
29475.646117	-1351.730333	1536.763672	3355.880615
29475.646117	-1351.730333	1535.710938	3003.716553
29475.646117	-1351.730333	1534.659180	3162.737549
29475.646117	-1351.730333	1533.606445	3144.703857
29475.646117	-1351.730333	1532.552734	3060.940186
29475.646117	-1351.730333	1531.500000	3390.378418
29475.646117	-1351.730333	1530.446289	3402.131104
29475.646117	-1351.730333	1529.393555	3418.561768
29475.646117	-1351.730333	1528.338867	3482.686279
29475.646117	-1351.730333	1527.285156	3379.136719
29475.646117	-1351.730333	1526.231445	3210.004639
29475.646117	-1351.730333	1525.176758	2975.310303
29475.646117	-1351.730333	1524.122070	3132.896729
29475.646117	-1351.730333	1523.067383	2576.829834
29475.646117	-1351.730333	1522.012695	2519.490479
29475.646117	-1351.730333	1520.957031	2251.650879
29475.646117	-1351.730333	1519.901367	2051.987793
29475.646117	-1351.730333	1518.845703	2085.733154
29475.646117	-1351.730333	1517.790039	1956.630737
29475.646117	-1351.730333	1516.734375	1952.192017
29475.646117	-1351.730333	1515.677734	1807.592529
29475.646117	-1351.730333	1514.621094	1807.974731
29475.646117	-1351.730333	1513.564453	1772.318726
29475.646117	-1351.730333	1512.507813	1280.041992
29475.646117	-1351.730333	1511.450195	1249.301147
29475.646117	-1351.730333	1510.393555	1399.582886
29475.646117	-1351.730333	1509.335938	1511.517090
29475.646117	-1351.730333	1508.278320	1275.596924
29475.646117	-1351.730333	1507.219727	999.243103
29475.646117	-1351.730333	1506.162109	960.335571
29475.646117	-1351.730333	1505.103516	768.025024
29475.646117	-1351.730333	1504.044922	670.778381
29475.646117	-1351.730333	1502.986328	533.104980
29475.646117	-1351.730333	1501.926758	650.650818
29475.646117	-1351.730333	1500.868164	641.979919
29475.646117	-1351.730333	1499.808594	728.211121
29475.646117	-1351.730333	1498.749023	338.669922
29475.646117	-1351.730333	1497.688477	328.280426
29475.646117	-1351.730333	1496.628906	365.437103
29475.646117	-1351.730333	1495.568359	111.947739
29475.646117	-1351.730333	1494.507813	241.863647
29475.646117	-1351.730333	1493.447266	216.432251
29475.646117	-1351.730333	1492.386719	380.424377
29475.646117	-1351.730333	1491.325195	103.050156
29475.646117	-1351.730333	1490.263672	499.289856
29475.646117	-1351.730333	1489.202148	530.818604
29475.646117	-1351.730333	1488.140625	413.952026
29475.646117	-1351.730333	1487.079102	223.050797
29475.646117	-1351.730333	1486.016602	376.661713
29475.646117	-1351.730333	1484.954102	136.707520
29475.646117	-1351.730333	1483.891602	691.013550
29475.646117	-1351.730333	1482.829102	372.768555
29475.646117	-1351.730333	1481.765625	356.100098
29475.646117	-1351.730333	1480.702148	371.103882
29475.646117	-1351.730333	1479.638672	132.359161
29475.646117	-1351.730333	1478.575195	197.224457
29475.646117	-1351.730333	1477.511719	217.339539
29475.646117	-1351.730333	1476.447266	376.793793
29475.646117	-1351.730333	1475.382813	347.931915
29475.646117	-1351.730333	1474.318359	310.112396
29475.646117	-1351.730333	1473.253906	234.492447
29475.646117	-1351.730333	1472.189453	-24.794090
29475.646117	-1351.730333	1471.124023	43.659477
29475.646117	-1351.730333	1470.058594	154.796417
29475.646117	-1351.730333	1468.993164	183.109863
29475.646117	-1351.730333	1467.927734	-27.817230
29475.646117	-1351.730333	1466.861328	-55.145798
29475.646117	-1351.730333	1465.794922	-138.197098
29475.646117	-1351.730333	1464.728516	74.697731
29475.646117	-1351.730333	1463.662109	-121.901894
29475.646117	-1351.730333	1462.594727	81.982521
29475.646117	-1351.730333	1461.528320	-32.882587
29475.646117	-1351.730333	1460.460938	16.847740
29475.646117	-1351.730333	1459.393555	-119.904922
29475.646117	-1351.730333	1458.326172	310.123871
29475.646117	-1351.730333	1457.257813	-5.391181
29475.646117	-1351.730333	1456.189453	398.345856
29475.646117	-1351.730333	1455.121094	447.333740
29475.646117	-1351.730333	1454.052734	347.051666
29475.646117	-1351.730333	1452.984375	313.750305
29475.646117	-1351.730333	1451.915039	509.886627
29475.646117	-1351.730333	1450.845703	588.634277
29475.646117	-1351.730333	1449.776367	275.622772
29475.646117	-1351.730333	1448.707031	270.815613
29475.646117	-1351.730333	1447.636719	302.604156
29475.646117	-1351.730333	1446.567383	239.219376
29475.646117	-1351.730333	1445.497070	122.929848
29475.646117	-1351.730333	1444.425781	-216.562103
29475.646117	-1351.730333	1443.355469	226.391220
29475.646117	-1351.730333	1442.285156	222.216599
29475.646117	-1351.730333	1441.213867	75.951057
29475.646117	-1351.730333	1440.142578	41.764015
29475.646117	-1351.730333	1439.070313	24.358885
29475.646117	-1351.730333	1437.999023	180.125259
29475.646117	-1351.730333	1436.926758	66.204102
29475.646117	-1351.730333	1435.854492	-20.212673
29475.646117	-1351.730333	1434.782227	-105.804375
29475.646117	-1351.730333	1433.709961	84.683228
29475.646117	-1351.730333	1432.636719	51.862968
29475.646117	-1351.730333	1431.563477	-47.165970
29475.646117	-1351.730333	1430.490234	133.915054
29475.646117	-1351.730333	1429.416992	-79.823372
29475.646117	-1351.730333	1428.343750	123.218605
29475.646117	-1351.730333	1427.269531	11.969264
29475.646117	-1351.730333	1426.195313	75.489494
29475.646117	-1351.730333	1425.121094	-32.146282
29475.646117	-1351.730333	1424.046875	25.001551
29475.646117	-1351.730333	1422.971680	210.332779
29475.646117	-1351.730333	1421.896484	85.608528
29475.646117	-1351.730333	1420.821289	165.871872
29475.646117	-1351.730333	1419.746094	-47.714970
29475.646117	-1351.730333	1418.669922	72.320862
29475.646117	-1351.730333	1417.594727	338.491119
29475.646117	-1351.730333	1416.518555	170.102966
29475.646117	-1351.730333	1415.442383	-214.156189
29475.646117	-1351.730333	1414.365234	-149.582214
29475.646117	-1351.730333	1413.289063	-33.573391
29475.646117	-1351.730333	1412.211914	-48.850166
29475.646117	-1351.730333	1411.134766	91.344223
29475.646117	-1351.730333	1410.057617	-61.972710
29475.646117	-1351.730333	1408.979492	-26.037214
29475.646117	-1351.730333	1407.902344	-22.956919
29475.646117	-1351.730333	1406.824219	20.862362
29475.646117	-1351.730333	1405.746094	-118.538658
29475.646117	-1351.730333	1404.666992	206.999115
29475.646117	-1351.730333	1403.588867	243.583008
29475.646117	-1351.730333	1402.509766	236.500320
29475.646117	-1351.730333	1401.430664	317.009521
29475.646117	-1351.730333	1400.351563	345.438568
29475.646117	-1351.730333	1399.271484	393.508057
29475.646117	-1351.730333	1398.192383	287.201965
29475.646117	-1351.730333	1397.112305	256.899506
29475.646117	-1351.730333	1396.031250	236.517090
29475.646117	-1351.730333	1394.951172	266.506012
29475.646117	-1351.730333	1393.871094	574.300171
29475.646117	-1351.730333	1392.790039	261.486633
29475.646117	-1351.730333	1391.708984	250.927307
29475.646117	-1351.730333	1390.626953	617.211609
29475.646117	-1351.730333	1389.545898	393.089325
29475.646117	-1351.730333	1388.463867	626.374756
29475.646117	-1351.730333	1387.381836	686.395569
29475.646117	-1351.730333	1386.299805	407.748962
29475.646117	-1351.730333	1385.217773	467.534058
29475.646117	-1351.730333	1384.134766	937.005615
29475.646117	-1351.730333	1383.051758	973.890686
29475.646117	-1351.730333	1381.968750	836.235718
29475.646117	-1351.730333	1380.885742	846.901428
29475.646117	-1351.730333	1379.802734	958.977173
29475.646117	-1351.730333	1378.718750	1131.177612
29475.646117	-1351.730333	1377.634766	1316.505981
29475.646117	-1351.730333	1376.550781	1339.143433
29475.646117	-1351.730333	1375.465820	1359.600098
29475.646117	-1351.730333	1374.381836	1241.832520
29475.646117	-1351.730333	1373.296875	1258.918335
29475.646117	-1351.730333	1372.211914	1425.348267
29475.646117	-1351.730333	1371.126953	1337.847900
29475.646117	-1351.730333	1370.041016	1395.748901
29475.646117	-1351.730333	1368.955078	1346.970703
29475.646117	-1351.730333	1367.869141	1793.750854
29475.646117	-1351.730333	1366.783203	1828.742798
29475.646117	-1351.730333	1365.697266	1927.078613
29475.646117	-1351.730333	1364.610352	1841.739258
29475.646117	-1351.730333	1363.523438	1888.902832
29475.646117	-1351.730333	1362.436523	1903.421997
29475.646117	-1351.730333	1361.349609	2208.620117
29475.646117	-1351.730333	1360.261719	2168.217041
29475.646117	-1351.730333	1359.174805	2257.216064
29475.646117	-1351.730333	1358.086914	2328.751221
29475.646117	-1351.730333	1356.998047	1997.753906
29475.646117	-1351.730333	1355.910156	1872.188965
29475.646117	-1351.730333	1354.821289	2212.580322
29475.646117	-1351.730333	1353.732422	1696.065308
29475.646117	-1351.730333	1352.643555	1684.587891
29475.646117	-1351.730333	1351.554688	1929.850586
29475.646117	-1351.730333	1350.464844	1715.107910
29475.646117	-1351.730333	1349.375000	1797.144531
29475.646117	-1351.730333	1348.285156	1662.445923
29475.646117	-1351.730333	1347.195313	1893.218018
29475.646117	-1351.730333	1346.105469	1954.022217
29475.646117	-1351.730333	1345.014648	2028.522461
29475.646117	-1351.730333	1343.923828	1992.680054
29475.646117	-1351.730333	1342.833008	2313.054443
29475.646117	-1351.730333	1341.741211	1932.292725
29475.646117	-1351.730333	1340.650391	2476.636719
29475.646117	-1351.730333	1339.558594	2631.141357
29475.646117	-1351.730333	1338.466797	2542.386230
29475.646117	-1351.730333	1337.374023	2281.723633
29475.646117	-1351.730333	1336.282227	2254.125000
29475.646117	-1351.730333	1335.189453	2329.640625
29475.646117	-1351.730333	1334.096680	2388.425049
29475.646117	-1351.730333	1333.003906	2279.459961
29475.646117	-1351.730333	1331.910156	2334.283691
29475.646117	-1351.730333	1330.817383	2582.784180
29475.646117	-1351.730333	1329.723633	2496.058105
29475.646117	-1351.730333	1328.629883	2424.419434
29475.646117	-1351.730333	1327.535156	2483.942871
29475.646117	-1351.730333	1326.441406	2649.180420
29475.646117	-1351.730333	1325.346680	2289.609375
29475.646117	-1351.730333	1324.251953	2167.029053
29475.646117	-1351.730333	1323.156250	2067.486084
29475.646117	-1351.730333	1322.061523	1941.661011
29475.646117	-1351.730333	1320.965820	2248.839600
29475.646117	-1351.730333	1319.870117	2084.885010
29475.646117	-1351.730333	1318.774414	2275.729248
29475.646117	-1351.730333	1317.678711	2201.226807
29475.646117	-1351.730333	1316.582031	2223.145020
29475.646117	-1351.730333	1315.485352	2204.110596
29475.646117	-1351.730333	1314.388672	2283.586914
29475.646117	-1351.730333	1313.291016	2005.550781
29475.646117	-1351.730333	1312.194336	2175.450439
29475.646117	-1351.730333	1311.096680	2037.768799
29475.646117	-1351.730333	1309.999023	2162.926514
29475.646117	-1351.730333	1308.901367	2453.273682
29475.646117	-1351.730333	1307.802734	2264.295654
29475.646117	-1351.730333	1306.705078	2565.048584
29475.646117	-1351.730333	1305.606445	2342.778564
29475.646117	-1351.730333	1304.506836	2310.711182
29475.646117	-1351.730333	1303.408203	2309.526123
29475.646117	-1351.730333	1302.308594	2325.484375
29475.646117	-1351.730333	1301.208984	2250.696533
29475.646117	-1351.730333	1300.109375	2275.873779
29475.646117	-1351.730333	1299.009766	2301.594727
29475.646117	-1351.730333	1297.909180	2222.469482
29475.646117	-1351.730333	1296.808594	2218.240723
29475.646117	-1351.730333	1295.708008	2233.857666
29475.646117	-1351.730333	1294.607422	2081.856445
29475.646117	-1351.730333	1293.506836	2237.936279
29475.646117	-1351.730333	1292.405273	2552.202148
29475.646117	-1351.730333	1291.303711	2454.997559
29475.646117	-1351.730333	1290.202148	2286.260010
29475.646117	-1351.730333	1289.099609	2433.111084
29475.646117	-1351.730333	1287.998047	2214.453857
29475.646117	-1351.730333	1286.895508	2505.864502
29475.646117	-1351.730333	1285.792969	2147.953125
29475.646117	-1351.730333	1284.689453	1957.339111
29475.646117	-1351.730333	1283.586914	1921.317871
29475.646117	-1351.730333	1282.483398	1892.546021
29475.646117	-1351.730333	1281.379883	1813.664673
29475.646117	-1351.730333	1280.276367	1774.716919
29475.646117	-1351.730333	1279.171875	1503.213501
29475.646117	-1351.730333	1278.067383	1448.623169
29475.646117	-1351.730333	1276.962891	1397.293701
29475.646117	-1351.730333	1275.858398	1348.944336
29475.646117	-1351.730333	1274.753906	1235.317261
29475.646117	-1351.730333	1273.648438	1447.359497
29475.646117	-1351.730333	1272.542969	1406.882813
29475.646117	-1351.730333	1271.437500	1404.149170
29475.646117	-1351.730333	1270.331055	1358.451294
29475.646117	-1351.730333	1269.225586	1540.179077
29475.646117	-1351.730333	1268.119141	1456.951294
29475.646117	-1351.730333	1267.012695	1580.918823
29475.646117	-1351.730333	1265.906250	1353.504028
29475.646117	-1351.730333	1264.798828	1346.587769
29475.646117	-1351.730333	1263.691406	1126.262451
29475.646117	-1351.730333	1262.583984	1524.682495
29475.646117	-1351.730333	1261.476563	1508.066895
29475.646117	-1351.730333	1260.368164	1441.322632
29475.646117	-1351.730333	1259.260742	1362.771362
29475.646117	-1351.730333	1258.152344	1133.746338
29475.646117	-1351.730333	1257.043945	1458.555908
29475.646117	-1351.730333	1255.934570	1385.187378
29475.646117	-1351.730333	1254.825195	1305.054443
29475.646117	-1351.730333	1253.716797	1406.501953
29475.646117	-1351.730333	1252.606445	1205.494141
29475.646117	-1351.730333	1251.497070	1522.473511
29475.646117	-1351.730333	1250.387695	1189.911865
29475.646117	-1351.730333	1249.277344	1156.988647
29475.646117	-1351.730333	1248.166992	1134.978149
29475.646117	-1351.730333	1247.055664	1264.815552
29475.646117	-1351.730333	1245.945313	1180.578491
29475.646117	-1351.730333	1244.833984	1500.664673
29475.646117	-1351.730333	1243.722656	1294.514160
29475.646117	-1351.730333	1242.611328	1359.308716
29475.646117	-1351.730333	1241.499023	1293.107056
29475.646117	-1351.730333	1240.387695	1339.036865
29475.646117	-1351.730333	1239.275391	1347.551025
29475.646117	-1351.730333	1238.162109	1233.597168
29475.646117	-1351.730333	1237.049805	1195.439331
29475.646117	-1351.730333	1235.936523	1167.151978
29475.646117	-1351.730333	1234.823242	1071.494873
29475.646117	-1351.730333	1233.709961	1069.095459
29475.646117	-1351.730333	1232.596680	1074.859985
29475.646117	-1351.730333	1231.482422	959.500122
29475.646117	-1351.730333	1230.369141	906.019165
29475.646117	-1351.730333	1229.253906	954.457642
29475.646117	-1351.730333	1228.139648	1046.111450
29475.646117	-1351.730333	1227.025391	1012.672546
29475.646117	-1351.730333	1225.910156	932.729736
29475.646117	-1351.730333	1224.794922	795.938904
29475.646117	-1351.730333	1223.679688	856.602966
29475.646117	-1351.730333	1222.563477	827.818665
29475.646117	-1351.730333	1221.447266	841.321838
29475.646117	-1351.730333	1220.331055	873.263062
29475.646117	-1351.730333	1219.214844	967.078186
29475.646117	-1351.730333	1218.098633	1011.318176
29475.646117	-1351.730333	1216.981445	833.818176
29475.646117	-1351.730333	1215.864258	1109.057983
29475.646117	-1351.730333	1214.747070	1257.213745
29475.646117	-1351.730333	1213.629883	1067.500366
29475.646117	-1351.730333	1212.511719	1014.712280
29475.646117	-1351.730333	1211.393555	1052.340820
29475.646117	-1351.730333	1210.275391	1135.989746
29475.646117	-1351.730333	1209.157227	967.192627
29475.646117	-1351.730333	1208.038086	957.106995
29475.646117	-1351.730333	1206.918945	1065.245728
29475.646117	-1351.730333	1205.799805	1172.187256
29475.646117	-1351.730333	1204.680664	1018.785278
29475.646117	-1351.730333	1203.560547	1001.174194
29475.646117	-1351.730333	1202.441406	1040.547119
29475.646117	-1351.730333	1201.321289	930.838440
29475.646117	-1351.730333	1200.200195	954.402039
29475.646117	-1351.730333	1199.080078	1015.989563
29475.646117	-1351.730333	1197.958984	1147.574585
29475.646117	-1351.730333	1196.837891	1208.169800
29475.646117	-1351.730333	1195.716797	1312.062622
29475.646117	-1351.730333	1194.594727	1158.912964
29475.646117	-1351.730333	1193.473633	1225.829712
29475.646117	-1351.730333	1192.351563	931.308167
29475.646117	-1351.730333	1191.229492	1109.601196
29475.646117	-1351.730333	1190.106445	1147.563843
29475.646117	-1351.730333	1188.984375	921.410889
29475.646117	-1351.730333	1187.861328	1060.662720
29475.646117	-1351.730333	1186.738281	1097.062500
29475.646117	-1351.730333	1185.614258	914.627686
29475.646117	-1351.730333	1184.491211	1135.477051
29475.646117	-1351.730333	1183.367188	1186.918091
29475.646117	-1351.730333	1182.243164	1003.041992
29475.646117	-1351.730333	1181.119141	1237.313843
29475.646117	-1351.730333	1179.994141	1003.471619
29475.646117	-1351.730333	1178.869141	985.832886
29475.646117	-1351.730333	1177.744141	1128.542480
29475.646117	-1351.730333	1176.619141	1065.056030
29475.646117	-1351.730333	1175.493164	1230.535278
29475.646117	-1351.730333	1174.368164	1066.702881
29475.646117	-1351.730333	1173.242188	1177.620239
29475.646117	-1351.730333	1172.115234	1162.336548
29475.646117	-1351.730333	1170.989258	1188.258301
29475.646117	-1351.730333	1169.862305	1201.761108
29475.646117	-1351.730333	1168.735352	1308.801514
29475.646117	-1351.730333	1167.608398	1254.280396
29475.646117	-1351.730333	1166.481445	1257.871948
29475.646117	-1351.730333	1165.353516	1447.360962
29475.646117	-1351.730333	1164.225586	1217.806519
29475.646117	-1351.730333	1163.097656	1239.460083
29475.646117	-1351.730333	1161.968750	1301.682495
29475.646117	-1351.730333	1160.840820	1258.401123
29475.646117	-1351.730333	1159.711914	1425.126099
29475.646117	-1351.730333	1158.583008	1384.101440
29475.646117	-1351.730333	1157.453125	1368.617188
29475.646117	-1351.730333	1156.324219	1186.292847
29475.646117	-1351.730333	1155.194336	1241.606934
29475.646117	-1351.730333	1154.064453	1088.763306
29475.646117	-1351.730333	1152.933594	1072.489868
29475.646117	-1351.730333	1151.803711	1283.882690
29475.646117	-1351.730333	1150.672852	897.189514
29475.646117	-1351.730333	1149.541992	943.891052
29475.646117	-1351.730333	1148.411133	711.881409
29475.646117	-1351.730333	1147.279297	672.053223
29475.646117	-1351.730333	1146.147461	706.027832
29475.646117	-1351.730333	1145.015625	666.692688
29475.646117	-1351.730333	1143.883789	758.965393
29475.646117	-1351.730333	1142.750977	729.125305
29475.646117	-1351.730333	1141.619141	798.287842
29475.646117	-1351.730333	1140.486328	815.304688
29475.646117	-1351.730333	1139.352539	611.092468
29475.646117	-1351.730333	1138.219727	1015.025818
29475.646117	-1351.730333	1137.085938	739.482483
29475.646117	-1351.730333	1135.952148	644.343140
29475.646117	-1351.730333	1134.818359	734.982544
29475.646117	-1351.730333	1133.683594	670.243042
29475.646117	-1351.730333	1132.549805	790.175781
29475.646117	-1351.730333	1131.415039	666.563171
29475.646117	-1351.730333	1130.279297	840.394104
29475.646117	-1351.730333	1129.144531	841.844299
29475.646117	-1351.730333	1128.008789	762.789429
29475.646117	-1351.730333	1126.873047	673.514099
29475.646117	-1351.730333	1125.737305	516.042603
29475.646117	-1351.730333	1124.601563	379.783173
29475.646117	-1351.730333	1123.464844	556.957458
29475.646117	-1351.730333	1122.328125	466.026093
29475.646117	-1351.730333	1121.191406	459.648254
29475.646117	-1351.730333	1120.054688	425.792664
29475.646117	-1351.730333	1118.916992	259.404388
29475.646117	-1351.730333	1117.779297	448.072388
29475.646117	-1351.730333	1116.641602	437.117004
29475.646117	-1351.730333	1115.503906	500.884918
29475.646117	-1351.730333	1114.365234	305.749695
29475.646117	-1351.730333	1113.226563	365.371887
29475.646117	-1351.730333	1112.087891	440.941986
29475.646117	-1351.730333	1110.949219	342.711029
29475.646117	-1351.730333	1109.809570	391.723267
29475.646117	-1351.730333	1108.669922	339.282135
29475.646117	-1351.730333	1107.530273	193.869247
29475.646117	-1351.730333	1106.390625	361.777679
29475.646117	-1351.730333	1105.250000	246.461472
29475.646117	-1351.730333	1104.109375	183.276306
29475.646117	-1351.730333	1102.968750	-2.104828
29475.646117	-1351.730333	1101.828125	213.212799
29475.646117	-1351.730333	1100.686523	114.257164
29475.646117	-1351.730333	1099.544922	74.896034
29475.646117	-1351.730333	1098.403320	153.806366
29475.646117	-1351.730333	1097.261719	243.870255
29475.646117	-1351.730333	1096.120117	287.315460
29475.646117	-1351.730333	1094.977539	127.572937
29475.646117	-1351.730333	1093.834961	13.738479
29475.646117	-1351.730333	1092.691406	137.187210
29475.646117	-1351.730333	1091.548828	19.908894
29475.646117	-1351.730333	1090.405273	155.714005
29475.646117	-1351.730333	1089.261719	74.345222
29475.646117	-1351.730333	1088.118164	0.721810
29475.646117	-1351.730333	1086.973633	59.232197
29475.646117	-1351.730333	1085.829102	-34.585716
29475.646117	-1351.730333	1084.684570	-127.721786
29475.646117	-1351.730333	1083.540039	21.921062
29475.646117	-1351.730333	1082.395508	-51.721218
29475.646117	-1351.730333	1081.250000	71.446426
29475.646117	-1351.730333	1080.104492	-36.481915
29475.646117	-1351.730333	1078.958984	118.039131
29475.646117	-1351.730333	1077.812500	168.928589
29475.646117	-1351.730333	1076.666016	94.787697
29475.646117	-1351.730333	1075.519531	27.476337
29475.646117	-1351.730333	1074.373047	-44.118279
29475.646117	-1351.730333	1073.226563	113.270973
29475.646117	-1351.730333	1072.079102	-12.465634
29475.646117	-1351.730333	1070.931641	68.214134
29475.646117	-1351.730333	1069.784180	-8.259469
29475.646117	-1351.730333	1068.635742	-145.884125
29475.646117	-1351.730333	1067.487305	-119.155350
29475.646117	-1351.730333	1066.338867	-98.955353
29475.646117	-1351.730333	1065.190430	-32.022789
29475.646117	-1351.730333	1064.041992	-7.866797
29475.646117	-1351.730333	1062.892578	37.960800
29475.646117	-1351.730333	1061.743164	-44.741001
29475.646117	-1351.730333	1060.593750	-23.024267
29475.646117	-1351.730333	1059.443359	106.516914
29475.646117	-1351.730333	1058.292969	42.883068
29475.646117	-1351.730333	1057.142578	-59.571598
29475.646117	-1351.730333	1055.992188	-200.635422
29475.646117	-1351.730333	1054.841797	-114.041092
29475.646117	-1351.730333	1053.690430	-23.816710
29475.646117	-1351.730333	1052.539063	-25.554941
29475.646117	-1351.730333	1051.387695	-218.535294
29475.646117	-1351.730333	1050.235352	-18.096704
29475.646117	-1351.730333	1049.083984	-85.586395
29475.646117	-1351.730333	1047.931641	57.814960
29475.646117	-1351.730333	1046.778320	-33.384335
29475.646117	-1351.730333	1045.625977	-30.786686
29475.646117	-1351.730333	1044.472656	-95.446411
29475.646117	-1351.730333	1043.319336	-70.555840
29475.646117	-1351.730333	1042.166016	-20.277172
29475.646117	-1351.730333	1041.012695	-10.653477
29475.646117	-1351.730333	1039.858398	-47.303814
29475.646117	-1351.730333	1038.704102	-15.360461
29475.646117	-1351.730333	1037.549805	34.550549
29475.646117	-1351.730333	1036.394531	49.367500
29475.646117	-1351.730333	1035.239258	-26.371616
29475.646117	-1351.730333	1034.083984	-23.462713
29475.646117	-1351.730333	1032.928711	99.304161
29475.646117	-1351.730333	1031.773438	-177.836609
29475.646117	-1351.730333	1030.617188	123.243202
29475.646117	-1351.730333	1029.460938	-55.302563
29475.646117	-1351.730333	1028.304688	164.231201
29475.646117	-1351.730333	1027.147461	-13.974803
29475.646117	-1351.730333	1025.991211	-7.338548
29475.646117	-1351.730333	1024.833984	203.781494
29475.646117	-1351.730333	1023.675781	222.392929
29475.646117	-1351.730333	1022.518555	243.537415
29475.646117	-1351.730333	1021.360352	-38.527885
29475.646117	-1351.730333	1020.202148	59.231655
29475.646117	-1351.730333	1019.043945	2.131606
29475.646117	-1351.730333	1017.884766	75.585312
29475.646117	-1351.730333	1016.726563	70.806465
29475.646117	-1351.730333	1015.567383	80.864693
29475.646117	-1351.730333	1014.407227	177.410248
29475.646117	-1351.730333	1013.248047	-93.104240
29475.646117	-1351.730333	1012.087891	282.483032
29475.646117	-1351.730333	1010.927734	85.589500
29475.646117	-1351.730333	1009.767578	192.250504
29475.646117	-1351.730333	1008.606445	335.521240
29475.646117	-1351.730333	1007.446289	210.483353
29475.646117	-1351.730333	1006.285156	343.374817
29475.646117	-1351.730333	1005.123047	348.166290
29475.646117	-1351.730333	1003.961914	329.091431
29475.646117	-1351.730333	1002.799805	432.019501
29475.646117	-1351.730333	1001.637695	706.613892
29475.646117	-1351.730333	1000.475586	803.567322
29475.646117	-1351.730333	999.312500	552.677307
29475.646117	-1351.730333	998.149414	712.444641
29475.646117	-1351.730333	996.986328	430.727051
29475.646117	-1351.730333	995.823242	366.934998
29475.646117	-1351.730333	994.659180	500.211426
29475.646117	-1351.730333	993.496094	307.092743
29475.646117	-1351.730333	992.332031	283.113403
29475.646117	-1351.730333	991.166992	337.602570
29475.646117	-1351.730333	990.002930	357.092346
29475.646117	-1351.730333	988.837891	65.406738
29475.646117	-1351.730333	987.672852	220.594238
29475.646117	-1351.730333	986.506836	434.729797
29475.646117	-1351.730333	985.341797	228.884399
29475.646117	-1351.730333	984.175781	291.799255
29475.646117	-1351.730333	983.009766	263.373871
29475.646117	-1351.730333	981.843750	301.380219
29475.646117	-1351.730333	980.676758	198.891815
29475.646117	-1351.730333	979.509766	59.989147
29475.646117	-1351.730333	978.342773	330.908081
29475.646117	-1351.730333	977.175781	336.175446
29475.646117	-1351.730333	976.007813	321.118286
29475.646117	-1351.730333	974.839844	250.256073
29475.646117	-1351.730333	973.671875	514.330505
29475.646117	-1351.730333	972.503906	364.270752
29475.646117	-1351.730333	971.334961	463.881134
29475.646117	-1351.730333	970.166016	318.646301
29475.646117	-1351.730333	968.997070	369.393951
29475.646117	-1351.730333	967.828125	461.795502
29475.646117	-1351.730333	966.658203	625.414612
29475.646117	-1351.730333	965.488281	620.536255
29475.646117	-1351.730333	964.318359	539.950867
29475.646117	-1351.730333	963.148438	507.631805
29475.646117	-1351.730333	961.977539	439.366974
29475.646117	-1351.730333	960.806641	324.944550
29475.646117	-1351.730333	959.635742	296.871002
29475.646117	-1351.730333	958.463867	269.062927
29475.646117	-1351.730333	957.292969	469.859711
29475.646117	-1351.730333	956.121094	229.661224
29475.646117	-1351.730333	954.948242	375.341858
29475.646117	-1351.730333	953.776367	447.200500
29475.646117	-1351.730333	952.603516	311.519409
29475.646117	-1351.730333	951.430664	197.447845
29475.646117	-1351.730333	950.257813	439.199371
29475.646117	-1351.730333	949.084961	279.313629
29475.646117	-1351.730333	947.911133	109.949669
29475.646117	-1351.730333	946.737305	109.845062
29475.646117	-1351.730333	945.563477	194.415482
29475.646117	-1351.730333	944.388672	196.728897
29475.646117	-1351.730333	943.213867	444.070007
29475.646117	-1351.730333	942.039063	71.199257
29475.646117	-1351.730333	940.864258	-131.562408
29475.646117	-1351.730333	939.688477	35.059692
29475.646117	-1351.730333	938.513672	103.755379
29475.646117	-1351.730333	937.337891	132.268616
29475.646117	-1351.730333	936.161133	158.365463
29475.646117	-1351.730333	934.985352	52.945190
29475.646117	-1351.730333	933.808594	313.053070
29475.646117	-1351.730333	932.631836	169.535080
29475.646117	-1351.730333	931.454102	380.272827
29475.646117	-1351.730333	930.277344	249.897690
29475.646117	-1351.730333	929.099609	536.309753
29475.646117	-1351.730333	927.921875	249.767502
29475.646117	-1351.730333	926.743164	391.081879
29475.646117	-1351.730333	925.565430	280.511780
29475.646117	-1351.730333	924.386719	361.486084
29475.646117	-1351.730333	923.208008	177.324081
29475.646117	-1351.730333	922.028320	503.042480
29475.646117	-1351.730333	920.849609	162.927200
29475.646117	-1351.730333	919.669922	168.037323
29475.646117	-1351.730333	919.474609	426.886292
29475.646117	-1351.730333	918.309570	273.610077
29475.646117	-1351.730333	917.143555	531.917053
29475.646117	-1351.730333	915.977539	325.137695
29475.646117	-1351.730333	914.810547	305.176941
29475.646117	-1351.730333	913.644531	251.787399
29475.646117	-1351.730333	912.477539	289.489166
29475.646117	-1351.730333	911.310547	289.313171
29475.646117	-1351.730333	910.143555	-57.596355
29475.646117	-1351.730333	908.975586	117.658401
29475.646117	-1351.730333	907.807617	-7.101397
29475.646117	-1351.730333	906.639648	-25.290115
29475.646117	-1351.730333	905.471680	3.079237
29475.646117	-1351.730333	904.303711	-61.872559
29475.646117	-1351.730333	903.134766	-233.401352
29475.646117	-1351.730333	901.965820	-154.191498
29475.646117	-1351.730333	900.796875	-237.038239
29475.646117	-1351.730333	899.626953	159.181305
29475.646117	-1351.730333	898.457031	-76.853767
29475.646117	-1351.730333	897.287109	-31.284405
29475.646117	-1351.730333	896.117188	-154.274994
29475.646117	-1351.730333	894.947266	192.561859
29475.646117	-1351.730333	893.776367	169.149475
29475.646117	-1351.730333	892.605469	269.737579
29475.646117	-1351.730333	891.434570	237.320938
29475.646117	-1351.730333	890.262695	173.850067
29475.646117	-1351.730333	889.091797	130.260803
29475.646117	-1351.730333	887.919922	-19.625656
29475.646117	-1351.730333	886.748047	107.120361
29475.646117	-1351.730333	885.575195	211.624908
29475.646117	-1351.730333	884.403320	-20.235319
29475.646117	-1351.730333	883.230469	-68.488213
29475.646117	-1351.730333	882.057617	-112.362083
29475.646117	-1351.730333	880.883789	190.821640
29475.646117	-1351.730333	879.710938	89.315033
29475.646117	-1351.730333	878.537109	40.829063
29475.646117	-1351.730333	877.362305	58.586823
29475.646117	-1351.730333	876.188477	197.770401
29475.646117	-1351.730333	875.013672	74.018158
29475.646117	-1351.730333	873.839844	109.238930
29475.646117	-1351.730333	872.664063	-36.640209
29475.646117	-1351.730333	871.489258	199.329849
29475.646117	-1351.730333	870.313477	207.848557
29475.646117	-1351.730333	869.138672	70.687462
29475.646117	-1351.730333	867.962891	57.054600
29475.646117	-1351.730333	866.786133	-36.023228
29475.646117	-1351.730333	865.610352	124.450378
29475.646117	-1351.730333	864.433594	269.371643
29475.646117	-1351.730333	863.256836	-2.388354
29475.646117	-1351.730333	862.079102	76.282654
29475.646117	-1351.730333	860.902344	106.396065
29475.646117	-1351.730333	859.724609	76.970787
29475.646117	-1351.730333	858.546875	-130.877838
29475.646117	-1351.730333	857.368164	-94.292580
29475.646117	-1351.730333	856.190430	197.580063
29475.646117	-1351.730333	855.011719	95.322105
29475.646117	-1351.730333	853.833008	175.690659
29475.646117	-1351.730333	852.654297	242.775085
29475.646117	-1351.730333	851.474609	127.221436
29475.646117	-1351.730333	850.294922	84.234184
29475.646117	-1351.730333	849.115234	162.139984
29475.646117	-1351.730333	847.935547	341.080933
29475.646117	-1351.730333	846.754883	262.765381
29475.646117	-1351.730333	845.575195	248.153976
29475.646117	-1351.730333	844.393555	163.203690
29475.646117	-1351.730333	843.212891	177.076645
29475.646117	-1351.730333	842.032227	329.240875
29475.646117	-1351.730333	840.850586	424.214081
29475.646117	-1351.730333	839.668945	310.574097
29475.646117	-1351.730333	838.486328	337.387329
29475.646117	-1351.730333	837.304688	228.109131
29475.646117	-1351.730333	836.122070	281.161865
29475.646117	-1351.730333	834.939453	513.992676
29475.646117	-1351.730333	833.756836	441.888062
29475.646117	-1351.730333	832.573242	209.729706
29475.646117	-1351.730333	831.389648	203.385666
29475.646117	-1351.730333	830.206055	225.489151
29475.646117	-1351.730333	829.022461	105.127434
29475.646117	-1351.730333	827.838867	153.442490
29475.646117	-1351.730333	826.654297	188.555008
29475.646117	-1351.730333	825.469727	289.299042
29475.646117	-1351.730333	824.284180	177.611588
29475.646117	-1351.730333	823.099609	359.215332
29475.646117	-1351.730333	821.914063	214.651871
29475.646117	-1351.730333	820.728516	345.771973
29475.646117	-1351.730333	819.542969	297.433350
29475.646117	-1351.730333	818.356445	426.214417
29475.646117	-1351.730333	817.169922	205.068573
29475.646117	-1351.730333	815.983398	388.385742
29475.646117	-1351.730333	814.796875	269.980652
29475.646117	-1351.730333	813.609375	206.212814
29475.646117	-1351.730333	812.422852	341.235107
29475.646117	-1351.730333	811.235352	255.558182
29475.646117	-1351.730333	810.046875	220.105072
29475.646117	-1351.730333	808.859375	254.492661
29475.646117	-1351.730333	807.670898	253.902328
29475.646117	-1351.730333	806.482422	135.425369
29475.646117	-1351.730333	805.293945	184.968231
29475.646117	-1351.730333	804.104492	291.171356
29475.646117	-1351.730333	802.915039	179.189606
29475.646117	-1351.730333	801.725586	219.858109
29475.646117	-1351.730333	800.536133	482.845032
29475.646117	-1351.730333	799.345703	351.163727
29475.646117	-1351.730333	798.155273	173.735703
29475.646117	-1351.730333	796.964844	259.977142
29475.646117	-1351.730333	795.774414	367.930176
29475.646117	-1351.730333	794.583008	227.522079
29475.646117	-1351.730333	793.392578	315.766937
29475.646117	-1351.730333	792.200195	251.548599
29475.646117	-1351.730333	791.008789	383.209045
29475.646117	-1351.730333	789.816406	201.422760
29475.646117	-1351.730333	788.625000	213.307510
29475.646117	-1351.730333	787.432617	181.647079
29475.646117	-1351.730333	786.239258	10.780301
29475.646117	-1351.730333	785.046875	-31.768629
29475.646117	-1351.730333	783.853516	219.129547
29475.646117	-1351.730333	782.660156	382.953247
29475.646117	-1351.730333	781.465820	527.115662
29475.646117	-1351.730333	780.272461	367.037689
29475.646117	-1351.730333	779.078125	298.214478
29475.646117	-1351.730333	777.883789	90.403877
29475.646117	-1351.730333	776.688477	282.128296
29475.646117	-1351.730333	775.494141	317.450409
29475.646117	-1351.730333	774.298828	96.636635
29475.646117	-1351.730333	773.103516	468.222229
29475.646117	-1351.730333	771.907227	368.877899
29475.646117	-1351.730333	770.711914	315.085449
29475.646117	-1351.730333	769.515625	265.614960
29475.646117	-1351.730333	768.318359	270.326691
29475.646117	-1351.730333	767.122070	123.276810
29475.646117	-1351.730333	765.924805	188.621933
29475.646117	-1351.730333	764.727539	149.907227
29475.646117	-1351.730333	763.530273	210.816238
29475.646117	-1351.730333	762.333008	252.171173
29475.646117	-1351.730333	761.134766	70.451065
29475.646117	-1351.730333	759.936523	-91.747116
29475.646117	-1351.730333	758.738281	-173.832596
29475.646117	-1351.730333	757.540039	-119.595505
29475.646117	-1351.730333	756.340820	140.109055
29475.646117	-1351.730333	755.141602	-63.212669
29475.646117	-1351.730333	753.942383	-32.931839
29475.646117	-1351.730333	752.742188	-17.836308
29475.646117	-1351.730333	751.541992	-26.563288
29475.646117	-1351.730333	750.341797	-69.901947
29475.646117	-1351.730333	749.141602	-61.403183
29475.646117	-1351.730333	747.941406	-27.021210
29475.646117	-1351.730333	746.740234	-35.889744
29475.646117	-1351.730333	745.539063	-165.719131
29475.646117	-1351.730333	744.337891	-66.683319
29475.646117	-1351.730333	743.135742	-86.446411
29475.646117	-1351.730333	741.933594	25.400473
29475.646117	-1351.730333	740.731445	-28.971916
29475.646117	-1351.730333	739.529297	-104.931885
29475.646117	-1351.730333	738.326172	-10.522580
29475.646117	-1351.730333	737.124023	-101.625984
29475.646117	-1351.730333	735.919922	-9.493379
29475.646117	-1351.730333	734.716797	-264.446075
29475.646117	-1351.730333	733.513672	-200.407135
29475.646117	-1351.730333	732.309570	35.917038
29475.646117	-1351.730333	731.105469	-3.607403
29475.646117	-1351.730333	729.900391	-254.205475
29475.646117	-1351.730333	728.696289	-270.049805
29475.646117	-1351.730333	727.491211	-154.619522
29475.646117	-1351.730333	726.286133	-166.257416
29475.646117	-1351.730333	725.080078	-91.864403
29475.646117	-1351.730333	723.874023	-13.241146
29475.646117	-1351.730333	722.668945	205.114532
29475.646117	-1351.730333	721.461914	281.406250
29475.646117	-1351.730333	720.255859	45.885056
29475.646117	-1351.730333	719.048828	-41.267540
29475.646117	-1351.730333	717.841797	-48.911636
29475.646117	-1351.730333	716.634766	233.464279
29475.646117	-1351.730333	715.427734	-14.911474
29475.646117	-1351.730333	714.219727	134.094040
29475.646117	-1351.730333	713.011719	291.582764
29475.646117	-1351.730333	711.803711	79.712730
29475.646117	-1351.730333	710.594727	121.153854
29475.646117	-1351.730333	709.385742	102.448616
29475.646117	-1351.730333	708.176758	182.396622
29475.646117	-1351.730333	706.967773	277.281860
29475.646117	-1351.730333	705.758789	99.726189
29475.646117	-1351.730333	704.548828	265.249969
29475.646117	-1351.730333	703.338867	169.136124
29475.646117	-1351.730333	702.127930	70.870728
29475.646117	-1351.730333	700.917969	178.307114
29475.646117	-1351.730333	699.707031	64.992874
29475.646117	-1351.730333	698.496094	88.757919
29475.646117	-1351.730333	697.285156	270.929199
29475.646117	-1351.730333	696.073242	108.282722
29475.646117	-1351.730333	694.861328	86.930710
29475.646117	-1351.730333	693.649414	41.998970
29475.646117	-1351.730333	692.436523	-39.337189
29475.646117	-1351.730333	691.224609	46.170666
29475.646117	-1351.730333	690.011719	-60.892330
29475.646117	-1351.730333	688.798828	-97.395187
29475.646117	-1351.730333	687.584961	267.971069
29475.646117	-1351.730333	686.372070	120.175873
29475.646117	-1351.730333	685.158203	111.288460
29475.646117	-1351.730333	683.943359	93.807602
29475.646117	-1351.730333	682.729492	315.519379
29475.646117	-1351.730333	681.514648	139.873703
29475.646117	-1351.730333	680.299805	269.572144
29475.646117	-1351.730333	679.084961	215.586243
29475.646117	-1351.730333	677.869141	345.111450
29475.646117	-1351.730333	676.653320	367.844604
29475.646117	-1351.730333	675.437500	125.988731
29475.646117	-1351.730333	674.221680	-34.766830
29475.646117	-1351.730333	673.004883	186.191193
29475.646117	-1351.730333	671.789063	187.419159
29475.646117	-1351.730333	670.571289	173.667114
29475.646117	-1351.730333	669.354492	526.415344
29475.646117	-1351.730333	668.136719	356.963531
29475.646117	-1351.730333	666.919922	274.871307
29475.646117	-1351.730333	665.701172	265.165649
29475.646117	-1351.730333	664.483398	234.124176
29475.646117	-1351.730333	663.264648	311.609833
29475.646117	-1351.730333	662.045898	337.931305
29475.646117	-1351.730333	660.827148	223.748764
29475.646117	-1351.730333	659.608398	381.878601
29475.646117	-1351.730333	658.388672	354.835114
29475.646117	-1351.730333	657.168945	521.269958
29475.646117	-1351.730333	655.949219	477.097290
29475.646117	-1351.730333	654.728516	388.249176
29475.646117	-1351.730333	653.507813	358.894135
29475.646117	-1351.730333	652.287109	274.255798
29475.646117	-1351.730333	651.066406	278.822571
29475.646117	-1351.730333	649.844727	434.127075
29475.646117	-1351.730333	648.623047	504.377991
29475.646117	-1351.730333	647.401367	434.432831
29475.646117	-1351.730333	646.179688	430.263397
29475.646117	-1351.730333	644.957031	449.383698
29475.646117	-1351.730333	643.734375	426.012329
29475.646117	-1351.730333	642.511719	512.901428
29475.646117	-1351.730333	641.289063	266.749420
29475.646117	-1351.730333	640.065430	347.168793
29475.646117	-1351.730333	638.841797	344.831543
29475.646117	-1351.730333	637.618164	482.322845
29475.646117	-1351.730333	636.393555	441.712128
29475.646117	-1351.730333	635.168945	634.101257
29475.646117	-1351.730333	633.944336	417.580292
29475.646117	-1351.730333	632.719727	506.032349
29475.646117	-1351.730333	631.494141	204.841217
29475.646117	-1351.730333	630.269531	365.171722
29475.646117	-1351.730333	629.042969	233.333939
29475.646117	-1351.730333	627.817383	370.214691
29475.646117	-1351.730333	626.590820	253.143784
29475.646117	-1351.730333	625.365234	110.701378
29475.646117	-1351.730333	624.137695	112.043861
29475.646117	-1351.730333	622.911133	52.038067
29475.646117	-1351.730333	621.683594	-5.879982
29475.646117	-1351.730333	620.456055	-34.235794
29475.646117	-1351.730333	619.228516	237.370483
29475.646117	-1351.730333	618.000977	23.009617
29475.646117	-1351.730333	616.772461	131.787888
29475.646117	-1351.730333	615.543945	90.573532
29475.646117	-1351.730333	614.314453	110.541168
29475.646117	-1351.730333	613.085938	493.453430
29475.646117	-1351.730333	611.856445	403.523285
29475.646117	-1351.730333	610.626953	351.559601
29475.646117	-1351.730333	609.397461	126.634270
29475.646117	-1351.730333	608.166992	125.269463
29475.646117	-1351.730333	606.936523	-59.545135
29475.646117	-1351.730333	605.706055	90.805367
29475.646117	-1351.730333	604.474609	-7.610973
29475.646117	-1351.730333	603.244141	-30.172503
29475.646117	-1351.730333	602.012695	52.550217
29475.646117	-1351.730333	600.780273	208.901550
29475.646117	-1351.730333	599.548828	253.564880
29475.646117	-1351.730333	598.316406	176.075027
29475.646117	-1351.730333	597.083984	41.758938
29475.646117	-1351.730333	595.851563	40.026562
29475.646117	-1351.730333	594.618164	160.268173
29475.646117	-1351.730333	593.384766	356.142883
29475.646117	-1351.730333	592.151367	436.247223
29475.646117	-1351.730333	590.917969	427.988281
29475.646117	-1351.730333	589.683594	247.340317
29475.646117	-1351.730333	588.449219	213.840515
29475.646117	-1351.730333	587.214844	60.568871
29475.646117	-1351.730333	585.979492	157.294556
29475.646117	-1351.730333	584.745117	46.047394
29475.646117	-1351.730333	583.509766	201.471268
29475.646117	-1351.730333	582.273438	203.555359
29475.646117	-1351.730333	581.038086	-48.330475
29475.646117	-1351.730333	579.801758	-35.749470
29475.646117	-1351.730333	578.565430	43.934528
29475.646117	-1351.730333	577.329102	73.224495
29475.646117	-1351.730333	576.091797	14.403266
29475.646117	-1351.730333	574.854492	-65.377296
29475.646117	-1351.730333	573.617188	-228.986221
29475.646117	-1351.730333	572.378906	-23.716841
29475.646117	-1351.730333	571.141602	-69.966537
29475.646117	-1351.730333	569.903320	-95.271248
29475.646117	-1351.730333	568.664063	-149.905258
29475.646117	-1351.730333	567.425781	-104.017799
29475.646117	-1351.730333	566.186523	-7.926074
29475.646117	-1351.730333	564.947266	-20.719231
29475.646117	-1351.730333	563.708008	75.294357
29475.646117	-1351.730333	562.467773	72.924965
29475.646117	-1351.730333	561.227539	-153.251465
29475.646117	-1351.730333	559.987305	-115.849899
29475.646117	-1351.730333	558.747070	-15.747995
29475.646117	-1351.730333	557.505859	126.107727
29475.646117	-1351.730333	556.264648	-124.986015
29475.646117	-1351.730333	555.023438	167.265030
29475.646117	-1351.730333	553.781250	70.845039
29475.646117	-1351.730333	552.539063	-69.389656
29475.646117	-1351.730333	551.296875	11.770260
29475.646117	-1351.730333	550.054688	15.660091
29475.646117	-1351.730333	548.811523	138.514099
29475.646117	-1351.730333	547.569336	152.822861
29475.646117	-1351.730333	546.325195	-33.158764
29475.646117	-1351.730333	545.082031	-29.236654
29475.646117	-1351.730333	543.837891	-16.968912
29475.646117	-1351.730333	542.593750	-40.137905
29475.646117	-1351.730333	541.349609	128.489182
29475.646117	-1351.730333	540.105469	128.253586
29475.646117	-1351.730333	538.860352	25.934626
29475.646117	-1351.730333	537.615234	277.808502
29475.646117	-1351.730333	536.369141	177.616516
29475.646117	-1351.730333	535.124023	177.441757
29475.646117	-1351.730333	533.877930	264.718597
29475.646117	-1351.730333	532.631836	297.866730
29475.646117	-1351.730333	531.384766	439.227112
29475.646117	-1351.730333	530.138672	464.055542
29475.646117	-1351.730333	528.891602	341.215240
29475.646117	-1351.730333	527.643555	181.019226
29475.646117	-1351.730333	526.396484	68.748459
29475.646117	-1351.730333	525.148438	56.328854
29475.646117	-1351.730333	523.900391	91.747269
29475.646117	-1351.730333	522.652344	287.173004
29475.646117	-1351.730333	521.403320	-28.474621
29475.646117	-1351.730333	520.154297	-55.262581
29475.646117	-1351.730333	518.905273	5.209857
29475.646117	-1351.730333	517.656250	84.381493
29475.646117	-1351.730333	516.406250	49.400230
29475.646117	-1351.730333	515.156250	-49.849907
29475.646117	-1351.730333	513.906250	-66.026848
29475.646117	-1351.730333	512.655273	139.782043
29475.646117	-1351.730333	511.404297	-0.765964
29475.646117	-1351.730333	510.153320	-331.949921
29475.646117	-1351.730333	508.902344	-273.244293
29475.646117	-1351.730333	507.650391	-154.417953
29475.646117	-1351.730333	506.398438	-19.014099
29475.646117	-1351.730333	505.146484	25.236929
29475.646117	-1351.730333	503.893555	135.792816
29475.646117	-1351.730333	502.641602	14.450380
29475.646117	-1351.730333	501.388672	-119.210060
29475.646117	-1351.730333	500.134766	206.722748
29475.646117	-1351.730333	498.881836	-59.240868
29475.646117	-1351.730333	497.627930	80.460030
29475.646117	-1351.730333	496.374023	137.425217
29475.646117	-1351.730333	495.119141	91.023590
29475.646117	-1351.730333	493.865234	-9.046611
29475.646117	-1351.730333	492.610352	151.434967
29475.646117	-1351.730333	491.355469	144.514999
29475.646117	-1351.730333	490.099609	245.098511
29475.646117	-1351.730333	488.843750	172.181198
29475.646117	-1351.730333	487.587891	0.226479
29475.646117	-1351.730333	486.332031	216.603958
29475.646117	-1351.730333	485.075195	15.940365
29475.646117	-1351.730333	483.818359	164.239731
29475.646117	-1351.730333	482.561523	360.002350
29475.646117	-1351.730333	481.304688	157.576080
29475.646117	-1351.730333	480.046875	151.249756
29475.646117	-1351.730333	478.789063	184.175339
29475.646117	-1351.730333	477.531250	-22.006516
29475.646117	-1351.730333	476.272461	-83.745346
29475.646117	-1351.730333	475.013672	-161.876877
29475.646117	-1351.730333	473.754883	13.522511
29475.646117	-1351.730333	472.496094	-109.779915
29475.646117	-1351.730333	471.236328	-41.431042
29475.646117	-1351.730333	469.976563	206.094162
29475.646117	-1351.730333	468.716797	-11.670679
29475.646117	-1351.730333	467.456055	-144.894073
29475.646117	-1351.730333	466.196289	55.361477
29475.646117	-1351.730333	464.935547	66.320038
29475.646117	-1351.730333	463.673828	-58.417637
29475.646117	-1351.730333	462.413086	80.182968
29475.646117	-1351.730333	461.151367	346.251190
29475.646117	-1351.730333	459.889648	-53.722382
29475.646117	-1351.730333	458.626953	-7.518955
29475.646117	-1351.730333	457.364258	112.689613
29475.646117	-1351.730333	456.101563	21.319616
29475.646117	-1351.730333	454.838867	-238.364136
29475.646117	-1351.730333	453.575195	-372.635376
29475.646117	-1351.730333	452.312500	-26.429056
29475.646117	-1351.730333	451.047852	-4.611530
29475.646117	-1351.730333	449.784180	123.947533
29475.646117	-1351.730333	448.519531	43.234451
29475.646117	-1351.730333	447.254883	298.974365
29475.646117	-1351.730333	445.990234	160.918335
29475.646117	-1351.730333	444.725586	207.474579
29475.646117	-1351.730333	443.459961	217.142807
29475.646117	-1351.730333	442.194336	130.517517
29475.646117	-1351.730333	440.927734	324.645020
29475.646117	-1351.730333	439.662109	274.951385
29475.646117	-1351.730333	438.395508	335.883942
29475.646117	-1351.730333	437.127930	230.950455
29475.646117	-1351.730333	435.861328	500.691559
29475.646117	-1351.730333	434.593750	387.594116
29475.646117	-1351.730333	433.326172	278.638885
29475.646117	-1351.730333	432.058594	231.098312
29475.646117	-1351.730333	430.790039	58.801453
29475.646117	-1351.730333	429.521484	54.243961
29475.646117	-1351.730333	428.252930	10.822718
29475.646117	-1351.730333	426.984375	55.285931
29475.646117	-1351.730333	425.714844	17.952827
29475.646117	-1351.730333	424.445313	-3.057766
29475.646117	-1351.730333	423.174805	304.760315
29475.646117	-1351.730333	421.905273	150.856674
29475.646117	-1351.730333	420.634766	248.095184
29475.646117	-1351.730333	419.364258	196.209030
29475.646117	-1351.730333	418.092773	260.599640
29475.646117	-1351.730333	416.822266	235.104553
29475.646117	-1351.730333	415.550781	250.328384
29475.646117	-1351.730333	414.278320	324.591736
29475.646117	-1351.730333	413.006836	125.477791
29475.646117	-1351.730333	411.734375	195.437500
29475.646117	-1351.730333	410.461914	348.808838
29475.646117	-1351.730333	409.188477	59.776779
29475.646117	-1351.730333	407.916016	386.007935
29475.646117	-1351.730333	406.642578	278.078156
29475.646117	-1351.730333	405.368164	396.074280
29475.646117	-1351.730333	404.094727	395.757385
29475.646117	-1351.730333	402.820313	401.355804
29475.646117	-1351.730333	401.545898	404.718689
29475.646117	-1351.730333	400.270508	297.990448
29475.646117	-1351.730333	398.996094	266.356720
29475.646117	-1351.730333	397.720703	53.487514
29475.646117	-1351.730333	396.444336	125.127068
29475.646117	-1351.730333	395.168945	29.777283
29475.646117	-1351.730333	393.892578	-33.293545
29475.646117	-1351.730333	392.616211	11.069728
29475.646117	-1351.730333	391.339844	69.328033
29475.646117	-1351.730333	390.062500	-128.693466
29475.646117	-1351.730333	388.785156	4.040578
29475.646117	-1351.730333	387.507813	97.788620
29475.646117	-1351.730333	386.229492	182.997681
29475.646117	-1351.730333	384.951172	160.223984
29475.646117	-1351.730333	383.672852	183.720673
29475.646117	-1351.730333	382.394531	164.184753
29475.646117	-1351.730333	381.115234	513.314941
29475.646117	-1351.730333	379.835938	379.256592
29475.646117	-1351.730333	378.556641	319.780334
29475.646117	-1351.730333	377.277344	304.417114
29475.646117	-1351.730333	375.997070	233.817200
29475.646117	-1351.730333	374.716797	35.075367
29475.646117	-1351.730333	373.435547	299.666046
29475.646117	-1351.730333	372.155273	105.917747
29475.646117	-1351.730333	370.874023	245.680069
29475.646117	-1351.730333	369.591797	54.805374
29475.646117	-1351.730333	368.310547	-31.402241
29475.646117	-1351.730333	367.028320	126.538918
29475.646117	-1351.730333	365.746094	-19.714899
29475.646117	-1351.730333	364.463867	-95.860199
29475.646117	-1351.730333	363.180664	239.717972
29475.646117	-1351.730333	361.897461	305.505615
29475.646117	-1351.730333	360.614258	136.006378
29475.646117	-1351.730333	359.330078	234.453430
29475.646117	-1351.730333	358.045898	180.468231
29475.646117	-1351.730333	356.761719	131.658829
29475.646117	-1351.730333	355.477539	81.930435
29475.646117	-1351.730333	354.192383	-112.101723
29475.646117	-1351.730333	352.907227	19.923820
29475.646117	-1351.730333	351.622070	102.423737
29475.646117	-1351.730333	350.336914	12.329578
29475.646117	-1351.730333	349.050781	217.653656
29475.646117	-1351.730333	347.764648	4.306235
29475.646117	-1351.730333	346.477539	-206.118805
29475.646117	-1351.730333	345.191406	-83.032227
29475.646117	-1351.730333	343.904297	149.563202
29475.646117	-1351.730333	342.616211	102.684074
29475.646117	-1351.730333	341.329102	177.399292
29475.646117	-1351.730333	340.041016	97.614647
29475.646117	-1351.730333	338.752930	181.558167
29475.646117	-1351.730333	337.463867	102.924866
29475.646117	-1351.730333	336.175781	34.930050
29475.646117	-1351.730333	334.886719	-86.935074
29475.646117	-1351.730333	333.596680	-300.907013
29475.646117	-1351.730333	332.307617	127.239494
29475.646117	-1351.730333	331.017578	-94.039810
29475.646117	-1351.730333	329.727539	-262.677887
29475.646117	-1351.730333	328.436523	-105.436661
29475.646117	-1351.730333	327.146484	-136.954712
29475.646117	-1351.730333	325.855469	-77.970619
29475.646117	-1351.730333	324.563477	125.634514
29475.646117	-1351.730333	323.272461	-30.277548
29475.646117	-1351.730333	321.980469	-13.539381
29475.646117	-1351.730333	320.688477	105.462982
29475.646117	-1351.730333	319.395508	43.575462
29475.646117	-1351.730333	318.103516	-74.638885
29475.646117	-1351.730333	316.810547	-197.148132
29475.646117	-1351.730333	315.516602	28.977097
29475.646117	-1351.730333	314.223633	64.157097
29475.646117	-1351.730333	312.929688	293.254364
29475.646117	-1351.730333	311.635742	56.708237
29475.646117	-1351.730333	310.340820	-108.263023
29475.646117	-1351.730333	309.045898	-73.492416
29475.646117	-1351.730333	307.750977	40.639397
29475.646117	-1351.730333	306.456055	1.709468
29475.646117	-1351.730333	305.160156	182.073761
29475.646117	-1351.730333	303.865234	-106.927864
29475.646117	-1351.730333	302.568359	3.262854
29475.646117	-1351.730333	301.272461	96.359062
29475.646117	-1351.730333	299.975586	-5.894148
29475.646117	-1351.730333	298.678711	318.611511
