#X		#Y		#Wave		#Intensity
233.050532	5707.630000	1999.946289	-127.273399
233.050532	5707.630000	1998.981445	50.013470
233.050532	5707.630000	1998.017578	74.949753
233.050532	5707.630000	1997.052734	8.036163
233.050532	5707.630000	1996.088867	-36.708187
233.050532	5707.630000	1995.124023	-24.605108
233.050532	5707.630000	1994.159180	-106.766319
233.050532	5707.630000	1993.193359	-5.791023
233.050532	5707.630000	1992.228516	-88.203575
233.050532	5707.630000	1991.262695	-44.474148
233.050532	5707.630000	1990.296875	6.532488
233.050532	5707.630000	1989.331055	7.903060
233.050532	5707.630000	1988.365234	36.362415
233.050532	5707.630000	1987.398438	-101.034492
233.050532	5707.630000	1986.432617	-23.345423
233.050532	5707.630000	1985.465820	133.323776
233.050532	5707.630000	1984.499023	37.663509
233.050532	5707.630000	1983.532227	25.965727
233.050532	5707.630000	1982.565430	21.578022
233.050532	5707.630000	1981.597656	36.854656
233.050532	5707.630000	1980.629883	-93.724663
233.050532	5707.630000	1979.662109	12.750970
233.050532	5707.630000	1978.694336	45.007858
233.050532	5707.630000	1977.726563	5.559349
233.050532	5707.630000	1976.758789	64.772758
233.050532	5707.630000	1975.790039	99.195328
233.050532	5707.630000	1974.821289	222.350052
233.050532	5707.630000	1973.852539	-0.019928
233.050532	5707.630000	1972.883789	73.607796
233.050532	5707.630000	1971.915039	78.074913
233.050532	5707.630000	1970.945313	94.791306
233.050532	5707.630000	1969.975586	27.606850
233.050532	5707.630000	1969.005859	-17.443058
233.050532	5707.630000	1968.036133	139.529007
233.050532	5707.630000	1967.066406	-90.457771
233.050532	5707.630000	1966.096680	68.796463
233.050532	5707.630000	1965.125977	57.980705
233.050532	5707.630000	1964.155273	5.242856
233.050532	5707.630000	1963.184570	38.635159
233.050532	5707.630000	1962.213867	106.417831
233.050532	5707.630000	1961.242188	-3.085259
233.050532	5707.630000	1960.271484	89.173134
233.050532	5707.630000	1959.299805	26.348011
233.050532	5707.630000	1958.328125	84.022469
233.050532	5707.630000	1957.356445	180.974091
233.050532	5707.630000	1956.384766	56.542480
233.050532	5707.630000	1955.412109	128.781906
233.050532	5707.630000	1954.439453	110.004036
233.050532	5707.630000	1953.467773	-41.515430
233.050532	5707.630000	1952.495117	74.794540
233.050532	5707.630000	1951.521484	-0.593470
233.050532	5707.630000	1950.548828	2.602764
233.050532	5707.630000	1949.575195	5.758142
233.050532	5707.630000	1948.601563	62.889957
233.050532	5707.630000	1947.627930	16.864819
233.050532	5707.630000	1946.654297	68.994125
233.050532	5707.630000	1945.680664	47.455448
233.050532	5707.630000	1944.706055	155.920944
233.050532	5707.630000	1943.732422	36.194603
233.050532	5707.630000	1942.757813	7.223361
233.050532	5707.630000	1941.783203	64.054329
233.050532	5707.630000	1940.807617	147.802780
233.050532	5707.630000	1939.833008	62.369480
233.050532	5707.630000	1938.857422	62.713745
233.050532	5707.630000	1937.881836	-27.622704
233.050532	5707.630000	1936.906250	104.976402
233.050532	5707.630000	1935.930664	102.793816
233.050532	5707.630000	1934.955078	-12.054249
233.050532	5707.630000	1933.978516	-53.430412
233.050532	5707.630000	1933.001953	-131.528809
233.050532	5707.630000	1932.025391	0.863377
233.050532	5707.630000	1931.048828	-13.630911
233.050532	5707.630000	1930.072266	-74.620201
233.050532	5707.630000	1929.094727	-23.084497
233.050532	5707.630000	1928.118164	94.449875
233.050532	5707.630000	1927.140625	35.872593
233.050532	5707.630000	1926.163086	21.308311
233.050532	5707.630000	1925.184570	136.280777
233.050532	5707.630000	1924.207031	58.139648
233.050532	5707.630000	1923.228516	70.417976
233.050532	5707.630000	1922.250000	33.822880
233.050532	5707.630000	1921.271484	-120.004860
233.050532	5707.630000	1920.292969	21.693661
233.050532	5707.630000	1919.314453	114.499603
233.050532	5707.630000	1918.334961	-0.229037
233.050532	5707.630000	1917.355469	-31.942419
233.050532	5707.630000	1916.375977	65.676392
233.050532	5707.630000	1915.396484	2.231911
233.050532	5707.630000	1914.416992	-31.924307
233.050532	5707.630000	1913.436523	68.057793
233.050532	5707.630000	1912.457031	-24.629408
233.050532	5707.630000	1911.476563	-144.105652
233.050532	5707.630000	1910.496094	28.948357
233.050532	5707.630000	1909.515625	-175.796112
233.050532	5707.630000	1908.534180	-144.128265
233.050532	5707.630000	1907.552734	-88.115097
233.050532	5707.630000	1906.572266	36.071907
233.050532	5707.630000	1905.590820	1.923688
233.050532	5707.630000	1904.608398	43.259396
233.050532	5707.630000	1903.626953	50.499832
233.050532	5707.630000	1902.644531	84.505028
233.050532	5707.630000	1901.663086	21.164011
233.050532	5707.630000	1900.680664	-76.216446
233.050532	5707.630000	1899.698242	142.652023
233.050532	5707.630000	1898.714844	64.736862
233.050532	5707.630000	1897.732422	-18.011925
233.050532	5707.630000	1896.749023	-15.645050
233.050532	5707.630000	1895.765625	-156.685730
233.050532	5707.630000	1894.782227	-129.993668
233.050532	5707.630000	1893.798828	47.328724
233.050532	5707.630000	1892.814453	-64.496315
233.050532	5707.630000	1891.831055	52.027538
233.050532	5707.630000	1890.846680	-33.045052
233.050532	5707.630000	1889.862305	68.860771
233.050532	5707.630000	1888.877930	-21.038118
233.050532	5707.630000	1887.892578	66.264137
233.050532	5707.630000	1886.908203	10.371213
233.050532	5707.630000	1885.922852	20.001305
233.050532	5707.630000	1884.937500	-60.118946
233.050532	5707.630000	1883.952148	-50.478779
233.050532	5707.630000	1882.965820	77.966682
233.050532	5707.630000	1881.980469	-19.088629
233.050532	5707.630000	1880.994141	29.318562
233.050532	5707.630000	1880.007813	-225.208694
233.050532	5707.630000	1879.021484	-26.562048
233.050532	5707.630000	1878.035156	65.423508
233.050532	5707.630000	1877.047852	33.852360
233.050532	5707.630000	1876.061523	38.617596
233.050532	5707.630000	1875.074219	-113.989433
233.050532	5707.630000	1874.086914	-43.843281
233.050532	5707.630000	1873.098633	-126.195053
233.050532	5707.630000	1872.111328	57.652489
233.050532	5707.630000	1871.123047	-17.430717
233.050532	5707.630000	1870.135742	122.788200
233.050532	5707.630000	1869.147461	-24.830116
233.050532	5707.630000	1868.158203	-7.979155
233.050532	5707.630000	1867.169922	-37.065231
233.050532	5707.630000	1866.180664	151.385559
233.050532	5707.630000	1865.192383	37.699795
233.050532	5707.630000	1864.203125	-8.296092
233.050532	5707.630000	1863.213867	124.479317
233.050532	5707.630000	1862.223633	15.685475
233.050532	5707.630000	1861.234375	-13.382302
233.050532	5707.630000	1860.244141	-47.271641
233.050532	5707.630000	1859.253906	136.092010
233.050532	5707.630000	1858.263672	-59.511738
233.050532	5707.630000	1857.273438	-11.341891
233.050532	5707.630000	1856.282227	-76.579849
233.050532	5707.630000	1855.291992	-11.547007
233.050532	5707.630000	1854.300781	75.160614
233.050532	5707.630000	1853.309570	-62.399052
233.050532	5707.630000	1852.317383	67.667763
233.050532	5707.630000	1851.326172	-55.385147
233.050532	5707.630000	1850.333984	166.192841
233.050532	5707.630000	1849.342773	-26.710194
233.050532	5707.630000	1848.350586	115.279396
233.050532	5707.630000	1847.357422	78.989494
233.050532	5707.630000	1846.365234	23.446854
233.050532	5707.630000	1845.372070	20.882025
233.050532	5707.630000	1844.379883	61.639656
233.050532	5707.630000	1843.386719	114.407791
233.050532	5707.630000	1842.393555	34.814186
233.050532	5707.630000	1841.399414	15.383873
233.050532	5707.630000	1840.406250	72.921974
233.050532	5707.630000	1839.412109	29.430445
233.050532	5707.630000	1838.417969	-11.647999
233.050532	5707.630000	1837.423828	2.570164
233.050532	5707.630000	1836.429688	-4.855278
233.050532	5707.630000	1835.434570	91.038643
233.050532	5707.630000	1834.440430	21.118141
233.050532	5707.630000	1833.445313	90.531578
233.050532	5707.630000	1832.450195	-80.248032
233.050532	5707.630000	1831.454102	-20.465773
233.050532	5707.630000	1830.458984	168.922379
233.050532	5707.630000	1829.462891	24.596914
233.050532	5707.630000	1828.466797	79.496719
233.050532	5707.630000	1827.470703	124.767982
233.050532	5707.630000	1826.474609	45.270794
233.050532	5707.630000	1825.478516	73.721169
233.050532	5707.630000	1824.481445	-211.984436
233.050532	5707.630000	1823.484375	161.720322
233.050532	5707.630000	1822.487305	65.449432
233.050532	5707.630000	1821.490234	-35.590366
233.050532	5707.630000	1820.493164	-7.211846
233.050532	5707.630000	1819.495117	73.846626
233.050532	5707.630000	1818.498047	-146.938095
233.050532	5707.630000	1817.500000	65.803726
233.050532	5707.630000	1816.500977	72.536621
233.050532	5707.630000	1815.502930	76.861053
233.050532	5707.630000	1814.504883	119.464417
233.050532	5707.630000	1813.505859	-58.118771
233.050532	5707.630000	1812.506836	273.960205
233.050532	5707.630000	1811.507813	7.877792
233.050532	5707.630000	1810.508789	-2.214878
233.050532	5707.630000	1809.508789	-74.491364
233.050532	5707.630000	1808.508789	51.673954
233.050532	5707.630000	1807.508789	74.993210
233.050532	5707.630000	1806.508789	-102.457199
233.050532	5707.630000	1805.508789	-45.699020
233.050532	5707.630000	1804.508789	8.631741
233.050532	5707.630000	1803.507813	50.981087
233.050532	5707.630000	1802.506836	28.819948
233.050532	5707.630000	1801.505859	71.113892
233.050532	5707.630000	1800.504883	1.179563
233.050532	5707.630000	1799.502930	64.904793
233.050532	5707.630000	1798.501953	33.140587
233.050532	5707.630000	1797.500000	87.255135
233.050532	5707.630000	1796.498047	76.927017
233.050532	5707.630000	1795.496094	95.201385
233.050532	5707.630000	1794.493164	65.759468
233.050532	5707.630000	1793.491211	119.749321
233.050532	5707.630000	1792.488281	121.259697
233.050532	5707.630000	1791.485352	139.430664
233.050532	5707.630000	1790.482422	-49.712101
233.050532	5707.630000	1789.478516	61.344555
233.050532	5707.630000	1788.475586	3.239624
233.050532	5707.630000	1787.471680	97.533348
233.050532	5707.630000	1786.467773	-39.167267
233.050532	5707.630000	1785.463867	47.914410
233.050532	5707.630000	1784.459961	96.863136
233.050532	5707.630000	1783.455078	41.073338
233.050532	5707.630000	1782.450195	18.588131
233.050532	5707.630000	1781.445313	-46.725006
233.050532	5707.630000	1780.440430	-64.473686
233.050532	5707.630000	1779.435547	55.663673
233.050532	5707.630000	1778.429688	21.213242
233.050532	5707.630000	1777.424805	-17.998499
233.050532	5707.630000	1776.418945	-71.479591
233.050532	5707.630000	1775.413086	88.861122
233.050532	5707.630000	1774.406250	37.705971
233.050532	5707.630000	1773.400391	41.171673
233.050532	5707.630000	1772.393555	63.604519
233.050532	5707.630000	1771.386719	26.654350
233.050532	5707.630000	1770.379883	94.130585
233.050532	5707.630000	1769.373047	26.288433
233.050532	5707.630000	1768.365234	74.705154
233.050532	5707.630000	1767.358398	-76.185837
233.050532	5707.630000	1766.350586	-84.740662
233.050532	5707.630000	1765.342773	15.762968
233.050532	5707.630000	1764.334961	14.255085
233.050532	5707.630000	1763.326172	53.016460
233.050532	5707.630000	1762.318359	-31.498734
233.050532	5707.630000	1761.309570	59.334145
233.050532	5707.630000	1760.300781	-82.062309
233.050532	5707.630000	1759.291016	91.591629
233.050532	5707.630000	1758.282227	132.538422
233.050532	5707.630000	1757.272461	-6.505681
233.050532	5707.630000	1756.262695	76.998749
233.050532	5707.630000	1755.252930	-43.101215
233.050532	5707.630000	1754.243164	-9.368656
233.050532	5707.630000	1753.233398	7.762753
233.050532	5707.630000	1752.222656	-20.086596
233.050532	5707.630000	1751.211914	-43.222359
233.050532	5707.630000	1750.201172	-23.814529
233.050532	5707.630000	1749.190430	-44.631237
233.050532	5707.630000	1748.179688	12.533020
233.050532	5707.630000	1747.167969	90.914261
233.050532	5707.630000	1746.156250	-93.028870
233.050532	5707.630000	1745.144531	11.272428
233.050532	5707.630000	1744.132813	4.498779
233.050532	5707.630000	1743.121094	23.675047
233.050532	5707.630000	1742.108398	90.032257
233.050532	5707.630000	1741.095703	132.731354
233.050532	5707.630000	1740.083008	-3.978157
233.050532	5707.630000	1739.070313	144.848511
233.050532	5707.630000	1738.057617	-86.233482
233.050532	5707.630000	1737.043945	112.025833
233.050532	5707.630000	1736.030273	-111.946815
233.050532	5707.630000	1735.016602	95.616638
233.050532	5707.630000	1734.002930	67.336800
233.050532	5707.630000	1732.989258	31.969040
233.050532	5707.630000	1731.974609	55.494678
233.050532	5707.630000	1730.959961	128.459244
233.050532	5707.630000	1729.945313	10.567331
233.050532	5707.630000	1728.930664	-29.588732
233.050532	5707.630000	1727.916016	71.521355
233.050532	5707.630000	1726.900391	-51.088005
233.050532	5707.630000	1725.885742	92.299088
233.050532	5707.630000	1724.870117	28.508772
233.050532	5707.630000	1723.853516	49.413570
233.050532	5707.630000	1722.837891	46.762264
233.050532	5707.630000	1721.822266	81.715233
233.050532	5707.630000	1720.805664	15.508434
233.050532	5707.630000	1719.789063	76.255600
233.050532	5707.630000	1718.772461	49.979755
233.050532	5707.630000	1717.754883	70.685349
233.050532	5707.630000	1716.738281	96.058510
233.050532	5707.630000	1715.720703	-40.708351
233.050532	5707.630000	1714.703125	-62.358776
233.050532	5707.630000	1713.685547	12.253808
233.050532	5707.630000	1712.667969	-75.194717
233.050532	5707.630000	1711.649414	69.756538
233.050532	5707.630000	1710.630859	146.561890
233.050532	5707.630000	1709.612305	145.874771
233.050532	5707.630000	1708.593750	124.045395
233.050532	5707.630000	1707.575195	188.986481
233.050532	5707.630000	1706.555664	232.765274
233.050532	5707.630000	1705.536133	199.123337
233.050532	5707.630000	1704.516602	78.728271
233.050532	5707.630000	1703.497070	63.826332
233.050532	5707.630000	1702.477539	182.477722
233.050532	5707.630000	1701.457031	115.959999
233.050532	5707.630000	1700.437500	220.448425
233.050532	5707.630000	1699.416992	137.501923
233.050532	5707.630000	1698.395508	33.482849
233.050532	5707.630000	1697.375000	-75.200462
233.050532	5707.630000	1696.354492	29.137249
233.050532	5707.630000	1695.333008	203.612808
233.050532	5707.630000	1694.311523	5.966153
233.050532	5707.630000	1693.290039	-48.928524
233.050532	5707.630000	1692.267578	-17.291849
233.050532	5707.630000	1691.246094	-23.102922
233.050532	5707.630000	1690.223633	-49.982887
233.050532	5707.630000	1689.201172	-46.489056
233.050532	5707.630000	1688.178711	-19.649052
233.050532	5707.630000	1687.155273	53.884769
233.050532	5707.630000	1686.132813	-122.603775
233.050532	5707.630000	1685.109375	-63.140308
233.050532	5707.630000	1684.085938	117.713097
233.050532	5707.630000	1683.062500	48.643196
233.050532	5707.630000	1682.039063	-67.111519
233.050532	5707.630000	1681.014648	-66.150749
233.050532	5707.630000	1679.990234	-65.213234
233.050532	5707.630000	1678.965820	26.691494
233.050532	5707.630000	1677.941406	-63.406044
233.050532	5707.630000	1676.916992	84.390877
233.050532	5707.630000	1675.891602	38.571327
233.050532	5707.630000	1674.866211	-23.570589
233.050532	5707.630000	1673.840820	-85.709908
233.050532	5707.630000	1672.815430	-75.605171
233.050532	5707.630000	1671.790039	71.940674
233.050532	5707.630000	1670.763672	107.589470
233.050532	5707.630000	1669.737305	131.559250
233.050532	5707.630000	1668.710938	-30.786413
233.050532	5707.630000	1667.684570	137.504883
233.050532	5707.630000	1666.658203	45.011547
233.050532	5707.630000	1665.630859	1.402203
233.050532	5707.630000	1664.603516	46.207977
233.050532	5707.630000	1663.576172	-11.380900
233.050532	5707.630000	1662.548828	24.069450
233.050532	5707.630000	1661.520508	-49.812431
233.050532	5707.630000	1660.493164	50.695271
233.050532	5707.630000	1659.464844	20.967499
233.050532	5707.630000	1658.436523	98.141930
233.050532	5707.630000	1657.408203	61.411747
233.050532	5707.630000	1656.378906	64.167633
233.050532	5707.630000	1655.350586	118.011444
233.050532	5707.630000	1654.321289	18.542603
233.050532	5707.630000	1653.291992	-36.788620
233.050532	5707.630000	1652.261719	149.304916
233.050532	5707.630000	1651.232422	163.567245
233.050532	5707.630000	1650.202148	180.124588
233.050532	5707.630000	1649.171875	270.901855
233.050532	5707.630000	1648.141602	254.929184
233.050532	5707.630000	1647.111328	243.586761
233.050532	5707.630000	1646.080078	260.054260
233.050532	5707.630000	1645.049805	195.368881
233.050532	5707.630000	1644.018555	346.245056
233.050532	5707.630000	1642.987305	147.131210
233.050532	5707.630000	1641.955078	219.153809
233.050532	5707.630000	1640.923828	309.673309
233.050532	5707.630000	1639.891602	388.560883
233.050532	5707.630000	1638.859375	490.562347
233.050532	5707.630000	1637.827148	509.169769
233.050532	5707.630000	1636.794922	430.543671
233.050532	5707.630000	1635.761719	326.476440
233.050532	5707.630000	1634.729492	370.525482
233.050532	5707.630000	1633.696289	365.963165
233.050532	5707.630000	1632.662109	329.007629
233.050532	5707.630000	1631.628906	188.005371
233.050532	5707.630000	1630.594727	308.294678
233.050532	5707.630000	1629.561523	345.320740
233.050532	5707.630000	1628.527344	440.095642
233.050532	5707.630000	1627.493164	333.802856
233.050532	5707.630000	1626.458008	278.363129
233.050532	5707.630000	1625.423828	356.906769
233.050532	5707.630000	1624.388672	301.470703
233.050532	5707.630000	1623.353516	236.815598
233.050532	5707.630000	1622.318359	373.007263
233.050532	5707.630000	1621.282227	467.593414
233.050532	5707.630000	1620.247070	363.700897
233.050532	5707.630000	1619.210938	407.488800
233.050532	5707.630000	1618.174805	329.006836
233.050532	5707.630000	1617.137695	405.056580
233.050532	5707.630000	1616.101563	400.380188
233.050532	5707.630000	1615.064453	250.468750
233.050532	5707.630000	1614.027344	308.042358
233.050532	5707.630000	1612.990234	278.027679
233.050532	5707.630000	1611.953125	303.315765
233.050532	5707.630000	1610.916016	268.703339
233.050532	5707.630000	1609.877930	328.520355
233.050532	5707.630000	1608.839844	291.607147
233.050532	5707.630000	1607.801758	420.458160
233.050532	5707.630000	1606.763672	491.718353
233.050532	5707.630000	1605.724609	284.502838
233.050532	5707.630000	1604.685547	433.982971
233.050532	5707.630000	1603.646484	399.383209
233.050532	5707.630000	1602.607422	367.098480
233.050532	5707.630000	1601.568359	268.146790
233.050532	5707.630000	1600.528320	346.248749
233.050532	5707.630000	1599.489258	353.075623
233.050532	5707.630000	1598.449219	552.934021
233.050532	5707.630000	1597.408203	242.646057
233.050532	5707.630000	1596.368164	465.426971
233.050532	5707.630000	1595.327148	502.087769
233.050532	5707.630000	1594.287109	382.599457
233.050532	5707.630000	1593.246094	426.159332
233.050532	5707.630000	1592.204102	389.365906
233.050532	5707.630000	1591.163086	487.997803
233.050532	5707.630000	1590.121094	302.079498
233.050532	5707.630000	1589.079102	453.459930
233.050532	5707.630000	1588.037109	311.213226
233.050532	5707.630000	1586.995117	338.720154
233.050532	5707.630000	1585.953125	276.810699
233.050532	5707.630000	1584.910156	391.429260
233.050532	5707.630000	1583.867188	471.635162
233.050532	5707.630000	1582.824219	430.379517
233.050532	5707.630000	1581.781250	448.712494
233.050532	5707.630000	1580.737305	489.947662
233.050532	5707.630000	1579.693359	396.068665
233.050532	5707.630000	1578.649414	384.660339
233.050532	5707.630000	1577.605469	384.713348
233.050532	5707.630000	1576.561523	348.159698
233.050532	5707.630000	1575.516602	304.763245
233.050532	5707.630000	1574.472656	240.811935
233.050532	5707.630000	1573.427734	398.760315
233.050532	5707.630000	1572.381836	408.010651
233.050532	5707.630000	1571.336914	261.801514
233.050532	5707.630000	1570.291016	296.248688
233.050532	5707.630000	1569.246094	248.423660
233.050532	5707.630000	1568.200195	237.188324
233.050532	5707.630000	1567.153320	333.343903
233.050532	5707.630000	1566.107422	324.411530
233.050532	5707.630000	1565.060547	379.437286
233.050532	5707.630000	1564.013672	203.850342
233.050532	5707.630000	1562.966797	315.981659
233.050532	5707.630000	1561.919922	450.910248
233.050532	5707.630000	1560.872070	350.762421
233.050532	5707.630000	1559.825195	209.610855
233.050532	5707.630000	1558.777344	308.033600
233.050532	5707.630000	1557.729492	331.178436
233.050532	5707.630000	1556.680664	409.051727
233.050532	5707.630000	1555.632813	612.299683
233.050532	5707.630000	1554.583984	583.003357
233.050532	5707.630000	1553.535156	562.854065
233.050532	5707.630000	1552.486328	524.506897
233.050532	5707.630000	1551.436523	536.304626
233.050532	5707.630000	1550.387695	502.575500
233.050532	5707.630000	1549.337891	462.045776
233.050532	5707.630000	1548.288086	546.763489
233.050532	5707.630000	1547.238281	326.476135
233.050532	5707.630000	1546.187500	445.362488
233.050532	5707.630000	1545.136719	316.230835
233.050532	5707.630000	1544.086914	401.002991
233.050532	5707.630000	1543.035156	467.563202
233.050532	5707.630000	1541.984375	365.861908
233.050532	5707.630000	1540.933594	302.873444
233.050532	5707.630000	1539.881836	410.400879
233.050532	5707.630000	1538.830078	631.535889
233.050532	5707.630000	1537.778320	495.898987
233.050532	5707.630000	1536.725586	501.177032
233.050532	5707.630000	1535.673828	476.958221
233.050532	5707.630000	1534.621094	346.049622
233.050532	5707.630000	1533.568359	417.271820
233.050532	5707.630000	1532.515625	375.003601
233.050532	5707.630000	1531.461914	573.327942
233.050532	5707.630000	1530.409180	376.816132
233.050532	5707.630000	1529.355469	209.897110
233.050532	5707.630000	1528.301758	233.585648
233.050532	5707.630000	1527.247070	189.263245
233.050532	5707.630000	1526.193359	401.176697
233.050532	5707.630000	1525.138672	300.231720
233.050532	5707.630000	1524.083984	301.337494
233.050532	5707.630000	1523.029297	302.473358
233.050532	5707.630000	1521.974609	251.537521
233.050532	5707.630000	1520.918945	302.568878
233.050532	5707.630000	1519.863281	319.644958
233.050532	5707.630000	1518.807617	178.268448
233.050532	5707.630000	1517.751953	197.690659
233.050532	5707.630000	1516.696289	337.080780
233.050532	5707.630000	1515.639648	216.242508
233.050532	5707.630000	1514.583008	394.093994
233.050532	5707.630000	1513.526367	42.661884
233.050532	5707.630000	1512.469727	263.508942
233.050532	5707.630000	1511.412109	307.954102
233.050532	5707.630000	1510.355469	198.712433
233.050532	5707.630000	1509.297852	311.020142
233.050532	5707.630000	1508.240234	258.375244
233.050532	5707.630000	1507.181641	61.203270
233.050532	5707.630000	1506.124023	193.905487
233.050532	5707.630000	1505.065430	57.866337
233.050532	5707.630000	1504.006836	125.111534
233.050532	5707.630000	1502.948242	5.014379
233.050532	5707.630000	1501.888672	-4.418433
233.050532	5707.630000	1500.830078	126.087570
233.050532	5707.630000	1499.770508	96.405930
233.050532	5707.630000	1498.710938	-25.700521
233.050532	5707.630000	1497.650391	-86.838234
233.050532	5707.630000	1496.590820	-41.944965
233.050532	5707.630000	1495.530273	-71.420807
233.050532	5707.630000	1494.469727	-19.714033
233.050532	5707.630000	1493.409180	4.972445
233.050532	5707.630000	1492.348633	-96.467110
233.050532	5707.630000	1491.287109	-91.970474
233.050532	5707.630000	1490.225586	-123.466080
233.050532	5707.630000	1489.164063	-49.091896
233.050532	5707.630000	1488.102539	20.790951
233.050532	5707.630000	1487.041016	27.671431
233.050532	5707.630000	1485.978516	-82.418335
233.050532	5707.630000	1484.916016	-178.915283
233.050532	5707.630000	1483.853516	28.290169
233.050532	5707.630000	1482.791016	-32.138725
233.050532	5707.630000	1481.727539	-9.313245
233.050532	5707.630000	1480.664063	-49.399498
233.050532	5707.630000	1479.600586	-105.151215
233.050532	5707.630000	1478.537109	133.475723
233.050532	5707.630000	1477.473633	104.754425
233.050532	5707.630000	1476.409180	-45.172298
233.050532	5707.630000	1475.344727	-35.599678
233.050532	5707.630000	1474.280273	72.803986
233.050532	5707.630000	1473.215820	167.663849
233.050532	5707.630000	1472.151367	-26.753344
233.050532	5707.630000	1471.085938	23.343840
233.050532	5707.630000	1470.020508	-9.339079
233.050532	5707.630000	1468.955078	9.202436
233.050532	5707.630000	1467.888672	-146.606277
233.050532	5707.630000	1466.823242	-103.093491
233.050532	5707.630000	1465.756836	12.134844
233.050532	5707.630000	1464.690430	49.122391
233.050532	5707.630000	1463.624023	97.020149
233.050532	5707.630000	1462.556641	62.435280
233.050532	5707.630000	1461.490234	-63.884724
233.050532	5707.630000	1460.422852	60.158165
233.050532	5707.630000	1459.355469	65.957008
233.050532	5707.630000	1458.287109	56.194321
233.050532	5707.630000	1457.219727	30.926315
233.050532	5707.630000	1456.151367	-53.446896
233.050532	5707.630000	1455.083008	75.482216
233.050532	5707.630000	1454.014648	-2.840465
233.050532	5707.630000	1452.945313	198.809753
233.050532	5707.630000	1451.876953	100.444710
233.050532	5707.630000	1450.807617	176.781326
233.050532	5707.630000	1449.738281	20.751795
233.050532	5707.630000	1448.668945	209.575912
233.050532	5707.630000	1447.598633	184.172897
233.050532	5707.630000	1446.528320	124.445526
233.050532	5707.630000	1445.458008	197.003693
233.050532	5707.630000	1444.387695	232.715637
233.050532	5707.630000	1443.317383	318.235199
233.050532	5707.630000	1442.246094	233.318237
233.050532	5707.630000	1441.174805	371.516205
233.050532	5707.630000	1440.103516	234.993683
233.050532	5707.630000	1439.032227	-5.212200
233.050532	5707.630000	1437.960938	143.267258
233.050532	5707.630000	1436.888672	244.387314
233.050532	5707.630000	1435.816406	229.535126
233.050532	5707.630000	1434.744141	14.094975
233.050532	5707.630000	1433.670898	5.788867
233.050532	5707.630000	1432.598633	102.690460
233.050532	5707.630000	1431.525391	288.785767
233.050532	5707.630000	1430.452148	217.696060
233.050532	5707.630000	1429.378906	34.456997
233.050532	5707.630000	1428.304688	159.276108
233.050532	5707.630000	1427.231445	229.227585
233.050532	5707.630000	1426.157227	254.875488
233.050532	5707.630000	1425.083008	-25.080032
233.050532	5707.630000	1424.007813	181.450562
233.050532	5707.630000	1422.933594	158.860413
233.050532	5707.630000	1421.858398	98.720299
233.050532	5707.630000	1420.783203	161.027008
233.050532	5707.630000	1419.708008	203.468521
233.050532	5707.630000	1418.631836	278.427551
233.050532	5707.630000	1417.555664	279.776245
233.050532	5707.630000	1416.479492	213.818283
233.050532	5707.630000	1415.403320	234.878311
233.050532	5707.630000	1414.327148	225.829819
233.050532	5707.630000	1413.250000	153.272034
233.050532	5707.630000	1412.173828	63.421875
233.050532	5707.630000	1411.096680	77.301147
233.050532	5707.630000	1410.018555	106.953362
233.050532	5707.630000	1408.941406	174.977020
233.050532	5707.630000	1407.863281	77.861450
233.050532	5707.630000	1406.785156	124.294258
233.050532	5707.630000	1405.707031	151.614227
233.050532	5707.630000	1404.628906	110.232399
233.050532	5707.630000	1403.549805	-11.691584
233.050532	5707.630000	1402.470703	100.470131
233.050532	5707.630000	1401.391602	5.468424
233.050532	5707.630000	1400.312500	-1.124061
233.050532	5707.630000	1399.233398	10.137885
233.050532	5707.630000	1398.153320	149.111359
233.050532	5707.630000	1397.073242	71.088547
233.050532	5707.630000	1395.993164	145.217743
233.050532	5707.630000	1394.913086	206.246414
233.050532	5707.630000	1393.832031	-31.491646
233.050532	5707.630000	1392.750977	65.692535
233.050532	5707.630000	1391.669922	-23.640139
233.050532	5707.630000	1390.588867	16.475033
233.050532	5707.630000	1389.506836	139.711868
233.050532	5707.630000	1388.425781	203.481155
233.050532	5707.630000	1387.343750	192.119949
233.050532	5707.630000	1386.261719	183.481964
233.050532	5707.630000	1385.178711	79.373032
233.050532	5707.630000	1384.096680	240.521927
233.050532	5707.630000	1383.013672	111.672272
233.050532	5707.630000	1381.930664	210.878311
233.050532	5707.630000	1380.846680	56.899132
233.050532	5707.630000	1379.763672	88.137482
233.050532	5707.630000	1378.679688	55.791412
233.050532	5707.630000	1377.595703	9.273383
233.050532	5707.630000	1376.511719	151.287796
233.050532	5707.630000	1375.427734	35.179688
233.050532	5707.630000	1374.342773	71.644394
233.050532	5707.630000	1373.257813	183.032669
233.050532	5707.630000	1372.172852	201.032318
233.050532	5707.630000	1371.087891	113.238335
233.050532	5707.630000	1370.001953	0.605507
233.050532	5707.630000	1368.916992	155.907333
233.050532	5707.630000	1367.831055	60.133644
233.050532	5707.630000	1366.744141	92.104172
233.050532	5707.630000	1365.658203	147.880768
233.050532	5707.630000	1364.571289	26.752800
233.050532	5707.630000	1363.484375	96.182449
233.050532	5707.630000	1362.397461	163.023026
233.050532	5707.630000	1361.310547	68.103874
233.050532	5707.630000	1360.222656	-70.396278
233.050532	5707.630000	1359.135742	22.906689
233.050532	5707.630000	1358.047852	94.101898
233.050532	5707.630000	1356.958984	82.672623
233.050532	5707.630000	1355.871094	-42.714527
233.050532	5707.630000	1354.782227	-8.198730
233.050532	5707.630000	1353.693359	-57.850880
233.050532	5707.630000	1352.604492	75.769699
233.050532	5707.630000	1351.515625	-47.266449
233.050532	5707.630000	1350.425781	17.567841
233.050532	5707.630000	1349.335938	55.787945
233.050532	5707.630000	1348.246094	52.959038
233.050532	5707.630000	1347.156250	-63.861034
233.050532	5707.630000	1346.066406	-3.969409
233.050532	5707.630000	1344.975586	-37.331928
233.050532	5707.630000	1343.884766	77.898621
233.050532	5707.630000	1342.793945	31.254696
233.050532	5707.630000	1341.702148	112.917023
233.050532	5707.630000	1340.611328	254.143463
233.050532	5707.630000	1339.519531	234.850006
233.050532	5707.630000	1338.427734	43.395863
233.050532	5707.630000	1337.334961	195.222656
233.050532	5707.630000	1336.243164	304.815033
233.050532	5707.630000	1335.150391	148.540848
233.050532	5707.630000	1334.057617	123.512634
233.050532	5707.630000	1332.964844	165.460587
233.050532	5707.630000	1331.871094	124.129654
233.050532	5707.630000	1330.778320	186.273193
233.050532	5707.630000	1329.684570	198.266739
233.050532	5707.630000	1328.590820	208.446732
233.050532	5707.630000	1327.496094	146.568527
233.050532	5707.630000	1326.402344	58.439911
233.050532	5707.630000	1325.307617	17.073347
233.050532	5707.630000	1324.212891	25.885256
233.050532	5707.630000	1323.117188	130.748764
233.050532	5707.630000	1322.022461	175.023163
233.050532	5707.630000	1320.926758	71.860313
233.050532	5707.630000	1319.831055	102.588135
233.050532	5707.630000	1318.735352	27.827881
233.050532	5707.630000	1317.638672	2.616395
233.050532	5707.630000	1316.542969	138.311691
233.050532	5707.630000	1315.446289	121.240234
233.050532	5707.630000	1314.349609	239.764923
233.050532	5707.630000	1313.251953	278.533081
233.050532	5707.630000	1312.155273	165.134872
233.050532	5707.630000	1311.057617	130.625519
233.050532	5707.630000	1309.959961	202.272583
233.050532	5707.630000	1308.862305	152.529846
233.050532	5707.630000	1307.763672	194.751266
233.050532	5707.630000	1306.665039	184.827866
233.050532	5707.630000	1305.566406	191.976135
233.050532	5707.630000	1304.467773	199.090225
233.050532	5707.630000	1303.369141	254.747971
233.050532	5707.630000	1302.269531	162.346863
233.050532	5707.630000	1301.169922	146.215820
233.050532	5707.630000	1300.070313	170.624512
233.050532	5707.630000	1298.970703	197.765945
233.050532	5707.630000	1297.870117	13.041168
233.050532	5707.630000	1296.769531	146.756989
233.050532	5707.630000	1295.668945	123.230461
233.050532	5707.630000	1294.568359	124.145790
233.050532	5707.630000	1293.466797	167.469543
233.050532	5707.630000	1292.366211	102.745605
233.050532	5707.630000	1291.264648	65.478745
233.050532	5707.630000	1290.162109	140.614471
233.050532	5707.630000	1289.060547	266.995392
233.050532	5707.630000	1287.958008	126.350029
233.050532	5707.630000	1286.855469	128.318954
233.050532	5707.630000	1285.752930	98.891579
233.050532	5707.630000	1284.650391	54.495766
233.050532	5707.630000	1283.546875	65.704193
233.050532	5707.630000	1282.444336	95.214203
233.050532	5707.630000	1281.339844	109.798317
233.050532	5707.630000	1280.236328	196.014847
233.050532	5707.630000	1279.132813	140.569290
233.050532	5707.630000	1278.028320	27.873787
233.050532	5707.630000	1276.923828	26.066307
233.050532	5707.630000	1275.819336	56.243172
233.050532	5707.630000	1274.713867	42.441555
233.050532	5707.630000	1273.608398	37.219299
233.050532	5707.630000	1272.503906	-77.977142
233.050532	5707.630000	1271.397461	30.326378
233.050532	5707.630000	1270.291992	-60.645794
233.050532	5707.630000	1269.185547	143.980972
233.050532	5707.630000	1268.080078	99.780014
233.050532	5707.630000	1266.972656	23.322363
233.050532	5707.630000	1265.866211	118.792625
233.050532	5707.630000	1264.759766	137.596237
233.050532	5707.630000	1263.652344	103.925285
233.050532	5707.630000	1262.544922	44.121166
233.050532	5707.630000	1261.436523	115.053741
233.050532	5707.630000	1260.329102	105.866486
233.050532	5707.630000	1259.220703	130.979187
233.050532	5707.630000	1258.112305	29.450954
233.050532	5707.630000	1257.003906	252.712082
233.050532	5707.630000	1255.895508	-3.721661
233.050532	5707.630000	1254.786133	1.854114
233.050532	5707.630000	1253.676758	-48.516178
233.050532	5707.630000	1252.567383	46.810661
233.050532	5707.630000	1251.458008	0.553506
233.050532	5707.630000	1250.347656	-43.066105
233.050532	5707.630000	1249.237305	96.766708
233.050532	5707.630000	1248.126953	8.430973
233.050532	5707.630000	1247.016602	-31.894949
233.050532	5707.630000	1245.905273	25.007095
233.050532	5707.630000	1244.793945	-104.155472
233.050532	5707.630000	1243.682617	-23.159384
233.050532	5707.630000	1242.571289	19.525290
233.050532	5707.630000	1241.459961	-65.068604
233.050532	5707.630000	1240.347656	53.606224
233.050532	5707.630000	1239.235352	-116.490883
233.050532	5707.630000	1238.123047	-50.882248
233.050532	5707.630000	1237.009766	-48.346729
233.050532	5707.630000	1235.897461	-88.082054
233.050532	5707.630000	1234.784180	65.076584
233.050532	5707.630000	1233.670898	-26.603388
233.050532	5707.630000	1232.556641	-7.954522
233.050532	5707.630000	1231.443359	-14.185809
233.050532	5707.630000	1230.329102	-8.289133
233.050532	5707.630000	1229.214844	80.454567
233.050532	5707.630000	1228.099609	27.452509
233.050532	5707.630000	1226.985352	105.727608
233.050532	5707.630000	1225.870117	6.620046
233.050532	5707.630000	1224.754883	166.365967
233.050532	5707.630000	1223.639648	78.040703
233.050532	5707.630000	1222.523438	79.084702
233.050532	5707.630000	1221.408203	98.940788
233.050532	5707.630000	1220.291992	54.322697
233.050532	5707.630000	1219.174805	88.346313
233.050532	5707.630000	1218.058594	62.815784
233.050532	5707.630000	1216.941406	8.343289
233.050532	5707.630000	1215.824219	27.828056
233.050532	5707.630000	1214.707031	76.408920
233.050532	5707.630000	1213.589844	-64.191795
233.050532	5707.630000	1212.471680	59.252995
233.050532	5707.630000	1211.353516	20.912539
233.050532	5707.630000	1210.235352	33.041393
233.050532	5707.630000	1209.117188	65.810143
233.050532	5707.630000	1207.998047	33.633850
233.050532	5707.630000	1206.878906	48.270641
233.050532	5707.630000	1205.759766	25.937489
233.050532	5707.630000	1204.640625	8.541795
233.050532	5707.630000	1203.520508	55.766689
233.050532	5707.630000	1202.401367	-66.555313
233.050532	5707.630000	1201.281250	18.713362
233.050532	5707.630000	1200.160156	-66.704468
233.050532	5707.630000	1199.040039	-95.439148
233.050532	5707.630000	1197.918945	-115.649017
233.050532	5707.630000	1196.797852	-4.375240
233.050532	5707.630000	1195.676758	3.515683
233.050532	5707.630000	1194.555664	-0.518047
233.050532	5707.630000	1193.433594	-11.548203
233.050532	5707.630000	1192.311523	-25.380560
233.050532	5707.630000	1191.189453	-53.328884
233.050532	5707.630000	1190.066406	-161.379501
233.050532	5707.630000	1188.944336	-29.449780
233.050532	5707.630000	1187.821289	-135.124893
233.050532	5707.630000	1186.698242	-19.496206
233.050532	5707.630000	1185.574219	-96.494423
233.050532	5707.630000	1184.451172	81.453888
233.050532	5707.630000	1183.327148	-128.525558
233.050532	5707.630000	1182.203125	-113.924004
233.050532	5707.630000	1181.078125	-112.211708
233.050532	5707.630000	1179.954102	-107.450432
233.050532	5707.630000	1178.829102	-27.171734
233.050532	5707.630000	1177.704102	-48.777958
233.050532	5707.630000	1176.579102	-199.403152
233.050532	5707.630000	1175.453125	-71.654808
233.050532	5707.630000	1174.327148	15.406554
233.050532	5707.630000	1173.201172	10.177664
233.050532	5707.630000	1172.075195	-21.871515
233.050532	5707.630000	1170.949219	-16.318377
233.050532	5707.630000	1169.822266	-57.337841
233.050532	5707.630000	1168.695313	-70.997192
233.050532	5707.630000	1167.568359	-96.294708
233.050532	5707.630000	1166.440430	-82.235916
233.050532	5707.630000	1165.313477	-52.141548
233.050532	5707.630000	1164.185547	-144.997009
233.050532	5707.630000	1163.057617	-75.955467
233.050532	5707.630000	1161.928711	12.049331
233.050532	5707.630000	1160.800781	31.025824
233.050532	5707.630000	1159.671875	-45.999256
233.050532	5707.630000	1158.541992	-21.129192
233.050532	5707.630000	1157.413086	15.521014
233.050532	5707.630000	1156.283203	-154.633301
233.050532	5707.630000	1155.154297	59.299747
233.050532	5707.630000	1154.023438	-29.934504
233.050532	5707.630000	1152.893555	-24.994884
233.050532	5707.630000	1151.763672	-111.088646
233.050532	5707.630000	1150.632813	70.756599
233.050532	5707.630000	1149.501953	15.941577
233.050532	5707.630000	1148.370117	1.193050
233.050532	5707.630000	1147.239258	-20.807825
233.050532	5707.630000	1146.107422	95.139717
233.050532	5707.630000	1144.975586	57.738720
233.050532	5707.630000	1143.843750	-27.366949
233.050532	5707.630000	1142.710938	11.838961
233.050532	5707.630000	1141.578125	44.643532
233.050532	5707.630000	1140.445313	76.794151
233.050532	5707.630000	1139.312500	51.676392
233.050532	5707.630000	1138.178711	-15.003112
233.050532	5707.630000	1137.045898	16.304764
233.050532	5707.630000	1135.912109	75.081306
233.050532	5707.630000	1134.777344	-19.480808
233.050532	5707.630000	1133.643555	131.932281
233.050532	5707.630000	1132.508789	124.610878
233.050532	5707.630000	1131.374023	155.552170
233.050532	5707.630000	1130.239258	121.986015
233.050532	5707.630000	1129.104492	97.259918
233.050532	5707.630000	1127.968750	121.892899
233.050532	5707.630000	1126.833008	196.683014
233.050532	5707.630000	1125.697266	217.187271
233.050532	5707.630000	1124.560547	138.249359
233.050532	5707.630000	1123.424805	42.308945
233.050532	5707.630000	1122.288086	118.302544
233.050532	5707.630000	1121.151367	145.776367
233.050532	5707.630000	1120.013672	96.828918
233.050532	5707.630000	1118.876953	49.053837
233.050532	5707.630000	1117.739258	105.431946
233.050532	5707.630000	1116.601563	230.441162
233.050532	5707.630000	1115.462891	240.410431
233.050532	5707.630000	1114.324219	160.216629
233.050532	5707.630000	1113.186523	152.474030
233.050532	5707.630000	1112.046875	161.210052
233.050532	5707.630000	1110.908203	-33.996441
233.050532	5707.630000	1109.769531	-43.145172
233.050532	5707.630000	1108.629883	92.476486
233.050532	5707.630000	1107.490234	90.290482
233.050532	5707.630000	1106.349609	86.292610
233.050532	5707.630000	1105.209961	79.157539
233.050532	5707.630000	1104.069336	92.043922
233.050532	5707.630000	1102.928711	72.273201
233.050532	5707.630000	1101.787109	183.464157
233.050532	5707.630000	1100.646484	82.846298
233.050532	5707.630000	1099.504883	59.519077
233.050532	5707.630000	1098.363281	62.619926
233.050532	5707.630000	1097.221680	90.485718
233.050532	5707.630000	1096.079102	114.945114
233.050532	5707.630000	1094.936523	179.439331
233.050532	5707.630000	1093.793945	145.973724
233.050532	5707.630000	1092.651367	298.748932
233.050532	5707.630000	1091.507813	203.475372
233.050532	5707.630000	1090.364258	201.797989
233.050532	5707.630000	1089.220703	100.104927
233.050532	5707.630000	1088.077148	115.005554
233.050532	5707.630000	1086.933594	107.026695
233.050532	5707.630000	1085.789063	154.388962
233.050532	5707.630000	1084.644531	109.505463
233.050532	5707.630000	1083.499023	-32.907127
233.050532	5707.630000	1082.354492	11.339854
233.050532	5707.630000	1081.208984	28.524488
233.050532	5707.630000	1080.063477	3.932523
233.050532	5707.630000	1078.917969	-42.890629
233.050532	5707.630000	1077.771484	206.861954
233.050532	5707.630000	1076.625977	105.234138
233.050532	5707.630000	1075.479492	120.716705
233.050532	5707.630000	1074.332031	-30.605906
233.050532	5707.630000	1073.185547	137.505569
233.050532	5707.630000	1072.038086	180.701035
233.050532	5707.630000	1070.890625	189.513458
233.050532	5707.630000	1069.743164	244.024414
233.050532	5707.630000	1068.594727	179.906937
233.050532	5707.630000	1067.447266	34.934654
233.050532	5707.630000	1066.298828	150.795868
233.050532	5707.630000	1065.149414	152.246902
233.050532	5707.630000	1064.000977	170.079117
233.050532	5707.630000	1062.851563	159.470932
233.050532	5707.630000	1061.702148	81.988205
233.050532	5707.630000	1060.552734	15.748193
233.050532	5707.630000	1059.402344	-12.985893
233.050532	5707.630000	1058.252930	15.137083
233.050532	5707.630000	1057.102539	285.684509
233.050532	5707.630000	1055.951172	65.285812
233.050532	5707.630000	1054.800781	205.204330
233.050532	5707.630000	1053.649414	169.301788
233.050532	5707.630000	1052.498047	4.489948
233.050532	5707.630000	1051.346680	93.429527
233.050532	5707.630000	1050.194336	125.939293
233.050532	5707.630000	1049.042969	72.717361
233.050532	5707.630000	1047.890625	44.368465
233.050532	5707.630000	1046.738281	128.422134
233.050532	5707.630000	1045.584961	10.937315
233.050532	5707.630000	1044.431641	-73.033478
233.050532	5707.630000	1043.278320	220.584549
233.050532	5707.630000	1042.125000	23.202150
233.050532	5707.630000	1040.971680	166.265198
233.050532	5707.630000	1039.817383	127.609428
233.050532	5707.630000	1038.663086	4.820654
233.050532	5707.630000	1037.508789	-13.747498
233.050532	5707.630000	1036.353516	90.026772
233.050532	5707.630000	1035.198242	199.190292
233.050532	5707.630000	1034.042969	141.437515
233.050532	5707.630000	1032.887695	80.366699
233.050532	5707.630000	1031.732422	-45.212982
233.050532	5707.630000	1030.576172	150.135162
233.050532	5707.630000	1029.419922	69.230507
233.050532	5707.630000	1028.263672	130.299255
233.050532	5707.630000	1027.106445	220.119339
233.050532	5707.630000	1025.949219	184.460892
233.050532	5707.630000	1024.792969	32.524288
233.050532	5707.630000	1023.634766	58.665455
233.050532	5707.630000	1022.477539	-6.319427
233.050532	5707.630000	1021.319336	97.047165
233.050532	5707.630000	1020.161133	92.548157
233.050532	5707.630000	1019.002930	158.857498
233.050532	5707.630000	1017.843750	181.076263
233.050532	5707.630000	1016.684570	107.548958
233.050532	5707.630000	1015.525391	14.544263
233.050532	5707.630000	1014.366211	0.844068
233.050532	5707.630000	1013.207031	-32.754116
233.050532	5707.630000	1012.046875	48.515259
233.050532	5707.630000	1010.886719	130.016296
233.050532	5707.630000	1009.726563	196.069000
233.050532	5707.630000	1008.565430	178.763565
233.050532	5707.630000	1007.404297	12.563764
233.050532	5707.630000	1006.243164	156.182159
233.050532	5707.630000	1005.082031	-12.328342
233.050532	5707.630000	1003.920898	78.080742
233.050532	5707.630000	1002.758789	230.987854
233.050532	5707.630000	1001.596680	134.303146
233.050532	5707.630000	1000.433594	-24.599094
233.050532	5707.630000	999.271484	73.188774
233.050532	5707.630000	998.108398	4.964998
233.050532	5707.630000	996.945313	47.598274
233.050532	5707.630000	995.782227	98.998444
233.050532	5707.630000	994.618164	114.168175
233.050532	5707.630000	993.454102	13.433730
233.050532	5707.630000	992.290039	202.120483
233.050532	5707.630000	991.125977	143.578690
233.050532	5707.630000	989.960938	65.131317
233.050532	5707.630000	988.796875	145.348801
233.050532	5707.630000	987.630859	114.735229
233.050532	5707.630000	986.465820	185.412369
233.050532	5707.630000	985.300781	194.678757
233.050532	5707.630000	984.134766	-1.071962
233.050532	5707.630000	982.968750	103.825493
233.050532	5707.630000	981.801758	125.155396
233.050532	5707.630000	980.635742	252.499146
233.050532	5707.630000	979.468750	-0.635935
233.050532	5707.630000	978.301758	13.997013
233.050532	5707.630000	977.133789	143.338486
233.050532	5707.630000	975.966797	144.374237
233.050532	5707.630000	974.798828	33.340069
233.050532	5707.630000	973.630859	-39.914116
233.050532	5707.630000	972.461914	140.520401
233.050532	5707.630000	971.293945	96.295990
233.050532	5707.630000	970.125000	7.921284
233.050532	5707.630000	968.956055	115.512367
233.050532	5707.630000	967.786133	52.791885
233.050532	5707.630000	966.617188	59.551926
233.050532	5707.630000	965.447266	62.011505
233.050532	5707.630000	964.276367	-41.602646
233.050532	5707.630000	963.106445	-19.904140
233.050532	5707.630000	961.935547	-49.285835
233.050532	5707.630000	960.764648	-13.895258
233.050532	5707.630000	959.593750	62.125702
233.050532	5707.630000	958.422852	7.019909
233.050532	5707.630000	957.250977	-10.089679
233.050532	5707.630000	956.079102	90.985878
233.050532	5707.630000	954.907227	40.794621
233.050532	5707.630000	953.734375	116.901871
233.050532	5707.630000	952.562500	15.549146
233.050532	5707.630000	951.389648	89.423035
233.050532	5707.630000	950.215820	12.383562
233.050532	5707.630000	949.042969	-35.636288
233.050532	5707.630000	947.869141	55.613491
233.050532	5707.630000	946.695313	-9.595574
233.050532	5707.630000	945.521484	83.855843
233.050532	5707.630000	944.346680	116.597458
233.050532	5707.630000	943.172852	-12.025101
233.050532	5707.630000	941.998047	113.205894
233.050532	5707.630000	940.822266	67.647552
233.050532	5707.630000	939.647461	166.118195
233.050532	5707.630000	938.471680	44.864796
233.050532	5707.630000	937.295898	113.764404
233.050532	5707.630000	936.119141	104.881248
233.050532	5707.630000	934.943359	105.693375
233.050532	5707.630000	933.766602	116.151802
233.050532	5707.630000	932.589844	26.844540
233.050532	5707.630000	931.413086	17.876253
233.050532	5707.630000	930.235352	13.754025
233.050532	5707.630000	929.057617	163.098083
233.050532	5707.630000	927.879883	173.579514
233.050532	5707.630000	926.702148	64.766365
233.050532	5707.630000	925.523438	170.148117
233.050532	5707.630000	924.344727	200.076447
233.050532	5707.630000	923.166016	32.926563
233.050532	5707.630000	921.987305	194.211792
233.050532	5707.630000	920.807617	129.259506
233.050532	5707.630000	919.627930	131.063004
233.050532	5707.630000	919.497070	91.276985
233.050532	5707.630000	918.331055	113.861084
233.050532	5707.630000	917.165039	-33.702888
233.050532	5707.630000	915.999023	32.630642
233.050532	5707.630000	914.833008	-10.393538
233.050532	5707.630000	913.666016	-29.111193
233.050532	5707.630000	912.499023	39.602821
233.050532	5707.630000	911.332031	-100.523804
233.050532	5707.630000	910.165039	14.295231
233.050532	5707.630000	908.997070	102.369644
233.050532	5707.630000	907.830078	163.712769
233.050532	5707.630000	906.661133	-58.816849
233.050532	5707.630000	905.493164	58.320007
233.050532	5707.630000	904.325195	114.780708
233.050532	5707.630000	903.156250	57.263641
233.050532	5707.630000	901.987305	135.517487
233.050532	5707.630000	900.818359	0.462303
233.050532	5707.630000	899.648438	-52.151768
233.050532	5707.630000	898.478516	52.723263
233.050532	5707.630000	897.308594	2.540173
233.050532	5707.630000	896.138672	-59.730690
233.050532	5707.630000	894.968750	-42.079914
233.050532	5707.630000	893.797852	23.976997
233.050532	5707.630000	892.626953	-45.519783
233.050532	5707.630000	891.456055	-69.015923
233.050532	5707.630000	890.284180	-24.764246
233.050532	5707.630000	889.113281	99.282761
233.050532	5707.630000	887.941406	157.991409
233.050532	5707.630000	886.768555	23.264645
233.050532	5707.630000	885.596680	86.799873
233.050532	5707.630000	884.423828	-38.188950
233.050532	5707.630000	883.250977	78.491661
233.050532	5707.630000	882.078125	-51.274391
233.050532	5707.630000	880.905273	183.707809
233.050532	5707.630000	879.731445	66.050201
233.050532	5707.630000	878.557617	35.353943
233.050532	5707.630000	877.383789	11.912119
233.050532	5707.630000	876.209961	-11.518344
233.050532	5707.630000	875.035156	39.857567
233.050532	5707.630000	873.860352	1.962317
233.050532	5707.630000	872.685547	96.729095
233.050532	5707.630000	871.510742	44.373329
233.050532	5707.630000	870.334961	-65.815353
233.050532	5707.630000	869.159180	43.376022
233.050532	5707.630000	867.983398	15.168245
233.050532	5707.630000	866.807617	177.306503
233.050532	5707.630000	865.630859	112.956894
233.050532	5707.630000	864.454102	-35.653461
233.050532	5707.630000	863.277344	92.694740
233.050532	5707.630000	862.100586	-103.992088
233.050532	5707.630000	860.922852	101.341309
233.050532	5707.630000	859.745117	-30.289400
233.050532	5707.630000	858.567383	49.847294
233.050532	5707.630000	857.389648	50.578594
233.050532	5707.630000	856.210938	-92.975319
233.050532	5707.630000	855.032227	-56.143501
233.050532	5707.630000	853.853516	26.349476
233.050532	5707.630000	852.674805	-4.146249
233.050532	5707.630000	851.495117	-68.264397
233.050532	5707.630000	850.315430	9.385191
233.050532	5707.630000	849.135742	77.398727
233.050532	5707.630000	847.956055	-34.715443
233.050532	5707.630000	846.775391	42.890388
233.050532	5707.630000	845.595703	-6.754520
233.050532	5707.630000	844.415039	-46.775074
233.050532	5707.630000	843.233398	69.186180
233.050532	5707.630000	842.052734	-85.974350
233.050532	5707.630000	840.871094	29.953886
233.050532	5707.630000	839.689453	40.328770
233.050532	5707.630000	838.506836	-64.371613
233.050532	5707.630000	837.325195	15.535748
233.050532	5707.630000	836.142578	49.882984
233.050532	5707.630000	834.959961	-131.415894
233.050532	5707.630000	833.777344	-20.391651
233.050532	5707.630000	832.593750	30.716995
233.050532	5707.630000	831.410156	-11.575867
233.050532	5707.630000	830.226563	68.243912
233.050532	5707.630000	829.042969	-17.115200
233.050532	5707.630000	827.858398	2.856136
233.050532	5707.630000	826.673828	-27.419813
233.050532	5707.630000	825.489258	-62.464073
233.050532	5707.630000	824.304688	29.258486
233.050532	5707.630000	823.120117	-58.379616
233.050532	5707.630000	821.934570	-167.491119
233.050532	5707.630000	820.749023	-35.162579
233.050532	5707.630000	819.562500	-36.698143
233.050532	5707.630000	818.376953	-66.899788
233.050532	5707.630000	817.190430	108.329773
233.050532	5707.630000	816.003906	-62.777657
233.050532	5707.630000	814.817383	-33.256809
233.050532	5707.630000	813.629883	103.674103
233.050532	5707.630000	812.442383	90.197037
233.050532	5707.630000	811.254883	-11.557202
233.050532	5707.630000	810.067383	122.906433
233.050532	5707.630000	808.878906	-78.979904
233.050532	5707.630000	807.690430	62.601982
233.050532	5707.630000	806.501953	-43.819675
233.050532	5707.630000	805.313477	-31.014484
233.050532	5707.630000	804.124023	74.730957
233.050532	5707.630000	802.934570	-36.384808
233.050532	5707.630000	801.745117	-42.638245
233.050532	5707.630000	800.555664	-96.520653
233.050532	5707.630000	799.365234	-59.893833
233.050532	5707.630000	798.175781	2.905459
233.050532	5707.630000	796.985352	-58.086998
233.050532	5707.630000	795.793945	85.600861
233.050532	5707.630000	794.603516	22.240173
233.050532	5707.630000	793.412109	-12.547350
233.050532	5707.630000	792.220703	21.648214
233.050532	5707.630000	791.028320	-200.959259
233.050532	5707.630000	789.836914	30.570774
233.050532	5707.630000	788.644531	17.206219
233.050532	5707.630000	787.452148	20.481007
233.050532	5707.630000	786.258789	76.022568
233.050532	5707.630000	785.066406	-132.111359
233.050532	5707.630000	783.873047	23.178940
233.050532	5707.630000	782.679688	202.146622
233.050532	5707.630000	781.485352	-5.880198
233.050532	5707.630000	780.291992	2.143987
233.050532	5707.630000	779.097656	0.675331
233.050532	5707.630000	777.903320	6.323430
233.050532	5707.630000	776.708008	38.059929
233.050532	5707.630000	775.512695	91.123817
233.050532	5707.630000	774.318359	1.915214
233.050532	5707.630000	773.122070	114.221909
233.050532	5707.630000	771.926758	53.482353
233.050532	5707.630000	770.730469	120.711754
233.050532	5707.630000	769.534180	266.083160
233.050532	5707.630000	768.337891	229.030029
233.050532	5707.630000	767.141602	239.347580
233.050532	5707.630000	765.944336	337.252045
233.050532	5707.630000	764.747070	170.024902
233.050532	5707.630000	763.549805	159.045364
233.050532	5707.630000	762.351563	-24.639780
233.050532	5707.630000	761.154297	16.458841
233.050532	5707.630000	759.956055	14.970630
233.050532	5707.630000	758.757813	273.563751
233.050532	5707.630000	757.558594	30.899277
233.050532	5707.630000	756.359375	60.124348
233.050532	5707.630000	755.160156	-16.997536
233.050532	5707.630000	753.960938	9.855694
233.050532	5707.630000	752.761719	50.865002
233.050532	5707.630000	751.561523	77.685524
233.050532	5707.630000	750.361328	97.407822
233.050532	5707.630000	749.160156	161.967300
233.050532	5707.630000	747.959961	158.054047
233.050532	5707.630000	746.758789	314.583038
233.050532	5707.630000	745.557617	150.219543
233.050532	5707.630000	744.356445	122.711876
233.050532	5707.630000	743.154297	88.137016
233.050532	5707.630000	741.952148	-36.014561
233.050532	5707.630000	740.750000	4.870708
233.050532	5707.630000	739.547852	26.880013
233.050532	5707.630000	738.344727	-38.298367
233.050532	5707.630000	737.142578	7.252809
233.050532	5707.630000	735.939453	102.235497
233.050532	5707.630000	734.735352	152.435593
233.050532	5707.630000	733.532227	61.362167
233.050532	5707.630000	732.328125	179.788437
233.050532	5707.630000	731.124023	72.261047
233.050532	5707.630000	729.918945	91.811981
233.050532	5707.630000	728.714844	3.148616
233.050532	5707.630000	727.509766	25.040176
233.050532	5707.630000	726.303711	-7.160056
233.050532	5707.630000	725.098633	115.783157
233.050532	5707.630000	723.892578	3.654140
233.050532	5707.630000	722.686523	9.044532
233.050532	5707.630000	721.480469	-6.719226
233.050532	5707.630000	720.274414	45.624363
233.050532	5707.630000	719.067383	27.492460
233.050532	5707.630000	717.860352	-9.424150
233.050532	5707.630000	716.653320	193.076462
233.050532	5707.630000	715.445313	-12.840527
233.050532	5707.630000	714.238281	154.361053
233.050532	5707.630000	713.030273	-56.175732
233.050532	5707.630000	711.821289	82.801796
233.050532	5707.630000	710.613281	-19.797571
233.050532	5707.630000	709.404297	1.878643
233.050532	5707.630000	708.195313	-182.714539
233.050532	5707.630000	706.986328	-1.697446
233.050532	5707.630000	705.776367	158.147751
233.050532	5707.630000	704.566406	-49.822025
233.050532	5707.630000	703.356445	-32.907780
233.050532	5707.630000	702.146484	-27.720068
233.050532	5707.630000	700.935547	26.609293
233.050532	5707.630000	699.724609	183.874756
233.050532	5707.630000	698.513672	121.118614
233.050532	5707.630000	697.302734	79.428528
233.050532	5707.630000	696.090820	124.279099
233.050532	5707.630000	694.878906	166.757813
233.050532	5707.630000	693.666992	-8.215630
233.050532	5707.630000	692.455078	-38.214653
233.050532	5707.630000	691.242188	-51.857491
233.050532	5707.630000	690.029297	93.362831
233.050532	5707.630000	688.816406	-2.089047
233.050532	5707.630000	687.602539	14.583174
233.050532	5707.630000	686.389648	-92.518364
233.050532	5707.630000	685.175781	50.190311
233.050532	5707.630000	683.960938	8.445309
233.050532	5707.630000	682.747070	29.701883
233.050532	5707.630000	681.532227	-47.048832
233.050532	5707.630000	680.317383	25.490774
233.050532	5707.630000	679.102539	97.983131
233.050532	5707.630000	677.886719	39.866528
233.050532	5707.630000	676.670898	-36.890472
233.050532	5707.630000	675.455078	103.100639
233.050532	5707.630000	674.239258	44.966167
233.050532	5707.630000	673.022461	100.983711
233.050532	5707.630000	671.805664	-31.689133
233.050532	5707.630000	670.588867	56.883518
233.050532	5707.630000	669.372070	52.279156
233.050532	5707.630000	668.154297	52.313904
233.050532	5707.630000	666.936523	-61.695381
233.050532	5707.630000	665.718750	-12.817198
233.050532	5707.630000	664.500977	115.106033
233.050532	5707.630000	663.282227	-26.807854
233.050532	5707.630000	662.063477	-3.601785
233.050532	5707.630000	660.844727	3.302726
233.050532	5707.630000	659.625000	-122.288040
233.050532	5707.630000	658.405273	26.338903
233.050532	5707.630000	657.185547	-38.843410
233.050532	5707.630000	655.965820	63.210323
233.050532	5707.630000	654.745117	-20.569153
233.050532	5707.630000	653.525391	37.285461
233.050532	5707.630000	652.303711	23.140776
233.050532	5707.630000	651.083008	-14.225958
233.050532	5707.630000	649.861328	62.091221
233.050532	5707.630000	648.640625	73.403511
233.050532	5707.630000	647.417969	93.967972
233.050532	5707.630000	646.196289	109.864311
233.050532	5707.630000	644.973633	53.869480
233.050532	5707.630000	643.750977	41.913509
233.050532	5707.630000	642.528320	111.043709
233.050532	5707.630000	641.305664	22.585724
233.050532	5707.630000	640.082031	-35.745182
233.050532	5707.630000	638.858398	-3.758137
233.050532	5707.630000	637.634766	79.129349
233.050532	5707.630000	636.410156	106.406441
233.050532	5707.630000	635.185547	103.564369
233.050532	5707.630000	633.960938	98.387779
233.050532	5707.630000	632.736328	-15.532987
233.050532	5707.630000	631.510742	7.028974
233.050532	5707.630000	630.285156	36.496140
233.050532	5707.630000	629.059570	61.305531
233.050532	5707.630000	627.833984	83.771622
233.050532	5707.630000	626.607422	-57.863586
233.050532	5707.630000	625.380859	-7.700955
233.050532	5707.630000	624.154297	-93.863007
233.050532	5707.630000	622.927734	11.667873
233.050532	5707.630000	621.700195	45.556995
233.050532	5707.630000	620.472656	-26.775908
233.050532	5707.630000	619.245117	67.069618
233.050532	5707.630000	618.016602	167.775940
233.050532	5707.630000	616.788086	-19.947599
233.050532	5707.630000	615.559570	-73.839676
233.050532	5707.630000	614.331055	142.066116
233.050532	5707.630000	613.101563	55.843693
233.050532	5707.630000	611.872070	94.105339
233.050532	5707.630000	610.642578	153.069916
233.050532	5707.630000	609.413086	-29.930410
233.050532	5707.630000	608.182617	61.242683
233.050532	5707.630000	606.952148	80.963295
233.050532	5707.630000	605.721680	107.562141
233.050532	5707.630000	604.491211	-105.281914
233.050532	5707.630000	603.259766	-127.027748
233.050532	5707.630000	602.028320	3.085065
233.050532	5707.630000	600.796875	27.296938
233.050532	5707.630000	599.564453	92.879448
233.050532	5707.630000	598.332031	34.237125
233.050532	5707.630000	597.099609	69.862846
233.050532	5707.630000	595.867188	-2.580105
233.050532	5707.630000	594.633789	-1.472033
233.050532	5707.630000	593.400391	201.808487
233.050532	5707.630000	592.166992	200.538040
233.050532	5707.630000	590.933594	109.680237
233.050532	5707.630000	589.699219	246.162369
233.050532	5707.630000	588.464844	42.809067
233.050532	5707.630000	587.230469	13.958474
233.050532	5707.630000	585.995117	-3.424053
233.050532	5707.630000	584.760742	135.190048
233.050532	5707.630000	583.525391	60.411896
233.050532	5707.630000	582.289063	63.618191
233.050532	5707.630000	581.053711	57.635944
233.050532	5707.630000	579.817383	33.301800
233.050532	5707.630000	578.581055	112.091919
233.050532	5707.630000	577.343750	-15.382858
233.050532	5707.630000	576.107422	19.828125
233.050532	5707.630000	574.870117	9.202072
233.050532	5707.630000	573.631836	3.146023
233.050532	5707.630000	572.394531	49.732319
233.050532	5707.630000	571.156250	55.085571
233.050532	5707.630000	569.917969	64.999474
233.050532	5707.630000	568.679688	-28.057360
233.050532	5707.630000	567.440430	7.004390
233.050532	5707.630000	566.202148	58.047237
233.050532	5707.630000	564.961914	79.332024
233.050532	5707.630000	563.722656	66.308151
233.050532	5707.630000	562.482422	66.990280
233.050532	5707.630000	561.243164	163.628250
233.050532	5707.630000	560.001953	175.689331
233.050532	5707.630000	558.761719	39.278858
233.050532	5707.630000	557.520508	3.388479
233.050532	5707.630000	556.279297	58.823292
233.050532	5707.630000	555.038086	43.468002
233.050532	5707.630000	553.795898	105.698044
233.050532	5707.630000	552.554688	-44.285942
233.050532	5707.630000	551.311523	11.076517
233.050532	5707.630000	550.069336	-43.056374
233.050532	5707.630000	548.826172	19.108772
233.050532	5707.630000	547.583984	124.552940
233.050532	5707.630000	546.339844	59.015263
233.050532	5707.630000	545.096680	59.579323
233.050532	5707.630000	543.852539	-76.547447
233.050532	5707.630000	542.608398	69.801979
233.050532	5707.630000	541.364258	-29.843605
233.050532	5707.630000	540.119141	-33.831898
233.050532	5707.630000	538.875000	23.634563
233.050532	5707.630000	537.628906	10.527801
233.050532	5707.630000	536.383789	-18.501144
233.050532	5707.630000	535.137695	-93.012909
233.050532	5707.630000	533.892578	-51.509819
233.050532	5707.630000	532.645508	10.437188
233.050532	5707.630000	531.399414	-18.570147
233.050532	5707.630000	530.152344	13.798658
233.050532	5707.630000	528.905273	-133.352310
233.050532	5707.630000	527.658203	-37.361427
233.050532	5707.630000	526.410156	83.573555
233.050532	5707.630000	525.163086	-72.574600
233.050532	5707.630000	523.914063	-85.625336
233.050532	5707.630000	522.666016	-148.602402
233.050532	5707.630000	521.416992	-75.389671
233.050532	5707.630000	520.167969	-15.816642
233.050532	5707.630000	518.918945	48.272461
233.050532	5707.630000	517.669922	-44.141876
233.050532	5707.630000	516.419922	4.065358
233.050532	5707.630000	515.169922	-165.361176
233.050532	5707.630000	513.919922	145.767029
233.050532	5707.630000	512.668945	-55.325405
233.050532	5707.630000	511.417969	-56.966599
233.050532	5707.630000	510.166992	29.733597
233.050532	5707.630000	508.916016	-125.889374
233.050532	5707.630000	507.664063	30.990206
233.050532	5707.630000	506.412109	33.896233
233.050532	5707.630000	505.160156	54.915108
233.050532	5707.630000	503.907227	-0.988764
233.050532	5707.630000	502.655273	164.820694
233.050532	5707.630000	501.402344	13.956866
233.050532	5707.630000	500.148438	39.531059
233.050532	5707.630000	498.895508	1.812094
233.050532	5707.630000	497.641602	-56.217968
233.050532	5707.630000	496.387695	-30.605188
233.050532	5707.630000	495.132813	17.601662
233.050532	5707.630000	493.878906	-4.213989
233.050532	5707.630000	492.624023	1.092087
233.050532	5707.630000	491.368164	10.926060
233.050532	5707.630000	490.113281	-119.171036
233.050532	5707.630000	488.857422	-70.920166
233.050532	5707.630000	487.601563	13.425410
233.050532	5707.630000	486.344727	-109.771957
233.050532	5707.630000	485.088867	-52.483097
233.050532	5707.630000	483.832031	-35.785881
233.050532	5707.630000	482.575195	-28.095299
233.050532	5707.630000	481.317383	2.146801
233.050532	5707.630000	480.059570	-100.547401
233.050532	5707.630000	478.801758	-101.804634
233.050532	5707.630000	477.543945	45.608681
233.050532	5707.630000	476.285156	6.077839
233.050532	5707.630000	475.027344	56.635517
233.050532	5707.630000	473.767578	1.401572
233.050532	5707.630000	472.508789	108.235878
233.050532	5707.630000	471.249023	188.045044
233.050532	5707.630000	469.989258	105.884407
233.050532	5707.630000	468.729492	111.485451
233.050532	5707.630000	467.469727	103.613319
233.050532	5707.630000	466.208984	-30.119236
233.050532	5707.630000	464.948242	-13.196601
233.050532	5707.630000	463.686523	-52.435734
233.050532	5707.630000	462.425781	54.381504
233.050532	5707.630000	461.164063	10.692023
233.050532	5707.630000	459.901367	34.404865
233.050532	5707.630000	458.639648	-105.758598
233.050532	5707.630000	457.376953	-59.547989
233.050532	5707.630000	456.114258	6.857634
233.050532	5707.630000	454.851563	86.713814
233.050532	5707.630000	453.587891	43.184872
233.050532	5707.630000	452.324219	-81.040726
233.050532	5707.630000	451.060547	48.161098
233.050532	5707.630000	449.796875	24.894352
233.050532	5707.630000	448.532227	59.922855
233.050532	5707.630000	447.267578	32.213654
233.050532	5707.630000	446.002930	33.653347
233.050532	5707.630000	444.737305	57.503696
233.050532	5707.630000	443.471680	58.965454
233.050532	5707.630000	442.206055	138.793732
233.050532	5707.630000	440.940430	106.688385
233.050532	5707.630000	439.673828	32.091686
233.050532	5707.630000	438.407227	60.450726
233.050532	5707.630000	437.140625	79.859749
233.050532	5707.630000	435.873047	72.433716
233.050532	5707.630000	434.605469	-6.527937
233.050532	5707.630000	433.337891	-40.742664
233.050532	5707.630000	432.070313	45.742912
233.050532	5707.630000	430.801758	29.414623
233.050532	5707.630000	429.533203	42.136089
233.050532	5707.630000	428.264648	41.452290
233.050532	5707.630000	426.996094	-55.245667
233.050532	5707.630000	425.726563	64.639595
233.050532	5707.630000	424.457031	52.785381
233.050532	5707.630000	423.186523	-10.391757
233.050532	5707.630000	421.916992	133.929596
233.050532	5707.630000	420.646484	-107.692284
233.050532	5707.630000	419.375977	-3.571598
233.050532	5707.630000	418.104492	82.654648
233.050532	5707.630000	416.833008	19.483614
233.050532	5707.630000	415.561523	23.179253
233.050532	5707.630000	414.290039	35.766171
233.050532	5707.630000	413.017578	-7.364233
233.050532	5707.630000	411.746094	9.631421
233.050532	5707.630000	410.472656	-118.136101
233.050532	5707.630000	409.200195	1.221197
233.050532	5707.630000	407.926758	-30.848444
233.050532	5707.630000	406.653320	-13.986168
233.050532	5707.630000	405.379883	22.852964
233.050532	5707.630000	404.105469	1.805592
233.050532	5707.630000	402.831055	-88.211555
233.050532	5707.630000	401.556641	-11.495166
233.050532	5707.630000	400.282227	20.681892
233.050532	5707.630000	399.006836	-24.988672
233.050532	5707.630000	397.731445	-32.927349
233.050532	5707.630000	396.456055	3.501823
233.050532	5707.630000	395.179688	24.303047
233.050532	5707.630000	393.903320	38.365166
233.050532	5707.630000	392.626953	83.424843
233.050532	5707.630000	391.350586	115.071175
233.050532	5707.630000	390.073242	97.805168
233.050532	5707.630000	388.795898	-26.023205
233.050532	5707.630000	387.518555	-23.468332
233.050532	5707.630000	386.240234	105.382294
233.050532	5707.630000	384.961914	81.105957
233.050532	5707.630000	383.683594	-3.110942
233.050532	5707.630000	382.405273	-14.275019
233.050532	5707.630000	381.125977	27.619553
233.050532	5707.630000	379.846680	56.083363
233.050532	5707.630000	378.567383	42.330036
233.050532	5707.630000	377.287109	110.367569
233.050532	5707.630000	376.006836	-36.481655
233.050532	5707.630000	374.726563	130.846100
233.050532	5707.630000	373.446289	54.560390
233.050532	5707.630000	372.165039	86.541611
233.050532	5707.630000	370.883789	-7.721603
233.050532	5707.630000	369.602539	57.087212
233.050532	5707.630000	368.320313	66.418800
233.050532	5707.630000	367.039063	144.077499
233.050532	5707.630000	365.755859	-59.133358
233.050532	5707.630000	364.473633	-32.694096
233.050532	5707.630000	363.190430	13.399396
233.050532	5707.630000	361.907227	163.043091
233.050532	5707.630000	360.624023	20.964685
233.050532	5707.630000	359.340820	88.408295
233.050532	5707.630000	358.056641	3.302718
233.050532	5707.630000	356.772461	-2.590030
233.050532	5707.630000	355.487305	17.723448
233.050532	5707.630000	354.202148	44.372757
233.050532	5707.630000	352.916992	161.130203
233.050532	5707.630000	351.631836	176.140900
233.050532	5707.630000	350.346680	32.158623
233.050532	5707.630000	349.060547	50.979210
233.050532	5707.630000	347.774414	67.266319
233.050532	5707.630000	346.487305	133.864594
233.050532	5707.630000	345.200195	21.724264
233.050532	5707.630000	343.913086	-59.902130
233.050532	5707.630000	342.625977	-40.611431
233.050532	5707.630000	341.338867	-120.735115
233.050532	5707.630000	340.050781	31.989157
233.050532	5707.630000	338.762695	-29.122633
233.050532	5707.630000	337.473633	-7.064702
233.050532	5707.630000	336.184570	135.479431
233.050532	5707.630000	334.895508	35.715439
233.050532	5707.630000	333.606445	-55.671768
233.050532	5707.630000	332.317383	164.517059
233.050532	5707.630000	331.027344	105.126320
233.050532	5707.630000	329.736328	-42.600086
233.050532	5707.630000	328.446289	9.048909
233.050532	5707.630000	327.155273	-18.897495
233.050532	5707.630000	325.864258	-159.315872
233.050532	5707.630000	324.573242	-69.827721
233.050532	5707.630000	323.281250	-31.428488
233.050532	5707.630000	321.989258	-59.444748
233.050532	5707.630000	320.697266	-26.660156
233.050532	5707.630000	319.405273	42.751644
233.050532	5707.630000	318.112305	41.328064
233.050532	5707.630000	316.819336	-4.590593
233.050532	5707.630000	315.526367	43.038219
233.050532	5707.630000	314.232422	-67.790306
233.050532	5707.630000	312.938477	-117.972824
233.050532	5707.630000	311.644531	61.028160
233.050532	5707.630000	310.349609	175.686920
233.050532	5707.630000	309.054688	77.215599
233.050532	5707.630000	307.759766	-37.334843
233.050532	5707.630000	306.464844	24.538265
233.050532	5707.630000	305.168945	94.266052
233.050532	5707.630000	303.873047	77.810875
233.050532	5707.630000	302.577148	115.124809
233.050532	5707.630000	301.281250	123.091179
233.050532	5707.630000	299.984375	84.201584
