#X		#Y		#Wave		#Intensity
476.471277	6192.400000	1999.946289	-195.951218
476.471277	6192.400000	1998.981445	192.295563
476.471277	6192.400000	1998.017578	-152.767746
476.471277	6192.400000	1997.052734	10.085811
476.471277	6192.400000	1996.088867	-114.746979
476.471277	6192.400000	1995.124023	77.336555
476.471277	6192.400000	1994.159180	-119.701431
476.471277	6192.400000	1993.193359	128.865814
476.471277	6192.400000	1992.228516	-41.262051
476.471277	6192.400000	1991.262695	-87.743385
476.471277	6192.400000	1990.296875	-79.937096
476.471277	6192.400000	1989.331055	29.146530
476.471277	6192.400000	1988.365234	-121.743172
476.471277	6192.400000	1987.398438	29.032724
476.471277	6192.400000	1986.432617	28.742483
476.471277	6192.400000	1985.465820	-82.964577
476.471277	6192.400000	1984.499023	114.246185
476.471277	6192.400000	1983.532227	51.720119
476.471277	6192.400000	1982.565430	112.645187
476.471277	6192.400000	1981.597656	124.005356
476.471277	6192.400000	1980.629883	226.640213
476.471277	6192.400000	1979.662109	94.484444
476.471277	6192.400000	1978.694336	-13.041095
476.471277	6192.400000	1977.726563	-56.441433
476.471277	6192.400000	1976.758789	154.324173
476.471277	6192.400000	1975.790039	113.173851
476.471277	6192.400000	1974.821289	20.124907
476.471277	6192.400000	1973.852539	25.705044
476.471277	6192.400000	1972.883789	117.528763
476.471277	6192.400000	1971.915039	-39.847153
476.471277	6192.400000	1970.945313	22.203421
476.471277	6192.400000	1969.975586	29.921328
476.471277	6192.400000	1969.005859	232.285873
476.471277	6192.400000	1968.036133	-156.936630
476.471277	6192.400000	1967.066406	50.184078
476.471277	6192.400000	1966.096680	207.898483
476.471277	6192.400000	1965.125977	202.938156
476.471277	6192.400000	1964.155273	101.887505
476.471277	6192.400000	1963.184570	123.926392
476.471277	6192.400000	1962.213867	195.141830
476.471277	6192.400000	1961.242188	133.380066
476.471277	6192.400000	1960.271484	81.445518
476.471277	6192.400000	1959.299805	49.169151
476.471277	6192.400000	1958.328125	68.523773
476.471277	6192.400000	1957.356445	107.510971
476.471277	6192.400000	1956.384766	77.604912
476.471277	6192.400000	1955.412109	273.849365
476.471277	6192.400000	1954.439453	118.506958
476.471277	6192.400000	1953.467773	179.460495
476.471277	6192.400000	1952.495117	46.259647
476.471277	6192.400000	1951.521484	6.433768
476.471277	6192.400000	1950.548828	-3.918060
476.471277	6192.400000	1949.575195	39.736897
476.471277	6192.400000	1948.601563	-9.936708
476.471277	6192.400000	1947.627930	129.410553
476.471277	6192.400000	1946.654297	-82.269409
476.471277	6192.400000	1945.680664	42.295528
476.471277	6192.400000	1944.706055	46.585644
476.471277	6192.400000	1943.732422	75.400848
476.471277	6192.400000	1942.757813	42.884563
476.471277	6192.400000	1941.783203	155.043808
476.471277	6192.400000	1940.807617	-93.222466
476.471277	6192.400000	1939.833008	-49.713219
476.471277	6192.400000	1938.857422	104.053574
476.471277	6192.400000	1937.881836	-19.106726
476.471277	6192.400000	1936.906250	-17.282902
476.471277	6192.400000	1935.930664	-30.152678
476.471277	6192.400000	1934.955078	52.488983
476.471277	6192.400000	1933.978516	24.925398
476.471277	6192.400000	1933.001953	-90.747108
476.471277	6192.400000	1932.025391	92.218323
476.471277	6192.400000	1931.048828	-180.017441
476.471277	6192.400000	1930.072266	-55.806263
476.471277	6192.400000	1929.094727	-129.769348
476.471277	6192.400000	1928.118164	16.413675
476.471277	6192.400000	1927.140625	1.167676
476.471277	6192.400000	1926.163086	-23.843075
476.471277	6192.400000	1925.184570	205.365555
476.471277	6192.400000	1924.207031	6.838256
476.471277	6192.400000	1923.228516	-110.977722
476.471277	6192.400000	1922.250000	-94.380241
476.471277	6192.400000	1921.271484	-116.855400
476.471277	6192.400000	1920.292969	21.858742
476.471277	6192.400000	1919.314453	-83.618523
476.471277	6192.400000	1918.334961	1.354951
476.471277	6192.400000	1917.355469	-35.721138
476.471277	6192.400000	1916.375977	2.872993
476.471277	6192.400000	1915.396484	2.430323
476.471277	6192.400000	1914.416992	50.784813
476.471277	6192.400000	1913.436523	64.985710
476.471277	6192.400000	1912.457031	59.691174
476.471277	6192.400000	1911.476563	-45.546211
476.471277	6192.400000	1910.496094	-41.048359
476.471277	6192.400000	1909.515625	-207.127960
476.471277	6192.400000	1908.534180	-141.669449
476.471277	6192.400000	1907.552734	-17.759520
476.471277	6192.400000	1906.572266	-8.354112
476.471277	6192.400000	1905.590820	-25.731697
476.471277	6192.400000	1904.608398	-30.922840
476.471277	6192.400000	1903.626953	-65.308952
476.471277	6192.400000	1902.644531	-104.543526
476.471277	6192.400000	1901.663086	-131.585205
476.471277	6192.400000	1900.680664	140.632233
476.471277	6192.400000	1899.698242	-117.510429
476.471277	6192.400000	1898.714844	35.448887
476.471277	6192.400000	1897.732422	-6.158599
476.471277	6192.400000	1896.749023	-174.161194
476.471277	6192.400000	1895.765625	-52.854046
476.471277	6192.400000	1894.782227	-125.998444
476.471277	6192.400000	1893.798828	-94.634033
476.471277	6192.400000	1892.814453	-240.613251
476.471277	6192.400000	1891.831055	121.084351
476.471277	6192.400000	1890.846680	-7.875407
476.471277	6192.400000	1889.862305	33.166283
476.471277	6192.400000	1888.877930	-15.619364
476.471277	6192.400000	1887.892578	-168.748917
476.471277	6192.400000	1886.908203	34.880009
476.471277	6192.400000	1885.922852	20.085510
476.471277	6192.400000	1884.937500	82.914009
476.471277	6192.400000	1883.952148	14.759311
476.471277	6192.400000	1882.965820	-21.854198
476.471277	6192.400000	1881.980469	-65.726563
476.471277	6192.400000	1880.994141	47.956371
476.471277	6192.400000	1880.007813	23.462637
476.471277	6192.400000	1879.021484	32.893013
476.471277	6192.400000	1878.035156	107.718391
476.471277	6192.400000	1877.047852	-20.939266
476.471277	6192.400000	1876.061523	-113.230606
476.471277	6192.400000	1875.074219	-6.972429
476.471277	6192.400000	1874.086914	24.197992
476.471277	6192.400000	1873.098633	113.426987
476.471277	6192.400000	1872.111328	30.814909
476.471277	6192.400000	1871.123047	35.312447
476.471277	6192.400000	1870.135742	-23.090368
476.471277	6192.400000	1869.147461	-66.978058
476.471277	6192.400000	1868.158203	106.743210
476.471277	6192.400000	1867.169922	-16.957947
476.471277	6192.400000	1866.180664	101.066277
476.471277	6192.400000	1865.192383	151.369507
476.471277	6192.400000	1864.203125	-8.566525
476.471277	6192.400000	1863.213867	-91.160263
476.471277	6192.400000	1862.223633	87.090881
476.471277	6192.400000	1861.234375	-41.410717
476.471277	6192.400000	1860.244141	8.765748
476.471277	6192.400000	1859.253906	220.626709
476.471277	6192.400000	1858.263672	128.302155
476.471277	6192.400000	1857.273438	40.813694
476.471277	6192.400000	1856.282227	298.309265
476.471277	6192.400000	1855.291992	61.226692
476.471277	6192.400000	1854.300781	253.457443
476.471277	6192.400000	1853.309570	-137.895233
476.471277	6192.400000	1852.317383	15.671033
476.471277	6192.400000	1851.326172	17.311031
476.471277	6192.400000	1850.333984	129.764694
476.471277	6192.400000	1849.342773	25.313896
476.471277	6192.400000	1848.350586	185.837128
476.471277	6192.400000	1847.357422	192.127411
476.471277	6192.400000	1846.365234	-32.775375
476.471277	6192.400000	1845.372070	233.491455
476.471277	6192.400000	1844.379883	133.759918
476.471277	6192.400000	1843.386719	214.518585
476.471277	6192.400000	1842.393555	69.035095
476.471277	6192.400000	1841.399414	43.847668
476.471277	6192.400000	1840.406250	-125.678200
476.471277	6192.400000	1839.412109	226.646973
476.471277	6192.400000	1838.417969	242.197464
476.471277	6192.400000	1837.423828	99.047691
476.471277	6192.400000	1836.429688	145.776962
476.471277	6192.400000	1835.434570	24.236773
476.471277	6192.400000	1834.440430	-66.065277
476.471277	6192.400000	1833.445313	-141.970398
476.471277	6192.400000	1832.450195	-23.363804
476.471277	6192.400000	1831.454102	164.780670
476.471277	6192.400000	1830.458984	19.118450
476.471277	6192.400000	1829.462891	99.079506
476.471277	6192.400000	1828.466797	-121.008270
476.471277	6192.400000	1827.470703	45.227470
476.471277	6192.400000	1826.474609	81.812424
476.471277	6192.400000	1825.478516	142.317200
476.471277	6192.400000	1824.481445	145.192520
476.471277	6192.400000	1823.484375	-50.977612
476.471277	6192.400000	1822.487305	45.313999
476.471277	6192.400000	1821.490234	155.895813
476.471277	6192.400000	1820.493164	144.178360
476.471277	6192.400000	1819.495117	26.995920
476.471277	6192.400000	1818.498047	34.359695
476.471277	6192.400000	1817.500000	226.059952
476.471277	6192.400000	1816.500977	60.869400
476.471277	6192.400000	1815.502930	34.534924
476.471277	6192.400000	1814.504883	-85.191261
476.471277	6192.400000	1813.505859	98.974129
476.471277	6192.400000	1812.506836	72.468323
476.471277	6192.400000	1811.507813	196.615036
476.471277	6192.400000	1810.508789	174.764343
476.471277	6192.400000	1809.508789	109.816551
476.471277	6192.400000	1808.508789	106.990402
476.471277	6192.400000	1807.508789	-29.750698
476.471277	6192.400000	1806.508789	15.124059
476.471277	6192.400000	1805.508789	62.309547
476.471277	6192.400000	1804.508789	6.691087
476.471277	6192.400000	1803.507813	99.109116
476.471277	6192.400000	1802.506836	67.252556
476.471277	6192.400000	1801.505859	-19.570404
476.471277	6192.400000	1800.504883	79.769760
476.471277	6192.400000	1799.502930	-14.318332
476.471277	6192.400000	1798.501953	44.287395
476.471277	6192.400000	1797.500000	107.571487
476.471277	6192.400000	1796.498047	80.123680
476.471277	6192.400000	1795.496094	152.784485
476.471277	6192.400000	1794.493164	222.959366
476.471277	6192.400000	1793.491211	-19.250422
476.471277	6192.400000	1792.488281	184.272919
476.471277	6192.400000	1791.485352	-77.043579
476.471277	6192.400000	1790.482422	183.459991
476.471277	6192.400000	1789.478516	157.932007
476.471277	6192.400000	1788.475586	37.084797
476.471277	6192.400000	1787.471680	244.819748
476.471277	6192.400000	1786.467773	35.768387
476.471277	6192.400000	1785.463867	81.423706
476.471277	6192.400000	1784.459961	77.014076
476.471277	6192.400000	1783.455078	1.146536
476.471277	6192.400000	1782.450195	8.502720
476.471277	6192.400000	1781.445313	60.979000
476.471277	6192.400000	1780.440430	-112.552643
476.471277	6192.400000	1779.435547	6.359851
476.471277	6192.400000	1778.429688	210.728561
476.471277	6192.400000	1777.424805	144.009552
476.471277	6192.400000	1776.418945	51.098099
476.471277	6192.400000	1775.413086	212.365829
476.471277	6192.400000	1774.406250	121.703506
476.471277	6192.400000	1773.400391	69.012123
476.471277	6192.400000	1772.393555	180.100555
476.471277	6192.400000	1771.386719	146.261627
476.471277	6192.400000	1770.379883	19.794210
476.471277	6192.400000	1769.373047	-47.367054
476.471277	6192.400000	1768.365234	-26.792641
476.471277	6192.400000	1767.358398	62.505241
476.471277	6192.400000	1766.350586	99.512489
476.471277	6192.400000	1765.342773	65.294876
476.471277	6192.400000	1764.334961	104.517570
476.471277	6192.400000	1763.326172	84.385239
476.471277	6192.400000	1762.318359	-132.508148
476.471277	6192.400000	1761.309570	-10.557151
476.471277	6192.400000	1760.300781	-165.902634
476.471277	6192.400000	1759.291016	95.609093
476.471277	6192.400000	1758.282227	-64.573929
476.471277	6192.400000	1757.272461	104.337860
476.471277	6192.400000	1756.262695	180.793747
476.471277	6192.400000	1755.252930	-17.400360
476.471277	6192.400000	1754.243164	-83.070366
476.471277	6192.400000	1753.233398	-160.614426
476.471277	6192.400000	1752.222656	-13.486648
476.471277	6192.400000	1751.211914	53.105423
476.471277	6192.400000	1750.201172	-76.654305
476.471277	6192.400000	1749.190430	93.810654
476.471277	6192.400000	1748.179688	-92.770828
476.471277	6192.400000	1747.167969	-31.219311
476.471277	6192.400000	1746.156250	-106.798607
476.471277	6192.400000	1745.144531	84.524849
476.471277	6192.400000	1744.132813	22.991697
476.471277	6192.400000	1743.121094	18.088654
476.471277	6192.400000	1742.108398	6.030100
476.471277	6192.400000	1741.095703	-76.904457
476.471277	6192.400000	1740.083008	-74.909897
476.471277	6192.400000	1739.070313	-13.989670
476.471277	6192.400000	1738.057617	-174.917740
476.471277	6192.400000	1737.043945	-19.790489
476.471277	6192.400000	1736.030273	-15.714794
476.471277	6192.400000	1735.016602	73.178986
476.471277	6192.400000	1734.002930	62.966557
476.471277	6192.400000	1732.989258	165.829102
476.471277	6192.400000	1731.974609	-68.393486
476.471277	6192.400000	1730.959961	-26.933695
476.471277	6192.400000	1729.945313	-247.016556
476.471277	6192.400000	1728.930664	20.431715
476.471277	6192.400000	1727.916016	-23.096104
476.471277	6192.400000	1726.900391	-71.384338
476.471277	6192.400000	1725.885742	-51.442719
476.471277	6192.400000	1724.870117	74.322586
476.471277	6192.400000	1723.853516	4.684507
476.471277	6192.400000	1722.837891	-130.839020
476.471277	6192.400000	1721.822266	-127.601677
476.471277	6192.400000	1720.805664	7.252578
476.471277	6192.400000	1719.789063	-76.646736
476.471277	6192.400000	1718.772461	-12.479611
476.471277	6192.400000	1717.754883	-138.764130
476.471277	6192.400000	1716.738281	-6.574457
476.471277	6192.400000	1715.720703	-45.993343
476.471277	6192.400000	1714.703125	-78.402702
476.471277	6192.400000	1713.685547	-230.616287
476.471277	6192.400000	1712.667969	72.673271
476.471277	6192.400000	1711.649414	-135.960510
476.471277	6192.400000	1710.630859	-140.371994
476.471277	6192.400000	1709.612305	92.171989
476.471277	6192.400000	1708.593750	24.277662
476.471277	6192.400000	1707.575195	-123.389183
476.471277	6192.400000	1706.555664	-76.403603
476.471277	6192.400000	1705.536133	59.619526
476.471277	6192.400000	1704.516602	183.824554
476.471277	6192.400000	1703.497070	68.865585
476.471277	6192.400000	1702.477539	-13.283905
476.471277	6192.400000	1701.457031	-170.430588
476.471277	6192.400000	1700.437500	-25.363035
476.471277	6192.400000	1699.416992	246.069244
476.471277	6192.400000	1698.395508	107.564270
476.471277	6192.400000	1697.375000	11.226245
476.471277	6192.400000	1696.354492	120.869576
476.471277	6192.400000	1695.333008	225.742142
476.471277	6192.400000	1694.311523	222.906311
476.471277	6192.400000	1693.290039	215.358063
476.471277	6192.400000	1692.267578	249.866699
476.471277	6192.400000	1691.246094	78.555389
476.471277	6192.400000	1690.223633	300.051697
476.471277	6192.400000	1689.201172	259.623230
476.471277	6192.400000	1688.178711	88.302132
476.471277	6192.400000	1687.155273	262.830292
476.471277	6192.400000	1686.132813	507.360413
476.471277	6192.400000	1685.109375	81.391937
476.471277	6192.400000	1684.085938	-145.938232
476.471277	6192.400000	1683.062500	86.760483
476.471277	6192.400000	1682.039063	165.273178
476.471277	6192.400000	1681.014648	68.670723
476.471277	6192.400000	1679.990234	65.422173
476.471277	6192.400000	1678.965820	127.478653
476.471277	6192.400000	1677.941406	12.210250
476.471277	6192.400000	1676.916992	60.216545
476.471277	6192.400000	1675.891602	70.864265
476.471277	6192.400000	1674.866211	-11.761243
476.471277	6192.400000	1673.840820	57.130047
476.471277	6192.400000	1672.815430	18.779335
476.471277	6192.400000	1671.790039	34.016685
476.471277	6192.400000	1670.763672	193.647263
476.471277	6192.400000	1669.737305	103.996735
476.471277	6192.400000	1668.710938	147.095383
476.471277	6192.400000	1667.684570	-21.693520
476.471277	6192.400000	1666.658203	-27.492031
476.471277	6192.400000	1665.630859	129.594833
476.471277	6192.400000	1664.603516	181.906479
476.471277	6192.400000	1663.576172	38.777866
476.471277	6192.400000	1662.548828	307.377960
476.471277	6192.400000	1661.520508	201.461136
476.471277	6192.400000	1660.493164	193.240387
476.471277	6192.400000	1659.464844	222.199036
476.471277	6192.400000	1658.436523	155.856216
476.471277	6192.400000	1657.408203	517.083984
476.471277	6192.400000	1656.378906	357.764709
476.471277	6192.400000	1655.350586	430.792969
476.471277	6192.400000	1654.321289	-11.765835
476.471277	6192.400000	1653.291992	198.283218
476.471277	6192.400000	1652.261719	333.956238
476.471277	6192.400000	1651.232422	267.672241
476.471277	6192.400000	1650.202148	345.275940
476.471277	6192.400000	1649.171875	434.454437
476.471277	6192.400000	1648.141602	375.152069
476.471277	6192.400000	1647.111328	473.581757
476.471277	6192.400000	1646.080078	421.253876
476.471277	6192.400000	1645.049805	473.289398
476.471277	6192.400000	1644.018555	402.460022
476.471277	6192.400000	1642.987305	486.932190
476.471277	6192.400000	1641.955078	434.674347
476.471277	6192.400000	1640.923828	625.690125
476.471277	6192.400000	1639.891602	568.821716
476.471277	6192.400000	1638.859375	609.244263
476.471277	6192.400000	1637.827148	665.873779
476.471277	6192.400000	1636.794922	622.969177
476.471277	6192.400000	1635.761719	475.949097
476.471277	6192.400000	1634.729492	509.489868
476.471277	6192.400000	1633.696289	443.553955
476.471277	6192.400000	1632.662109	467.855316
476.471277	6192.400000	1631.628906	469.057404
476.471277	6192.400000	1630.594727	701.466614
476.471277	6192.400000	1629.561523	379.060669
476.471277	6192.400000	1628.527344	502.827728
476.471277	6192.400000	1627.493164	504.111664
476.471277	6192.400000	1626.458008	757.218140
476.471277	6192.400000	1625.423828	673.049500
476.471277	6192.400000	1624.388672	704.393860
476.471277	6192.400000	1623.353516	671.110718
476.471277	6192.400000	1622.318359	635.563171
476.471277	6192.400000	1621.282227	720.063049
476.471277	6192.400000	1620.247070	887.644104
476.471277	6192.400000	1619.210938	810.638855
476.471277	6192.400000	1618.174805	639.130005
476.471277	6192.400000	1617.137695	652.202942
476.471277	6192.400000	1616.101563	720.655701
476.471277	6192.400000	1615.064453	839.824036
476.471277	6192.400000	1614.027344	620.184082
476.471277	6192.400000	1612.990234	852.317871
476.471277	6192.400000	1611.953125	713.478333
476.471277	6192.400000	1610.916016	1003.174072
476.471277	6192.400000	1609.877930	857.524963
476.471277	6192.400000	1608.839844	836.314514
476.471277	6192.400000	1607.801758	817.459717
476.471277	6192.400000	1606.763672	1024.218262
476.471277	6192.400000	1605.724609	685.551819
476.471277	6192.400000	1604.685547	917.649170
476.471277	6192.400000	1603.646484	857.567688
476.471277	6192.400000	1602.607422	983.847473
476.471277	6192.400000	1601.568359	912.380920
476.471277	6192.400000	1600.528320	937.539246
476.471277	6192.400000	1599.489258	1045.496826
476.471277	6192.400000	1598.449219	937.439575
476.471277	6192.400000	1597.408203	1141.941650
476.471277	6192.400000	1596.368164	1135.092285
476.471277	6192.400000	1595.327148	1038.721191
476.471277	6192.400000	1594.287109	1355.780396
476.471277	6192.400000	1593.246094	1213.601929
476.471277	6192.400000	1592.204102	1284.997314
476.471277	6192.400000	1591.163086	968.595947
476.471277	6192.400000	1590.121094	1239.749756
476.471277	6192.400000	1589.079102	1233.284058
476.471277	6192.400000	1588.037109	1302.571655
476.471277	6192.400000	1586.995117	1232.014893
476.471277	6192.400000	1585.953125	1459.596802
476.471277	6192.400000	1584.910156	1214.949341
476.471277	6192.400000	1583.867188	1289.018433
476.471277	6192.400000	1582.824219	1282.930054
476.471277	6192.400000	1581.781250	1205.893921
476.471277	6192.400000	1580.737305	1408.379761
476.471277	6192.400000	1579.693359	1173.469238
476.471277	6192.400000	1578.649414	1398.916138
476.471277	6192.400000	1577.605469	1171.108887
476.471277	6192.400000	1576.561523	1279.890869
476.471277	6192.400000	1575.516602	1047.754761
476.471277	6192.400000	1574.472656	1030.838745
476.471277	6192.400000	1573.427734	1084.899780
476.471277	6192.400000	1572.381836	1029.237671
476.471277	6192.400000	1571.336914	1017.123779
476.471277	6192.400000	1570.291016	952.505127
476.471277	6192.400000	1569.246094	990.845093
476.471277	6192.400000	1568.200195	814.445496
476.471277	6192.400000	1567.153320	960.312012
476.471277	6192.400000	1566.107422	1058.242554
476.471277	6192.400000	1565.060547	991.780701
476.471277	6192.400000	1564.013672	836.378723
476.471277	6192.400000	1562.966797	818.087158
476.471277	6192.400000	1561.919922	856.943726
476.471277	6192.400000	1560.872070	889.014282
476.471277	6192.400000	1559.825195	898.348694
476.471277	6192.400000	1558.777344	1049.178833
476.471277	6192.400000	1557.729492	992.503357
476.471277	6192.400000	1556.680664	837.883667
476.471277	6192.400000	1555.632813	970.656067
476.471277	6192.400000	1554.583984	1094.338013
476.471277	6192.400000	1553.535156	958.279663
476.471277	6192.400000	1552.486328	810.971741
476.471277	6192.400000	1551.436523	789.085266
476.471277	6192.400000	1550.387695	744.529907
476.471277	6192.400000	1549.337891	793.431396
476.471277	6192.400000	1548.288086	737.683289
476.471277	6192.400000	1547.238281	627.422729
476.471277	6192.400000	1546.187500	567.354492
476.471277	6192.400000	1545.136719	618.885376
476.471277	6192.400000	1544.086914	727.364258
476.471277	6192.400000	1543.035156	701.697571
476.471277	6192.400000	1541.984375	532.888977
476.471277	6192.400000	1540.933594	346.055420
476.471277	6192.400000	1539.881836	448.046570
476.471277	6192.400000	1538.830078	420.561646
476.471277	6192.400000	1537.778320	520.417480
476.471277	6192.400000	1536.725586	468.127106
476.471277	6192.400000	1535.673828	113.898232
476.471277	6192.400000	1534.621094	229.935257
476.471277	6192.400000	1533.568359	430.023834
476.471277	6192.400000	1532.515625	303.279541
476.471277	6192.400000	1531.461914	444.462952
476.471277	6192.400000	1530.409180	415.526825
476.471277	6192.400000	1529.355469	284.615967
476.471277	6192.400000	1528.301758	101.692238
476.471277	6192.400000	1527.247070	338.435455
476.471277	6192.400000	1526.193359	328.075928
476.471277	6192.400000	1525.138672	245.283585
476.471277	6192.400000	1524.083984	235.143890
476.471277	6192.400000	1523.029297	152.606354
476.471277	6192.400000	1521.974609	181.204468
476.471277	6192.400000	1520.918945	284.630310
476.471277	6192.400000	1519.863281	283.954224
476.471277	6192.400000	1518.807617	258.478271
476.471277	6192.400000	1517.751953	74.669479
476.471277	6192.400000	1516.696289	266.708740
476.471277	6192.400000	1515.639648	28.871559
476.471277	6192.400000	1514.583008	-91.132545
476.471277	6192.400000	1513.526367	126.014977
476.471277	6192.400000	1512.469727	55.997929
476.471277	6192.400000	1511.412109	-93.020126
476.471277	6192.400000	1510.355469	22.597212
476.471277	6192.400000	1509.297852	52.393772
476.471277	6192.400000	1508.240234	9.979770
476.471277	6192.400000	1507.181641	-133.970123
476.471277	6192.400000	1506.124023	-54.152382
476.471277	6192.400000	1505.065430	-337.825134
476.471277	6192.400000	1504.006836	-90.716530
476.471277	6192.400000	1502.948242	29.994867
476.471277	6192.400000	1501.888672	19.866974
476.471277	6192.400000	1500.830078	-157.116089
476.471277	6192.400000	1499.770508	-166.986893
476.471277	6192.400000	1498.710938	69.101089
476.471277	6192.400000	1497.650391	-256.298737
476.471277	6192.400000	1496.590820	-141.817337
476.471277	6192.400000	1495.530273	-65.595894
476.471277	6192.400000	1494.469727	-18.593029
476.471277	6192.400000	1493.409180	-167.531372
476.471277	6192.400000	1492.348633	-93.277115
476.471277	6192.400000	1491.287109	-5.430587
476.471277	6192.400000	1490.225586	84.742523
476.471277	6192.400000	1489.164063	193.000000
476.471277	6192.400000	1488.102539	69.470741
476.471277	6192.400000	1487.041016	234.169342
476.471277	6192.400000	1485.978516	106.398285
476.471277	6192.400000	1484.916016	187.995819
476.471277	6192.400000	1483.853516	-6.963893
476.471277	6192.400000	1482.791016	-48.832508
476.471277	6192.400000	1481.727539	-9.632357
476.471277	6192.400000	1480.664063	-40.017834
476.471277	6192.400000	1479.600586	-0.602326
476.471277	6192.400000	1478.537109	92.821091
476.471277	6192.400000	1477.473633	-56.341465
476.471277	6192.400000	1476.409180	115.879341
476.471277	6192.400000	1475.344727	169.111771
476.471277	6192.400000	1474.280273	191.021683
476.471277	6192.400000	1473.215820	132.190948
476.471277	6192.400000	1472.151367	219.424088
476.471277	6192.400000	1471.085938	156.449677
476.471277	6192.400000	1470.020508	203.492111
476.471277	6192.400000	1468.955078	384.744537
476.471277	6192.400000	1467.888672	183.006134
476.471277	6192.400000	1466.823242	279.795227
476.471277	6192.400000	1465.756836	78.638161
476.471277	6192.400000	1464.690430	202.484360
476.471277	6192.400000	1463.624023	504.784760
476.471277	6192.400000	1462.556641	338.009888
476.471277	6192.400000	1461.490234	298.178009
476.471277	6192.400000	1460.422852	205.477539
476.471277	6192.400000	1459.355469	544.266541
476.471277	6192.400000	1458.287109	421.887970
476.471277	6192.400000	1457.219727	461.713776
476.471277	6192.400000	1456.151367	502.976074
476.471277	6192.400000	1455.083008	399.331360
476.471277	6192.400000	1454.014648	365.193359
476.471277	6192.400000	1452.945313	271.180878
476.471277	6192.400000	1451.876953	116.316162
476.471277	6192.400000	1450.807617	170.229782
476.471277	6192.400000	1449.738281	362.956573
476.471277	6192.400000	1448.668945	324.729584
476.471277	6192.400000	1447.598633	410.614288
476.471277	6192.400000	1446.528320	291.072968
476.471277	6192.400000	1445.458008	434.911865
476.471277	6192.400000	1444.387695	342.139404
476.471277	6192.400000	1443.317383	353.717072
476.471277	6192.400000	1442.246094	240.140488
476.471277	6192.400000	1441.174805	417.733704
476.471277	6192.400000	1440.103516	589.425049
476.471277	6192.400000	1439.032227	520.507996
476.471277	6192.400000	1437.960938	445.308228
476.471277	6192.400000	1436.888672	479.609009
476.471277	6192.400000	1435.816406	306.521881
476.471277	6192.400000	1434.744141	199.120651
476.471277	6192.400000	1433.670898	286.751221
476.471277	6192.400000	1432.598633	372.580780
476.471277	6192.400000	1431.525391	274.067322
476.471277	6192.400000	1430.452148	301.123718
476.471277	6192.400000	1429.378906	386.610840
476.471277	6192.400000	1428.304688	233.995102
476.471277	6192.400000	1427.231445	270.502350
476.471277	6192.400000	1426.157227	52.071911
476.471277	6192.400000	1425.083008	106.078087
476.471277	6192.400000	1424.007813	290.512054
476.471277	6192.400000	1422.933594	202.459290
476.471277	6192.400000	1421.858398	100.244537
476.471277	6192.400000	1420.783203	58.751518
476.471277	6192.400000	1419.708008	274.930847
476.471277	6192.400000	1418.631836	403.336548
476.471277	6192.400000	1417.555664	231.758347
476.471277	6192.400000	1416.479492	296.350922
476.471277	6192.400000	1415.403320	226.680130
476.471277	6192.400000	1414.327148	297.545135
476.471277	6192.400000	1413.250000	277.503326
476.471277	6192.400000	1412.173828	304.281982
476.471277	6192.400000	1411.096680	404.736755
476.471277	6192.400000	1410.018555	410.718842
476.471277	6192.400000	1408.941406	213.026291
476.471277	6192.400000	1407.863281	142.291580
476.471277	6192.400000	1406.785156	277.194153
476.471277	6192.400000	1405.707031	360.831055
476.471277	6192.400000	1404.628906	363.032654
476.471277	6192.400000	1403.549805	529.468323
476.471277	6192.400000	1402.470703	472.534882
476.471277	6192.400000	1401.391602	498.666321
476.471277	6192.400000	1400.312500	466.098267
476.471277	6192.400000	1399.233398	771.271423
476.471277	6192.400000	1398.153320	413.114349
476.471277	6192.400000	1397.073242	358.318359
476.471277	6192.400000	1395.993164	600.130859
476.471277	6192.400000	1394.913086	471.347076
476.471277	6192.400000	1393.832031	241.991425
476.471277	6192.400000	1392.750977	192.662216
476.471277	6192.400000	1391.669922	190.810913
476.471277	6192.400000	1390.588867	525.013916
476.471277	6192.400000	1389.506836	298.197388
476.471277	6192.400000	1388.425781	283.692535
476.471277	6192.400000	1387.343750	475.642395
476.471277	6192.400000	1386.261719	518.579407
476.471277	6192.400000	1385.178711	511.710144
476.471277	6192.400000	1384.096680	528.451294
476.471277	6192.400000	1383.013672	597.310608
476.471277	6192.400000	1381.930664	512.315369
476.471277	6192.400000	1380.846680	490.285736
476.471277	6192.400000	1379.763672	562.989380
476.471277	6192.400000	1378.679688	312.841736
476.471277	6192.400000	1377.595703	653.775146
476.471277	6192.400000	1376.511719	466.417786
476.471277	6192.400000	1375.427734	491.095947
476.471277	6192.400000	1374.342773	663.597900
476.471277	6192.400000	1373.257813	506.337158
476.471277	6192.400000	1372.172852	532.349976
476.471277	6192.400000	1371.087891	408.146393
476.471277	6192.400000	1370.001953	281.938629
476.471277	6192.400000	1368.916992	427.935638
476.471277	6192.400000	1367.831055	451.568604
476.471277	6192.400000	1366.744141	251.331116
476.471277	6192.400000	1365.658203	465.339874
476.471277	6192.400000	1364.571289	213.918060
476.471277	6192.400000	1363.484375	229.027466
476.471277	6192.400000	1362.397461	338.117432
476.471277	6192.400000	1361.310547	300.861053
476.471277	6192.400000	1360.222656	317.308899
476.471277	6192.400000	1359.135742	261.869080
476.471277	6192.400000	1358.047852	410.343933
476.471277	6192.400000	1356.958984	423.668335
476.471277	6192.400000	1355.871094	285.343781
476.471277	6192.400000	1354.782227	365.741302
476.471277	6192.400000	1353.693359	223.358231
476.471277	6192.400000	1352.604492	228.834427
476.471277	6192.400000	1351.515625	97.670029
476.471277	6192.400000	1350.425781	105.868233
476.471277	6192.400000	1349.335938	215.625458
476.471277	6192.400000	1348.246094	404.440918
476.471277	6192.400000	1347.156250	360.558868
476.471277	6192.400000	1346.066406	201.094696
476.471277	6192.400000	1344.975586	180.052811
476.471277	6192.400000	1343.884766	229.524902
476.471277	6192.400000	1342.793945	236.975967
476.471277	6192.400000	1341.702148	197.730804
476.471277	6192.400000	1340.611328	199.310242
476.471277	6192.400000	1339.519531	198.298325
476.471277	6192.400000	1338.427734	203.638123
476.471277	6192.400000	1337.334961	94.087196
476.471277	6192.400000	1336.243164	134.603577
476.471277	6192.400000	1335.150391	226.860474
476.471277	6192.400000	1334.057617	118.157234
476.471277	6192.400000	1332.964844	187.445206
476.471277	6192.400000	1331.871094	257.387390
476.471277	6192.400000	1330.778320	289.285187
476.471277	6192.400000	1329.684570	90.731133
476.471277	6192.400000	1328.590820	-49.243191
476.471277	6192.400000	1327.496094	-12.298863
476.471277	6192.400000	1326.402344	113.322350
476.471277	6192.400000	1325.307617	57.848892
476.471277	6192.400000	1324.212891	9.176548
476.471277	6192.400000	1323.117188	144.813263
476.471277	6192.400000	1322.022461	-6.406760
476.471277	6192.400000	1320.926758	-38.328110
476.471277	6192.400000	1319.831055	140.581619
476.471277	6192.400000	1318.735352	192.969055
476.471277	6192.400000	1317.638672	246.275864
476.471277	6192.400000	1316.542969	109.844818
476.471277	6192.400000	1315.446289	135.278809
476.471277	6192.400000	1314.349609	16.997850
476.471277	6192.400000	1313.251953	289.471008
476.471277	6192.400000	1312.155273	197.091675
476.471277	6192.400000	1311.057617	348.345734
476.471277	6192.400000	1309.959961	106.022263
476.471277	6192.400000	1308.862305	218.764954
476.471277	6192.400000	1307.763672	229.926804
476.471277	6192.400000	1306.665039	216.699127
476.471277	6192.400000	1305.566406	279.983521
476.471277	6192.400000	1304.467773	287.316223
476.471277	6192.400000	1303.369141	320.596924
476.471277	6192.400000	1302.269531	273.322113
476.471277	6192.400000	1301.169922	119.253487
476.471277	6192.400000	1300.070313	362.979065
476.471277	6192.400000	1298.970703	363.768616
476.471277	6192.400000	1297.870117	458.340424
476.471277	6192.400000	1296.769531	363.692383
476.471277	6192.400000	1295.668945	534.179199
476.471277	6192.400000	1294.568359	494.835297
476.471277	6192.400000	1293.466797	337.179779
476.471277	6192.400000	1292.366211	156.020660
476.471277	6192.400000	1291.264648	356.799377
476.471277	6192.400000	1290.162109	26.289600
476.471277	6192.400000	1289.060547	54.692883
476.471277	6192.400000	1287.958008	34.707523
476.471277	6192.400000	1286.855469	212.790375
476.471277	6192.400000	1285.752930	125.958252
476.471277	6192.400000	1284.650391	219.783646
476.471277	6192.400000	1283.546875	45.765278
476.471277	6192.400000	1282.444336	86.965027
476.471277	6192.400000	1281.339844	3.421499
476.471277	6192.400000	1280.236328	24.043842
476.471277	6192.400000	1279.132813	80.412796
476.471277	6192.400000	1278.028320	-1.664332
476.471277	6192.400000	1276.923828	78.137489
476.471277	6192.400000	1275.819336	106.212067
476.471277	6192.400000	1274.713867	92.232918
476.471277	6192.400000	1273.608398	73.585648
476.471277	6192.400000	1272.503906	120.638298
476.471277	6192.400000	1271.397461	27.031952
476.471277	6192.400000	1270.291992	-73.125870
476.471277	6192.400000	1269.185547	52.076019
476.471277	6192.400000	1268.080078	-129.137238
476.471277	6192.400000	1266.972656	27.514029
476.471277	6192.400000	1265.866211	13.864021
476.471277	6192.400000	1264.759766	-136.790710
476.471277	6192.400000	1263.652344	50.907879
476.471277	6192.400000	1262.544922	-170.647659
476.471277	6192.400000	1261.436523	-96.648132
476.471277	6192.400000	1260.329102	-49.721725
476.471277	6192.400000	1259.220703	-180.238663
476.471277	6192.400000	1258.112305	33.506199
476.471277	6192.400000	1257.003906	-133.316910
476.471277	6192.400000	1255.895508	-70.573837
476.471277	6192.400000	1254.786133	-173.432022
476.471277	6192.400000	1253.676758	-94.733131
476.471277	6192.400000	1252.567383	-97.927986
476.471277	6192.400000	1251.458008	-114.898064
476.471277	6192.400000	1250.347656	-23.063768
476.471277	6192.400000	1249.237305	-176.662201
476.471277	6192.400000	1248.126953	-55.660740
476.471277	6192.400000	1247.016602	-159.219193
476.471277	6192.400000	1245.905273	-124.212082
476.471277	6192.400000	1244.793945	-102.325661
476.471277	6192.400000	1243.682617	-115.694283
476.471277	6192.400000	1242.571289	-103.743332
476.471277	6192.400000	1241.459961	-129.979233
476.471277	6192.400000	1240.347656	-142.895767
476.471277	6192.400000	1239.235352	-133.909485
476.471277	6192.400000	1238.123047	-305.650848
476.471277	6192.400000	1237.009766	-56.077507
476.471277	6192.400000	1235.897461	-25.758184
476.471277	6192.400000	1234.784180	-171.122375
476.471277	6192.400000	1233.670898	-101.077705
476.471277	6192.400000	1232.556641	9.200266
476.471277	6192.400000	1231.443359	-97.149879
476.471277	6192.400000	1230.329102	-5.147677
476.471277	6192.400000	1229.214844	169.862839
476.471277	6192.400000	1228.099609	-73.442390
476.471277	6192.400000	1226.985352	25.060789
476.471277	6192.400000	1225.870117	-95.873909
476.471277	6192.400000	1224.754883	-64.395065
476.471277	6192.400000	1223.639648	-74.338127
476.471277	6192.400000	1222.523438	128.475662
476.471277	6192.400000	1221.408203	115.943253
476.471277	6192.400000	1220.291992	124.404999
476.471277	6192.400000	1219.174805	65.223648
476.471277	6192.400000	1218.058594	11.922317
476.471277	6192.400000	1216.941406	63.624413
476.471277	6192.400000	1215.824219	95.260727
476.471277	6192.400000	1214.707031	88.409958
476.471277	6192.400000	1213.589844	154.654678
476.471277	6192.400000	1212.471680	36.832596
476.471277	6192.400000	1211.353516	13.629551
476.471277	6192.400000	1210.235352	97.832253
476.471277	6192.400000	1209.117188	95.807503
476.471277	6192.400000	1207.998047	39.100895
476.471277	6192.400000	1206.878906	148.866196
476.471277	6192.400000	1205.759766	42.383320
476.471277	6192.400000	1204.640625	-118.420372
476.471277	6192.400000	1203.520508	55.621704
476.471277	6192.400000	1202.401367	57.261230
476.471277	6192.400000	1201.281250	164.749664
476.471277	6192.400000	1200.160156	100.343384
476.471277	6192.400000	1199.040039	71.506241
476.471277	6192.400000	1197.918945	84.084221
476.471277	6192.400000	1196.797852	-8.375966
476.471277	6192.400000	1195.676758	89.656631
476.471277	6192.400000	1194.555664	-121.533134
476.471277	6192.400000	1193.433594	-51.041668
476.471277	6192.400000	1192.311523	-220.727325
476.471277	6192.400000	1191.189453	24.938898
476.471277	6192.400000	1190.066406	-7.391440
476.471277	6192.400000	1188.944336	-97.618011
476.471277	6192.400000	1187.821289	-80.530235
476.471277	6192.400000	1186.698242	-43.016529
476.471277	6192.400000	1185.574219	-29.476242
476.471277	6192.400000	1184.451172	-60.552853
476.471277	6192.400000	1183.327148	31.245188
476.471277	6192.400000	1182.203125	3.096051
476.471277	6192.400000	1181.078125	-33.861668
476.471277	6192.400000	1179.954102	107.705467
476.471277	6192.400000	1178.829102	-45.195660
476.471277	6192.400000	1177.704102	30.977560
476.471277	6192.400000	1176.579102	-26.665686
476.471277	6192.400000	1175.453125	3.752275
476.471277	6192.400000	1174.327148	-93.061729
476.471277	6192.400000	1173.201172	83.496628
476.471277	6192.400000	1172.075195	42.084389
476.471277	6192.400000	1170.949219	129.864487
476.471277	6192.400000	1169.822266	34.744686
476.471277	6192.400000	1168.695313	-2.427306
476.471277	6192.400000	1167.568359	59.426487
476.471277	6192.400000	1166.440430	17.282085
476.471277	6192.400000	1165.313477	234.116699
476.471277	6192.400000	1164.185547	-7.015981
476.471277	6192.400000	1163.057617	46.016190
476.471277	6192.400000	1161.928711	-33.847054
476.471277	6192.400000	1160.800781	-13.548061
476.471277	6192.400000	1159.671875	-60.568596
476.471277	6192.400000	1158.541992	-23.180368
476.471277	6192.400000	1157.413086	93.466553
476.471277	6192.400000	1156.283203	-114.350082
476.471277	6192.400000	1155.154297	137.431747
476.471277	6192.400000	1154.023438	66.730377
476.471277	6192.400000	1152.893555	-11.466403
476.471277	6192.400000	1151.763672	74.701859
476.471277	6192.400000	1150.632813	-61.886028
476.471277	6192.400000	1149.501953	-18.028971
476.471277	6192.400000	1148.370117	-14.748616
476.471277	6192.400000	1147.239258	110.588036
476.471277	6192.400000	1146.107422	-20.411921
476.471277	6192.400000	1144.975586	26.455738
476.471277	6192.400000	1143.843750	70.849205
476.471277	6192.400000	1142.710938	121.808167
476.471277	6192.400000	1141.578125	52.000854
476.471277	6192.400000	1140.445313	275.188995
476.471277	6192.400000	1139.312500	209.528885
476.471277	6192.400000	1138.178711	-86.469276
476.471277	6192.400000	1137.045898	207.094009
476.471277	6192.400000	1135.912109	140.944214
476.471277	6192.400000	1134.777344	179.060776
476.471277	6192.400000	1133.643555	266.703796
476.471277	6192.400000	1132.508789	348.121918
476.471277	6192.400000	1131.374023	469.270020
476.471277	6192.400000	1130.239258	497.678436
476.471277	6192.400000	1129.104492	726.853027
476.471277	6192.400000	1127.968750	537.050842
476.471277	6192.400000	1126.833008	546.396790
476.471277	6192.400000	1125.697266	616.990540
476.471277	6192.400000	1124.560547	553.979614
476.471277	6192.400000	1123.424805	694.573181
476.471277	6192.400000	1122.288086	670.265259
476.471277	6192.400000	1121.151367	489.386139
476.471277	6192.400000	1120.013672	419.827301
476.471277	6192.400000	1118.876953	570.272888
476.471277	6192.400000	1117.739258	678.470581
476.471277	6192.400000	1116.601563	557.163818
476.471277	6192.400000	1115.462891	521.379761
476.471277	6192.400000	1114.324219	297.935242
476.471277	6192.400000	1113.186523	433.195160
476.471277	6192.400000	1112.046875	438.049774
476.471277	6192.400000	1110.908203	335.975403
476.471277	6192.400000	1109.769531	249.187439
476.471277	6192.400000	1108.629883	392.895386
476.471277	6192.400000	1107.490234	256.195679
476.471277	6192.400000	1106.349609	180.427612
476.471277	6192.400000	1105.209961	180.553741
476.471277	6192.400000	1104.069336	57.156712
476.471277	6192.400000	1102.928711	243.449356
476.471277	6192.400000	1101.787109	267.085236
476.471277	6192.400000	1100.646484	477.902344
476.471277	6192.400000	1099.504883	497.462402
476.471277	6192.400000	1098.363281	580.180664
476.471277	6192.400000	1097.221680	377.357117
476.471277	6192.400000	1096.079102	379.026947
476.471277	6192.400000	1094.936523	250.045975
476.471277	6192.400000	1093.793945	75.596039
476.471277	6192.400000	1092.651367	409.096313
476.471277	6192.400000	1091.507813	340.117981
476.471277	6192.400000	1090.364258	386.656677
476.471277	6192.400000	1089.220703	234.212616
476.471277	6192.400000	1088.077148	194.330963
476.471277	6192.400000	1086.933594	229.150635
476.471277	6192.400000	1085.789063	532.010254
476.471277	6192.400000	1084.644531	186.608734
476.471277	6192.400000	1083.499023	260.503357
476.471277	6192.400000	1082.354492	196.968002
476.471277	6192.400000	1081.208984	80.600357
476.471277	6192.400000	1080.063477	239.420792
476.471277	6192.400000	1078.917969	351.685455
476.471277	6192.400000	1077.771484	196.695602
476.471277	6192.400000	1076.625977	228.682510
476.471277	6192.400000	1075.479492	183.526703
476.471277	6192.400000	1074.332031	281.285004
476.471277	6192.400000	1073.185547	474.644989
476.471277	6192.400000	1072.038086	299.331696
476.471277	6192.400000	1070.890625	409.343384
476.471277	6192.400000	1069.743164	351.417664
476.471277	6192.400000	1068.594727	476.947296
476.471277	6192.400000	1067.447266	357.916138
476.471277	6192.400000	1066.298828	591.028381
476.471277	6192.400000	1065.149414	545.857483
476.471277	6192.400000	1064.000977	527.825012
476.471277	6192.400000	1062.851563	565.868286
476.471277	6192.400000	1061.702148	600.124634
476.471277	6192.400000	1060.552734	468.085510
476.471277	6192.400000	1059.402344	417.247986
476.471277	6192.400000	1058.252930	478.774200
476.471277	6192.400000	1057.102539	96.632454
476.471277	6192.400000	1055.951172	447.099335
476.471277	6192.400000	1054.800781	449.701477
476.471277	6192.400000	1053.649414	131.544678
476.471277	6192.400000	1052.498047	158.748871
476.471277	6192.400000	1051.346680	215.989212
476.471277	6192.400000	1050.194336	274.555420
476.471277	6192.400000	1049.042969	527.616089
476.471277	6192.400000	1047.890625	412.451477
476.471277	6192.400000	1046.738281	124.147537
476.471277	6192.400000	1045.584961	-37.810799
476.471277	6192.400000	1044.431641	339.637085
476.471277	6192.400000	1043.278320	22.776648
476.471277	6192.400000	1042.125000	329.468628
476.471277	6192.400000	1040.971680	43.566856
476.471277	6192.400000	1039.817383	377.316895
476.471277	6192.400000	1038.663086	101.456253
476.471277	6192.400000	1037.508789	303.727448
476.471277	6192.400000	1036.353516	289.476563
476.471277	6192.400000	1035.198242	197.438232
476.471277	6192.400000	1034.042969	402.462433
476.471277	6192.400000	1032.887695	372.947937
476.471277	6192.400000	1031.732422	533.629517
476.471277	6192.400000	1030.576172	193.311020
476.471277	6192.400000	1029.419922	354.887482
476.471277	6192.400000	1028.263672	366.892395
476.471277	6192.400000	1027.106445	326.841583
476.471277	6192.400000	1025.949219	62.544102
476.471277	6192.400000	1024.792969	187.979111
476.471277	6192.400000	1023.634766	146.330734
476.471277	6192.400000	1022.477539	264.328613
476.471277	6192.400000	1021.319336	300.730347
476.471277	6192.400000	1020.161133	-73.071869
476.471277	6192.400000	1019.002930	-106.062027
476.471277	6192.400000	1017.843750	110.352577
476.471277	6192.400000	1016.684570	133.071091
476.471277	6192.400000	1015.525391	68.144638
476.471277	6192.400000	1014.366211	-79.022133
476.471277	6192.400000	1013.207031	133.753738
476.471277	6192.400000	1012.046875	18.700602
476.471277	6192.400000	1010.886719	80.414001
476.471277	6192.400000	1009.726563	-80.611588
476.471277	6192.400000	1008.565430	139.799393
476.471277	6192.400000	1007.404297	47.601917
476.471277	6192.400000	1006.243164	122.129333
476.471277	6192.400000	1005.082031	130.187637
476.471277	6192.400000	1003.920898	-58.005051
476.471277	6192.400000	1002.758789	-197.429535
476.471277	6192.400000	1001.596680	98.029388
476.471277	6192.400000	1000.433594	146.156525
476.471277	6192.400000	999.271484	106.802238
476.471277	6192.400000	998.108398	58.748608
476.471277	6192.400000	996.945313	96.759377
476.471277	6192.400000	995.782227	-90.185631
476.471277	6192.400000	994.618164	82.977547
476.471277	6192.400000	993.454102	218.466812
476.471277	6192.400000	992.290039	47.512932
476.471277	6192.400000	991.125977	-271.897430
476.471277	6192.400000	989.960938	-1.962091
476.471277	6192.400000	988.796875	39.758476
476.471277	6192.400000	987.630859	107.589081
476.471277	6192.400000	986.465820	14.457486
476.471277	6192.400000	985.300781	255.337723
476.471277	6192.400000	984.134766	62.257484
476.471277	6192.400000	982.968750	-282.559387
476.471277	6192.400000	981.801758	-128.004150
476.471277	6192.400000	980.635742	-100.958389
476.471277	6192.400000	979.468750	-112.271431
476.471277	6192.400000	978.301758	-84.503532
476.471277	6192.400000	977.133789	57.544762
476.471277	6192.400000	975.966797	71.529106
476.471277	6192.400000	974.798828	45.638138
476.471277	6192.400000	973.630859	13.039179
476.471277	6192.400000	972.461914	17.535133
476.471277	6192.400000	971.293945	15.295423
476.471277	6192.400000	970.125000	-98.959213
476.471277	6192.400000	968.956055	-32.994019
476.471277	6192.400000	967.786133	146.703812
476.471277	6192.400000	966.617188	-96.243111
476.471277	6192.400000	965.447266	10.055784
476.471277	6192.400000	964.276367	-38.761589
476.471277	6192.400000	963.106445	-217.999313
476.471277	6192.400000	961.935547	7.521203
476.471277	6192.400000	960.764648	69.350174
476.471277	6192.400000	959.593750	21.055222
476.471277	6192.400000	958.422852	21.437366
476.471277	6192.400000	957.250977	-192.964355
476.471277	6192.400000	956.079102	-5.497136
476.471277	6192.400000	954.907227	24.766975
476.471277	6192.400000	953.734375	-247.698456
476.471277	6192.400000	952.562500	-70.882881
476.471277	6192.400000	951.389648	-89.402885
476.471277	6192.400000	950.215820	120.879402
476.471277	6192.400000	949.042969	-141.181686
476.471277	6192.400000	947.869141	0.188816
476.471277	6192.400000	946.695313	162.098816
476.471277	6192.400000	945.521484	54.084660
476.471277	6192.400000	944.346680	254.544601
476.471277	6192.400000	943.172852	-138.436508
476.471277	6192.400000	941.998047	149.390823
476.471277	6192.400000	940.822266	157.897812
476.471277	6192.400000	939.647461	233.061935
476.471277	6192.400000	938.471680	325.939240
476.471277	6192.400000	937.295898	193.660172
476.471277	6192.400000	936.119141	298.361145
476.471277	6192.400000	934.943359	379.037292
476.471277	6192.400000	933.766602	231.806061
476.471277	6192.400000	932.589844	138.550858
476.471277	6192.400000	931.413086	192.294250
476.471277	6192.400000	930.235352	497.971466
476.471277	6192.400000	929.057617	152.717865
476.471277	6192.400000	927.879883	290.371399
476.471277	6192.400000	926.702148	368.035767
476.471277	6192.400000	925.523438	424.678314
476.471277	6192.400000	924.344727	262.485199
476.471277	6192.400000	923.166016	91.316841
476.471277	6192.400000	921.987305	106.020035
476.471277	6192.400000	920.807617	114.733047
476.471277	6192.400000	919.627930	116.492577
476.471277	6192.400000	919.497070	159.582275
476.471277	6192.400000	918.331055	42.461067
476.471277	6192.400000	917.165039	-26.709011
476.471277	6192.400000	915.999023	119.699074
476.471277	6192.400000	914.833008	23.588692
476.471277	6192.400000	913.666016	32.253334
476.471277	6192.400000	912.499023	106.733597
476.471277	6192.400000	911.332031	-52.154057
476.471277	6192.400000	910.165039	-121.260178
476.471277	6192.400000	908.997070	-19.901670
476.471277	6192.400000	907.830078	18.626678
476.471277	6192.400000	906.661133	48.168949
476.471277	6192.400000	905.493164	170.330338
476.471277	6192.400000	904.325195	47.438427
476.471277	6192.400000	903.156250	-27.613775
476.471277	6192.400000	901.987305	196.012192
476.471277	6192.400000	900.818359	-4.462003
476.471277	6192.400000	899.648438	-34.696114
476.471277	6192.400000	898.478516	102.220589
476.471277	6192.400000	897.308594	185.360352
476.471277	6192.400000	896.138672	184.921402
476.471277	6192.400000	894.968750	211.321686
476.471277	6192.400000	893.797852	192.972687
476.471277	6192.400000	892.626953	332.652313
476.471277	6192.400000	891.456055	162.237473
476.471277	6192.400000	890.284180	263.109344
476.471277	6192.400000	889.113281	250.696869
476.471277	6192.400000	887.941406	399.162781
476.471277	6192.400000	886.768555	470.118378
476.471277	6192.400000	885.596680	454.674194
476.471277	6192.400000	884.423828	275.472504
476.471277	6192.400000	883.250977	337.458130
476.471277	6192.400000	882.078125	241.672104
476.471277	6192.400000	880.905273	181.626007
476.471277	6192.400000	879.731445	59.122810
476.471277	6192.400000	878.557617	195.433594
476.471277	6192.400000	877.383789	108.648102
476.471277	6192.400000	876.209961	45.675434
476.471277	6192.400000	875.035156	18.392696
476.471277	6192.400000	873.860352	-157.483688
476.471277	6192.400000	872.685547	50.007084
476.471277	6192.400000	871.510742	281.169617
476.471277	6192.400000	870.334961	25.130947
476.471277	6192.400000	869.159180	-159.542877
476.471277	6192.400000	867.983398	-171.953537
476.471277	6192.400000	866.807617	189.638077
476.471277	6192.400000	865.630859	-199.751358
476.471277	6192.400000	864.454102	81.570160
476.471277	6192.400000	863.277344	155.114227
476.471277	6192.400000	862.100586	9.144352
476.471277	6192.400000	860.922852	-18.163660
476.471277	6192.400000	859.745117	40.505268
476.471277	6192.400000	858.567383	134.708588
476.471277	6192.400000	857.389648	110.326019
476.471277	6192.400000	856.210938	130.386826
476.471277	6192.400000	855.032227	61.563530
476.471277	6192.400000	853.853516	93.451645
476.471277	6192.400000	852.674805	-43.460728
476.471277	6192.400000	851.495117	-201.049637
476.471277	6192.400000	850.315430	61.704121
476.471277	6192.400000	849.135742	-4.129332
476.471277	6192.400000	847.956055	205.199799
476.471277	6192.400000	846.775391	106.803703
476.471277	6192.400000	845.595703	185.876343
476.471277	6192.400000	844.415039	-146.081390
476.471277	6192.400000	843.233398	36.453732
476.471277	6192.400000	842.052734	-79.608482
476.471277	6192.400000	840.871094	194.414459
476.471277	6192.400000	839.689453	-39.830250
476.471277	6192.400000	838.506836	-61.323307
476.471277	6192.400000	837.325195	-38.526878
476.471277	6192.400000	836.142578	37.392788
476.471277	6192.400000	834.959961	15.855375
476.471277	6192.400000	833.777344	-35.199905
476.471277	6192.400000	832.593750	37.679779
476.471277	6192.400000	831.410156	-10.437428
476.471277	6192.400000	830.226563	56.478497
476.471277	6192.400000	829.042969	93.862846
476.471277	6192.400000	827.858398	-81.056206
476.471277	6192.400000	826.673828	91.901810
476.471277	6192.400000	825.489258	-88.869804
476.471277	6192.400000	824.304688	54.521275
476.471277	6192.400000	823.120117	-26.043383
476.471277	6192.400000	821.934570	46.557858
476.471277	6192.400000	820.749023	-101.730797
476.471277	6192.400000	819.562500	32.645866
476.471277	6192.400000	818.376953	-42.029835
476.471277	6192.400000	817.190430	-207.918732
476.471277	6192.400000	816.003906	58.740818
476.471277	6192.400000	814.817383	110.537399
476.471277	6192.400000	813.629883	15.247818
476.471277	6192.400000	812.442383	108.160110
476.471277	6192.400000	811.254883	321.542542
476.471277	6192.400000	810.067383	64.557945
476.471277	6192.400000	808.878906	7.479113
476.471277	6192.400000	807.690430	-29.031822
476.471277	6192.400000	806.501953	-147.791550
476.471277	6192.400000	805.313477	50.638115
476.471277	6192.400000	804.124023	22.887342
476.471277	6192.400000	802.934570	15.674966
476.471277	6192.400000	801.745117	257.906952
476.471277	6192.400000	800.555664	-80.967804
476.471277	6192.400000	799.365234	161.139816
476.471277	6192.400000	798.175781	21.827110
476.471277	6192.400000	796.985352	193.388733
476.471277	6192.400000	795.793945	235.855560
476.471277	6192.400000	794.603516	64.300636
476.471277	6192.400000	793.412109	-60.316483
476.471277	6192.400000	792.220703	49.493694
476.471277	6192.400000	791.028320	-54.612503
476.471277	6192.400000	789.836914	99.033798
476.471277	6192.400000	788.644531	-34.371658
476.471277	6192.400000	787.452148	60.604057
476.471277	6192.400000	786.258789	23.801764
476.471277	6192.400000	785.066406	-33.498173
476.471277	6192.400000	783.873047	-41.061111
476.471277	6192.400000	782.679688	-191.981369
476.471277	6192.400000	781.485352	25.626692
476.471277	6192.400000	780.291992	-98.983711
476.471277	6192.400000	779.097656	39.530277
476.471277	6192.400000	777.903320	-114.314232
476.471277	6192.400000	776.708008	-107.407074
476.471277	6192.400000	775.512695	153.639999
476.471277	6192.400000	774.318359	213.007309
476.471277	6192.400000	773.122070	70.820755
476.471277	6192.400000	771.926758	124.282005
476.471277	6192.400000	770.730469	-82.107185
476.471277	6192.400000	769.534180	306.928253
476.471277	6192.400000	768.337891	115.115593
476.471277	6192.400000	767.141602	-24.137218
476.471277	6192.400000	765.944336	52.469254
476.471277	6192.400000	764.747070	359.380127
476.471277	6192.400000	763.549805	120.943756
476.471277	6192.400000	762.351563	118.676331
476.471277	6192.400000	761.154297	-116.760933
476.471277	6192.400000	759.956055	55.774876
476.471277	6192.400000	758.757813	100.033707
476.471277	6192.400000	757.558594	13.182019
476.471277	6192.400000	756.359375	-15.431554
476.471277	6192.400000	755.160156	17.069706
476.471277	6192.400000	753.960938	110.644554
476.471277	6192.400000	752.761719	-22.831253
476.471277	6192.400000	751.561523	-34.092735
476.471277	6192.400000	750.361328	6.974517
476.471277	6192.400000	749.160156	216.661804
476.471277	6192.400000	747.959961	13.354613
476.471277	6192.400000	746.758789	80.442383
476.471277	6192.400000	745.557617	-102.478905
476.471277	6192.400000	744.356445	19.743868
476.471277	6192.400000	743.154297	-186.401810
476.471277	6192.400000	741.952148	-110.758347
476.471277	6192.400000	740.750000	95.494400
476.471277	6192.400000	739.547852	118.714653
476.471277	6192.400000	738.344727	-46.787949
476.471277	6192.400000	737.142578	-41.033615
476.471277	6192.400000	735.939453	-70.137268
476.471277	6192.400000	734.735352	-32.546425
476.471277	6192.400000	733.532227	62.997223
476.471277	6192.400000	732.328125	-73.511070
476.471277	6192.400000	731.124023	-102.735649
476.471277	6192.400000	729.918945	-30.539888
476.471277	6192.400000	728.714844	-56.938667
476.471277	6192.400000	727.509766	93.367752
476.471277	6192.400000	726.303711	43.701447
476.471277	6192.400000	725.098633	-61.005013
476.471277	6192.400000	723.892578	-38.309460
476.471277	6192.400000	722.686523	-56.188496
476.471277	6192.400000	721.480469	-152.243759
476.471277	6192.400000	720.274414	127.872314
476.471277	6192.400000	719.067383	-95.552475
476.471277	6192.400000	717.860352	-12.328568
476.471277	6192.400000	716.653320	-183.657181
476.471277	6192.400000	715.445313	35.356815
476.471277	6192.400000	714.238281	20.102682
476.471277	6192.400000	713.030273	79.954704
476.471277	6192.400000	711.821289	-120.304031
476.471277	6192.400000	710.613281	-118.302612
476.471277	6192.400000	709.404297	-136.560455
476.471277	6192.400000	708.195313	73.266579
476.471277	6192.400000	706.986328	37.575012
476.471277	6192.400000	705.776367	-353.164032
476.471277	6192.400000	704.566406	15.173018
476.471277	6192.400000	703.356445	-84.077858
476.471277	6192.400000	702.146484	56.090225
476.471277	6192.400000	700.935547	-14.369281
476.471277	6192.400000	699.724609	-12.755483
476.471277	6192.400000	698.513672	11.879930
476.471277	6192.400000	697.302734	47.993092
476.471277	6192.400000	696.090820	-140.706757
476.471277	6192.400000	694.878906	-35.514679
476.471277	6192.400000	693.666992	-126.266495
476.471277	6192.400000	692.455078	93.986153
476.471277	6192.400000	691.242188	95.295181
476.471277	6192.400000	690.029297	50.509262
476.471277	6192.400000	688.816406	45.993771
476.471277	6192.400000	687.602539	-111.056854
476.471277	6192.400000	686.389648	111.641800
476.471277	6192.400000	685.175781	-94.326241
476.471277	6192.400000	683.960938	87.938522
476.471277	6192.400000	682.747070	163.719742
476.471277	6192.400000	681.532227	127.333725
476.471277	6192.400000	680.317383	65.063034
476.471277	6192.400000	679.102539	37.256523
476.471277	6192.400000	677.886719	20.912189
476.471277	6192.400000	676.670898	199.820541
476.471277	6192.400000	675.455078	68.525764
476.471277	6192.400000	674.239258	141.062302
476.471277	6192.400000	673.022461	176.220078
476.471277	6192.400000	671.805664	76.463570
476.471277	6192.400000	670.588867	25.483492
476.471277	6192.400000	669.372070	72.006714
476.471277	6192.400000	668.154297	129.943207
476.471277	6192.400000	666.936523	-90.277565
476.471277	6192.400000	665.718750	22.059576
476.471277	6192.400000	664.500977	82.730370
476.471277	6192.400000	663.282227	68.844902
476.471277	6192.400000	662.063477	97.899208
476.471277	6192.400000	660.844727	81.085068
476.471277	6192.400000	659.625000	-1.616377
476.471277	6192.400000	658.405273	159.018555
476.471277	6192.400000	657.185547	308.105499
476.471277	6192.400000	655.965820	19.279613
476.471277	6192.400000	654.745117	-37.722130
476.471277	6192.400000	653.525391	-191.979813
476.471277	6192.400000	652.303711	19.836641
476.471277	6192.400000	651.083008	51.410748
476.471277	6192.400000	649.861328	20.051836
476.471277	6192.400000	648.640625	134.432022
476.471277	6192.400000	647.417969	314.447540
476.471277	6192.400000	646.196289	300.105469
476.471277	6192.400000	644.973633	248.607590
476.471277	6192.400000	643.750977	137.138916
476.471277	6192.400000	642.528320	251.227295
476.471277	6192.400000	641.305664	128.334198
476.471277	6192.400000	640.082031	116.756981
476.471277	6192.400000	638.858398	-85.996948
476.471277	6192.400000	637.634766	173.410843
476.471277	6192.400000	636.410156	-12.210586
476.471277	6192.400000	635.185547	-38.107666
476.471277	6192.400000	633.960938	346.479950
476.471277	6192.400000	632.736328	58.265739
476.471277	6192.400000	631.510742	-33.238152
476.471277	6192.400000	630.285156	63.298130
476.471277	6192.400000	629.059570	-56.694138
476.471277	6192.400000	627.833984	65.394066
476.471277	6192.400000	626.607422	13.737938
476.471277	6192.400000	625.380859	-103.384323
476.471277	6192.400000	624.154297	66.953697
476.471277	6192.400000	622.927734	168.915741
476.471277	6192.400000	621.700195	14.798098
476.471277	6192.400000	620.472656	93.938591
476.471277	6192.400000	619.245117	59.292007
476.471277	6192.400000	618.016602	-23.686211
476.471277	6192.400000	616.788086	32.625034
476.471277	6192.400000	615.559570	0.807490
476.471277	6192.400000	614.331055	-31.009235
476.471277	6192.400000	613.101563	-88.392166
476.471277	6192.400000	611.872070	-26.491631
476.471277	6192.400000	610.642578	83.637428
476.471277	6192.400000	609.413086	71.650024
476.471277	6192.400000	608.182617	110.738899
476.471277	6192.400000	606.952148	195.200058
476.471277	6192.400000	605.721680	15.794994
476.471277	6192.400000	604.491211	156.947281
476.471277	6192.400000	603.259766	334.892639
476.471277	6192.400000	602.028320	234.927094
476.471277	6192.400000	600.796875	92.484024
476.471277	6192.400000	599.564453	88.947578
476.471277	6192.400000	598.332031	-53.415466
476.471277	6192.400000	597.099609	8.221807
476.471277	6192.400000	595.867188	98.151176
476.471277	6192.400000	594.633789	176.711868
476.471277	6192.400000	593.400391	85.392349
476.471277	6192.400000	592.166992	-76.642563
476.471277	6192.400000	590.933594	69.813950
476.471277	6192.400000	589.699219	114.363823
476.471277	6192.400000	588.464844	190.008209
476.471277	6192.400000	587.230469	53.541813
476.471277	6192.400000	585.995117	-111.136543
476.471277	6192.400000	584.760742	71.926788
476.471277	6192.400000	583.525391	17.535540
476.471277	6192.400000	582.289063	76.183640
476.471277	6192.400000	581.053711	72.672356
476.471277	6192.400000	579.817383	86.111107
476.471277	6192.400000	578.581055	-21.859375
476.471277	6192.400000	577.343750	220.265244
476.471277	6192.400000	576.107422	-206.591797
476.471277	6192.400000	574.870117	1.628203
476.471277	6192.400000	573.631836	139.238480
476.471277	6192.400000	572.394531	-22.168842
476.471277	6192.400000	571.156250	-208.877808
476.471277	6192.400000	569.917969	-169.948959
476.471277	6192.400000	568.679688	24.006088
476.471277	6192.400000	567.440430	-47.011242
476.471277	6192.400000	566.202148	-72.900208
476.471277	6192.400000	564.961914	92.780617
476.471277	6192.400000	563.722656	13.391888
476.471277	6192.400000	562.482422	-51.869850
476.471277	6192.400000	561.243164	85.604767
476.471277	6192.400000	560.001953	82.308090
476.471277	6192.400000	558.761719	50.895451
476.471277	6192.400000	557.520508	-115.524414
476.471277	6192.400000	556.279297	27.542351
476.471277	6192.400000	555.038086	-0.967177
476.471277	6192.400000	553.795898	-65.996849
476.471277	6192.400000	552.554688	-133.784317
476.471277	6192.400000	551.311523	68.261642
476.471277	6192.400000	550.069336	-16.340826
476.471277	6192.400000	548.826172	11.477103
476.471277	6192.400000	547.583984	-101.114265
476.471277	6192.400000	546.339844	44.685459
476.471277	6192.400000	545.096680	-236.255341
476.471277	6192.400000	543.852539	-152.186111
476.471277	6192.400000	542.608398	-104.605606
476.471277	6192.400000	541.364258	-17.743000
476.471277	6192.400000	540.119141	-57.113434
476.471277	6192.400000	538.875000	122.295700
476.471277	6192.400000	537.628906	46.515553
476.471277	6192.400000	536.383789	43.676563
476.471277	6192.400000	535.137695	-113.273331
476.471277	6192.400000	533.892578	102.524857
476.471277	6192.400000	532.645508	-1.093845
476.471277	6192.400000	531.399414	-269.876373
476.471277	6192.400000	530.152344	-146.508484
476.471277	6192.400000	528.905273	-31.564743
476.471277	6192.400000	527.658203	41.374779
476.471277	6192.400000	526.410156	89.123947
476.471277	6192.400000	525.163086	-16.990076
476.471277	6192.400000	523.914063	-156.599792
476.471277	6192.400000	522.666016	14.288328
476.471277	6192.400000	521.416992	-105.642296
476.471277	6192.400000	520.167969	-102.502754
476.471277	6192.400000	518.918945	23.627542
476.471277	6192.400000	517.669922	121.790253
476.471277	6192.400000	516.419922	133.336197
476.471277	6192.400000	515.169922	-36.634079
476.471277	6192.400000	513.919922	-19.422819
476.471277	6192.400000	512.668945	-60.822830
476.471277	6192.400000	511.417969	59.701759
476.471277	6192.400000	510.166992	96.484299
476.471277	6192.400000	508.916016	113.743813
476.471277	6192.400000	507.664063	-100.493301
476.471277	6192.400000	506.412109	-189.126038
476.471277	6192.400000	505.160156	246.457047
476.471277	6192.400000	503.907227	185.699203
476.471277	6192.400000	502.655273	30.235519
476.471277	6192.400000	501.402344	181.343964
476.471277	6192.400000	500.148438	170.833023
476.471277	6192.400000	498.895508	196.550400
476.471277	6192.400000	497.641602	-0.489719
476.471277	6192.400000	496.387695	97.657738
476.471277	6192.400000	495.132813	212.472778
476.471277	6192.400000	493.878906	313.336914
476.471277	6192.400000	492.624023	199.944748
476.471277	6192.400000	491.368164	114.420723
476.471277	6192.400000	490.113281	234.725143
476.471277	6192.400000	488.857422	124.216530
476.471277	6192.400000	487.601563	-2.920387
476.471277	6192.400000	486.344727	209.042908
476.471277	6192.400000	485.088867	532.053711
476.471277	6192.400000	483.832031	104.890091
476.471277	6192.400000	482.575195	175.038239
476.471277	6192.400000	481.317383	172.950912
476.471277	6192.400000	480.059570	298.554504
476.471277	6192.400000	478.801758	543.435425
476.471277	6192.400000	477.543945	474.632111
476.471277	6192.400000	476.285156	494.615540
476.471277	6192.400000	475.027344	292.674103
476.471277	6192.400000	473.767578	365.328094
476.471277	6192.400000	472.508789	396.338562
476.471277	6192.400000	471.249023	321.970734
476.471277	6192.400000	469.989258	242.058517
476.471277	6192.400000	468.729492	339.468750
476.471277	6192.400000	467.469727	159.785950
476.471277	6192.400000	466.208984	439.872559
476.471277	6192.400000	464.948242	481.665649
476.471277	6192.400000	463.686523	379.433563
476.471277	6192.400000	462.425781	623.158508
476.471277	6192.400000	461.164063	352.032043
476.471277	6192.400000	459.901367	390.806793
476.471277	6192.400000	458.639648	523.541992
476.471277	6192.400000	457.376953	575.950012
476.471277	6192.400000	456.114258	528.729004
476.471277	6192.400000	454.851563	650.059021
476.471277	6192.400000	453.587891	522.530090
476.471277	6192.400000	452.324219	635.341248
476.471277	6192.400000	451.060547	513.208069
476.471277	6192.400000	449.796875	432.452606
476.471277	6192.400000	448.532227	572.513733
476.471277	6192.400000	447.267578	637.867371
476.471277	6192.400000	446.002930	658.916199
476.471277	6192.400000	444.737305	602.566040
476.471277	6192.400000	443.471680	689.566162
476.471277	6192.400000	442.206055	263.375244
476.471277	6192.400000	440.940430	727.917725
476.471277	6192.400000	439.673828	668.284119
476.471277	6192.400000	438.407227	779.415527
476.471277	6192.400000	437.140625	562.399109
476.471277	6192.400000	435.873047	662.148560
476.471277	6192.400000	434.605469	662.512268
476.471277	6192.400000	433.337891	709.509155
476.471277	6192.400000	432.070313	720.500122
476.471277	6192.400000	430.801758	678.979492
476.471277	6192.400000	429.533203	785.887329
476.471277	6192.400000	428.264648	961.321960
476.471277	6192.400000	426.996094	993.405029
476.471277	6192.400000	425.726563	758.446045
476.471277	6192.400000	424.457031	864.324280
476.471277	6192.400000	423.186523	884.673401
476.471277	6192.400000	421.916992	819.553528
476.471277	6192.400000	420.646484	811.893799
476.471277	6192.400000	419.375977	869.896545
476.471277	6192.400000	418.104492	930.325745
476.471277	6192.400000	416.833008	1015.145569
476.471277	6192.400000	415.561523	792.106506
476.471277	6192.400000	414.290039	840.603577
476.471277	6192.400000	413.017578	655.463318
476.471277	6192.400000	411.746094	747.197632
476.471277	6192.400000	410.472656	638.265076
476.471277	6192.400000	409.200195	729.237549
476.471277	6192.400000	407.926758	718.327148
476.471277	6192.400000	406.653320	822.175781
476.471277	6192.400000	405.379883	887.203979
476.471277	6192.400000	404.105469	625.688721
476.471277	6192.400000	402.831055	552.896851
476.471277	6192.400000	401.556641	819.343994
476.471277	6192.400000	400.282227	718.263977
476.471277	6192.400000	399.006836	868.635559
476.471277	6192.400000	397.731445	703.671082
476.471277	6192.400000	396.456055	683.327454
476.471277	6192.400000	395.179688	881.359436
476.471277	6192.400000	393.903320	608.270935
476.471277	6192.400000	392.626953	589.108521
476.471277	6192.400000	391.350586	697.911926
476.471277	6192.400000	390.073242	614.720215
476.471277	6192.400000	388.795898	448.982941
476.471277	6192.400000	387.518555	823.757263
476.471277	6192.400000	386.240234	580.311584
476.471277	6192.400000	384.961914	573.959839
476.471277	6192.400000	383.683594	381.263275
476.471277	6192.400000	382.405273	469.185059
476.471277	6192.400000	381.125977	488.119110
476.471277	6192.400000	379.846680	260.725800
476.471277	6192.400000	378.567383	368.294434
476.471277	6192.400000	377.287109	409.582458
476.471277	6192.400000	376.006836	332.812286
476.471277	6192.400000	374.726563	399.798584
476.471277	6192.400000	373.446289	485.029449
476.471277	6192.400000	372.165039	533.942078
476.471277	6192.400000	370.883789	265.901398
476.471277	6192.400000	369.602539	318.566223
476.471277	6192.400000	368.320313	291.305237
476.471277	6192.400000	367.039063	331.239532
476.471277	6192.400000	365.755859	427.341492
476.471277	6192.400000	364.473633	321.044647
476.471277	6192.400000	363.190430	289.979218
476.471277	6192.400000	361.907227	399.391876
476.471277	6192.400000	360.624023	437.001282
476.471277	6192.400000	359.340820	345.718048
476.471277	6192.400000	358.056641	359.400574
476.471277	6192.400000	356.772461	214.303741
476.471277	6192.400000	355.487305	361.617371
476.471277	6192.400000	354.202148	458.795319
476.471277	6192.400000	352.916992	475.959900
476.471277	6192.400000	351.631836	559.798401
476.471277	6192.400000	350.346680	544.602295
476.471277	6192.400000	349.060547	308.209686
476.471277	6192.400000	347.774414	32.617706
476.471277	6192.400000	346.487305	198.088409
476.471277	6192.400000	345.200195	378.401031
476.471277	6192.400000	343.913086	288.714661
476.471277	6192.400000	342.625977	102.729935
476.471277	6192.400000	341.338867	132.267105
476.471277	6192.400000	340.050781	198.211334
476.471277	6192.400000	338.762695	110.844528
476.471277	6192.400000	337.473633	103.199860
476.471277	6192.400000	336.184570	83.134628
476.471277	6192.400000	334.895508	-95.623337
476.471277	6192.400000	333.606445	81.451149
476.471277	6192.400000	332.317383	115.990135
476.471277	6192.400000	331.027344	-56.956676
476.471277	6192.400000	329.736328	117.414513
476.471277	6192.400000	328.446289	8.608160
476.471277	6192.400000	327.155273	-1.969334
476.471277	6192.400000	325.864258	-187.484421
476.471277	6192.400000	324.573242	-158.552536
476.471277	6192.400000	323.281250	-234.360428
476.471277	6192.400000	321.989258	-217.550644
476.471277	6192.400000	320.697266	59.283978
476.471277	6192.400000	319.405273	28.688745
476.471277	6192.400000	318.112305	-12.180069
476.471277	6192.400000	316.819336	106.803123
476.471277	6192.400000	315.526367	-229.970596
476.471277	6192.400000	314.232422	-83.133049
476.471277	6192.400000	312.938477	26.267466
476.471277	6192.400000	311.644531	-6.999044
476.471277	6192.400000	310.349609	-18.439762
476.471277	6192.400000	309.054688	-86.241516
476.471277	6192.400000	307.759766	-70.227104
476.471277	6192.400000	306.464844	247.814194
476.471277	6192.400000	305.168945	-2.826365
476.471277	6192.400000	303.873047	204.702103
476.471277	6192.400000	302.577148	51.224457
476.471277	6192.400000	301.281250	172.454529
476.471277	6192.400000	299.984375	341.913910
