#X		#Y		#Wave		#Intensity
29682.912926	-1284.920833	1999.980469	-37.632595
29682.912926	-1284.920833	1999.016602	16.885262
29682.912926	-1284.920833	1998.052734	44.915359
29682.912926	-1284.920833	1997.087891	35.198139
29682.912926	-1284.920833	1996.123047	-96.481667
29682.912926	-1284.920833	1995.158203	-60.205837
29682.912926	-1284.920833	1994.193359	161.285309
29682.912926	-1284.920833	1993.228516	70.170547
29682.912926	-1284.920833	1992.262695	-103.100060
29682.912926	-1284.920833	1991.297852	193.524979
29682.912926	-1284.920833	1990.332031	-96.972084
29682.912926	-1284.920833	1989.366211	94.705864
29682.912926	-1284.920833	1988.399414	48.378880
29682.912926	-1284.920833	1987.433594	36.268959
29682.912926	-1284.920833	1986.466797	-114.731857
29682.912926	-1284.920833	1985.500977	50.417397
29682.912926	-1284.920833	1984.534180	81.631935
29682.912926	-1284.920833	1983.567383	191.559875
29682.912926	-1284.920833	1982.599609	157.762375
29682.912926	-1284.920833	1981.632813	123.629005
29682.912926	-1284.920833	1980.665039	111.413246
29682.912926	-1284.920833	1979.697266	155.687973
29682.912926	-1284.920833	1978.729492	150.249756
29682.912926	-1284.920833	1977.761719	250.681015
29682.912926	-1284.920833	1976.792969	118.753799
29682.912926	-1284.920833	1975.825195	33.490334
29682.912926	-1284.920833	1974.856445	184.883514
29682.912926	-1284.920833	1973.887695	106.524124
29682.912926	-1284.920833	1972.918945	-38.649193
29682.912926	-1284.920833	1971.949219	188.394852
29682.912926	-1284.920833	1970.980469	124.172028
29682.912926	-1284.920833	1970.010742	170.697464
29682.912926	-1284.920833	1969.041016	172.632858
29682.912926	-1284.920833	1968.071289	211.337555
29682.912926	-1284.920833	1967.101563	166.067657
29682.912926	-1284.920833	1966.130859	167.441269
29682.912926	-1284.920833	1965.161133	222.830734
29682.912926	-1284.920833	1964.190430	120.435036
29682.912926	-1284.920833	1963.219727	224.738510
29682.912926	-1284.920833	1962.249023	338.703247
29682.912926	-1284.920833	1961.277344	297.433838
29682.912926	-1284.920833	1960.306641	73.957428
29682.912926	-1284.920833	1959.334961	64.481781
29682.912926	-1284.920833	1958.363281	180.342056
29682.912926	-1284.920833	1957.391602	246.863617
29682.912926	-1284.920833	1956.419922	328.010773
29682.912926	-1284.920833	1955.447266	77.143173
29682.912926	-1284.920833	1954.474609	175.310043
29682.912926	-1284.920833	1953.501953	184.886810
29682.912926	-1284.920833	1952.529297	125.584641
29682.912926	-1284.920833	1951.556641	130.104263
29682.912926	-1284.920833	1950.583984	122.275658
29682.912926	-1284.920833	1949.610352	6.337801
29682.912926	-1284.920833	1948.636719	-13.858326
29682.912926	-1284.920833	1947.663086	83.731590
29682.912926	-1284.920833	1946.689453	117.428551
29682.912926	-1284.920833	1945.715820	131.442078
29682.912926	-1284.920833	1944.741211	142.959396
29682.912926	-1284.920833	1943.767578	301.620209
29682.912926	-1284.920833	1942.792969	102.132202
29682.912926	-1284.920833	1941.818359	20.392969
29682.912926	-1284.920833	1940.842773	68.597839
29682.912926	-1284.920833	1939.868164	261.388550
29682.912926	-1284.920833	1938.892578	248.240677
29682.912926	-1284.920833	1937.916992	164.035660
29682.912926	-1284.920833	1936.941406	170.500259
29682.912926	-1284.920833	1935.965820	145.122879
29682.912926	-1284.920833	1934.990234	-44.311905
29682.912926	-1284.920833	1934.013672	162.965012
29682.912926	-1284.920833	1933.037109	-33.729988
29682.912926	-1284.920833	1932.060547	-5.171755
29682.912926	-1284.920833	1931.083984	140.848633
29682.912926	-1284.920833	1930.107422	113.129333
29682.912926	-1284.920833	1929.129883	41.410610
29682.912926	-1284.920833	1928.153320	55.342777
29682.912926	-1284.920833	1927.175781	49.733124
29682.912926	-1284.920833	1926.198242	154.167603
29682.912926	-1284.920833	1925.219727	31.275780
29682.912926	-1284.920833	1924.242188	179.728806
29682.912926	-1284.920833	1923.263672	130.247849
29682.912926	-1284.920833	1922.285156	29.522326
29682.912926	-1284.920833	1921.306641	24.129189
29682.912926	-1284.920833	1920.328125	60.292770
29682.912926	-1284.920833	1919.349609	28.123041
29682.912926	-1284.920833	1918.370117	137.589508
29682.912926	-1284.920833	1917.391602	132.353729
29682.912926	-1284.920833	1916.412109	10.037200
29682.912926	-1284.920833	1915.431641	24.436180
29682.912926	-1284.920833	1914.452148	-34.296600
29682.912926	-1284.920833	1913.472656	-2.721290
29682.912926	-1284.920833	1912.492188	43.522011
29682.912926	-1284.920833	1911.511719	-97.916862
29682.912926	-1284.920833	1910.531250	206.800781
29682.912926	-1284.920833	1909.550781	92.297707
29682.912926	-1284.920833	1908.569336	24.184704
29682.912926	-1284.920833	1907.588867	-17.049406
29682.912926	-1284.920833	1906.607422	27.032511
29682.912926	-1284.920833	1905.625977	32.191822
29682.912926	-1284.920833	1904.644531	47.144699
29682.912926	-1284.920833	1903.662109	125.437866
29682.912926	-1284.920833	1902.680664	-22.582836
29682.912926	-1284.920833	1901.698242	-0.157793
29682.912926	-1284.920833	1900.715820	39.346310
29682.912926	-1284.920833	1899.733398	44.839153
29682.912926	-1284.920833	1898.750000	-61.484108
29682.912926	-1284.920833	1897.767578	-60.722389
29682.912926	-1284.920833	1896.784180	-6.420961
29682.912926	-1284.920833	1895.800781	-131.948074
29682.912926	-1284.920833	1894.817383	29.387398
29682.912926	-1284.920833	1893.833984	-108.134583
29682.912926	-1284.920833	1892.850586	75.112572
29682.912926	-1284.920833	1891.866211	-13.678916
29682.912926	-1284.920833	1890.881836	-102.381256
29682.912926	-1284.920833	1889.897461	-98.735695
29682.912926	-1284.920833	1888.913086	89.448128
29682.912926	-1284.920833	1887.927734	30.063147
29682.912926	-1284.920833	1886.943359	43.549690
29682.912926	-1284.920833	1885.958008	-71.497681
29682.912926	-1284.920833	1884.972656	-87.000107
29682.912926	-1284.920833	1883.987305	-97.594589
29682.912926	-1284.920833	1883.001953	-28.119852
29682.912926	-1284.920833	1882.015625	-48.318615
29682.912926	-1284.920833	1881.029297	52.728920
29682.912926	-1284.920833	1880.042969	15.656101
29682.912926	-1284.920833	1879.056641	-125.539978
29682.912926	-1284.920833	1878.070313	-48.618118
29682.912926	-1284.920833	1877.083984	-22.541750
29682.912926	-1284.920833	1876.096680	-141.722473
29682.912926	-1284.920833	1875.109375	51.503181
29682.912926	-1284.920833	1874.122070	169.659485
29682.912926	-1284.920833	1873.134766	145.021683
29682.912926	-1284.920833	1872.146484	115.594215
29682.912926	-1284.920833	1871.159180	11.218704
29682.912926	-1284.920833	1870.170898	-119.686577
29682.912926	-1284.920833	1869.182617	-47.364807
29682.912926	-1284.920833	1868.194336	-42.736691
29682.912926	-1284.920833	1867.205078	44.117348
29682.912926	-1284.920833	1866.216797	56.043320
29682.912926	-1284.920833	1865.227539	-38.330776
29682.912926	-1284.920833	1864.238281	-38.412472
29682.912926	-1284.920833	1863.249023	-33.634266
29682.912926	-1284.920833	1862.259766	-33.661594
29682.912926	-1284.920833	1861.269531	-69.882439
29682.912926	-1284.920833	1860.279297	-81.922783
29682.912926	-1284.920833	1859.290039	-19.108885
29682.912926	-1284.920833	1858.298828	147.480652
29682.912926	-1284.920833	1857.308594	96.863937
29682.912926	-1284.920833	1856.318359	2.860985
29682.912926	-1284.920833	1855.327148	-9.080709
29682.912926	-1284.920833	1854.335938	-6.532141
29682.912926	-1284.920833	1853.344727	116.584808
29682.912926	-1284.920833	1852.353516	80.565033
29682.912926	-1284.920833	1851.362305	59.031559
29682.912926	-1284.920833	1850.370117	8.600373
29682.912926	-1284.920833	1849.377930	143.712082
29682.912926	-1284.920833	1848.385742	35.487247
29682.912926	-1284.920833	1847.393555	-72.691849
29682.912926	-1284.920833	1846.401367	43.111267
29682.912926	-1284.920833	1845.408203	134.799683
29682.912926	-1284.920833	1844.415039	60.369621
29682.912926	-1284.920833	1843.421875	96.669662
29682.912926	-1284.920833	1842.428711	60.769569
29682.912926	-1284.920833	1841.435547	29.690769
29682.912926	-1284.920833	1840.441406	-49.484463
29682.912926	-1284.920833	1839.448242	82.981018
29682.912926	-1284.920833	1838.454102	138.451981
29682.912926	-1284.920833	1837.459961	-36.878529
29682.912926	-1284.920833	1836.464844	160.374435
29682.912926	-1284.920833	1835.470703	28.334829
29682.912926	-1284.920833	1834.475586	208.656906
29682.912926	-1284.920833	1833.480469	-0.236752
29682.912926	-1284.920833	1832.485352	-21.744637
29682.912926	-1284.920833	1831.490234	158.432556
29682.912926	-1284.920833	1830.495117	-33.585575
29682.912926	-1284.920833	1829.499023	81.678635
29682.912926	-1284.920833	1828.502930	175.277252
29682.912926	-1284.920833	1827.506836	201.634598
29682.912926	-1284.920833	1826.510742	163.186234
29682.912926	-1284.920833	1825.513672	103.139702
29682.912926	-1284.920833	1824.517578	160.585800
29682.912926	-1284.920833	1823.520508	222.776031
29682.912926	-1284.920833	1822.523438	61.982883
29682.912926	-1284.920833	1821.526367	73.772827
29682.912926	-1284.920833	1820.529297	-77.415604
29682.912926	-1284.920833	1819.531250	188.272003
29682.912926	-1284.920833	1818.533203	84.950569
29682.912926	-1284.920833	1817.535156	209.136322
29682.912926	-1284.920833	1816.537109	115.347443
29682.912926	-1284.920833	1815.539063	124.490303
29682.912926	-1284.920833	1814.540039	33.061741
29682.912926	-1284.920833	1813.541992	80.416626
29682.912926	-1284.920833	1812.542969	108.568008
29682.912926	-1284.920833	1811.543945	162.974442
29682.912926	-1284.920833	1810.543945	114.471008
29682.912926	-1284.920833	1809.544922	118.541916
29682.912926	-1284.920833	1808.544922	38.884457
29682.912926	-1284.920833	1807.544922	267.552643
29682.912926	-1284.920833	1806.544922	130.434448
29682.912926	-1284.920833	1805.544922	213.137543
29682.912926	-1284.920833	1804.544922	66.414680
29682.912926	-1284.920833	1803.543945	139.431229
29682.912926	-1284.920833	1802.542969	14.154165
29682.912926	-1284.920833	1801.541992	106.135086
29682.912926	-1284.920833	1800.541016	95.373863
29682.912926	-1284.920833	1799.539063	53.527420
29682.912926	-1284.920833	1798.538086	71.289337
29682.912926	-1284.920833	1797.536133	-61.323338
29682.912926	-1284.920833	1796.534180	-117.621017
29682.912926	-1284.920833	1795.532227	81.217545
29682.912926	-1284.920833	1794.529297	-56.290615
29682.912926	-1284.920833	1793.527344	73.190414
29682.912926	-1284.920833	1792.524414	252.605850
29682.912926	-1284.920833	1791.521484	98.253586
29682.912926	-1284.920833	1790.518555	77.314339
29682.912926	-1284.920833	1789.514648	-43.740990
29682.912926	-1284.920833	1788.511719	-67.172401
29682.912926	-1284.920833	1787.507813	-81.145630
29682.912926	-1284.920833	1786.503906	40.518044
29682.912926	-1284.920833	1785.500000	57.323154
29682.912926	-1284.920833	1784.496094	0.267917
29682.912926	-1284.920833	1783.491211	-6.876308
29682.912926	-1284.920833	1782.486328	107.232643
29682.912926	-1284.920833	1781.481445	185.540802
29682.912926	-1284.920833	1780.476563	123.430725
29682.912926	-1284.920833	1779.471680	232.454453
29682.912926	-1284.920833	1778.465820	-8.095464
29682.912926	-1284.920833	1777.460938	115.007706
29682.912926	-1284.920833	1776.455078	147.680283
29682.912926	-1284.920833	1775.449219	-26.442881
29682.912926	-1284.920833	1774.442383	86.837257
29682.912926	-1284.920833	1773.436523	142.991821
29682.912926	-1284.920833	1772.429688	80.312523
29682.912926	-1284.920833	1771.422852	79.295952
29682.912926	-1284.920833	1770.416016	111.422546
29682.912926	-1284.920833	1769.409180	152.942276
29682.912926	-1284.920833	1768.402344	47.251171
29682.912926	-1284.920833	1767.394531	128.915497
29682.912926	-1284.920833	1766.386719	63.408932
29682.912926	-1284.920833	1765.378906	178.059662
29682.912926	-1284.920833	1764.371094	190.628021
29682.912926	-1284.920833	1763.362305	96.428581
29682.912926	-1284.920833	1762.354492	14.026832
29682.912926	-1284.920833	1761.345703	85.581520
29682.912926	-1284.920833	1760.336914	275.471741
29682.912926	-1284.920833	1759.328125	214.121979
29682.912926	-1284.920833	1758.318359	119.545723
29682.912926	-1284.920833	1757.308594	79.369911
29682.912926	-1284.920833	1756.299805	124.342010
29682.912926	-1284.920833	1755.290039	188.134506
29682.912926	-1284.920833	1754.279297	-15.595362
29682.912926	-1284.920833	1753.269531	24.352974
29682.912926	-1284.920833	1752.258789	106.766754
29682.912926	-1284.920833	1751.249023	-42.714607
29682.912926	-1284.920833	1750.238281	60.772976
29682.912926	-1284.920833	1749.226563	135.752579
29682.912926	-1284.920833	1748.215820	7.336895
29682.912926	-1284.920833	1747.204102	-73.864883
29682.912926	-1284.920833	1746.193359	175.662659
29682.912926	-1284.920833	1745.181641	18.675404
29682.912926	-1284.920833	1744.168945	175.778061
29682.912926	-1284.920833	1743.157227	94.225922
29682.912926	-1284.920833	1742.144531	232.175720
29682.912926	-1284.920833	1741.132813	79.638031
29682.912926	-1284.920833	1740.120117	-37.540295
29682.912926	-1284.920833	1739.106445	29.276827
29682.912926	-1284.920833	1738.093750	-26.698771
29682.912926	-1284.920833	1737.080078	-4.915617
29682.912926	-1284.920833	1736.067383	-28.036976
29682.912926	-1284.920833	1735.053711	28.916040
29682.912926	-1284.920833	1734.040039	170.618317
29682.912926	-1284.920833	1733.025391	-8.374469
29682.912926	-1284.920833	1732.011719	-53.069515
29682.912926	-1284.920833	1730.997070	95.347366
29682.912926	-1284.920833	1729.982422	43.389866
29682.912926	-1284.920833	1728.967773	43.171101
29682.912926	-1284.920833	1727.952148	113.493462
29682.912926	-1284.920833	1726.937500	0.072892
29682.912926	-1284.920833	1725.921875	150.218887
29682.912926	-1284.920833	1724.906250	-1.009880
29682.912926	-1284.920833	1723.890625	-62.863995
29682.912926	-1284.920833	1722.875000	-42.451435
29682.912926	-1284.920833	1721.858398	15.486825
29682.912926	-1284.920833	1720.841797	-13.694240
29682.912926	-1284.920833	1719.825195	84.003403
29682.912926	-1284.920833	1718.808594	-51.138512
29682.912926	-1284.920833	1717.791992	-111.112640
29682.912926	-1284.920833	1716.774414	0.369494
29682.912926	-1284.920833	1715.756836	-62.125687
29682.912926	-1284.920833	1714.739258	131.335968
29682.912926	-1284.920833	1713.721680	12.302389
29682.912926	-1284.920833	1712.704102	-45.727299
29682.912926	-1284.920833	1711.685547	98.054108
29682.912926	-1284.920833	1710.667969	23.428482
29682.912926	-1284.920833	1709.649414	33.215141
29682.912926	-1284.920833	1708.630859	26.489975
29682.912926	-1284.920833	1707.611328	19.675655
29682.912926	-1284.920833	1706.592773	132.393616
29682.912926	-1284.920833	1705.573242	36.292702
29682.912926	-1284.920833	1704.553711	-3.589903
29682.912926	-1284.920833	1703.534180	-66.978073
29682.912926	-1284.920833	1702.513672	-17.946512
29682.912926	-1284.920833	1701.494141	0.534763
29682.912926	-1284.920833	1700.473633	68.114395
29682.912926	-1284.920833	1699.453125	88.747017
29682.912926	-1284.920833	1698.432617	-12.470856
29682.912926	-1284.920833	1697.412109	-41.151218
29682.912926	-1284.920833	1696.390625	-13.728001
29682.912926	-1284.920833	1695.369141	-84.683228
29682.912926	-1284.920833	1694.347656	-3.598088
29682.912926	-1284.920833	1693.326172	-4.496125
29682.912926	-1284.920833	1692.304688	17.921385
29682.912926	-1284.920833	1691.282227	-142.152328
29682.912926	-1284.920833	1690.260742	-66.086960
29682.912926	-1284.920833	1689.238281	-142.073639
29682.912926	-1284.920833	1688.214844	-7.768355
29682.912926	-1284.920833	1687.192383	-25.459349
29682.912926	-1284.920833	1686.168945	68.917778
29682.912926	-1284.920833	1685.146484	125.828003
29682.912926	-1284.920833	1684.123047	12.161183
29682.912926	-1284.920833	1683.099609	-43.155575
29682.912926	-1284.920833	1682.075195	-26.157511
29682.912926	-1284.920833	1681.051758	7.116960
29682.912926	-1284.920833	1680.027344	121.980118
29682.912926	-1284.920833	1679.002930	-26.900896
29682.912926	-1284.920833	1677.978516	83.136559
29682.912926	-1284.920833	1676.953125	235.041397
29682.912926	-1284.920833	1675.928711	114.025322
29682.912926	-1284.920833	1674.903320	142.190643
29682.912926	-1284.920833	1673.877930	107.355682
29682.912926	-1284.920833	1672.852539	191.328171
29682.912926	-1284.920833	1671.826172	261.223816
29682.912926	-1284.920833	1670.800781	116.735779
29682.912926	-1284.920833	1669.774414	125.957176
29682.912926	-1284.920833	1668.748047	263.195862
29682.912926	-1284.920833	1667.721680	242.017914
29682.912926	-1284.920833	1666.694336	297.601807
29682.912926	-1284.920833	1665.667969	225.128082
29682.912926	-1284.920833	1664.640625	164.258728
29682.912926	-1284.920833	1663.613281	196.420044
29682.912926	-1284.920833	1662.585938	298.301178
29682.912926	-1284.920833	1661.557617	162.893448
29682.912926	-1284.920833	1660.530273	343.704437
29682.912926	-1284.920833	1659.501953	131.545761
29682.912926	-1284.920833	1658.473633	209.940094
29682.912926	-1284.920833	1657.444336	183.690674
29682.912926	-1284.920833	1656.416016	257.320526
29682.912926	-1284.920833	1655.386719	198.478363
29682.912926	-1284.920833	1654.358398	313.805542
29682.912926	-1284.920833	1653.328125	299.008911
29682.912926	-1284.920833	1652.298828	172.767807
29682.912926	-1284.920833	1651.269531	364.513306
29682.912926	-1284.920833	1650.239258	331.054352
29682.912926	-1284.920833	1649.208984	309.178650
29682.912926	-1284.920833	1648.178711	298.880554
29682.912926	-1284.920833	1647.148438	448.580719
29682.912926	-1284.920833	1646.117188	415.007965
29682.912926	-1284.920833	1645.086914	583.121948
29682.912926	-1284.920833	1644.055664	572.665100
29682.912926	-1284.920833	1643.024414	576.093750
29682.912926	-1284.920833	1641.992188	602.657593
29682.912926	-1284.920833	1640.960938	531.910217
29682.912926	-1284.920833	1639.928711	639.493896
29682.912926	-1284.920833	1638.896484	749.333252
29682.912926	-1284.920833	1637.864258	680.849426
29682.912926	-1284.920833	1636.832031	804.494324
29682.912926	-1284.920833	1635.798828	995.178345
29682.912926	-1284.920833	1634.766602	831.779846
29682.912926	-1284.920833	1633.733398	814.161682
29682.912926	-1284.920833	1632.699219	956.116638
29682.912926	-1284.920833	1631.666016	859.838989
29682.912926	-1284.920833	1630.632813	999.411987
29682.912926	-1284.920833	1629.598633	979.418274
29682.912926	-1284.920833	1628.564453	917.827454
29682.912926	-1284.920833	1627.530273	957.923523
29682.912926	-1284.920833	1626.495117	1074.226685
29682.912926	-1284.920833	1625.460938	973.378967
29682.912926	-1284.920833	1624.425781	960.312134
29682.912926	-1284.920833	1623.390625	998.045105
29682.912926	-1284.920833	1622.355469	1044.999023
29682.912926	-1284.920833	1621.319336	1066.539917
29682.912926	-1284.920833	1620.284180	1194.232056
29682.912926	-1284.920833	1619.248047	1160.377441
29682.912926	-1284.920833	1618.211914	1214.192993
29682.912926	-1284.920833	1617.174805	1194.188965
29682.912926	-1284.920833	1616.138672	1245.688843
29682.912926	-1284.920833	1615.101563	1101.223999
29682.912926	-1284.920833	1614.065430	1244.936401
29682.912926	-1284.920833	1613.027344	1434.671997
29682.912926	-1284.920833	1611.990234	1350.195801
29682.912926	-1284.920833	1610.953125	1291.105591
29682.912926	-1284.920833	1609.915039	1432.405518
29682.912926	-1284.920833	1608.876953	1493.079346
29682.912926	-1284.920833	1607.838867	1417.925049
29682.912926	-1284.920833	1606.800781	1646.639282
29682.912926	-1284.920833	1605.761719	1610.636353
29682.912926	-1284.920833	1604.723633	1482.651611
29682.912926	-1284.920833	1603.684570	1446.743286
29682.912926	-1284.920833	1602.644531	1737.442871
29682.912926	-1284.920833	1601.605469	1552.088989
29682.912926	-1284.920833	1600.566406	1624.318848
29682.912926	-1284.920833	1599.526367	1558.627930
29682.912926	-1284.920833	1598.486328	1635.473389
29682.912926	-1284.920833	1597.446289	1556.082886
29682.912926	-1284.920833	1596.405273	1626.061523
29682.912926	-1284.920833	1595.365234	1608.781616
29682.912926	-1284.920833	1594.324219	1589.236572
29682.912926	-1284.920833	1593.283203	1723.555908
29682.912926	-1284.920833	1592.242188	1492.896118
29682.912926	-1284.920833	1591.200195	1588.233521
29682.912926	-1284.920833	1590.159180	1667.523071
29682.912926	-1284.920833	1589.117188	1632.110107
29682.912926	-1284.920833	1588.075195	1743.542847
29682.912926	-1284.920833	1587.032227	1699.032227
29682.912926	-1284.920833	1585.990234	1776.104980
29682.912926	-1284.920833	1584.947266	1646.882324
29682.912926	-1284.920833	1583.904297	1648.388672
29682.912926	-1284.920833	1582.861328	1533.084229
29682.912926	-1284.920833	1581.818359	1573.654663
29682.912926	-1284.920833	1580.775391	1682.971069
29682.912926	-1284.920833	1579.731445	1627.407715
29682.912926	-1284.920833	1578.687500	1592.523315
29682.912926	-1284.920833	1577.643555	1129.645874
29682.912926	-1284.920833	1576.598633	1280.351196
29682.912926	-1284.920833	1575.554688	1419.620972
29682.912926	-1284.920833	1574.509766	1430.769531
29682.912926	-1284.920833	1573.464844	1462.557251
29682.912926	-1284.920833	1572.419922	1300.007690
29682.912926	-1284.920833	1571.374023	1441.664429
29682.912926	-1284.920833	1570.329102	1309.021240
29682.912926	-1284.920833	1569.283203	1343.324829
29682.912926	-1284.920833	1568.237305	1208.582031
29682.912926	-1284.920833	1567.191406	1297.847900
29682.912926	-1284.920833	1566.144531	1240.949219
29682.912926	-1284.920833	1565.098633	1104.216309
29682.912926	-1284.920833	1564.051758	1097.740845
29682.912926	-1284.920833	1563.004883	1066.224854
29682.912926	-1284.920833	1561.957031	1205.958862
29682.912926	-1284.920833	1560.910156	1103.832764
29682.912926	-1284.920833	1559.862305	1093.067749
29682.912926	-1284.920833	1558.814453	1143.965210
29682.912926	-1284.920833	1557.766602	1090.009521
29682.912926	-1284.920833	1556.718750	1084.030640
29682.912926	-1284.920833	1555.669922	1009.729187
29682.912926	-1284.920833	1554.621094	887.669006
29682.912926	-1284.920833	1553.573242	802.200745
29682.912926	-1284.920833	1552.523438	924.154846
29682.912926	-1284.920833	1551.474609	820.636963
29682.912926	-1284.920833	1550.424805	680.790466
29682.912926	-1284.920833	1549.375000	598.003906
29682.912926	-1284.920833	1548.325195	665.581787
29682.912926	-1284.920833	1547.275391	728.662598
29682.912926	-1284.920833	1546.225586	703.049683
29682.912926	-1284.920833	1545.174805	704.824524
29682.912926	-1284.920833	1544.124023	522.426880
29682.912926	-1284.920833	1543.073242	742.737366
29682.912926	-1284.920833	1542.022461	626.516479
29682.912926	-1284.920833	1540.970703	455.857513
29682.912926	-1284.920833	1539.919922	344.456909
29682.912926	-1284.920833	1538.868164	462.703735
29682.912926	-1284.920833	1537.815430	476.470001
29682.912926	-1284.920833	1536.763672	410.820770
29682.912926	-1284.920833	1535.710938	295.314545
29682.912926	-1284.920833	1534.659180	452.435883
29682.912926	-1284.920833	1533.606445	332.607880
29682.912926	-1284.920833	1532.552734	349.101410
29682.912926	-1284.920833	1531.500000	249.949387
29682.912926	-1284.920833	1530.446289	327.898590
29682.912926	-1284.920833	1529.393555	419.527374
29682.912926	-1284.920833	1528.338867	284.400726
29682.912926	-1284.920833	1527.285156	398.860535
29682.912926	-1284.920833	1526.231445	180.103470
29682.912926	-1284.920833	1525.176758	185.924149
29682.912926	-1284.920833	1524.122070	243.962769
29682.912926	-1284.920833	1523.067383	324.733459
29682.912926	-1284.920833	1522.012695	154.117615
29682.912926	-1284.920833	1520.957031	239.594757
29682.912926	-1284.920833	1519.901367	153.039505
29682.912926	-1284.920833	1518.845703	254.529449
29682.912926	-1284.920833	1517.790039	41.446384
29682.912926	-1284.920833	1516.734375	192.906464
29682.912926	-1284.920833	1515.677734	16.318834
29682.912926	-1284.920833	1514.621094	16.353973
29682.912926	-1284.920833	1513.564453	-15.173277
29682.912926	-1284.920833	1512.507813	-62.414394
29682.912926	-1284.920833	1511.450195	50.982006
29682.912926	-1284.920833	1510.393555	15.254280
29682.912926	-1284.920833	1509.335938	15.799243
29682.912926	-1284.920833	1508.278320	-35.520908
29682.912926	-1284.920833	1507.219727	60.119686
29682.912926	-1284.920833	1506.162109	-112.944786
29682.912926	-1284.920833	1505.103516	104.824348
29682.912926	-1284.920833	1504.044922	81.036400
29682.912926	-1284.920833	1502.986328	-8.096929
29682.912926	-1284.920833	1501.926758	-0.048671
29682.912926	-1284.920833	1500.868164	55.490383
29682.912926	-1284.920833	1499.808594	81.783966
29682.912926	-1284.920833	1498.749023	279.591217
29682.912926	-1284.920833	1497.688477	15.142108
29682.912926	-1284.920833	1496.628906	145.461777
29682.912926	-1284.920833	1495.568359	93.249306
29682.912926	-1284.920833	1494.507813	-15.176091
29682.912926	-1284.920833	1493.447266	-37.826942
29682.912926	-1284.920833	1492.386719	-62.612289
29682.912926	-1284.920833	1491.325195	-42.234730
29682.912926	-1284.920833	1490.263672	-42.022457
29682.912926	-1284.920833	1489.202148	113.649147
29682.912926	-1284.920833	1488.140625	102.793846
29682.912926	-1284.920833	1487.079102	-42.980362
29682.912926	-1284.920833	1486.016602	-109.835106
29682.912926	-1284.920833	1484.954102	86.657692
29682.912926	-1284.920833	1483.891602	17.774920
29682.912926	-1284.920833	1482.829102	14.243673
29682.912926	-1284.920833	1481.765625	156.959808
29682.912926	-1284.920833	1480.702148	-12.722283
29682.912926	-1284.920833	1479.638672	116.658310
29682.912926	-1284.920833	1478.575195	1.209496
29682.912926	-1284.920833	1477.511719	-62.422760
29682.912926	-1284.920833	1476.447266	-33.838718
29682.912926	-1284.920833	1475.382813	104.837875
29682.912926	-1284.920833	1474.318359	140.307648
29682.912926	-1284.920833	1473.253906	43.471886
29682.912926	-1284.920833	1472.189453	155.483337
29682.912926	-1284.920833	1471.124023	49.972176
29682.912926	-1284.920833	1470.058594	97.131470
29682.912926	-1284.920833	1468.993164	115.225258
29682.912926	-1284.920833	1467.927734	223.083969
29682.912926	-1284.920833	1466.861328	43.876232
29682.912926	-1284.920833	1465.794922	250.510468
29682.912926	-1284.920833	1464.728516	479.394714
29682.912926	-1284.920833	1463.662109	403.922363
29682.912926	-1284.920833	1462.594727	498.610046
29682.912926	-1284.920833	1461.528320	413.988434
29682.912926	-1284.920833	1460.460938	374.705383
29682.912926	-1284.920833	1459.393555	590.265259
29682.912926	-1284.920833	1458.326172	415.176666
29682.912926	-1284.920833	1457.257813	438.901978
29682.912926	-1284.920833	1456.189453	707.785156
29682.912926	-1284.920833	1455.121094	358.348328
29682.912926	-1284.920833	1454.052734	562.835449
29682.912926	-1284.920833	1452.984375	462.264709
29682.912926	-1284.920833	1451.915039	593.125366
29682.912926	-1284.920833	1450.845703	488.614319
29682.912926	-1284.920833	1449.776367	510.780029
29682.912926	-1284.920833	1448.707031	356.565582
29682.912926	-1284.920833	1447.636719	394.206573
29682.912926	-1284.920833	1446.567383	325.812836
29682.912926	-1284.920833	1445.497070	467.902924
29682.912926	-1284.920833	1444.425781	426.180878
29682.912926	-1284.920833	1443.355469	323.733429
29682.912926	-1284.920833	1442.285156	366.761169
29682.912926	-1284.920833	1441.213867	426.048157
29682.912926	-1284.920833	1440.142578	388.134949
29682.912926	-1284.920833	1439.070313	304.530304
29682.912926	-1284.920833	1437.999023	218.102173
29682.912926	-1284.920833	1436.926758	205.243652
29682.912926	-1284.920833	1435.854492	329.251709
29682.912926	-1284.920833	1434.782227	135.424698
29682.912926	-1284.920833	1433.709961	108.311470
29682.912926	-1284.920833	1432.636719	384.097595
29682.912926	-1284.920833	1431.563477	361.568420
29682.912926	-1284.920833	1430.490234	207.207275
29682.912926	-1284.920833	1429.416992	191.352539
29682.912926	-1284.920833	1428.343750	401.643341
29682.912926	-1284.920833	1427.269531	443.239807
29682.912926	-1284.920833	1426.195313	481.908661
29682.912926	-1284.920833	1425.121094	401.677673
29682.912926	-1284.920833	1424.046875	547.559998
29682.912926	-1284.920833	1422.971680	336.832214
29682.912926	-1284.920833	1421.896484	350.197235
29682.912926	-1284.920833	1420.821289	488.818512
29682.912926	-1284.920833	1419.746094	506.947449
29682.912926	-1284.920833	1418.669922	736.198853
29682.912926	-1284.920833	1417.594727	752.820801
29682.912926	-1284.920833	1416.518555	708.477295
29682.912926	-1284.920833	1415.442383	558.613831
29682.912926	-1284.920833	1414.365234	731.799561
29682.912926	-1284.920833	1413.289063	643.635376
29682.912926	-1284.920833	1412.211914	680.025208
29682.912926	-1284.920833	1411.134766	617.213867
29682.912926	-1284.920833	1410.057617	660.748657
29682.912926	-1284.920833	1408.979492	808.547729
29682.912926	-1284.920833	1407.902344	635.869324
29682.912926	-1284.920833	1406.824219	544.759766
29682.912926	-1284.920833	1405.746094	741.249573
29682.912926	-1284.920833	1404.666992	730.348145
29682.912926	-1284.920833	1403.588867	562.951660
29682.912926	-1284.920833	1402.509766	560.794495
29682.912926	-1284.920833	1401.430664	593.734070
29682.912926	-1284.920833	1400.351563	336.273468
29682.912926	-1284.920833	1399.271484	471.888336
29682.912926	-1284.920833	1398.192383	426.611755
29682.912926	-1284.920833	1397.112305	387.242279
29682.912926	-1284.920833	1396.031250	235.165634
29682.912926	-1284.920833	1394.951172	253.230362
29682.912926	-1284.920833	1393.871094	270.247559
29682.912926	-1284.920833	1392.790039	238.880264
29682.912926	-1284.920833	1391.708984	310.064667
29682.912926	-1284.920833	1390.626953	150.277817
29682.912926	-1284.920833	1389.545898	108.866524
29682.912926	-1284.920833	1388.463867	36.407387
29682.912926	-1284.920833	1387.381836	30.351910
29682.912926	-1284.920833	1386.299805	159.010818
29682.912926	-1284.920833	1385.217773	249.213882
29682.912926	-1284.920833	1384.134766	208.815521
29682.912926	-1284.920833	1383.051758	361.686371
29682.912926	-1284.920833	1381.968750	152.608841
29682.912926	-1284.920833	1380.885742	205.585022
29682.912926	-1284.920833	1379.802734	149.724930
29682.912926	-1284.920833	1378.718750	161.131821
29682.912926	-1284.920833	1377.634766	186.389862
29682.912926	-1284.920833	1376.550781	267.830719
29682.912926	-1284.920833	1375.465820	271.881592
29682.912926	-1284.920833	1374.381836	363.158325
29682.912926	-1284.920833	1373.296875	183.647446
29682.912926	-1284.920833	1372.211914	191.197952
29682.912926	-1284.920833	1371.126953	355.103912
29682.912926	-1284.920833	1370.041016	256.812286
29682.912926	-1284.920833	1368.955078	230.720703
29682.912926	-1284.920833	1367.869141	133.087051
29682.912926	-1284.920833	1366.783203	187.365555
29682.912926	-1284.920833	1365.697266	144.861969
29682.912926	-1284.920833	1364.610352	28.181726
29682.912926	-1284.920833	1363.523438	249.928680
29682.912926	-1284.920833	1362.436523	26.510654
29682.912926	-1284.920833	1361.349609	135.250961
29682.912926	-1284.920833	1360.261719	120.239120
29682.912926	-1284.920833	1359.174805	-1.039503
29682.912926	-1284.920833	1358.086914	-0.702830
29682.912926	-1284.920833	1356.998047	10.807964
29682.912926	-1284.920833	1355.910156	-128.336990
29682.912926	-1284.920833	1354.821289	17.137739
29682.912926	-1284.920833	1353.732422	39.606049
29682.912926	-1284.920833	1352.643555	64.579727
29682.912926	-1284.920833	1351.554688	-45.583237
29682.912926	-1284.920833	1350.464844	51.127953
29682.912926	-1284.920833	1349.375000	97.493736
29682.912926	-1284.920833	1348.285156	147.408722
29682.912926	-1284.920833	1347.195313	-11.991778
29682.912926	-1284.920833	1346.105469	0.315259
29682.912926	-1284.920833	1345.014648	105.784187
29682.912926	-1284.920833	1343.923828	-56.312092
29682.912926	-1284.920833	1342.833008	12.852665
29682.912926	-1284.920833	1341.741211	41.435555
29682.912926	-1284.920833	1340.650391	40.062057
29682.912926	-1284.920833	1339.558594	107.341759
29682.912926	-1284.920833	1338.466797	254.468750
29682.912926	-1284.920833	1337.374023	192.046082
29682.912926	-1284.920833	1336.282227	98.824928
29682.912926	-1284.920833	1335.189453	244.005478
29682.912926	-1284.920833	1334.096680	197.776794
29682.912926	-1284.920833	1333.003906	41.182911
29682.912926	-1284.920833	1331.910156	184.713242
29682.912926	-1284.920833	1330.817383	224.010742
29682.912926	-1284.920833	1329.723633	150.432159
29682.912926	-1284.920833	1328.629883	139.768463
29682.912926	-1284.920833	1327.535156	209.564865
29682.912926	-1284.920833	1326.441406	133.020279
29682.912926	-1284.920833	1325.346680	165.088303
29682.912926	-1284.920833	1324.251953	382.433380
29682.912926	-1284.920833	1323.156250	338.493347
29682.912926	-1284.920833	1322.061523	262.573914
29682.912926	-1284.920833	1320.965820	390.468201
29682.912926	-1284.920833	1319.870117	244.440170
29682.912926	-1284.920833	1318.774414	400.615417
29682.912926	-1284.920833	1317.678711	284.597961
29682.912926	-1284.920833	1316.582031	254.570969
29682.912926	-1284.920833	1315.485352	294.287567
29682.912926	-1284.920833	1314.388672	233.606216
29682.912926	-1284.920833	1313.291016	278.866852
29682.912926	-1284.920833	1312.194336	450.584717
29682.912926	-1284.920833	1311.096680	269.565613
29682.912926	-1284.920833	1309.999023	205.187042
29682.912926	-1284.920833	1308.901367	295.071198
29682.912926	-1284.920833	1307.802734	324.811981
29682.912926	-1284.920833	1306.705078	399.749725
29682.912926	-1284.920833	1305.606445	188.801666
29682.912926	-1284.920833	1304.506836	251.861496
29682.912926	-1284.920833	1303.408203	373.263153
29682.912926	-1284.920833	1302.308594	234.457138
29682.912926	-1284.920833	1301.208984	371.238892
29682.912926	-1284.920833	1300.109375	416.441040
29682.912926	-1284.920833	1299.009766	353.208771
29682.912926	-1284.920833	1297.909180	323.709320
29682.912926	-1284.920833	1296.808594	306.964172
29682.912926	-1284.920833	1295.708008	188.230316
29682.912926	-1284.920833	1294.607422	433.076263
29682.912926	-1284.920833	1293.506836	378.832733
29682.912926	-1284.920833	1292.405273	295.281738
29682.912926	-1284.920833	1291.303711	325.542450
29682.912926	-1284.920833	1290.202148	320.476349
29682.912926	-1284.920833	1289.099609	386.558838
29682.912926	-1284.920833	1287.998047	185.170212
29682.912926	-1284.920833	1286.895508	219.359222
29682.912926	-1284.920833	1285.792969	233.582474
29682.912926	-1284.920833	1284.689453	193.788513
29682.912926	-1284.920833	1283.586914	242.219955
29682.912926	-1284.920833	1282.483398	247.720001
29682.912926	-1284.920833	1281.379883	317.097321
29682.912926	-1284.920833	1280.276367	395.041595
29682.912926	-1284.920833	1279.171875	296.477417
29682.912926	-1284.920833	1278.067383	225.642685
29682.912926	-1284.920833	1276.962891	326.783722
29682.912926	-1284.920833	1275.858398	274.448608
29682.912926	-1284.920833	1274.753906	250.240128
29682.912926	-1284.920833	1273.648438	291.532562
29682.912926	-1284.920833	1272.542969	222.179596
29682.912926	-1284.920833	1271.437500	241.100433
29682.912926	-1284.920833	1270.331055	209.895447
29682.912926	-1284.920833	1269.225586	163.016998
29682.912926	-1284.920833	1268.119141	317.512726
29682.912926	-1284.920833	1267.012695	243.993744
29682.912926	-1284.920833	1265.906250	147.456406
29682.912926	-1284.920833	1264.798828	8.833048
29682.912926	-1284.920833	1263.691406	89.217278
29682.912926	-1284.920833	1262.583984	43.511734
29682.912926	-1284.920833	1261.476563	82.032143
29682.912926	-1284.920833	1260.368164	200.132187
29682.912926	-1284.920833	1259.260742	192.683548
29682.912926	-1284.920833	1258.152344	11.817085
29682.912926	-1284.920833	1257.043945	80.894615
29682.912926	-1284.920833	1255.934570	40.130112
29682.912926	-1284.920833	1254.825195	40.251633
29682.912926	-1284.920833	1253.716797	102.906281
29682.912926	-1284.920833	1252.606445	96.296738
29682.912926	-1284.920833	1251.497070	268.162445
29682.912926	-1284.920833	1250.387695	139.425369
29682.912926	-1284.920833	1249.277344	120.282806
29682.912926	-1284.920833	1248.166992	16.532814
29682.912926	-1284.920833	1247.055664	103.765694
29682.912926	-1284.920833	1245.945313	72.991440
29682.912926	-1284.920833	1244.833984	188.108521
29682.912926	-1284.920833	1243.722656	47.682713
29682.912926	-1284.920833	1242.611328	148.547913
29682.912926	-1284.920833	1241.499023	53.551685
29682.912926	-1284.920833	1240.387695	103.720886
29682.912926	-1284.920833	1239.275391	37.404957
29682.912926	-1284.920833	1238.162109	241.807861
29682.912926	-1284.920833	1237.049805	149.597321
29682.912926	-1284.920833	1235.936523	129.901871
29682.912926	-1284.920833	1234.823242	82.856422
29682.912926	-1284.920833	1233.709961	115.550308
29682.912926	-1284.920833	1232.596680	25.232071
29682.912926	-1284.920833	1231.482422	32.458031
29682.912926	-1284.920833	1230.369141	-11.344923
29682.912926	-1284.920833	1229.253906	57.189365
29682.912926	-1284.920833	1228.139648	172.365204
29682.912926	-1284.920833	1227.025391	18.352669
29682.912926	-1284.920833	1225.910156	69.771950
29682.912926	-1284.920833	1224.794922	91.336876
29682.912926	-1284.920833	1223.679688	-15.047693
29682.912926	-1284.920833	1222.563477	100.967323
29682.912926	-1284.920833	1221.447266	18.618357
29682.912926	-1284.920833	1220.331055	-29.405544
29682.912926	-1284.920833	1219.214844	-87.717567
29682.912926	-1284.920833	1218.098633	-74.479729
29682.912926	-1284.920833	1216.981445	-121.344048
29682.912926	-1284.920833	1215.864258	-79.298981
29682.912926	-1284.920833	1214.747070	30.660484
29682.912926	-1284.920833	1213.629883	26.333302
29682.912926	-1284.920833	1212.511719	-28.992727
29682.912926	-1284.920833	1211.393555	11.297642
29682.912926	-1284.920833	1210.275391	-83.012726
29682.912926	-1284.920833	1209.157227	-102.944168
29682.912926	-1284.920833	1208.038086	25.071753
29682.912926	-1284.920833	1206.918945	-110.372978
29682.912926	-1284.920833	1205.799805	-95.224457
29682.912926	-1284.920833	1204.680664	-52.514713
29682.912926	-1284.920833	1203.560547	-103.752586
29682.912926	-1284.920833	1202.441406	-4.241115
29682.912926	-1284.920833	1201.321289	4.409034
29682.912926	-1284.920833	1200.200195	-76.451935
29682.912926	-1284.920833	1199.080078	61.567535
29682.912926	-1284.920833	1197.958984	81.609489
29682.912926	-1284.920833	1196.837891	-32.954842
29682.912926	-1284.920833	1195.716797	9.641891
29682.912926	-1284.920833	1194.594727	-18.790560
29682.912926	-1284.920833	1193.473633	17.197432
29682.912926	-1284.920833	1192.351563	30.167950
29682.912926	-1284.920833	1191.229492	-14.662804
29682.912926	-1284.920833	1190.106445	93.689102
29682.912926	-1284.920833	1188.984375	20.733238
29682.912926	-1284.920833	1187.861328	-33.880241
29682.912926	-1284.920833	1186.738281	-29.763062
29682.912926	-1284.920833	1185.614258	-77.758087
29682.912926	-1284.920833	1184.491211	123.071877
29682.912926	-1284.920833	1183.367188	127.158401
29682.912926	-1284.920833	1182.243164	153.227371
29682.912926	-1284.920833	1181.119141	48.793331
29682.912926	-1284.920833	1179.994141	15.041540
29682.912926	-1284.920833	1178.869141	202.550095
29682.912926	-1284.920833	1177.744141	56.774452
29682.912926	-1284.920833	1176.619141	67.506042
29682.912926	-1284.920833	1175.493164	44.677059
29682.912926	-1284.920833	1174.368164	62.236782
29682.912926	-1284.920833	1173.242188	91.047234
29682.912926	-1284.920833	1172.115234	-101.165703
29682.912926	-1284.920833	1170.989258	6.548998
29682.912926	-1284.920833	1169.862305	62.833393
29682.912926	-1284.920833	1168.735352	44.726967
29682.912926	-1284.920833	1167.608398	-79.553993
29682.912926	-1284.920833	1166.481445	36.211197
29682.912926	-1284.920833	1165.353516	-113.368340
29682.912926	-1284.920833	1164.225586	-37.395481
29682.912926	-1284.920833	1163.097656	-67.692009
29682.912926	-1284.920833	1161.968750	-73.678192
29682.912926	-1284.920833	1160.840820	-105.382622
29682.912926	-1284.920833	1159.711914	-145.209854
29682.912926	-1284.920833	1158.583008	-15.607254
29682.912926	-1284.920833	1157.453125	-10.500120
29682.912926	-1284.920833	1156.324219	-143.207184
29682.912926	-1284.920833	1155.194336	-93.474152
29682.912926	-1284.920833	1154.064453	64.705940
29682.912926	-1284.920833	1152.933594	-104.678810
29682.912926	-1284.920833	1151.803711	-44.464794
29682.912926	-1284.920833	1150.672852	64.848038
29682.912926	-1284.920833	1149.541992	-95.002190
29682.912926	-1284.920833	1148.411133	-14.303949
29682.912926	-1284.920833	1147.279297	-38.796852
29682.912926	-1284.920833	1146.147461	-84.966743
29682.912926	-1284.920833	1145.015625	-18.316925
29682.912926	-1284.920833	1143.883789	-59.717381
29682.912926	-1284.920833	1142.750977	161.386566
29682.912926	-1284.920833	1141.619141	-78.956848
29682.912926	-1284.920833	1140.486328	30.366938
29682.912926	-1284.920833	1139.352539	-30.523392
29682.912926	-1284.920833	1138.219727	98.056900
29682.912926	-1284.920833	1137.085938	64.202118
29682.912926	-1284.920833	1135.952148	167.115845
29682.912926	-1284.920833	1134.818359	3.643459
29682.912926	-1284.920833	1133.683594	-6.326650
29682.912926	-1284.920833	1132.549805	207.329178
29682.912926	-1284.920833	1131.415039	200.295700
29682.912926	-1284.920833	1130.279297	237.830811
29682.912926	-1284.920833	1129.144531	222.988602
29682.912926	-1284.920833	1128.008789	292.058105
29682.912926	-1284.920833	1126.873047	308.934143
29682.912926	-1284.920833	1125.737305	212.200516
29682.912926	-1284.920833	1124.601563	417.745087
29682.912926	-1284.920833	1123.464844	214.325592
29682.912926	-1284.920833	1122.328125	223.335602
29682.912926	-1284.920833	1121.191406	202.541000
29682.912926	-1284.920833	1120.054688	148.978668
29682.912926	-1284.920833	1118.916992	187.272369
29682.912926	-1284.920833	1117.779297	150.549271
29682.912926	-1284.920833	1116.641602	65.554283
29682.912926	-1284.920833	1115.503906	220.317474
29682.912926	-1284.920833	1114.365234	148.607483
29682.912926	-1284.920833	1113.226563	233.396393
29682.912926	-1284.920833	1112.087891	96.039490
29682.912926	-1284.920833	1110.949219	82.443810
29682.912926	-1284.920833	1109.809570	222.490158
29682.912926	-1284.920833	1108.669922	222.943771
29682.912926	-1284.920833	1107.530273	213.265915
29682.912926	-1284.920833	1106.390625	261.230804
29682.912926	-1284.920833	1105.250000	141.032135
29682.912926	-1284.920833	1104.109375	170.370361
29682.912926	-1284.920833	1102.968750	203.689667
29682.912926	-1284.920833	1101.828125	391.948395
29682.912926	-1284.920833	1100.686523	353.500214
29682.912926	-1284.920833	1099.544922	188.360748
29682.912926	-1284.920833	1098.403320	155.271027
29682.912926	-1284.920833	1097.261719	268.030731
29682.912926	-1284.920833	1096.120117	217.247162
29682.912926	-1284.920833	1094.977539	348.963318
29682.912926	-1284.920833	1093.834961	212.878525
29682.912926	-1284.920833	1092.691406	71.198845
29682.912926	-1284.920833	1091.548828	34.205662
29682.912926	-1284.920833	1090.405273	72.072365
29682.912926	-1284.920833	1089.261719	117.699631
29682.912926	-1284.920833	1088.118164	126.580017
29682.912926	-1284.920833	1086.973633	222.221664
29682.912926	-1284.920833	1085.829102	26.178679
29682.912926	-1284.920833	1084.684570	34.597435
29682.912926	-1284.920833	1083.540039	-62.403992
29682.912926	-1284.920833	1082.395508	-74.673347
29682.912926	-1284.920833	1081.250000	49.986328
29682.912926	-1284.920833	1080.104492	21.856840
29682.912926	-1284.920833	1078.958984	-18.702028
29682.912926	-1284.920833	1077.812500	138.226822
29682.912926	-1284.920833	1076.666016	79.405258
29682.912926	-1284.920833	1075.519531	94.046120
29682.912926	-1284.920833	1074.373047	78.722565
29682.912926	-1284.920833	1073.226563	217.066360
29682.912926	-1284.920833	1072.079102	170.175125
29682.912926	-1284.920833	1070.931641	56.067257
29682.912926	-1284.920833	1069.784180	72.972672
29682.912926	-1284.920833	1068.635742	290.313629
29682.912926	-1284.920833	1067.487305	55.420132
29682.912926	-1284.920833	1066.338867	149.126099
29682.912926	-1284.920833	1065.190430	131.136063
29682.912926	-1284.920833	1064.041992	209.693130
29682.912926	-1284.920833	1062.892578	186.083694
29682.912926	-1284.920833	1061.743164	338.385956
29682.912926	-1284.920833	1060.593750	286.406494
29682.912926	-1284.920833	1059.443359	238.937973
29682.912926	-1284.920833	1058.292969	288.237885
29682.912926	-1284.920833	1057.142578	192.454071
29682.912926	-1284.920833	1055.992188	198.940063
29682.912926	-1284.920833	1054.841797	128.180634
29682.912926	-1284.920833	1053.690430	122.379013
29682.912926	-1284.920833	1052.539063	319.451447
29682.912926	-1284.920833	1051.387695	115.059555
29682.912926	-1284.920833	1050.235352	138.490921
29682.912926	-1284.920833	1049.083984	100.915253
29682.912926	-1284.920833	1047.931641	32.592407
29682.912926	-1284.920833	1046.778320	53.492977
29682.912926	-1284.920833	1045.625977	62.921547
29682.912926	-1284.920833	1044.472656	173.729156
29682.912926	-1284.920833	1043.319336	31.954796
29682.912926	-1284.920833	1042.166016	-42.575893
29682.912926	-1284.920833	1041.012695	79.859695
29682.912926	-1284.920833	1039.858398	-6.638491
29682.912926	-1284.920833	1038.704102	48.040886
29682.912926	-1284.920833	1037.549805	130.372864
29682.912926	-1284.920833	1036.394531	58.159996
29682.912926	-1284.920833	1035.239258	123.109352
29682.912926	-1284.920833	1034.083984	219.957703
29682.912926	-1284.920833	1032.928711	134.271393
29682.912926	-1284.920833	1031.773438	-35.385666
29682.912926	-1284.920833	1030.617188	7.892980
29682.912926	-1284.920833	1029.460938	137.490280
29682.912926	-1284.920833	1028.304688	164.289948
29682.912926	-1284.920833	1027.147461	29.760900
29682.912926	-1284.920833	1025.991211	2.863056
29682.912926	-1284.920833	1024.833984	107.454697
29682.912926	-1284.920833	1023.675781	167.582596
29682.912926	-1284.920833	1022.518555	14.971379
29682.912926	-1284.920833	1021.360352	23.227301
29682.912926	-1284.920833	1020.202148	123.743156
29682.912926	-1284.920833	1019.043945	80.324051
29682.912926	-1284.920833	1017.884766	-23.197447
29682.912926	-1284.920833	1016.726563	107.425858
29682.912926	-1284.920833	1015.567383	99.404579
29682.912926	-1284.920833	1014.407227	27.512543
29682.912926	-1284.920833	1013.248047	2.042878
29682.912926	-1284.920833	1012.087891	71.082123
29682.912926	-1284.920833	1010.927734	-83.564743
29682.912926	-1284.920833	1009.767578	38.835571
29682.912926	-1284.920833	1008.606445	-9.858578
29682.912926	-1284.920833	1007.446289	38.399937
29682.912926	-1284.920833	1006.285156	3.420692
29682.912926	-1284.920833	1005.123047	93.622009
29682.912926	-1284.920833	1003.961914	59.628197
29682.912926	-1284.920833	1002.799805	116.441162
29682.912926	-1284.920833	1001.637695	106.495316
29682.912926	-1284.920833	1000.475586	116.272942
29682.912926	-1284.920833	999.312500	127.098145
29682.912926	-1284.920833	998.149414	-72.674744
29682.912926	-1284.920833	996.986328	71.016159
29682.912926	-1284.920833	995.823242	-29.466019
29682.912926	-1284.920833	994.659180	5.645663
29682.912926	-1284.920833	993.496094	-25.285656
29682.912926	-1284.920833	992.332031	-39.172749
29682.912926	-1284.920833	991.166992	53.712734
29682.912926	-1284.920833	990.002930	-30.061470
29682.912926	-1284.920833	988.837891	30.236364
29682.912926	-1284.920833	987.672852	140.910767
29682.912926	-1284.920833	986.506836	14.323359
29682.912926	-1284.920833	985.341797	-124.931267
29682.912926	-1284.920833	984.175781	-22.117523
29682.912926	-1284.920833	983.009766	72.083771
29682.912926	-1284.920833	981.843750	-72.222107
29682.912926	-1284.920833	980.676758	38.834709
29682.912926	-1284.920833	979.509766	39.040188
29682.912926	-1284.920833	978.342773	-7.730882
29682.912926	-1284.920833	977.175781	77.658493
29682.912926	-1284.920833	976.007813	23.019567
29682.912926	-1284.920833	974.839844	116.346786
29682.912926	-1284.920833	973.671875	187.807404
29682.912926	-1284.920833	972.503906	5.945122
29682.912926	-1284.920833	971.334961	-0.872665
29682.912926	-1284.920833	970.166016	81.112137
29682.912926	-1284.920833	968.997070	113.205429
29682.912926	-1284.920833	967.828125	121.102745
29682.912926	-1284.920833	966.658203	-5.843666
29682.912926	-1284.920833	965.488281	68.641350
29682.912926	-1284.920833	964.318359	110.645889
29682.912926	-1284.920833	963.148438	150.305420
29682.912926	-1284.920833	961.977539	43.008785
29682.912926	-1284.920833	960.806641	122.859726
29682.912926	-1284.920833	959.635742	123.775421
29682.912926	-1284.920833	958.463867	197.720886
29682.912926	-1284.920833	957.292969	53.189484
29682.912926	-1284.920833	956.121094	141.556854
29682.912926	-1284.920833	954.948242	53.542892
29682.912926	-1284.920833	953.776367	-39.787273
29682.912926	-1284.920833	952.603516	-92.822678
29682.912926	-1284.920833	951.430664	-62.527027
29682.912926	-1284.920833	950.257813	-102.228790
29682.912926	-1284.920833	949.084961	-94.726181
29682.912926	-1284.920833	947.911133	39.096172
29682.912926	-1284.920833	946.737305	-2.973521
29682.912926	-1284.920833	945.563477	60.826569
29682.912926	-1284.920833	944.388672	5.206045
29682.912926	-1284.920833	943.213867	-28.490278
29682.912926	-1284.920833	942.039063	75.692284
29682.912926	-1284.920833	940.864258	142.092697
29682.912926	-1284.920833	939.688477	40.458614
29682.912926	-1284.920833	938.513672	60.840847
29682.912926	-1284.920833	937.337891	5.522735
29682.912926	-1284.920833	936.161133	139.447708
29682.912926	-1284.920833	934.985352	5.580592
29682.912926	-1284.920833	933.808594	120.759895
29682.912926	-1284.920833	932.631836	67.926056
29682.912926	-1284.920833	931.454102	126.177795
29682.912926	-1284.920833	930.277344	162.828506
29682.912926	-1284.920833	929.099609	193.952560
29682.912926	-1284.920833	927.921875	173.706146
29682.912926	-1284.920833	926.743164	42.497581
29682.912926	-1284.920833	925.565430	52.031773
29682.912926	-1284.920833	924.386719	66.978325
29682.912926	-1284.920833	923.208008	27.827368
29682.912926	-1284.920833	922.028320	-0.480082
29682.912926	-1284.920833	920.849609	128.023514
29682.912926	-1284.920833	919.669922	130.518524
29682.912926	-1284.920833	919.474609	67.691162
29682.912926	-1284.920833	918.309570	-22.781462
29682.912926	-1284.920833	917.143555	35.391415
29682.912926	-1284.920833	915.977539	39.520664
29682.912926	-1284.920833	914.810547	67.962807
29682.912926	-1284.920833	913.644531	-33.212173
29682.912926	-1284.920833	912.477539	-66.846848
29682.912926	-1284.920833	911.310547	-65.374519
29682.912926	-1284.920833	910.143555	-28.816769
29682.912926	-1284.920833	908.975586	53.599915
29682.912926	-1284.920833	907.807617	-20.463091
29682.912926	-1284.920833	906.639648	29.566381
29682.912926	-1284.920833	905.471680	1.386468
29682.912926	-1284.920833	904.303711	-104.955093
29682.912926	-1284.920833	903.134766	77.144775
29682.912926	-1284.920833	901.965820	-88.440193
29682.912926	-1284.920833	900.796875	-46.504070
29682.912926	-1284.920833	899.626953	-125.789986
29682.912926	-1284.920833	898.457031	15.790132
29682.912926	-1284.920833	897.287109	-15.002645
29682.912926	-1284.920833	896.117188	-123.845711
29682.912926	-1284.920833	894.947266	-103.452621
29682.912926	-1284.920833	893.776367	274.820709
29682.912926	-1284.920833	892.605469	-14.251669
29682.912926	-1284.920833	891.434570	11.498512
29682.912926	-1284.920833	890.262695	150.190414
29682.912926	-1284.920833	889.091797	111.374710
29682.912926	-1284.920833	887.919922	-8.062642
29682.912926	-1284.920833	886.748047	109.055679
29682.912926	-1284.920833	885.575195	59.536812
29682.912926	-1284.920833	884.403320	-65.182869
29682.912926	-1284.920833	883.230469	-82.411270
29682.912926	-1284.920833	882.057617	56.120708
29682.912926	-1284.920833	880.883789	73.782677
29682.912926	-1284.920833	879.710938	-18.618410
29682.912926	-1284.920833	878.537109	95.668121
29682.912926	-1284.920833	877.362305	16.722593
29682.912926	-1284.920833	876.188477	29.016983
29682.912926	-1284.920833	875.013672	-25.743465
29682.912926	-1284.920833	873.839844	-45.623402
29682.912926	-1284.920833	872.664063	39.066990
29682.912926	-1284.920833	871.489258	8.461576
29682.912926	-1284.920833	870.313477	34.147408
29682.912926	-1284.920833	869.138672	-79.505608
29682.912926	-1284.920833	867.962891	-43.099396
29682.912926	-1284.920833	866.786133	180.768097
29682.912926	-1284.920833	865.610352	-72.086952
29682.912926	-1284.920833	864.433594	82.085579
29682.912926	-1284.920833	863.256836	40.801277
29682.912926	-1284.920833	862.079102	-8.494657
29682.912926	-1284.920833	860.902344	67.972466
29682.912926	-1284.920833	859.724609	29.384354
29682.912926	-1284.920833	858.546875	-11.866449
29682.912926	-1284.920833	857.368164	-7.646790
29682.912926	-1284.920833	856.190430	-56.901203
29682.912926	-1284.920833	855.011719	38.189659
29682.912926	-1284.920833	853.833008	63.759556
29682.912926	-1284.920833	852.654297	17.178757
29682.912926	-1284.920833	851.474609	-104.176956
29682.912926	-1284.920833	850.294922	-51.903809
29682.912926	-1284.920833	849.115234	-90.438667
29682.912926	-1284.920833	847.935547	17.855314
29682.912926	-1284.920833	846.754883	160.795288
29682.912926	-1284.920833	845.575195	44.836681
29682.912926	-1284.920833	844.393555	-15.054689
29682.912926	-1284.920833	843.212891	-112.273598
29682.912926	-1284.920833	842.032227	-46.791973
29682.912926	-1284.920833	840.850586	61.314213
29682.912926	-1284.920833	839.668945	-30.554153
29682.912926	-1284.920833	838.486328	0.199782
29682.912926	-1284.920833	837.304688	14.941702
29682.912926	-1284.920833	836.122070	-18.282751
29682.912926	-1284.920833	834.939453	-110.099525
29682.912926	-1284.920833	833.756836	-137.981659
29682.912926	-1284.920833	832.573242	-56.706390
29682.912926	-1284.920833	831.389648	107.037865
29682.912926	-1284.920833	830.206055	-32.678001
29682.912926	-1284.920833	829.022461	149.592392
29682.912926	-1284.920833	827.838867	68.421394
29682.912926	-1284.920833	826.654297	-95.175316
29682.912926	-1284.920833	825.469727	-133.744019
29682.912926	-1284.920833	824.284180	104.172340
29682.912926	-1284.920833	823.099609	78.838104
29682.912926	-1284.920833	821.914063	-74.054878
29682.912926	-1284.920833	820.728516	-163.135864
29682.912926	-1284.920833	819.542969	-153.914032
29682.912926	-1284.920833	818.356445	-22.547165
29682.912926	-1284.920833	817.169922	-24.011150
29682.912926	-1284.920833	815.983398	-6.909909
29682.912926	-1284.920833	814.796875	12.820113
29682.912926	-1284.920833	813.609375	0.682711
29682.912926	-1284.920833	812.422852	70.772568
29682.912926	-1284.920833	811.235352	146.120621
29682.912926	-1284.920833	810.046875	27.829916
29682.912926	-1284.920833	808.859375	97.813118
29682.912926	-1284.920833	807.670898	-94.682640
29682.912926	-1284.920833	806.482422	52.114460
29682.912926	-1284.920833	805.293945	39.846092
29682.912926	-1284.920833	804.104492	-141.984573
29682.912926	-1284.920833	802.915039	-11.224813
29682.912926	-1284.920833	801.725586	95.624977
29682.912926	-1284.920833	800.536133	91.211357
29682.912926	-1284.920833	799.345703	152.951981
29682.912926	-1284.920833	798.155273	16.160784
29682.912926	-1284.920833	796.964844	72.551239
29682.912926	-1284.920833	795.774414	-16.600199
29682.912926	-1284.920833	794.583008	13.276393
29682.912926	-1284.920833	793.392578	-20.347713
29682.912926	-1284.920833	792.200195	-51.337727
29682.912926	-1284.920833	791.008789	-172.209579
29682.912926	-1284.920833	789.816406	66.336021
29682.912926	-1284.920833	788.625000	-57.206497
29682.912926	-1284.920833	787.432617	80.783852
29682.912926	-1284.920833	786.239258	-124.632820
29682.912926	-1284.920833	785.046875	-47.471729
29682.912926	-1284.920833	783.853516	227.619446
29682.912926	-1284.920833	782.660156	148.899765
29682.912926	-1284.920833	781.465820	78.100067
29682.912926	-1284.920833	780.272461	194.612076
29682.912926	-1284.920833	779.078125	71.018417
29682.912926	-1284.920833	777.883789	81.938614
29682.912926	-1284.920833	776.688477	5.817267
29682.912926	-1284.920833	775.494141	69.403763
29682.912926	-1284.920833	774.298828	-14.653564
29682.912926	-1284.920833	773.103516	88.371872
29682.912926	-1284.920833	771.907227	104.387970
29682.912926	-1284.920833	770.711914	43.982231
29682.912926	-1284.920833	769.515625	112.600647
29682.912926	-1284.920833	768.318359	231.179337
29682.912926	-1284.920833	767.122070	199.638992
29682.912926	-1284.920833	765.924805	152.288254
29682.912926	-1284.920833	764.727539	2.309993
29682.912926	-1284.920833	763.530273	60.172657
29682.912926	-1284.920833	762.333008	15.405271
29682.912926	-1284.920833	761.134766	25.840818
29682.912926	-1284.920833	759.936523	54.637894
29682.912926	-1284.920833	758.738281	-24.375637
29682.912926	-1284.920833	757.540039	22.742348
29682.912926	-1284.920833	756.340820	67.177284
29682.912926	-1284.920833	755.141602	101.049332
29682.912926	-1284.920833	753.942383	176.889023
29682.912926	-1284.920833	752.742188	84.620483
29682.912926	-1284.920833	751.541992	44.853745
29682.912926	-1284.920833	750.341797	120.544632
29682.912926	-1284.920833	749.141602	62.342365
29682.912926	-1284.920833	747.941406	-22.108240
29682.912926	-1284.920833	746.740234	8.845344
29682.912926	-1284.920833	745.539063	47.613625
29682.912926	-1284.920833	744.337891	117.788231
29682.912926	-1284.920833	743.135742	80.423470
29682.912926	-1284.920833	741.933594	155.724884
29682.912926	-1284.920833	740.731445	52.784134
29682.912926	-1284.920833	739.529297	130.599609
29682.912926	-1284.920833	738.326172	114.056572
29682.912926	-1284.920833	737.124023	79.150177
29682.912926	-1284.920833	735.919922	70.397758
29682.912926	-1284.920833	734.716797	30.199726
29682.912926	-1284.920833	733.513672	-15.256399
29682.912926	-1284.920833	732.309570	161.653793
29682.912926	-1284.920833	731.105469	147.497086
29682.912926	-1284.920833	729.900391	18.234732
29682.912926	-1284.920833	728.696289	11.876082
29682.912926	-1284.920833	727.491211	-23.277340
29682.912926	-1284.920833	726.286133	-55.843174
29682.912926	-1284.920833	725.080078	-4.819700
29682.912926	-1284.920833	723.874023	4.341053
29682.912926	-1284.920833	722.668945	125.770699
29682.912926	-1284.920833	721.461914	116.537262
29682.912926	-1284.920833	720.255859	-18.055191
29682.912926	-1284.920833	719.048828	66.633820
29682.912926	-1284.920833	717.841797	-15.779632
29682.912926	-1284.920833	716.634766	3.559961
29682.912926	-1284.920833	715.427734	95.892403
29682.912926	-1284.920833	714.219727	-28.330111
29682.912926	-1284.920833	713.011719	58.671753
29682.912926	-1284.920833	711.803711	-62.966183
29682.912926	-1284.920833	710.594727	-56.877712
29682.912926	-1284.920833	709.385742	1.285955
29682.912926	-1284.920833	708.176758	72.411171
29682.912926	-1284.920833	706.967773	34.062042
29682.912926	-1284.920833	705.758789	6.104924
29682.912926	-1284.920833	704.548828	22.382469
29682.912926	-1284.920833	703.338867	-49.896927
29682.912926	-1284.920833	702.127930	117.257782
29682.912926	-1284.920833	700.917969	0.672158
29682.912926	-1284.920833	699.707031	40.188461
29682.912926	-1284.920833	698.496094	14.623167
29682.912926	-1284.920833	697.285156	-55.179737
29682.912926	-1284.920833	696.073242	-41.795708
29682.912926	-1284.920833	694.861328	-5.062425
29682.912926	-1284.920833	693.649414	26.418812
29682.912926	-1284.920833	692.436523	96.821030
29682.912926	-1284.920833	691.224609	32.073906
29682.912926	-1284.920833	690.011719	203.659439
29682.912926	-1284.920833	688.798828	-11.766687
29682.912926	-1284.920833	687.584961	-19.452398
29682.912926	-1284.920833	686.372070	74.055695
29682.912926	-1284.920833	685.158203	40.330715
29682.912926	-1284.920833	683.943359	-136.114349
29682.912926	-1284.920833	682.729492	37.659927
29682.912926	-1284.920833	681.514648	97.214836
29682.912926	-1284.920833	680.299805	84.109673
29682.912926	-1284.920833	679.084961	63.197895
29682.912926	-1284.920833	677.869141	60.400864
29682.912926	-1284.920833	676.653320	57.570496
29682.912926	-1284.920833	675.437500	26.210178
29682.912926	-1284.920833	674.221680	72.532784
29682.912926	-1284.920833	673.004883	12.629548
29682.912926	-1284.920833	671.789063	27.801363
29682.912926	-1284.920833	670.571289	63.639290
29682.912926	-1284.920833	669.354492	205.536697
29682.912926	-1284.920833	668.136719	3.220908
29682.912926	-1284.920833	666.919922	38.949612
29682.912926	-1284.920833	665.701172	131.527985
29682.912926	-1284.920833	664.483398	177.496216
29682.912926	-1284.920833	663.264648	120.006302
29682.912926	-1284.920833	662.045898	70.266563
29682.912926	-1284.920833	660.827148	46.360626
29682.912926	-1284.920833	659.608398	280.793488
29682.912926	-1284.920833	658.388672	1.079636
29682.912926	-1284.920833	657.168945	21.023689
29682.912926	-1284.920833	655.949219	118.391937
29682.912926	-1284.920833	654.728516	55.646572
29682.912926	-1284.920833	653.507813	127.107475
29682.912926	-1284.920833	652.287109	2.412548
29682.912926	-1284.920833	651.066406	14.474111
29682.912926	-1284.920833	649.844727	145.149353
29682.912926	-1284.920833	648.623047	97.821266
29682.912926	-1284.920833	647.401367	11.821152
29682.912926	-1284.920833	646.179688	170.705917
29682.912926	-1284.920833	644.957031	74.377640
29682.912926	-1284.920833	643.734375	-91.492966
29682.912926	-1284.920833	642.511719	-25.477879
29682.912926	-1284.920833	641.289063	4.437365
29682.912926	-1284.920833	640.065430	-99.569756
29682.912926	-1284.920833	638.841797	48.732586
29682.912926	-1284.920833	637.618164	140.334961
29682.912926	-1284.920833	636.393555	28.600389
29682.912926	-1284.920833	635.168945	-18.783175
29682.912926	-1284.920833	633.944336	113.888733
29682.912926	-1284.920833	632.719727	-67.237030
29682.912926	-1284.920833	631.494141	-171.168045
29682.912926	-1284.920833	630.269531	23.112486
29682.912926	-1284.920833	629.042969	3.994159
29682.912926	-1284.920833	627.817383	-48.523640
29682.912926	-1284.920833	626.590820	1.725703
29682.912926	-1284.920833	625.365234	-12.257071
29682.912926	-1284.920833	624.137695	-8.268891
29682.912926	-1284.920833	622.911133	39.358162
29682.912926	-1284.920833	621.683594	71.559753
29682.912926	-1284.920833	620.456055	167.899002
29682.912926	-1284.920833	619.228516	-71.893654
29682.912926	-1284.920833	618.000977	1.348282
29682.912926	-1284.920833	616.772461	-63.924206
29682.912926	-1284.920833	615.543945	70.820297
29682.912926	-1284.920833	614.314453	10.690022
29682.912926	-1284.920833	613.085938	101.799553
29682.912926	-1284.920833	611.856445	-106.916832
29682.912926	-1284.920833	610.626953	-36.306637
29682.912926	-1284.920833	609.397461	-37.434284
29682.912926	-1284.920833	608.166992	-115.375565
29682.912926	-1284.920833	606.936523	-11.505803
29682.912926	-1284.920833	605.706055	23.220438
29682.912926	-1284.920833	604.474609	-31.625614
29682.912926	-1284.920833	603.244141	41.490452
29682.912926	-1284.920833	602.012695	-136.093124
29682.912926	-1284.920833	600.780273	-137.128235
29682.912926	-1284.920833	599.548828	17.822809
29682.912926	-1284.920833	598.316406	152.271164
29682.912926	-1284.920833	597.083984	-35.348511
29682.912926	-1284.920833	595.851563	19.876442
29682.912926	-1284.920833	594.618164	57.212669
29682.912926	-1284.920833	593.384766	-5.059009
29682.912926	-1284.920833	592.151367	37.414474
29682.912926	-1284.920833	590.917969	-34.995262
29682.912926	-1284.920833	589.683594	-97.143082
29682.912926	-1284.920833	588.449219	80.645325
29682.912926	-1284.920833	587.214844	46.614117
29682.912926	-1284.920833	585.979492	-43.497265
29682.912926	-1284.920833	584.745117	-49.380001
29682.912926	-1284.920833	583.509766	-4.237855
29682.912926	-1284.920833	582.273438	10.321838
29682.912926	-1284.920833	581.038086	-168.795090
29682.912926	-1284.920833	579.801758	31.870817
29682.912926	-1284.920833	578.565430	-50.302742
29682.912926	-1284.920833	577.329102	91.735481
29682.912926	-1284.920833	576.091797	12.196767
29682.912926	-1284.920833	574.854492	156.774628
29682.912926	-1284.920833	573.617188	-47.400135
29682.912926	-1284.920833	572.378906	3.039108
29682.912926	-1284.920833	571.141602	129.827255
29682.912926	-1284.920833	569.903320	-15.590491
29682.912926	-1284.920833	568.664063	47.641827
29682.912926	-1284.920833	567.425781	9.179799
29682.912926	-1284.920833	566.186523	-49.563454
29682.912926	-1284.920833	564.947266	31.552515
29682.912926	-1284.920833	563.708008	99.971413
29682.912926	-1284.920833	562.467773	-78.030319
29682.912926	-1284.920833	561.227539	46.351688
29682.912926	-1284.920833	559.987305	-17.194771
29682.912926	-1284.920833	558.747070	99.597191
29682.912926	-1284.920833	557.505859	165.617874
29682.912926	-1284.920833	556.264648	13.403845
29682.912926	-1284.920833	555.023438	66.825935
29682.912926	-1284.920833	553.781250	234.428299
29682.912926	-1284.920833	552.539063	102.735634
29682.912926	-1284.920833	551.296875	72.578163
29682.912926	-1284.920833	550.054688	47.555641
29682.912926	-1284.920833	548.811523	174.671295
29682.912926	-1284.920833	547.569336	63.586048
29682.912926	-1284.920833	546.325195	26.072111
29682.912926	-1284.920833	545.082031	59.553181
29682.912926	-1284.920833	543.837891	4.439027
29682.912926	-1284.920833	542.593750	5.105353
29682.912926	-1284.920833	541.349609	102.018425
29682.912926	-1284.920833	540.105469	77.468704
29682.912926	-1284.920833	538.860352	37.804283
29682.912926	-1284.920833	537.615234	38.689625
29682.912926	-1284.920833	536.369141	-31.184874
29682.912926	-1284.920833	535.124023	-22.583786
29682.912926	-1284.920833	533.877930	-13.927926
29682.912926	-1284.920833	532.631836	-164.452072
29682.912926	-1284.920833	531.384766	-4.032175
29682.912926	-1284.920833	530.138672	-0.261948
29682.912926	-1284.920833	528.891602	26.299351
29682.912926	-1284.920833	527.643555	-121.342690
29682.912926	-1284.920833	526.396484	-44.151814
29682.912926	-1284.920833	525.148438	12.871970
29682.912926	-1284.920833	523.900391	-41.115112
29682.912926	-1284.920833	522.652344	41.234497
29682.912926	-1284.920833	521.403320	2.519986
29682.912926	-1284.920833	520.154297	-38.640778
29682.912926	-1284.920833	518.905273	11.052270
29682.912926	-1284.920833	517.656250	35.572968
29682.912926	-1284.920833	516.406250	-2.871103
29682.912926	-1284.920833	515.156250	94.838036
29682.912926	-1284.920833	513.906250	235.392822
29682.912926	-1284.920833	512.655273	212.218109
29682.912926	-1284.920833	511.404297	141.262146
29682.912926	-1284.920833	510.153320	60.321705
29682.912926	-1284.920833	508.902344	150.645157
29682.912926	-1284.920833	507.650391	140.317459
29682.912926	-1284.920833	506.398438	117.467628
29682.912926	-1284.920833	505.146484	137.446869
29682.912926	-1284.920833	503.893555	280.711182
29682.912926	-1284.920833	502.641602	39.238018
29682.912926	-1284.920833	501.388672	31.724329
29682.912926	-1284.920833	500.134766	122.289284
29682.912926	-1284.920833	498.881836	376.204315
29682.912926	-1284.920833	497.627930	147.679596
29682.912926	-1284.920833	496.374023	82.570358
29682.912926	-1284.920833	495.119141	404.276245
29682.912926	-1284.920833	493.865234	168.496307
29682.912926	-1284.920833	492.610352	138.700043
29682.912926	-1284.920833	491.355469	329.809601
29682.912926	-1284.920833	490.099609	199.706894
29682.912926	-1284.920833	488.843750	398.325073
29682.912926	-1284.920833	487.587891	323.513916
29682.912926	-1284.920833	486.332031	411.758362
29682.912926	-1284.920833	485.075195	256.820496
29682.912926	-1284.920833	483.818359	335.079315
29682.912926	-1284.920833	482.561523	303.071747
29682.912926	-1284.920833	481.304688	366.307831
29682.912926	-1284.920833	480.046875	366.920929
29682.912926	-1284.920833	478.789063	600.453247
29682.912926	-1284.920833	477.531250	543.469116
29682.912926	-1284.920833	476.272461	383.896179
29682.912926	-1284.920833	475.013672	452.147369
29682.912926	-1284.920833	473.754883	535.392761
29682.912926	-1284.920833	472.496094	566.077271
29682.912926	-1284.920833	471.236328	524.223877
29682.912926	-1284.920833	469.976563	572.409119
29682.912926	-1284.920833	468.716797	463.074615
29682.912926	-1284.920833	467.456055	431.266479
29682.912926	-1284.920833	466.196289	424.451111
29682.912926	-1284.920833	464.935547	385.150909
29682.912926	-1284.920833	463.673828	583.145935
29682.912926	-1284.920833	462.413086	568.767639
29682.912926	-1284.920833	461.151367	571.851379
29682.912926	-1284.920833	459.889648	485.045197
29682.912926	-1284.920833	458.626953	592.908020
29682.912926	-1284.920833	457.364258	511.061188
29682.912926	-1284.920833	456.101563	404.265656
29682.912926	-1284.920833	454.838867	571.816833
29682.912926	-1284.920833	453.575195	544.756409
29682.912926	-1284.920833	452.312500	582.470886
29682.912926	-1284.920833	451.047852	560.296875
29682.912926	-1284.920833	449.784180	692.565430
29682.912926	-1284.920833	448.519531	832.184875
29682.912926	-1284.920833	447.254883	695.193420
29682.912926	-1284.920833	445.990234	560.673645
29682.912926	-1284.920833	444.725586	670.122253
29682.912926	-1284.920833	443.459961	759.522217
29682.912926	-1284.920833	442.194336	706.936340
29682.912926	-1284.920833	440.927734	532.356995
29682.912926	-1284.920833	439.662109	623.916138
29682.912926	-1284.920833	438.395508	797.395935
29682.912926	-1284.920833	437.127930	759.330505
29682.912926	-1284.920833	435.861328	708.726746
29682.912926	-1284.920833	434.593750	792.225769
29682.912926	-1284.920833	433.326172	771.185364
29682.912926	-1284.920833	432.058594	814.601624
29682.912926	-1284.920833	430.790039	619.401917
29682.912926	-1284.920833	429.521484	665.003479
29682.912926	-1284.920833	428.252930	757.589905
29682.912926	-1284.920833	426.984375	768.049316
29682.912926	-1284.920833	425.714844	711.317200
29682.912926	-1284.920833	424.445313	718.927795
29682.912926	-1284.920833	423.174805	855.325684
29682.912926	-1284.920833	421.905273	840.176697
29682.912926	-1284.920833	420.634766	819.858948
29682.912926	-1284.920833	419.364258	846.427063
29682.912926	-1284.920833	418.092773	952.058716
29682.912926	-1284.920833	416.822266	841.828918
29682.912926	-1284.920833	415.550781	832.965393
29682.912926	-1284.920833	414.278320	888.241089
29682.912926	-1284.920833	413.006836	831.792786
29682.912926	-1284.920833	411.734375	678.533875
29682.912926	-1284.920833	410.461914	799.799683
29682.912926	-1284.920833	409.188477	792.027893
29682.912926	-1284.920833	407.916016	731.996399
29682.912926	-1284.920833	406.642578	876.975891
29682.912926	-1284.920833	405.368164	571.462036
29682.912926	-1284.920833	404.094727	812.168579
29682.912926	-1284.920833	402.820313	701.393005
29682.912926	-1284.920833	401.545898	802.845459
29682.912926	-1284.920833	400.270508	770.444336
29682.912926	-1284.920833	398.996094	873.545349
29682.912926	-1284.920833	397.720703	857.645081
29682.912926	-1284.920833	396.444336	791.948059
29682.912926	-1284.920833	395.168945	656.736023
29682.912926	-1284.920833	393.892578	804.985962
29682.912926	-1284.920833	392.616211	836.740723
29682.912926	-1284.920833	391.339844	855.683350
29682.912926	-1284.920833	390.062500	908.667297
29682.912926	-1284.920833	388.785156	778.648865
29682.912926	-1284.920833	387.507813	768.995544
29682.912926	-1284.920833	386.229492	882.070679
29682.912926	-1284.920833	384.951172	721.009094
29682.912926	-1284.920833	383.672852	776.297791
29682.912926	-1284.920833	382.394531	794.051025
29682.912926	-1284.920833	381.115234	712.696289
29682.912926	-1284.920833	379.835938	837.621704
29682.912926	-1284.920833	378.556641	809.255615
29682.912926	-1284.920833	377.277344	676.907166
29682.912926	-1284.920833	375.997070	775.274475
29682.912926	-1284.920833	374.716797	663.829529
29682.912926	-1284.920833	373.435547	613.240234
29682.912926	-1284.920833	372.155273	608.722351
29682.912926	-1284.920833	370.874023	561.692566
29682.912926	-1284.920833	369.591797	582.772217
29682.912926	-1284.920833	368.310547	784.973999
29682.912926	-1284.920833	367.028320	703.763794
29682.912926	-1284.920833	365.746094	663.573242
29682.912926	-1284.920833	364.463867	497.355988
29682.912926	-1284.920833	363.180664	715.874878
29682.912926	-1284.920833	361.897461	710.077820
29682.912926	-1284.920833	360.614258	516.907166
29682.912926	-1284.920833	359.330078	656.643311
29682.912926	-1284.920833	358.045898	724.285706
29682.912926	-1284.920833	356.761719	705.145325
29682.912926	-1284.920833	355.477539	609.066895
29682.912926	-1284.920833	354.192383	607.671997
29682.912926	-1284.920833	352.907227	649.426697
29682.912926	-1284.920833	351.622070	724.478638
29682.912926	-1284.920833	350.336914	455.481995
29682.912926	-1284.920833	349.050781	611.753967
29682.912926	-1284.920833	347.764648	637.105713
29682.912926	-1284.920833	346.477539	560.954224
29682.912926	-1284.920833	345.191406	442.147125
29682.912926	-1284.920833	343.904297	503.343628
29682.912926	-1284.920833	342.616211	519.291870
29682.912926	-1284.920833	341.329102	431.346527
29682.912926	-1284.920833	340.041016	408.248749
29682.912926	-1284.920833	338.752930	489.085358
29682.912926	-1284.920833	337.463867	392.591278
29682.912926	-1284.920833	336.175781	258.241089
29682.912926	-1284.920833	334.886719	415.854736
29682.912926	-1284.920833	333.596680	401.027527
29682.912926	-1284.920833	332.307617	331.160767
29682.912926	-1284.920833	331.017578	433.298553
29682.912926	-1284.920833	329.727539	172.653259
29682.912926	-1284.920833	328.436523	169.396988
29682.912926	-1284.920833	327.146484	-25.622450
29682.912926	-1284.920833	325.855469	261.020050
29682.912926	-1284.920833	324.563477	72.751160
29682.912926	-1284.920833	323.272461	246.457169
29682.912926	-1284.920833	321.980469	133.198044
29682.912926	-1284.920833	320.688477	174.411728
29682.912926	-1284.920833	319.395508	213.937286
29682.912926	-1284.920833	318.103516	47.160336
29682.912926	-1284.920833	316.810547	246.586075
29682.912926	-1284.920833	315.516602	-21.044027
29682.912926	-1284.920833	314.223633	140.764709
29682.912926	-1284.920833	312.929688	103.477165
29682.912926	-1284.920833	311.635742	-18.355459
29682.912926	-1284.920833	310.340820	-54.422081
29682.912926	-1284.920833	309.045898	165.553589
29682.912926	-1284.920833	307.750977	11.369513
29682.912926	-1284.920833	306.456055	-27.947136
29682.912926	-1284.920833	305.160156	-159.235352
29682.912926	-1284.920833	303.865234	11.454502
29682.912926	-1284.920833	302.568359	-33.960258
29682.912926	-1284.920833	301.272461	-8.461618
29682.912926	-1284.920833	299.975586	-28.869265
29682.912926	-1284.920833	298.678711	223.040909
