#X		#Y		#Wave		#Intensity
30692.741596	-3119.380667	1999.980469	125.345413
30692.741596	-3119.380667	1999.016602	-108.711456
30692.741596	-3119.380667	1998.052734	36.136005
30692.741596	-3119.380667	1997.087891	-87.047791
30692.741596	-3119.380667	1996.123047	188.379837
30692.741596	-3119.380667	1995.158203	-54.360397
30692.741596	-3119.380667	1994.193359	-66.989426
30692.741596	-3119.380667	1993.228516	142.945389
30692.741596	-3119.380667	1992.262695	-11.427986
30692.741596	-3119.380667	1991.297852	41.891514
30692.741596	-3119.380667	1990.332031	166.700851
30692.741596	-3119.380667	1989.366211	140.256577
30692.741596	-3119.380667	1988.399414	145.741302
30692.741596	-3119.380667	1987.433594	146.020676
30692.741596	-3119.380667	1986.466797	-200.154388
30692.741596	-3119.380667	1985.500977	-121.150124
30692.741596	-3119.380667	1984.534180	-79.463074
30692.741596	-3119.380667	1983.567383	-122.037621
30692.741596	-3119.380667	1982.599609	210.841339
30692.741596	-3119.380667	1981.632813	-207.720856
30692.741596	-3119.380667	1980.665039	-337.276001
30692.741596	-3119.380667	1979.697266	88.760895
30692.741596	-3119.380667	1978.729492	-58.428478
30692.741596	-3119.380667	1977.761719	-106.967239
30692.741596	-3119.380667	1976.792969	-197.595657
30692.741596	-3119.380667	1975.825195	-73.625473
30692.741596	-3119.380667	1974.856445	225.366882
30692.741596	-3119.380667	1973.887695	62.765041
30692.741596	-3119.380667	1972.918945	-230.635162
30692.741596	-3119.380667	1971.949219	173.899017
30692.741596	-3119.380667	1970.980469	178.712540
30692.741596	-3119.380667	1970.010742	-68.032997
30692.741596	-3119.380667	1969.041016	301.418884
30692.741596	-3119.380667	1968.071289	293.591583
30692.741596	-3119.380667	1967.101563	98.420593
30692.741596	-3119.380667	1966.130859	253.056931
30692.741596	-3119.380667	1965.161133	57.806683
30692.741596	-3119.380667	1964.190430	330.444550
30692.741596	-3119.380667	1963.219727	383.789093
30692.741596	-3119.380667	1962.249023	124.423317
30692.741596	-3119.380667	1961.277344	-85.672714
30692.741596	-3119.380667	1960.306641	6.916350
30692.741596	-3119.380667	1959.334961	-85.088921
30692.741596	-3119.380667	1958.363281	22.137411
30692.741596	-3119.380667	1957.391602	210.441315
30692.741596	-3119.380667	1956.419922	59.313175
30692.741596	-3119.380667	1955.447266	340.897888
30692.741596	-3119.380667	1954.474609	113.550362
30692.741596	-3119.380667	1953.501953	262.260498
30692.741596	-3119.380667	1952.529297	160.274048
30692.741596	-3119.380667	1951.556641	-8.020907
30692.741596	-3119.380667	1950.583984	-26.443373
30692.741596	-3119.380667	1949.610352	109.842087
30692.741596	-3119.380667	1948.636719	179.775635
30692.741596	-3119.380667	1947.663086	318.412903
30692.741596	-3119.380667	1946.689453	118.297661
30692.741596	-3119.380667	1945.715820	80.211830
30692.741596	-3119.380667	1944.741211	-134.496094
30692.741596	-3119.380667	1943.767578	119.384735
30692.741596	-3119.380667	1942.792969	-173.718994
30692.741596	-3119.380667	1941.818359	33.507130
30692.741596	-3119.380667	1940.842773	-156.481384
30692.741596	-3119.380667	1939.868164	89.904762
30692.741596	-3119.380667	1938.892578	-48.533138
30692.741596	-3119.380667	1937.916992	6.663445
30692.741596	-3119.380667	1936.941406	-9.185459
30692.741596	-3119.380667	1935.965820	53.368999
30692.741596	-3119.380667	1934.990234	-89.781067
30692.741596	-3119.380667	1934.013672	102.577087
30692.741596	-3119.380667	1933.037109	-113.913025
30692.741596	-3119.380667	1932.060547	301.146301
30692.741596	-3119.380667	1931.083984	114.113571
30692.741596	-3119.380667	1930.107422	-138.877319
30692.741596	-3119.380667	1929.129883	207.552078
30692.741596	-3119.380667	1928.153320	52.520695
30692.741596	-3119.380667	1927.175781	-249.127747
30692.741596	-3119.380667	1926.198242	-81.246597
30692.741596	-3119.380667	1925.219727	-106.488853
30692.741596	-3119.380667	1924.242188	-2.171661
30692.741596	-3119.380667	1923.263672	326.933380
30692.741596	-3119.380667	1922.285156	118.509651
30692.741596	-3119.380667	1921.306641	195.963699
30692.741596	-3119.380667	1920.328125	-56.245186
30692.741596	-3119.380667	1919.349609	9.070685
30692.741596	-3119.380667	1918.370117	189.135010
30692.741596	-3119.380667	1917.391602	-65.270683
30692.741596	-3119.380667	1916.412109	192.892548
30692.741596	-3119.380667	1915.431641	-14.984630
30692.741596	-3119.380667	1914.452148	48.001984
30692.741596	-3119.380667	1913.472656	-30.451508
30692.741596	-3119.380667	1912.492188	83.792480
30692.741596	-3119.380667	1911.511719	254.099838
30692.741596	-3119.380667	1910.531250	66.071785
30692.741596	-3119.380667	1909.550781	160.838806
30692.741596	-3119.380667	1908.569336	304.337219
30692.741596	-3119.380667	1907.588867	-75.945633
30692.741596	-3119.380667	1906.607422	238.101563
30692.741596	-3119.380667	1905.625977	-59.163628
30692.741596	-3119.380667	1904.644531	155.000366
30692.741596	-3119.380667	1903.662109	-402.536652
30692.741596	-3119.380667	1902.680664	-122.617889
30692.741596	-3119.380667	1901.698242	232.666809
30692.741596	-3119.380667	1900.715820	201.014496
30692.741596	-3119.380667	1899.733398	-51.948689
30692.741596	-3119.380667	1898.750000	62.441910
30692.741596	-3119.380667	1897.767578	98.998840
30692.741596	-3119.380667	1896.784180	84.521019
30692.741596	-3119.380667	1895.800781	-49.027233
30692.741596	-3119.380667	1894.817383	9.476117
30692.741596	-3119.380667	1893.833984	325.530029
30692.741596	-3119.380667	1892.850586	5.020099
30692.741596	-3119.380667	1891.866211	-101.609764
30692.741596	-3119.380667	1890.881836	-128.047852
30692.741596	-3119.380667	1889.897461	73.761314
30692.741596	-3119.380667	1888.913086	-25.490120
30692.741596	-3119.380667	1887.927734	13.653386
30692.741596	-3119.380667	1886.943359	-131.627213
30692.741596	-3119.380667	1885.958008	-123.993889
30692.741596	-3119.380667	1884.972656	34.036716
30692.741596	-3119.380667	1883.987305	-38.374607
30692.741596	-3119.380667	1883.001953	-45.283886
30692.741596	-3119.380667	1882.015625	173.278000
30692.741596	-3119.380667	1881.029297	-0.893214
30692.741596	-3119.380667	1880.042969	268.478424
30692.741596	-3119.380667	1879.056641	-138.237427
30692.741596	-3119.380667	1878.070313	-304.979645
30692.741596	-3119.380667	1877.083984	102.351822
30692.741596	-3119.380667	1876.096680	129.352997
30692.741596	-3119.380667	1875.109375	-39.764500
30692.741596	-3119.380667	1874.122070	105.855278
30692.741596	-3119.380667	1873.134766	123.144424
30692.741596	-3119.380667	1872.146484	-140.260162
30692.741596	-3119.380667	1871.159180	-9.244229
30692.741596	-3119.380667	1870.170898	-4.059857
30692.741596	-3119.380667	1869.182617	-32.745419
30692.741596	-3119.380667	1868.194336	250.472931
30692.741596	-3119.380667	1867.205078	-90.125443
30692.741596	-3119.380667	1866.216797	-483.795319
30692.741596	-3119.380667	1865.227539	-145.117126
30692.741596	-3119.380667	1864.238281	174.085678
30692.741596	-3119.380667	1863.249023	-122.842781
30692.741596	-3119.380667	1862.259766	186.527573
30692.741596	-3119.380667	1861.269531	-42.719379
30692.741596	-3119.380667	1860.279297	-105.325020
30692.741596	-3119.380667	1859.290039	34.818989
30692.741596	-3119.380667	1858.298828	372.791473
30692.741596	-3119.380667	1857.308594	121.844444
30692.741596	-3119.380667	1856.318359	-10.830863
30692.741596	-3119.380667	1855.327148	186.962524
30692.741596	-3119.380667	1854.335938	551.040039
30692.741596	-3119.380667	1853.344727	-37.441673
30692.741596	-3119.380667	1852.353516	-172.540833
30692.741596	-3119.380667	1851.362305	181.637512
30692.741596	-3119.380667	1850.370117	371.786194
30692.741596	-3119.380667	1849.377930	231.744339
30692.741596	-3119.380667	1848.385742	229.012329
30692.741596	-3119.380667	1847.393555	38.379650
30692.741596	-3119.380667	1846.401367	-135.373978
30692.741596	-3119.380667	1845.408203	357.762451
30692.741596	-3119.380667	1844.415039	5.796267
30692.741596	-3119.380667	1843.421875	267.585327
30692.741596	-3119.380667	1842.428711	21.526596
30692.741596	-3119.380667	1841.435547	40.128319
30692.741596	-3119.380667	1840.441406	135.635651
30692.741596	-3119.380667	1839.448242	332.042114
30692.741596	-3119.380667	1838.454102	-75.164520
30692.741596	-3119.380667	1837.459961	560.994263
30692.741596	-3119.380667	1836.464844	257.122833
30692.741596	-3119.380667	1835.470703	47.010078
30692.741596	-3119.380667	1834.475586	245.338699
30692.741596	-3119.380667	1833.480469	236.946854
30692.741596	-3119.380667	1832.485352	190.061676
30692.741596	-3119.380667	1831.490234	186.343903
30692.741596	-3119.380667	1830.495117	141.741394
30692.741596	-3119.380667	1829.499023	-241.347000
30692.741596	-3119.380667	1828.502930	4.376251
30692.741596	-3119.380667	1827.506836	285.919617
30692.741596	-3119.380667	1826.510742	1.141185
30692.741596	-3119.380667	1825.513672	277.628967
30692.741596	-3119.380667	1824.517578	448.413940
30692.741596	-3119.380667	1823.520508	348.136292
30692.741596	-3119.380667	1822.523438	-262.765228
30692.741596	-3119.380667	1821.526367	228.924957
30692.741596	-3119.380667	1820.529297	454.365814
30692.741596	-3119.380667	1819.531250	260.391022
30692.741596	-3119.380667	1818.533203	286.762085
30692.741596	-3119.380667	1817.535156	277.112549
30692.741596	-3119.380667	1816.537109	353.570221
30692.741596	-3119.380667	1815.539063	252.757034
30692.741596	-3119.380667	1814.540039	99.236824
30692.741596	-3119.380667	1813.541992	141.900085
30692.741596	-3119.380667	1812.542969	-152.892075
30692.741596	-3119.380667	1811.543945	253.212372
30692.741596	-3119.380667	1810.543945	195.089462
30692.741596	-3119.380667	1809.544922	184.710571
30692.741596	-3119.380667	1808.544922	415.701782
30692.741596	-3119.380667	1807.544922	340.548370
30692.741596	-3119.380667	1806.544922	100.421288
30692.741596	-3119.380667	1805.544922	223.468063
30692.741596	-3119.380667	1804.544922	-272.370758
30692.741596	-3119.380667	1803.543945	-118.456062
30692.741596	-3119.380667	1802.542969	240.664856
30692.741596	-3119.380667	1801.541992	313.032196
30692.741596	-3119.380667	1800.541016	117.904938
30692.741596	-3119.380667	1799.539063	-113.054695
30692.741596	-3119.380667	1798.538086	32.984600
30692.741596	-3119.380667	1797.536133	-169.462509
30692.741596	-3119.380667	1796.534180	26.405077
30692.741596	-3119.380667	1795.532227	98.073006
30692.741596	-3119.380667	1794.529297	281.669891
30692.741596	-3119.380667	1793.527344	47.885635
30692.741596	-3119.380667	1792.524414	188.290573
30692.741596	-3119.380667	1791.521484	-186.213928
30692.741596	-3119.380667	1790.518555	166.002426
30692.741596	-3119.380667	1789.514648	-129.975159
30692.741596	-3119.380667	1788.511719	207.573730
30692.741596	-3119.380667	1787.507813	273.417633
30692.741596	-3119.380667	1786.503906	272.452789
30692.741596	-3119.380667	1785.500000	-61.879925
30692.741596	-3119.380667	1784.496094	377.266754
30692.741596	-3119.380667	1783.491211	228.399353
30692.741596	-3119.380667	1782.486328	74.711464
30692.741596	-3119.380667	1781.481445	287.259399
30692.741596	-3119.380667	1780.476563	254.658005
30692.741596	-3119.380667	1779.471680	271.879639
30692.741596	-3119.380667	1778.465820	82.156937
30692.741596	-3119.380667	1777.460938	46.873280
30692.741596	-3119.380667	1776.455078	1.974602
30692.741596	-3119.380667	1775.449219	87.639870
30692.741596	-3119.380667	1774.442383	128.019302
30692.741596	-3119.380667	1773.436523	-209.358154
30692.741596	-3119.380667	1772.429688	-31.467331
30692.741596	-3119.380667	1771.422852	395.508026
30692.741596	-3119.380667	1770.416016	27.044376
30692.741596	-3119.380667	1769.409180	76.266632
30692.741596	-3119.380667	1768.402344	35.184494
30692.741596	-3119.380667	1767.394531	-224.253647
30692.741596	-3119.380667	1766.386719	374.870697
30692.741596	-3119.380667	1765.378906	112.844696
30692.741596	-3119.380667	1764.371094	-305.683197
30692.741596	-3119.380667	1763.362305	347.256470
30692.741596	-3119.380667	1762.354492	196.400604
30692.741596	-3119.380667	1761.345703	-56.413513
30692.741596	-3119.380667	1760.336914	235.631927
30692.741596	-3119.380667	1759.328125	494.279236
30692.741596	-3119.380667	1758.318359	106.188866
30692.741596	-3119.380667	1757.308594	170.356750
30692.741596	-3119.380667	1756.299805	118.382889
30692.741596	-3119.380667	1755.290039	149.138412
30692.741596	-3119.380667	1754.279297	-118.406082
30692.741596	-3119.380667	1753.269531	198.412491
30692.741596	-3119.380667	1752.258789	-76.385002
30692.741596	-3119.380667	1751.249023	164.378708
30692.741596	-3119.380667	1750.238281	92.798294
30692.741596	-3119.380667	1749.226563	174.787827
30692.741596	-3119.380667	1748.215820	299.171814
30692.741596	-3119.380667	1747.204102	279.225952
30692.741596	-3119.380667	1746.193359	183.560394
30692.741596	-3119.380667	1745.181641	-264.180450
30692.741596	-3119.380667	1744.168945	121.866844
30692.741596	-3119.380667	1743.157227	221.916702
30692.741596	-3119.380667	1742.144531	161.257446
30692.741596	-3119.380667	1741.132813	72.178215
30692.741596	-3119.380667	1740.120117	-146.794800
30692.741596	-3119.380667	1739.106445	-96.809776
30692.741596	-3119.380667	1738.093750	226.704407
30692.741596	-3119.380667	1737.080078	-237.839951
30692.741596	-3119.380667	1736.067383	-228.306778
30692.741596	-3119.380667	1735.053711	132.417007
30692.741596	-3119.380667	1734.040039	96.848076
30692.741596	-3119.380667	1733.025391	-68.458984
30692.741596	-3119.380667	1732.011719	-12.306597
30692.741596	-3119.380667	1730.997070	149.728058
30692.741596	-3119.380667	1729.982422	-1.705008
30692.741596	-3119.380667	1728.967773	-56.632339
30692.741596	-3119.380667	1727.952148	-281.195099
30692.741596	-3119.380667	1726.937500	-86.725845
30692.741596	-3119.380667	1725.921875	178.166077
30692.741596	-3119.380667	1724.906250	28.662537
30692.741596	-3119.380667	1723.890625	20.278101
30692.741596	-3119.380667	1722.875000	-28.201181
30692.741596	-3119.380667	1721.858398	87.860352
30692.741596	-3119.380667	1720.841797	-188.931091
30692.741596	-3119.380667	1719.825195	-141.277664
30692.741596	-3119.380667	1718.808594	-199.524139
30692.741596	-3119.380667	1717.791992	-243.751541
30692.741596	-3119.380667	1716.774414	268.812134
30692.741596	-3119.380667	1715.756836	95.090027
30692.741596	-3119.380667	1714.739258	130.378143
30692.741596	-3119.380667	1713.721680	69.269325
30692.741596	-3119.380667	1712.704102	-158.618195
30692.741596	-3119.380667	1711.685547	-34.403416
30692.741596	-3119.380667	1710.667969	-215.438904
30692.741596	-3119.380667	1709.649414	84.538155
30692.741596	-3119.380667	1708.630859	318.613800
30692.741596	-3119.380667	1707.611328	235.832809
30692.741596	-3119.380667	1706.592773	134.235962
30692.741596	-3119.380667	1705.573242	-28.385286
30692.741596	-3119.380667	1704.553711	-69.131958
30692.741596	-3119.380667	1703.534180	429.139740
30692.741596	-3119.380667	1702.513672	277.993744
30692.741596	-3119.380667	1701.494141	7.336966
30692.741596	-3119.380667	1700.473633	-204.748840
30692.741596	-3119.380667	1699.453125	442.702179
30692.741596	-3119.380667	1698.432617	307.720581
30692.741596	-3119.380667	1697.412109	-145.694305
30692.741596	-3119.380667	1696.390625	213.208603
30692.741596	-3119.380667	1695.369141	234.893600
30692.741596	-3119.380667	1694.347656	137.160812
30692.741596	-3119.380667	1693.326172	390.292816
30692.741596	-3119.380667	1692.304688	411.697235
30692.741596	-3119.380667	1691.282227	547.595520
30692.741596	-3119.380667	1690.260742	313.968689
30692.741596	-3119.380667	1689.238281	393.586426
30692.741596	-3119.380667	1688.214844	386.619812
30692.741596	-3119.380667	1687.192383	550.171326
30692.741596	-3119.380667	1686.168945	505.658844
30692.741596	-3119.380667	1685.146484	166.796356
30692.741596	-3119.380667	1684.123047	353.438965
30692.741596	-3119.380667	1683.099609	453.555756
30692.741596	-3119.380667	1682.075195	674.951843
30692.741596	-3119.380667	1681.051758	947.558533
30692.741596	-3119.380667	1680.027344	1100.980469
30692.741596	-3119.380667	1679.002930	1111.968262
30692.741596	-3119.380667	1677.978516	1594.084106
30692.741596	-3119.380667	1676.953125	1658.488159
30692.741596	-3119.380667	1675.928711	1470.997192
30692.741596	-3119.380667	1674.903320	1987.562988
30692.741596	-3119.380667	1673.877930	1753.348633
30692.741596	-3119.380667	1672.852539	1824.457153
30692.741596	-3119.380667	1671.826172	1452.790894
30692.741596	-3119.380667	1670.800781	1544.797974
30692.741596	-3119.380667	1669.774414	1459.708984
30692.741596	-3119.380667	1668.748047	1628.425659
30692.741596	-3119.380667	1667.721680	1424.531616
30692.741596	-3119.380667	1666.694336	1001.862366
30692.741596	-3119.380667	1665.667969	849.288452
30692.741596	-3119.380667	1664.640625	908.464050
30692.741596	-3119.380667	1663.613281	809.388611
30692.741596	-3119.380667	1662.585938	954.534424
30692.741596	-3119.380667	1661.557617	1067.026245
30692.741596	-3119.380667	1660.530273	1014.379150
30692.741596	-3119.380667	1659.501953	708.337036
30692.741596	-3119.380667	1658.473633	1148.421021
30692.741596	-3119.380667	1657.444336	1153.775269
30692.741596	-3119.380667	1656.416016	1351.936523
30692.741596	-3119.380667	1655.386719	1234.095825
30692.741596	-3119.380667	1654.358398	835.290039
30692.741596	-3119.380667	1653.328125	1191.200439
30692.741596	-3119.380667	1652.298828	1094.289551
30692.741596	-3119.380667	1651.269531	1306.086426
30692.741596	-3119.380667	1650.239258	1362.303467
30692.741596	-3119.380667	1649.208984	1179.518677
30692.741596	-3119.380667	1648.178711	1488.550049
30692.741596	-3119.380667	1647.148438	1440.299561
30692.741596	-3119.380667	1646.117188	1589.141968
30692.741596	-3119.380667	1645.086914	1626.651123
30692.741596	-3119.380667	1644.055664	1562.145142
30692.741596	-3119.380667	1643.024414	1817.457642
30692.741596	-3119.380667	1641.992188	1639.396851
30692.741596	-3119.380667	1640.960938	1808.884521
30692.741596	-3119.380667	1639.928711	1941.240601
30692.741596	-3119.380667	1638.896484	2161.538818
30692.741596	-3119.380667	1637.864258	2467.416016
30692.741596	-3119.380667	1636.832031	2254.695801
30692.741596	-3119.380667	1635.798828	2116.110352
30692.741596	-3119.380667	1634.766602	2130.305908
30692.741596	-3119.380667	1633.733398	2151.436523
30692.741596	-3119.380667	1632.699219	2047.669678
30692.741596	-3119.380667	1631.666016	1872.278687
30692.741596	-3119.380667	1630.632813	2004.466187
30692.741596	-3119.380667	1629.598633	1889.277100
30692.741596	-3119.380667	1628.564453	2155.478516
30692.741596	-3119.380667	1627.530273	2382.318115
30692.741596	-3119.380667	1626.495117	2442.749023
30692.741596	-3119.380667	1625.460938	2272.217529
30692.741596	-3119.380667	1624.425781	2455.087646
30692.741596	-3119.380667	1623.390625	2672.547607
30692.741596	-3119.380667	1622.355469	2520.611084
30692.741596	-3119.380667	1621.319336	2486.457764
30692.741596	-3119.380667	1620.284180	2685.416748
30692.741596	-3119.380667	1619.248047	2512.890869
30692.741596	-3119.380667	1618.211914	2508.847900
30692.741596	-3119.380667	1617.174805	2331.875977
30692.741596	-3119.380667	1616.138672	2620.769043
30692.741596	-3119.380667	1615.101563	2789.707031
30692.741596	-3119.380667	1614.065430	2665.924805
30692.741596	-3119.380667	1613.027344	2519.170410
30692.741596	-3119.380667	1611.990234	2665.124756
30692.741596	-3119.380667	1610.953125	2986.129883
30692.741596	-3119.380667	1609.915039	2758.934570
30692.741596	-3119.380667	1608.876953	2794.371582
30692.741596	-3119.380667	1607.838867	2351.008789
30692.741596	-3119.380667	1606.800781	2998.853760
30692.741596	-3119.380667	1605.761719	3172.446045
30692.741596	-3119.380667	1604.723633	2934.201172
30692.741596	-3119.380667	1603.684570	3064.146240
30692.741596	-3119.380667	1602.644531	2644.427490
30692.741596	-3119.380667	1601.605469	2933.159424
30692.741596	-3119.380667	1600.566406	2879.295898
30692.741596	-3119.380667	1599.526367	2945.032959
30692.741596	-3119.380667	1598.486328	2914.292725
30692.741596	-3119.380667	1597.446289	2612.512451
30692.741596	-3119.380667	1596.405273	3199.911865
30692.741596	-3119.380667	1595.365234	3118.819580
30692.741596	-3119.380667	1594.324219	3327.150146
30692.741596	-3119.380667	1593.283203	3002.843018
30692.741596	-3119.380667	1592.242188	3192.901855
30692.741596	-3119.380667	1591.200195	3300.337402
30692.741596	-3119.380667	1590.159180	2811.254883
30692.741596	-3119.380667	1589.117188	2840.884521
30692.741596	-3119.380667	1588.075195	2854.528320
30692.741596	-3119.380667	1587.032227	2787.980957
30692.741596	-3119.380667	1585.990234	2760.528320
30692.741596	-3119.380667	1584.947266	2712.533936
30692.741596	-3119.380667	1583.904297	2325.461914
30692.741596	-3119.380667	1582.861328	2330.448242
30692.741596	-3119.380667	1581.818359	2521.082031
30692.741596	-3119.380667	1580.775391	2643.020996
30692.741596	-3119.380667	1579.731445	2325.320313
30692.741596	-3119.380667	1578.687500	2378.741943
30692.741596	-3119.380667	1577.643555	2333.808838
30692.741596	-3119.380667	1576.598633	2261.517822
30692.741596	-3119.380667	1575.554688	2262.582275
30692.741596	-3119.380667	1574.509766	1909.140991
30692.741596	-3119.380667	1573.464844	2210.104248
30692.741596	-3119.380667	1572.419922	1461.387451
30692.741596	-3119.380667	1571.374023	1700.788208
30692.741596	-3119.380667	1570.329102	1633.886475
30692.741596	-3119.380667	1569.283203	1793.376587
30692.741596	-3119.380667	1568.237305	1687.845947
30692.741596	-3119.380667	1567.191406	1461.381592
30692.741596	-3119.380667	1566.144531	1440.684326
30692.741596	-3119.380667	1565.098633	1691.871826
30692.741596	-3119.380667	1564.051758	1634.828857
30692.741596	-3119.380667	1563.004883	1571.073975
30692.741596	-3119.380667	1561.957031	1496.040527
30692.741596	-3119.380667	1560.910156	1553.509521
30692.741596	-3119.380667	1559.862305	1328.167358
30692.741596	-3119.380667	1558.814453	1228.486938
30692.741596	-3119.380667	1557.766602	1441.405029
30692.741596	-3119.380667	1556.718750	1257.617798
30692.741596	-3119.380667	1555.669922	1192.563477
30692.741596	-3119.380667	1554.621094	1259.853149
30692.741596	-3119.380667	1553.573242	1587.025269
30692.741596	-3119.380667	1552.523438	1078.038818
30692.741596	-3119.380667	1551.474609	1159.354858
30692.741596	-3119.380667	1550.424805	1156.497559
30692.741596	-3119.380667	1549.375000	1151.493408
30692.741596	-3119.380667	1548.325195	1078.323730
30692.741596	-3119.380667	1547.275391	884.682983
30692.741596	-3119.380667	1546.225586	572.913818
30692.741596	-3119.380667	1545.174805	834.748413
30692.741596	-3119.380667	1544.124023	521.101135
30692.741596	-3119.380667	1543.073242	987.799133
30692.741596	-3119.380667	1542.022461	988.306152
30692.741596	-3119.380667	1540.970703	1120.807861
30692.741596	-3119.380667	1539.919922	782.894653
30692.741596	-3119.380667	1538.868164	915.657715
30692.741596	-3119.380667	1537.815430	578.192078
30692.741596	-3119.380667	1536.763672	892.954346
30692.741596	-3119.380667	1535.710938	717.159668
30692.741596	-3119.380667	1534.659180	423.502441
30692.741596	-3119.380667	1533.606445	543.290100
30692.741596	-3119.380667	1532.552734	343.129181
30692.741596	-3119.380667	1531.500000	399.631195
30692.741596	-3119.380667	1530.446289	578.778198
30692.741596	-3119.380667	1529.393555	388.239655
30692.741596	-3119.380667	1528.338867	656.063477
30692.741596	-3119.380667	1527.285156	309.417969
30692.741596	-3119.380667	1526.231445	464.093567
30692.741596	-3119.380667	1525.176758	226.719223
30692.741596	-3119.380667	1524.122070	50.778858
30692.741596	-3119.380667	1523.067383	90.308220
30692.741596	-3119.380667	1522.012695	154.893845
30692.741596	-3119.380667	1520.957031	466.477661
30692.741596	-3119.380667	1519.901367	513.152344
30692.741596	-3119.380667	1518.845703	272.434113
30692.741596	-3119.380667	1517.790039	251.530441
30692.741596	-3119.380667	1516.734375	384.680145
30692.741596	-3119.380667	1515.677734	58.616840
30692.741596	-3119.380667	1514.621094	146.821060
30692.741596	-3119.380667	1513.564453	-76.974312
30692.741596	-3119.380667	1512.507813	-67.610619
30692.741596	-3119.380667	1511.450195	57.214615
30692.741596	-3119.380667	1510.393555	8.093153
30692.741596	-3119.380667	1509.335938	230.350357
30692.741596	-3119.380667	1508.278320	-118.979523
30692.741596	-3119.380667	1507.219727	1.875294
30692.741596	-3119.380667	1506.162109	-215.949768
30692.741596	-3119.380667	1505.103516	-69.962204
30692.741596	-3119.380667	1504.044922	80.646973
30692.741596	-3119.380667	1502.986328	-197.526230
30692.741596	-3119.380667	1501.926758	14.310167
30692.741596	-3119.380667	1500.868164	122.426720
30692.741596	-3119.380667	1499.808594	329.926727
30692.741596	-3119.380667	1498.749023	-202.289825
30692.741596	-3119.380667	1497.688477	-19.280077
30692.741596	-3119.380667	1496.628906	111.959671
30692.741596	-3119.380667	1495.568359	29.172531
30692.741596	-3119.380667	1494.507813	201.251938
30692.741596	-3119.380667	1493.447266	33.186325
30692.741596	-3119.380667	1492.386719	187.503189
30692.741596	-3119.380667	1491.325195	-67.998306
30692.741596	-3119.380667	1490.263672	-271.439056
30692.741596	-3119.380667	1489.202148	49.954483
30692.741596	-3119.380667	1488.140625	-297.161377
30692.741596	-3119.380667	1487.079102	28.945835
30692.741596	-3119.380667	1486.016602	55.827965
30692.741596	-3119.380667	1484.954102	121.111298
30692.741596	-3119.380667	1483.891602	-180.086960
30692.741596	-3119.380667	1482.829102	207.125763
30692.741596	-3119.380667	1481.765625	-35.163013
30692.741596	-3119.380667	1480.702148	44.273914
30692.741596	-3119.380667	1479.638672	159.780228
30692.741596	-3119.380667	1478.575195	136.152756
30692.741596	-3119.380667	1477.511719	249.746872
30692.741596	-3119.380667	1476.447266	383.617584
30692.741596	-3119.380667	1475.382813	185.364319
30692.741596	-3119.380667	1474.318359	411.594330
30692.741596	-3119.380667	1473.253906	581.670776
30692.741596	-3119.380667	1472.189453	646.683289
30692.741596	-3119.380667	1471.124023	572.672058
30692.741596	-3119.380667	1470.058594	498.934723
30692.741596	-3119.380667	1468.993164	539.379333
30692.741596	-3119.380667	1467.927734	364.743988
30692.741596	-3119.380667	1466.861328	549.041931
30692.741596	-3119.380667	1465.794922	442.214783
30692.741596	-3119.380667	1464.728516	618.066956
30692.741596	-3119.380667	1463.662109	1044.065063
30692.741596	-3119.380667	1462.594727	862.037231
30692.741596	-3119.380667	1461.528320	975.029358
30692.741596	-3119.380667	1460.460938	813.409363
30692.741596	-3119.380667	1459.393555	738.707703
30692.741596	-3119.380667	1458.326172	939.299011
30692.741596	-3119.380667	1457.257813	815.945862
30692.741596	-3119.380667	1456.189453	572.393066
30692.741596	-3119.380667	1455.121094	984.056213
30692.741596	-3119.380667	1454.052734	922.675110
30692.741596	-3119.380667	1452.984375	908.286560
30692.741596	-3119.380667	1451.915039	818.263000
30692.741596	-3119.380667	1450.845703	880.955994
30692.741596	-3119.380667	1449.776367	876.536804
30692.741596	-3119.380667	1448.707031	1231.669189
30692.741596	-3119.380667	1447.636719	885.095215
30692.741596	-3119.380667	1446.567383	780.235352
30692.741596	-3119.380667	1445.497070	882.957581
30692.741596	-3119.380667	1444.425781	1128.417969
30692.741596	-3119.380667	1443.355469	1300.028320
30692.741596	-3119.380667	1442.285156	1147.269165
30692.741596	-3119.380667	1441.213867	898.666931
30692.741596	-3119.380667	1440.142578	1055.694458
30692.741596	-3119.380667	1439.070313	963.167236
30692.741596	-3119.380667	1437.999023	1314.091187
30692.741596	-3119.380667	1436.926758	1282.154785
30692.741596	-3119.380667	1435.854492	1003.963074
30692.741596	-3119.380667	1434.782227	929.066223
30692.741596	-3119.380667	1433.709961	957.279907
30692.741596	-3119.380667	1432.636719	1167.820923
30692.741596	-3119.380667	1431.563477	620.387390
30692.741596	-3119.380667	1430.490234	610.525574
30692.741596	-3119.380667	1429.416992	758.672119
30692.741596	-3119.380667	1428.343750	968.806885
30692.741596	-3119.380667	1427.269531	724.082703
30692.741596	-3119.380667	1426.195313	924.607178
30692.741596	-3119.380667	1425.121094	487.242798
30692.741596	-3119.380667	1424.046875	405.006409
30692.741596	-3119.380667	1422.971680	858.281860
30692.741596	-3119.380667	1421.896484	775.867554
30692.741596	-3119.380667	1420.821289	902.854431
30692.741596	-3119.380667	1419.746094	665.720215
30692.741596	-3119.380667	1418.669922	1125.776978
30692.741596	-3119.380667	1417.594727	724.855164
30692.741596	-3119.380667	1416.518555	1004.085815
30692.741596	-3119.380667	1415.442383	816.754639
30692.741596	-3119.380667	1414.365234	768.131348
30692.741596	-3119.380667	1413.289063	792.119446
30692.741596	-3119.380667	1412.211914	911.272827
30692.741596	-3119.380667	1411.134766	940.675537
30692.741596	-3119.380667	1410.057617	503.508301
30692.741596	-3119.380667	1408.979492	789.931885
30692.741596	-3119.380667	1407.902344	700.350647
30692.741596	-3119.380667	1406.824219	745.272583
30692.741596	-3119.380667	1405.746094	868.775330
30692.741596	-3119.380667	1404.666992	830.041565
30692.741596	-3119.380667	1403.588867	376.908142
30692.741596	-3119.380667	1402.509766	787.735718
30692.741596	-3119.380667	1401.430664	663.544617
30692.741596	-3119.380667	1400.351563	967.802673
30692.741596	-3119.380667	1399.271484	614.343445
30692.741596	-3119.380667	1398.192383	1092.906860
30692.741596	-3119.380667	1397.112305	854.508972
30692.741596	-3119.380667	1396.031250	1111.434326
30692.741596	-3119.380667	1394.951172	814.111389
30692.741596	-3119.380667	1393.871094	984.122131
30692.741596	-3119.380667	1392.790039	535.558655
30692.741596	-3119.380667	1391.708984	666.602295
30692.741596	-3119.380667	1390.626953	703.730103
30692.741596	-3119.380667	1389.545898	741.332458
30692.741596	-3119.380667	1388.463867	760.809937
30692.741596	-3119.380667	1387.381836	744.501709
30692.741596	-3119.380667	1386.299805	655.199524
30692.741596	-3119.380667	1385.217773	769.394531
30692.741596	-3119.380667	1384.134766	568.040833
30692.741596	-3119.380667	1383.051758	765.102173
30692.741596	-3119.380667	1381.968750	571.727661
30692.741596	-3119.380667	1380.885742	680.562744
30692.741596	-3119.380667	1379.802734	598.619873
30692.741596	-3119.380667	1378.718750	545.793091
30692.741596	-3119.380667	1377.634766	811.260437
30692.741596	-3119.380667	1376.550781	592.026611
30692.741596	-3119.380667	1375.465820	699.591309
30692.741596	-3119.380667	1374.381836	971.846069
30692.741596	-3119.380667	1373.296875	926.903076
30692.741596	-3119.380667	1372.211914	854.937744
30692.741596	-3119.380667	1371.126953	899.531067
30692.741596	-3119.380667	1370.041016	949.259277
30692.741596	-3119.380667	1368.955078	862.428589
30692.741596	-3119.380667	1367.869141	1131.672485
30692.741596	-3119.380667	1366.783203	885.661621
30692.741596	-3119.380667	1365.697266	1177.433716
30692.741596	-3119.380667	1364.610352	976.118469
30692.741596	-3119.380667	1363.523438	1074.591675
30692.741596	-3119.380667	1362.436523	1163.068970
30692.741596	-3119.380667	1361.349609	1120.482666
30692.741596	-3119.380667	1360.261719	885.470337
30692.741596	-3119.380667	1359.174805	981.817444
30692.741596	-3119.380667	1358.086914	1034.060425
30692.741596	-3119.380667	1356.998047	1057.897583
30692.741596	-3119.380667	1355.910156	1080.898682
30692.741596	-3119.380667	1354.821289	1275.780518
30692.741596	-3119.380667	1353.732422	1108.320557
30692.741596	-3119.380667	1352.643555	892.835938
30692.741596	-3119.380667	1351.554688	985.631836
30692.741596	-3119.380667	1350.464844	920.565430
30692.741596	-3119.380667	1349.375000	742.712646
30692.741596	-3119.380667	1348.285156	785.738342
30692.741596	-3119.380667	1347.195313	886.555115
30692.741596	-3119.380667	1346.105469	520.013367
30692.741596	-3119.380667	1345.014648	715.464478
30692.741596	-3119.380667	1343.923828	878.245911
30692.741596	-3119.380667	1342.833008	601.659058
30692.741596	-3119.380667	1341.741211	914.209900
30692.741596	-3119.380667	1340.650391	855.005676
30692.741596	-3119.380667	1339.558594	788.444397
30692.741596	-3119.380667	1338.466797	621.251892
30692.741596	-3119.380667	1337.374023	729.856201
30692.741596	-3119.380667	1336.282227	743.190247
30692.741596	-3119.380667	1335.189453	838.017761
30692.741596	-3119.380667	1334.096680	840.458801
30692.741596	-3119.380667	1333.003906	777.213318
30692.741596	-3119.380667	1331.910156	867.166504
30692.741596	-3119.380667	1330.817383	903.920776
30692.741596	-3119.380667	1329.723633	823.875122
30692.741596	-3119.380667	1328.629883	907.549744
30692.741596	-3119.380667	1327.535156	459.033295
30692.741596	-3119.380667	1326.441406	756.150452
30692.741596	-3119.380667	1325.346680	751.946960
30692.741596	-3119.380667	1324.251953	978.931213
30692.741596	-3119.380667	1323.156250	768.898987
30692.741596	-3119.380667	1322.061523	1000.741028
30692.741596	-3119.380667	1320.965820	581.251526
30692.741596	-3119.380667	1319.870117	470.053894
30692.741596	-3119.380667	1318.774414	678.640930
30692.741596	-3119.380667	1317.678711	549.829712
30692.741596	-3119.380667	1316.582031	724.925964
30692.741596	-3119.380667	1315.485352	773.349915
30692.741596	-3119.380667	1314.388672	784.143127
30692.741596	-3119.380667	1313.291016	986.254150
30692.741596	-3119.380667	1312.194336	988.340637
30692.741596	-3119.380667	1311.096680	810.205261
30692.741596	-3119.380667	1309.999023	987.609741
30692.741596	-3119.380667	1308.901367	648.617310
30692.741596	-3119.380667	1307.802734	537.475281
30692.741596	-3119.380667	1306.705078	632.726013
30692.741596	-3119.380667	1305.606445	578.189880
30692.741596	-3119.380667	1304.506836	795.828552
30692.741596	-3119.380667	1303.408203	499.266205
30692.741596	-3119.380667	1302.308594	527.141724
30692.741596	-3119.380667	1301.208984	588.851501
30692.741596	-3119.380667	1300.109375	604.400146
30692.741596	-3119.380667	1299.009766	539.137939
30692.741596	-3119.380667	1297.909180	657.146423
30692.741596	-3119.380667	1296.808594	976.800537
30692.741596	-3119.380667	1295.708008	921.339233
30692.741596	-3119.380667	1294.607422	845.474060
30692.741596	-3119.380667	1293.506836	724.686279
30692.741596	-3119.380667	1292.405273	369.448120
30692.741596	-3119.380667	1291.303711	338.085602
30692.741596	-3119.380667	1290.202148	434.527161
30692.741596	-3119.380667	1289.099609	170.004883
30692.741596	-3119.380667	1287.998047	139.754028
30692.741596	-3119.380667	1286.895508	319.366943
30692.741596	-3119.380667	1285.792969	179.980164
30692.741596	-3119.380667	1284.689453	352.362915
30692.741596	-3119.380667	1283.586914	295.338379
30692.741596	-3119.380667	1282.483398	317.063324
30692.741596	-3119.380667	1281.379883	82.795486
30692.741596	-3119.380667	1280.276367	98.871513
30692.741596	-3119.380667	1279.171875	198.798904
30692.741596	-3119.380667	1278.067383	49.684959
30692.741596	-3119.380667	1276.962891	266.139832
30692.741596	-3119.380667	1275.858398	51.453369
30692.741596	-3119.380667	1274.753906	128.532593
30692.741596	-3119.380667	1273.648438	-57.038853
30692.741596	-3119.380667	1272.542969	60.795628
30692.741596	-3119.380667	1271.437500	-44.076443
30692.741596	-3119.380667	1270.331055	-10.786297
30692.741596	-3119.380667	1269.225586	15.493461
30692.741596	-3119.380667	1268.119141	-136.594208
30692.741596	-3119.380667	1267.012695	15.075764
30692.741596	-3119.380667	1265.906250	141.086243
30692.741596	-3119.380667	1264.798828	-96.188194
30692.741596	-3119.380667	1263.691406	-77.729843
30692.741596	-3119.380667	1262.583984	-66.319092
30692.741596	-3119.380667	1261.476563	-181.023422
30692.741596	-3119.380667	1260.368164	-138.937103
30692.741596	-3119.380667	1259.260742	50.408340
30692.741596	-3119.380667	1258.152344	0.268831
30692.741596	-3119.380667	1257.043945	-15.542817
30692.741596	-3119.380667	1255.934570	-185.570129
30692.741596	-3119.380667	1254.825195	5.243898
30692.741596	-3119.380667	1253.716797	-162.777954
30692.741596	-3119.380667	1252.606445	-277.444061
30692.741596	-3119.380667	1251.497070	28.382015
30692.741596	-3119.380667	1250.387695	-334.853088
30692.741596	-3119.380667	1249.277344	-145.780899
30692.741596	-3119.380667	1248.166992	-234.486755
30692.741596	-3119.380667	1247.055664	-24.223377
30692.741596	-3119.380667	1245.945313	-325.253937
30692.741596	-3119.380667	1244.833984	-33.436390
30692.741596	-3119.380667	1243.722656	-55.197704
30692.741596	-3119.380667	1242.611328	40.818596
30692.741596	-3119.380667	1241.499023	31.820610
30692.741596	-3119.380667	1240.387695	48.938141
30692.741596	-3119.380667	1239.275391	118.910561
30692.741596	-3119.380667	1238.162109	45.363792
30692.741596	-3119.380667	1237.049805	96.455254
30692.741596	-3119.380667	1235.936523	136.656509
30692.741596	-3119.380667	1234.823242	292.915985
30692.741596	-3119.380667	1233.709961	65.182053
30692.741596	-3119.380667	1232.596680	-15.175092
30692.741596	-3119.380667	1231.482422	108.859009
30692.741596	-3119.380667	1230.369141	47.959927
30692.741596	-3119.380667	1229.253906	-58.276665
30692.741596	-3119.380667	1228.139648	-222.186371
30692.741596	-3119.380667	1227.025391	106.870247
30692.741596	-3119.380667	1225.910156	-71.440224
30692.741596	-3119.380667	1224.794922	42.932686
30692.741596	-3119.380667	1223.679688	-112.837967
30692.741596	-3119.380667	1222.563477	-19.480251
30692.741596	-3119.380667	1221.447266	-31.498198
30692.741596	-3119.380667	1220.331055	-178.429657
30692.741596	-3119.380667	1219.214844	38.263676
30692.741596	-3119.380667	1218.098633	-215.957977
30692.741596	-3119.380667	1216.981445	-132.738892
30692.741596	-3119.380667	1215.864258	-65.338676
30692.741596	-3119.380667	1214.747070	-74.609573
30692.741596	-3119.380667	1213.629883	-140.474152
30692.741596	-3119.380667	1212.511719	-30.713591
30692.741596	-3119.380667	1211.393555	92.209656
30692.741596	-3119.380667	1210.275391	98.410172
30692.741596	-3119.380667	1209.157227	-155.095108
30692.741596	-3119.380667	1208.038086	178.578461
30692.741596	-3119.380667	1206.918945	195.546814
30692.741596	-3119.380667	1205.799805	12.873796
30692.741596	-3119.380667	1204.680664	157.127182
30692.741596	-3119.380667	1203.560547	263.197266
30692.741596	-3119.380667	1202.441406	216.221558
30692.741596	-3119.380667	1201.321289	406.697998
30692.741596	-3119.380667	1200.200195	97.321159
30692.741596	-3119.380667	1199.080078	146.586395
30692.741596	-3119.380667	1197.958984	215.799881
30692.741596	-3119.380667	1196.837891	148.343842
30692.741596	-3119.380667	1195.716797	83.469734
30692.741596	-3119.380667	1194.594727	170.690460
30692.741596	-3119.380667	1193.473633	171.287247
30692.741596	-3119.380667	1192.351563	-87.766365
30692.741596	-3119.380667	1191.229492	-138.802597
30692.741596	-3119.380667	1190.106445	-90.216980
30692.741596	-3119.380667	1188.984375	-118.274574
30692.741596	-3119.380667	1187.861328	-202.894913
30692.741596	-3119.380667	1186.738281	-293.728271
30692.741596	-3119.380667	1185.614258	-89.262177
30692.741596	-3119.380667	1184.491211	-146.620514
30692.741596	-3119.380667	1183.367188	102.147812
30692.741596	-3119.380667	1182.243164	81.830322
30692.741596	-3119.380667	1181.119141	104.512589
30692.741596	-3119.380667	1179.994141	-1.117423
30692.741596	-3119.380667	1178.869141	-88.402802
30692.741596	-3119.380667	1177.744141	49.677616
30692.741596	-3119.380667	1176.619141	237.852020
30692.741596	-3119.380667	1175.493164	76.606964
30692.741596	-3119.380667	1174.368164	45.015251
30692.741596	-3119.380667	1173.242188	122.735779
30692.741596	-3119.380667	1172.115234	214.207504
30692.741596	-3119.380667	1170.989258	244.609177
30692.741596	-3119.380667	1169.862305	148.134460
30692.741596	-3119.380667	1168.735352	42.978092
30692.741596	-3119.380667	1167.608398	258.921112
30692.741596	-3119.380667	1166.481445	109.139099
30692.741596	-3119.380667	1165.353516	-44.637833
30692.741596	-3119.380667	1164.225586	5.293243
30692.741596	-3119.380667	1163.097656	-230.968246
30692.741596	-3119.380667	1161.968750	-98.395493
30692.741596	-3119.380667	1160.840820	151.416290
30692.741596	-3119.380667	1159.711914	-19.416645
30692.741596	-3119.380667	1158.583008	-213.204636
30692.741596	-3119.380667	1157.453125	-42.425011
30692.741596	-3119.380667	1156.324219	-170.297363
30692.741596	-3119.380667	1155.194336	7.561574
30692.741596	-3119.380667	1154.064453	-68.097626
30692.741596	-3119.380667	1152.933594	311.087280
30692.741596	-3119.380667	1151.803711	43.537987
30692.741596	-3119.380667	1150.672852	12.184072
30692.741596	-3119.380667	1149.541992	266.700256
30692.741596	-3119.380667	1148.411133	88.832642
30692.741596	-3119.380667	1147.279297	152.343506
30692.741596	-3119.380667	1146.147461	139.155869
30692.741596	-3119.380667	1145.015625	-8.753675
30692.741596	-3119.380667	1143.883789	92.228134
30692.741596	-3119.380667	1142.750977	182.459061
30692.741596	-3119.380667	1141.619141	121.600502
30692.741596	-3119.380667	1140.486328	-291.106689
30692.741596	-3119.380667	1139.352539	103.665459
30692.741596	-3119.380667	1138.219727	219.619797
30692.741596	-3119.380667	1137.085938	52.098351
30692.741596	-3119.380667	1135.952148	283.331543
30692.741596	-3119.380667	1134.818359	410.602661
30692.741596	-3119.380667	1133.683594	398.407654
30692.741596	-3119.380667	1132.549805	432.842773
30692.741596	-3119.380667	1131.415039	975.843018
30692.741596	-3119.380667	1130.279297	1067.127075
30692.741596	-3119.380667	1129.144531	1207.705811
30692.741596	-3119.380667	1128.008789	1246.080322
30692.741596	-3119.380667	1126.873047	1010.426758
30692.741596	-3119.380667	1125.737305	1322.251343
30692.741596	-3119.380667	1124.601563	1027.526978
30692.741596	-3119.380667	1123.464844	1162.781982
30692.741596	-3119.380667	1122.328125	905.773438
30692.741596	-3119.380667	1121.191406	630.171265
30692.741596	-3119.380667	1120.054688	621.823425
30692.741596	-3119.380667	1118.916992	514.607849
30692.741596	-3119.380667	1117.779297	604.346069
30692.741596	-3119.380667	1116.641602	405.821533
30692.741596	-3119.380667	1115.503906	278.503326
30692.741596	-3119.380667	1114.365234	332.270966
30692.741596	-3119.380667	1113.226563	294.161255
30692.741596	-3119.380667	1112.087891	15.403006
30692.741596	-3119.380667	1110.949219	187.039459
30692.741596	-3119.380667	1109.809570	127.030022
30692.741596	-3119.380667	1108.669922	322.780975
30692.741596	-3119.380667	1107.530273	435.015228
30692.741596	-3119.380667	1106.390625	342.711670
30692.741596	-3119.380667	1105.250000	379.356812
30692.741596	-3119.380667	1104.109375	191.456787
30692.741596	-3119.380667	1102.968750	271.295166
30692.741596	-3119.380667	1101.828125	569.462158
30692.741596	-3119.380667	1100.686523	766.590454
30692.741596	-3119.380667	1099.544922	836.309692
30692.741596	-3119.380667	1098.403320	559.627930
30692.741596	-3119.380667	1097.261719	1029.309326
30692.741596	-3119.380667	1096.120117	750.588562
30692.741596	-3119.380667	1094.977539	1157.307129
30692.741596	-3119.380667	1093.834961	899.823425
30692.741596	-3119.380667	1092.691406	873.881104
30692.741596	-3119.380667	1091.548828	951.027222
30692.741596	-3119.380667	1090.405273	704.963501
30692.741596	-3119.380667	1089.261719	985.450928
30692.741596	-3119.380667	1088.118164	637.339661
30692.741596	-3119.380667	1086.973633	726.915955
30692.741596	-3119.380667	1085.829102	578.036804
30692.741596	-3119.380667	1084.684570	440.271057
30692.741596	-3119.380667	1083.540039	410.404327
30692.741596	-3119.380667	1082.395508	306.728058
30692.741596	-3119.380667	1081.250000	317.475586
30692.741596	-3119.380667	1080.104492	229.676102
30692.741596	-3119.380667	1078.958984	183.447296
30692.741596	-3119.380667	1077.812500	288.172668
30692.741596	-3119.380667	1076.666016	393.045746
30692.741596	-3119.380667	1075.519531	514.721313
30692.741596	-3119.380667	1074.373047	560.268250
30692.741596	-3119.380667	1073.226563	519.452637
30692.741596	-3119.380667	1072.079102	307.618652
30692.741596	-3119.380667	1070.931641	311.259033
30692.741596	-3119.380667	1069.784180	448.758972
30692.741596	-3119.380667	1068.635742	500.917633
30692.741596	-3119.380667	1067.487305	430.413361
30692.741596	-3119.380667	1066.338867	482.645172
30692.741596	-3119.380667	1065.190430	400.543274
30692.741596	-3119.380667	1064.041992	501.928528
30692.741596	-3119.380667	1062.892578	729.154419
30692.741596	-3119.380667	1061.743164	872.042297
30692.741596	-3119.380667	1060.593750	506.426636
30692.741596	-3119.380667	1059.443359	526.932312
30692.741596	-3119.380667	1058.292969	275.986237
30692.741596	-3119.380667	1057.142578	578.561646
30692.741596	-3119.380667	1055.992188	312.385712
30692.741596	-3119.380667	1054.841797	420.974579
30692.741596	-3119.380667	1053.690430	197.327820
30692.741596	-3119.380667	1052.539063	317.038727
30692.741596	-3119.380667	1051.387695	101.473091
30692.741596	-3119.380667	1050.235352	209.657684
30692.741596	-3119.380667	1049.083984	402.288696
30692.741596	-3119.380667	1047.931641	65.366325
30692.741596	-3119.380667	1046.778320	122.892937
30692.741596	-3119.380667	1045.625977	106.111923
30692.741596	-3119.380667	1044.472656	52.402069
30692.741596	-3119.380667	1043.319336	188.331680
30692.741596	-3119.380667	1042.166016	236.340805
30692.741596	-3119.380667	1041.012695	215.334335
30692.741596	-3119.380667	1039.858398	136.799545
30692.741596	-3119.380667	1038.704102	22.217043
30692.741596	-3119.380667	1037.549805	350.464386
30692.741596	-3119.380667	1036.394531	169.796310
30692.741596	-3119.380667	1035.239258	1.871277
30692.741596	-3119.380667	1034.083984	118.223114
30692.741596	-3119.380667	1032.928711	441.186401
30692.741596	-3119.380667	1031.773438	219.582047
30692.741596	-3119.380667	1030.617188	278.701660
30692.741596	-3119.380667	1029.460938	342.319214
30692.741596	-3119.380667	1028.304688	190.632538
30692.741596	-3119.380667	1027.147461	149.556198
30692.741596	-3119.380667	1025.991211	263.393738
30692.741596	-3119.380667	1024.833984	275.702087
30692.741596	-3119.380667	1023.675781	305.575470
30692.741596	-3119.380667	1022.518555	127.600922
30692.741596	-3119.380667	1021.360352	285.276489
30692.741596	-3119.380667	1020.202148	45.353065
30692.741596	-3119.380667	1019.043945	140.081223
30692.741596	-3119.380667	1017.884766	47.757977
30692.741596	-3119.380667	1016.726563	117.304710
30692.741596	-3119.380667	1015.567383	80.482796
30692.741596	-3119.380667	1014.407227	74.878654
30692.741596	-3119.380667	1013.248047	96.277145
30692.741596	-3119.380667	1012.087891	135.634750
30692.741596	-3119.380667	1010.927734	-169.102097
30692.741596	-3119.380667	1009.767578	68.719528
30692.741596	-3119.380667	1008.606445	-25.699345
30692.741596	-3119.380667	1007.446289	3.539768
30692.741596	-3119.380667	1006.285156	286.959381
30692.741596	-3119.380667	1005.123047	-0.453708
30692.741596	-3119.380667	1003.961914	232.808548
30692.741596	-3119.380667	1002.799805	214.811447
30692.741596	-3119.380667	1001.637695	113.833710
30692.741596	-3119.380667	1000.475586	284.196198
30692.741596	-3119.380667	999.312500	-31.333921
30692.741596	-3119.380667	998.149414	-83.960266
30692.741596	-3119.380667	996.986328	100.866539
30692.741596	-3119.380667	995.823242	80.055252
30692.741596	-3119.380667	994.659180	-34.834160
30692.741596	-3119.380667	993.496094	-89.443512
30692.741596	-3119.380667	992.332031	-132.202240
30692.741596	-3119.380667	991.166992	-178.264191
30692.741596	-3119.380667	990.002930	103.842247
30692.741596	-3119.380667	988.837891	-156.705124
30692.741596	-3119.380667	987.672852	-257.779602
30692.741596	-3119.380667	986.506836	-140.073380
30692.741596	-3119.380667	985.341797	-329.401764
30692.741596	-3119.380667	984.175781	79.936279
30692.741596	-3119.380667	983.009766	-143.639511
30692.741596	-3119.380667	981.843750	-379.323975
30692.741596	-3119.380667	980.676758	-346.899231
30692.741596	-3119.380667	979.509766	-9.334229
30692.741596	-3119.380667	978.342773	-205.962433
30692.741596	-3119.380667	977.175781	-250.832199
30692.741596	-3119.380667	976.007813	-405.575470
30692.741596	-3119.380667	974.839844	-390.155121
30692.741596	-3119.380667	973.671875	-224.477020
30692.741596	-3119.380667	972.503906	-156.152008
30692.741596	-3119.380667	971.334961	-232.282822
30692.741596	-3119.380667	970.166016	-156.896774
30692.741596	-3119.380667	968.997070	-169.108704
30692.741596	-3119.380667	967.828125	-342.336121
30692.741596	-3119.380667	966.658203	-152.967041
30692.741596	-3119.380667	965.488281	-213.518951
30692.741596	-3119.380667	964.318359	37.801495
30692.741596	-3119.380667	963.148438	155.393143
30692.741596	-3119.380667	961.977539	-99.091080
30692.741596	-3119.380667	960.806641	230.300125
30692.741596	-3119.380667	959.635742	168.156952
30692.741596	-3119.380667	958.463867	184.378372
30692.741596	-3119.380667	957.292969	128.396027
30692.741596	-3119.380667	956.121094	166.954712
30692.741596	-3119.380667	954.948242	216.351593
30692.741596	-3119.380667	953.776367	297.049622
30692.741596	-3119.380667	952.603516	254.861847
30692.741596	-3119.380667	951.430664	55.391979
30692.741596	-3119.380667	950.257813	46.552425
30692.741596	-3119.380667	949.084961	1.566131
30692.741596	-3119.380667	947.911133	-94.240410
30692.741596	-3119.380667	946.737305	29.224813
30692.741596	-3119.380667	945.563477	370.764801
30692.741596	-3119.380667	944.388672	-194.387756
30692.741596	-3119.380667	943.213867	-37.052963
30692.741596	-3119.380667	942.039063	152.691315
30692.741596	-3119.380667	940.864258	-166.205460
30692.741596	-3119.380667	939.688477	206.977554
30692.741596	-3119.380667	938.513672	304.619598
30692.741596	-3119.380667	937.337891	362.937561
30692.741596	-3119.380667	936.161133	19.232357
30692.741596	-3119.380667	934.985352	169.562973
30692.741596	-3119.380667	933.808594	397.855164
30692.741596	-3119.380667	932.631836	518.124817
30692.741596	-3119.380667	931.454102	266.244995
30692.741596	-3119.380667	930.277344	232.675110
30692.741596	-3119.380667	929.099609	306.963837
30692.741596	-3119.380667	927.921875	631.509888
30692.741596	-3119.380667	926.743164	395.768311
30692.741596	-3119.380667	925.565430	355.216095
30692.741596	-3119.380667	924.386719	147.140106
30692.741596	-3119.380667	923.208008	129.564056
30692.741596	-3119.380667	922.028320	180.837402
30692.741596	-3119.380667	920.849609	138.034912
30692.741596	-3119.380667	919.669922	147.156143
30692.741596	-3119.380667	919.474609	211.424759
30692.741596	-3119.380667	918.309570	134.106781
30692.741596	-3119.380667	917.143555	253.974655
30692.741596	-3119.380667	915.977539	68.938850
30692.741596	-3119.380667	914.810547	51.260780
30692.741596	-3119.380667	913.644531	17.532887
30692.741596	-3119.380667	912.477539	187.686172
30692.741596	-3119.380667	911.310547	66.902611
30692.741596	-3119.380667	910.143555	30.877480
30692.741596	-3119.380667	908.975586	-76.102493
30692.741596	-3119.380667	907.807617	-105.232300
30692.741596	-3119.380667	906.639648	44.130600
30692.741596	-3119.380667	905.471680	-92.562675
30692.741596	-3119.380667	904.303711	10.967116
30692.741596	-3119.380667	903.134766	6.963623
30692.741596	-3119.380667	901.965820	-13.055253
30692.741596	-3119.380667	900.796875	17.217043
30692.741596	-3119.380667	899.626953	6.330741
30692.741596	-3119.380667	898.457031	102.836952
30692.741596	-3119.380667	897.287109	-157.106247
30692.741596	-3119.380667	896.117188	-85.756767
30692.741596	-3119.380667	894.947266	-34.999535
30692.741596	-3119.380667	893.776367	100.211685
30692.741596	-3119.380667	892.605469	287.857697
30692.741596	-3119.380667	891.434570	130.789886
30692.741596	-3119.380667	890.262695	-53.601818
30692.741596	-3119.380667	889.091797	86.015511
30692.741596	-3119.380667	887.919922	278.029236
30692.741596	-3119.380667	886.748047	-77.349335
30692.741596	-3119.380667	885.575195	-117.955017
30692.741596	-3119.380667	884.403320	39.750290
30692.741596	-3119.380667	883.230469	31.015135
30692.741596	-3119.380667	882.057617	-144.064407
30692.741596	-3119.380667	880.883789	-45.707996
30692.741596	-3119.380667	879.710938	186.964325
30692.741596	-3119.380667	878.537109	21.033012
30692.741596	-3119.380667	877.362305	435.716492
30692.741596	-3119.380667	876.188477	176.445541
30692.741596	-3119.380667	875.013672	-3.078402
30692.741596	-3119.380667	873.839844	145.093079
30692.741596	-3119.380667	872.664063	49.793369
30692.741596	-3119.380667	871.489258	150.104477
30692.741596	-3119.380667	870.313477	32.069462
30692.741596	-3119.380667	869.138672	225.519638
30692.741596	-3119.380667	867.962891	116.574158
30692.741596	-3119.380667	866.786133	0.843953
30692.741596	-3119.380667	865.610352	-435.220459
30692.741596	-3119.380667	864.433594	153.361313
30692.741596	-3119.380667	863.256836	-55.476696
30692.741596	-3119.380667	862.079102	394.244690
30692.741596	-3119.380667	860.902344	58.272991
30692.741596	-3119.380667	859.724609	310.279785
30692.741596	-3119.380667	858.546875	-11.955098
30692.741596	-3119.380667	857.368164	169.596207
30692.741596	-3119.380667	856.190430	6.259487
30692.741596	-3119.380667	855.011719	226.241287
30692.741596	-3119.380667	853.833008	1.704263
30692.741596	-3119.380667	852.654297	210.216354
30692.741596	-3119.380667	851.474609	153.449829
30692.741596	-3119.380667	850.294922	96.684593
30692.741596	-3119.380667	849.115234	-123.200912
30692.741596	-3119.380667	847.935547	30.714712
30692.741596	-3119.380667	846.754883	243.425919
30692.741596	-3119.380667	845.575195	206.963837
30692.741596	-3119.380667	844.393555	218.041199
30692.741596	-3119.380667	843.212891	118.182571
30692.741596	-3119.380667	842.032227	-67.646935
30692.741596	-3119.380667	840.850586	-291.880768
30692.741596	-3119.380667	839.668945	167.015015
30692.741596	-3119.380667	838.486328	-181.598190
30692.741596	-3119.380667	837.304688	304.156799
30692.741596	-3119.380667	836.122070	244.929031
30692.741596	-3119.380667	834.939453	-15.438846
30692.741596	-3119.380667	833.756836	-72.377075
30692.741596	-3119.380667	832.573242	-59.290035
30692.741596	-3119.380667	831.389648	28.291912
30692.741596	-3119.380667	830.206055	-51.293900
30692.741596	-3119.380667	829.022461	-108.305840
30692.741596	-3119.380667	827.838867	78.444984
30692.741596	-3119.380667	826.654297	-46.330742
30692.741596	-3119.380667	825.469727	158.315247
30692.741596	-3119.380667	824.284180	-115.373222
30692.741596	-3119.380667	823.099609	-107.078911
30692.741596	-3119.380667	821.914063	-101.075371
30692.741596	-3119.380667	820.728516	1.824070
30692.741596	-3119.380667	819.542969	-111.728836
30692.741596	-3119.380667	818.356445	2.325946
30692.741596	-3119.380667	817.169922	-183.348267
30692.741596	-3119.380667	815.983398	-195.546982
30692.741596	-3119.380667	814.796875	-88.421211
30692.741596	-3119.380667	813.609375	97.428795
30692.741596	-3119.380667	812.422852	103.065002
30692.741596	-3119.380667	811.235352	32.139000
30692.741596	-3119.380667	810.046875	33.210621
30692.741596	-3119.380667	808.859375	43.230717
30692.741596	-3119.380667	807.670898	26.217844
30692.741596	-3119.380667	806.482422	-40.308918
30692.741596	-3119.380667	805.293945	-169.807205
30692.741596	-3119.380667	804.104492	-29.549480
30692.741596	-3119.380667	802.915039	-62.448185
30692.741596	-3119.380667	801.725586	21.458960
30692.741596	-3119.380667	800.536133	188.401810
30692.741596	-3119.380667	799.345703	162.076477
30692.741596	-3119.380667	798.155273	149.183990
30692.741596	-3119.380667	796.964844	-0.702068
30692.741596	-3119.380667	795.774414	-152.820587
30692.741596	-3119.380667	794.583008	-257.799805
30692.741596	-3119.380667	793.392578	151.009415
30692.741596	-3119.380667	792.200195	449.686310
30692.741596	-3119.380667	791.008789	158.341858
30692.741596	-3119.380667	789.816406	86.811722
30692.741596	-3119.380667	788.625000	24.216156
30692.741596	-3119.380667	787.432617	84.871124
30692.741596	-3119.380667	786.239258	-125.698723
30692.741596	-3119.380667	785.046875	40.148628
30692.741596	-3119.380667	783.853516	33.394886
30692.741596	-3119.380667	782.660156	165.435013
30692.741596	-3119.380667	781.465820	-54.160530
30692.741596	-3119.380667	780.272461	261.285858
30692.741596	-3119.380667	779.078125	-121.740639
30692.741596	-3119.380667	777.883789	-144.409256
30692.741596	-3119.380667	776.688477	289.252625
30692.741596	-3119.380667	775.494141	-98.198105
30692.741596	-3119.380667	774.298828	-170.237534
30692.741596	-3119.380667	773.103516	242.850052
30692.741596	-3119.380667	771.907227	-12.650407
30692.741596	-3119.380667	770.711914	266.013733
30692.741596	-3119.380667	769.515625	231.688278
30692.741596	-3119.380667	768.318359	355.923279
30692.741596	-3119.380667	767.122070	283.493225
30692.741596	-3119.380667	765.924805	121.710419
30692.741596	-3119.380667	764.727539	76.017509
30692.741596	-3119.380667	763.530273	101.703079
30692.741596	-3119.380667	762.333008	67.053741
30692.741596	-3119.380667	761.134766	143.910645
30692.741596	-3119.380667	759.936523	191.667892
30692.741596	-3119.380667	758.738281	20.776199
30692.741596	-3119.380667	757.540039	184.342529
30692.741596	-3119.380667	756.340820	156.057434
30692.741596	-3119.380667	755.141602	281.498901
30692.741596	-3119.380667	753.942383	190.668427
30692.741596	-3119.380667	752.742188	282.490814
30692.741596	-3119.380667	751.541992	147.005188
30692.741596	-3119.380667	750.341797	383.402527
30692.741596	-3119.380667	749.141602	49.649254
30692.741596	-3119.380667	747.941406	243.526245
30692.741596	-3119.380667	746.740234	61.129898
30692.741596	-3119.380667	745.539063	-54.510078
30692.741596	-3119.380667	744.337891	23.361837
30692.741596	-3119.380667	743.135742	27.732515
30692.741596	-3119.380667	741.933594	-43.581005
30692.741596	-3119.380667	740.731445	-212.764572
30692.741596	-3119.380667	739.529297	115.945175
30692.741596	-3119.380667	738.326172	135.540787
30692.741596	-3119.380667	737.124023	152.827316
30692.741596	-3119.380667	735.919922	-3.232855
30692.741596	-3119.380667	734.716797	231.569260
30692.741596	-3119.380667	733.513672	153.112930
30692.741596	-3119.380667	732.309570	214.470490
30692.741596	-3119.380667	731.105469	-17.253210
30692.741596	-3119.380667	729.900391	399.006287
30692.741596	-3119.380667	728.696289	54.033520
30692.741596	-3119.380667	727.491211	-173.311966
30692.741596	-3119.380667	726.286133	-161.135971
30692.741596	-3119.380667	725.080078	-157.913300
30692.741596	-3119.380667	723.874023	168.871521
30692.741596	-3119.380667	722.668945	258.294769
30692.741596	-3119.380667	721.461914	-88.909874
30692.741596	-3119.380667	720.255859	-77.167610
30692.741596	-3119.380667	719.048828	-50.004490
30692.741596	-3119.380667	717.841797	23.568022
30692.741596	-3119.380667	716.634766	-237.278198
30692.741596	-3119.380667	715.427734	-88.601746
30692.741596	-3119.380667	714.219727	-154.729416
30692.741596	-3119.380667	713.011719	-125.771957
30692.741596	-3119.380667	711.803711	-200.877731
30692.741596	-3119.380667	710.594727	-130.063141
30692.741596	-3119.380667	709.385742	177.235138
30692.741596	-3119.380667	708.176758	31.126616
30692.741596	-3119.380667	706.967773	22.035263
30692.741596	-3119.380667	705.758789	-60.056335
30692.741596	-3119.380667	704.548828	-155.449966
30692.741596	-3119.380667	703.338867	122.410309
30692.741596	-3119.380667	702.127930	6.980430
30692.741596	-3119.380667	700.917969	4.122589
30692.741596	-3119.380667	699.707031	-38.546513
30692.741596	-3119.380667	698.496094	165.904404
30692.741596	-3119.380667	697.285156	-247.641525
30692.741596	-3119.380667	696.073242	-74.277428
30692.741596	-3119.380667	694.861328	-33.401836
30692.741596	-3119.380667	693.649414	-87.442116
30692.741596	-3119.380667	692.436523	28.219431
30692.741596	-3119.380667	691.224609	-215.532333
30692.741596	-3119.380667	690.011719	76.252426
30692.741596	-3119.380667	688.798828	39.544750
30692.741596	-3119.380667	687.584961	9.385995
30692.741596	-3119.380667	686.372070	-75.896988
30692.741596	-3119.380667	685.158203	-70.942657
30692.741596	-3119.380667	683.943359	101.241547
30692.741596	-3119.380667	682.729492	77.393036
30692.741596	-3119.380667	681.514648	275.730499
30692.741596	-3119.380667	680.299805	183.502884
30692.741596	-3119.380667	679.084961	381.585815
30692.741596	-3119.380667	677.869141	47.323135
30692.741596	-3119.380667	676.653320	324.356598
30692.741596	-3119.380667	675.437500	504.479828
30692.741596	-3119.380667	674.221680	273.480743
30692.741596	-3119.380667	673.004883	325.954895
30692.741596	-3119.380667	671.789063	275.088257
30692.741596	-3119.380667	670.571289	193.423935
30692.741596	-3119.380667	669.354492	346.684082
30692.741596	-3119.380667	668.136719	-9.524927
30692.741596	-3119.380667	666.919922	477.213806
30692.741596	-3119.380667	665.701172	325.079620
30692.741596	-3119.380667	664.483398	379.185944
30692.741596	-3119.380667	663.264648	376.170135
30692.741596	-3119.380667	662.045898	252.471771
30692.741596	-3119.380667	660.827148	32.287113
30692.741596	-3119.380667	659.608398	186.996063
30692.741596	-3119.380667	658.388672	52.272068
30692.741596	-3119.380667	657.168945	279.101837
30692.741596	-3119.380667	655.949219	205.638824
30692.741596	-3119.380667	654.728516	340.228210
30692.741596	-3119.380667	653.507813	365.210510
30692.741596	-3119.380667	652.287109	79.233322
30692.741596	-3119.380667	651.066406	233.297791
30692.741596	-3119.380667	649.844727	135.569382
30692.741596	-3119.380667	648.623047	230.373215
30692.741596	-3119.380667	647.401367	163.208557
30692.741596	-3119.380667	646.179688	238.184052
30692.741596	-3119.380667	644.957031	275.904572
30692.741596	-3119.380667	643.734375	324.492340
30692.741596	-3119.380667	642.511719	571.911560
30692.741596	-3119.380667	641.289063	382.134186
30692.741596	-3119.380667	640.065430	458.935059
30692.741596	-3119.380667	638.841797	647.061584
30692.741596	-3119.380667	637.618164	782.653748
30692.741596	-3119.380667	636.393555	765.312561
30692.741596	-3119.380667	635.168945	739.207397
30692.741596	-3119.380667	633.944336	525.384644
30692.741596	-3119.380667	632.719727	230.884811
30692.741596	-3119.380667	631.494141	322.605652
30692.741596	-3119.380667	630.269531	564.750305
30692.741596	-3119.380667	629.042969	353.192505
30692.741596	-3119.380667	627.817383	132.973663
30692.741596	-3119.380667	626.590820	156.946304
30692.741596	-3119.380667	625.365234	37.054016
30692.741596	-3119.380667	624.137695	407.406738
30692.741596	-3119.380667	622.911133	259.145752
30692.741596	-3119.380667	621.683594	152.303223
30692.741596	-3119.380667	620.456055	291.529572
30692.741596	-3119.380667	619.228516	104.140854
30692.741596	-3119.380667	618.000977	123.580170
30692.741596	-3119.380667	616.772461	-192.110245
30692.741596	-3119.380667	615.543945	-63.871639
30692.741596	-3119.380667	614.314453	-11.827785
30692.741596	-3119.380667	613.085938	305.488770
30692.741596	-3119.380667	611.856445	216.094467
30692.741596	-3119.380667	610.626953	115.864517
30692.741596	-3119.380667	609.397461	9.152224
30692.741596	-3119.380667	608.166992	276.195190
30692.741596	-3119.380667	606.936523	-204.148880
30692.741596	-3119.380667	605.706055	67.170578
30692.741596	-3119.380667	604.474609	32.209568
30692.741596	-3119.380667	603.244141	-128.644455
30692.741596	-3119.380667	602.012695	-128.810532
30692.741596	-3119.380667	600.780273	-20.474371
30692.741596	-3119.380667	599.548828	-183.359879
30692.741596	-3119.380667	598.316406	-7.794234
30692.741596	-3119.380667	597.083984	-7.949057
30692.741596	-3119.380667	595.851563	-259.590118
30692.741596	-3119.380667	594.618164	-205.468002
30692.741596	-3119.380667	593.384766	-402.748444
30692.741596	-3119.380667	592.151367	236.445358
30692.741596	-3119.380667	590.917969	108.521385
30692.741596	-3119.380667	589.683594	184.260452
30692.741596	-3119.380667	588.449219	-71.309967
30692.741596	-3119.380667	587.214844	233.970108
30692.741596	-3119.380667	585.979492	-10.622394
30692.741596	-3119.380667	584.745117	-172.848938
30692.741596	-3119.380667	583.509766	143.166809
30692.741596	-3119.380667	582.273438	-150.905365
30692.741596	-3119.380667	581.038086	-209.088852
30692.741596	-3119.380667	579.801758	-236.940781
30692.741596	-3119.380667	578.565430	40.056309
30692.741596	-3119.380667	577.329102	198.109161
30692.741596	-3119.380667	576.091797	-199.180939
30692.741596	-3119.380667	574.854492	-64.822075
30692.741596	-3119.380667	573.617188	-8.226699
30692.741596	-3119.380667	572.378906	-256.082520
30692.741596	-3119.380667	571.141602	5.723096
30692.741596	-3119.380667	569.903320	-45.509136
30692.741596	-3119.380667	568.664063	192.505646
30692.741596	-3119.380667	567.425781	117.629707
30692.741596	-3119.380667	566.186523	-250.521576
30692.741596	-3119.380667	564.947266	-18.917755
30692.741596	-3119.380667	563.708008	115.618332
30692.741596	-3119.380667	562.467773	88.477242
30692.741596	-3119.380667	561.227539	-115.318634
30692.741596	-3119.380667	559.987305	10.718310
30692.741596	-3119.380667	558.747070	153.997528
30692.741596	-3119.380667	557.505859	43.126434
30692.741596	-3119.380667	556.264648	180.009857
30692.741596	-3119.380667	555.023438	157.586395
30692.741596	-3119.380667	553.781250	143.850220
30692.741596	-3119.380667	552.539063	100.061325
30692.741596	-3119.380667	551.296875	64.968727
30692.741596	-3119.380667	550.054688	-103.403229
30692.741596	-3119.380667	548.811523	244.519714
30692.741596	-3119.380667	547.569336	117.181458
30692.741596	-3119.380667	546.325195	-89.567970
30692.741596	-3119.380667	545.082031	-104.870148
30692.741596	-3119.380667	543.837891	157.106232
30692.741596	-3119.380667	542.593750	-6.325099
30692.741596	-3119.380667	541.349609	-105.171463
30692.741596	-3119.380667	540.105469	143.983551
30692.741596	-3119.380667	538.860352	-42.721382
30692.741596	-3119.380667	537.615234	-91.892975
30692.741596	-3119.380667	536.369141	-29.371111
30692.741596	-3119.380667	535.124023	119.026413
30692.741596	-3119.380667	533.877930	-77.923401
30692.741596	-3119.380667	532.631836	267.886993
30692.741596	-3119.380667	531.384766	73.291473
30692.741596	-3119.380667	530.138672	155.401047
30692.741596	-3119.380667	528.891602	-152.522781
30692.741596	-3119.380667	527.643555	-93.816177
30692.741596	-3119.380667	526.396484	-193.589539
30692.741596	-3119.380667	525.148438	302.203918
30692.741596	-3119.380667	523.900391	-150.796219
30692.741596	-3119.380667	522.652344	81.586922
30692.741596	-3119.380667	521.403320	-176.233078
30692.741596	-3119.380667	520.154297	182.466858
30692.741596	-3119.380667	518.905273	198.749954
30692.741596	-3119.380667	517.656250	93.167587
30692.741596	-3119.380667	516.406250	81.801056
30692.741596	-3119.380667	515.156250	260.810211
30692.741596	-3119.380667	513.906250	215.343674
30692.741596	-3119.380667	512.655273	157.138763
30692.741596	-3119.380667	511.404297	-123.211655
30692.741596	-3119.380667	510.153320	107.216011
30692.741596	-3119.380667	508.902344	410.224121
30692.741596	-3119.380667	507.650391	273.252716
30692.741596	-3119.380667	506.398438	339.218079
30692.741596	-3119.380667	505.146484	556.760010
30692.741596	-3119.380667	503.893555	405.058380
30692.741596	-3119.380667	502.641602	396.420135
30692.741596	-3119.380667	501.388672	556.346497
30692.741596	-3119.380667	500.134766	635.201233
30692.741596	-3119.380667	498.881836	750.302246
30692.741596	-3119.380667	497.627930	784.378906
30692.741596	-3119.380667	496.374023	748.130920
30692.741596	-3119.380667	495.119141	549.977356
30692.741596	-3119.380667	493.865234	820.616028
30692.741596	-3119.380667	492.610352	937.797180
30692.741596	-3119.380667	491.355469	750.416931
30692.741596	-3119.380667	490.099609	993.188354
30692.741596	-3119.380667	488.843750	1005.966187
30692.741596	-3119.380667	487.587891	878.274170
30692.741596	-3119.380667	486.332031	946.370422
30692.741596	-3119.380667	485.075195	1131.416260
30692.741596	-3119.380667	483.818359	1161.103394
30692.741596	-3119.380667	482.561523	1129.083618
30692.741596	-3119.380667	481.304688	1122.549438
30692.741596	-3119.380667	480.046875	1226.493408
30692.741596	-3119.380667	478.789063	1196.469360
30692.741596	-3119.380667	477.531250	1166.399536
30692.741596	-3119.380667	476.272461	1338.056885
30692.741596	-3119.380667	475.013672	1532.920288
30692.741596	-3119.380667	473.754883	1523.801880
30692.741596	-3119.380667	472.496094	1338.415771
30692.741596	-3119.380667	471.236328	1632.619141
30692.741596	-3119.380667	469.976563	1807.769287
30692.741596	-3119.380667	468.716797	1764.233521
30692.741596	-3119.380667	467.456055	1705.743042
30692.741596	-3119.380667	466.196289	1513.554077
30692.741596	-3119.380667	464.935547	1393.376099
30692.741596	-3119.380667	463.673828	1660.940063
30692.741596	-3119.380667	462.413086	1841.338257
30692.741596	-3119.380667	461.151367	1985.459717
30692.741596	-3119.380667	459.889648	1729.011353
30692.741596	-3119.380667	458.626953	1754.105713
30692.741596	-3119.380667	457.364258	1982.212769
30692.741596	-3119.380667	456.101563	1689.284790
30692.741596	-3119.380667	454.838867	1927.406006
30692.741596	-3119.380667	453.575195	1765.282715
30692.741596	-3119.380667	452.312500	1666.416504
30692.741596	-3119.380667	451.047852	1787.244141
30692.741596	-3119.380667	449.784180	1816.796021
30692.741596	-3119.380667	448.519531	1856.582764
30692.741596	-3119.380667	447.254883	1781.889404
30692.741596	-3119.380667	445.990234	1761.815063
30692.741596	-3119.380667	444.725586	1988.548584
30692.741596	-3119.380667	443.459961	2149.319580
30692.741596	-3119.380667	442.194336	2149.133301
30692.741596	-3119.380667	440.927734	1962.735474
30692.741596	-3119.380667	439.662109	2170.689453
30692.741596	-3119.380667	438.395508	2067.878906
30692.741596	-3119.380667	437.127930	2082.777588
30692.741596	-3119.380667	435.861328	2152.019531
30692.741596	-3119.380667	434.593750	1936.004639
30692.741596	-3119.380667	433.326172	1829.181519
30692.741596	-3119.380667	432.058594	2078.093750
30692.741596	-3119.380667	430.790039	1965.915405
30692.741596	-3119.380667	429.521484	2318.843506
30692.741596	-3119.380667	428.252930	1961.056396
30692.741596	-3119.380667	426.984375	2192.497559
30692.741596	-3119.380667	425.714844	2122.032471
30692.741596	-3119.380667	424.445313	2265.629395
30692.741596	-3119.380667	423.174805	2021.143188
30692.741596	-3119.380667	421.905273	2215.822266
30692.741596	-3119.380667	420.634766	2108.767822
30692.741596	-3119.380667	419.364258	2106.121338
30692.741596	-3119.380667	418.092773	2180.434814
30692.741596	-3119.380667	416.822266	2373.706299
30692.741596	-3119.380667	415.550781	2385.203857
30692.741596	-3119.380667	414.278320	2206.612549
30692.741596	-3119.380667	413.006836	2420.069824
30692.741596	-3119.380667	411.734375	2294.218018
30692.741596	-3119.380667	410.461914	2276.612549
30692.741596	-3119.380667	409.188477	2150.852051
30692.741596	-3119.380667	407.916016	2265.499268
30692.741596	-3119.380667	406.642578	2083.015381
30692.741596	-3119.380667	405.368164	2396.754150
30692.741596	-3119.380667	404.094727	2318.965088
30692.741596	-3119.380667	402.820313	2634.288818
30692.741596	-3119.380667	401.545898	2417.653320
30692.741596	-3119.380667	400.270508	2463.953613
30692.741596	-3119.380667	398.996094	2446.027588
30692.741596	-3119.380667	397.720703	2430.890625
30692.741596	-3119.380667	396.444336	2286.497559
30692.741596	-3119.380667	395.168945	2209.854248
30692.741596	-3119.380667	393.892578	2309.720703
30692.741596	-3119.380667	392.616211	2594.343994
30692.741596	-3119.380667	391.339844	2295.280518
30692.741596	-3119.380667	390.062500	2220.709473
30692.741596	-3119.380667	388.785156	2092.167236
30692.741596	-3119.380667	387.507813	1851.065674
30692.741596	-3119.380667	386.229492	1880.154541
30692.741596	-3119.380667	384.951172	2350.716309
30692.741596	-3119.380667	383.672852	2242.163086
30692.741596	-3119.380667	382.394531	1937.330566
30692.741596	-3119.380667	381.115234	2186.482666
30692.741596	-3119.380667	379.835938	2176.499023
30692.741596	-3119.380667	378.556641	1907.496948
30692.741596	-3119.380667	377.277344	1951.812012
30692.741596	-3119.380667	375.997070	2156.715332
30692.741596	-3119.380667	374.716797	1881.233154
30692.741596	-3119.380667	373.435547	1937.421631
30692.741596	-3119.380667	372.155273	2041.337891
30692.741596	-3119.380667	370.874023	1821.447998
30692.741596	-3119.380667	369.591797	1797.233398
30692.741596	-3119.380667	368.310547	2006.153442
30692.741596	-3119.380667	367.028320	2058.016846
30692.741596	-3119.380667	365.746094	1871.637573
30692.741596	-3119.380667	364.463867	2068.090332
30692.741596	-3119.380667	363.180664	1703.209473
30692.741596	-3119.380667	361.897461	1271.016357
30692.741596	-3119.380667	360.614258	1558.671875
30692.741596	-3119.380667	359.330078	1657.785156
30692.741596	-3119.380667	358.045898	1503.948853
30692.741596	-3119.380667	356.761719	1299.124634
30692.741596	-3119.380667	355.477539	1501.022827
30692.741596	-3119.380667	354.192383	1254.241577
30692.741596	-3119.380667	352.907227	1128.934570
30692.741596	-3119.380667	351.622070	1187.323730
30692.741596	-3119.380667	350.336914	1385.551758
30692.741596	-3119.380667	349.050781	1390.804199
30692.741596	-3119.380667	347.764648	1211.522827
30692.741596	-3119.380667	346.477539	918.280823
30692.741596	-3119.380667	345.191406	1200.850220
30692.741596	-3119.380667	343.904297	1076.323608
30692.741596	-3119.380667	342.616211	1078.442871
30692.741596	-3119.380667	341.329102	943.636230
30692.741596	-3119.380667	340.041016	906.180298
30692.741596	-3119.380667	338.752930	885.112610
30692.741596	-3119.380667	337.463867	1133.270996
30692.741596	-3119.380667	336.175781	1177.780884
30692.741596	-3119.380667	334.886719	736.435120
30692.741596	-3119.380667	333.596680	615.834839
30692.741596	-3119.380667	332.307617	600.388977
30692.741596	-3119.380667	331.017578	360.192413
30692.741596	-3119.380667	329.727539	427.828186
30692.741596	-3119.380667	328.436523	498.374420
30692.741596	-3119.380667	327.146484	406.359161
30692.741596	-3119.380667	325.855469	39.677647
30692.741596	-3119.380667	324.563477	489.183014
30692.741596	-3119.380667	323.272461	266.666382
30692.741596	-3119.380667	321.980469	30.039759
30692.741596	-3119.380667	320.688477	112.381866
30692.741596	-3119.380667	319.395508	116.121132
30692.741596	-3119.380667	318.103516	155.257645
30692.741596	-3119.380667	316.810547	-262.688904
30692.741596	-3119.380667	315.516602	59.033844
30692.741596	-3119.380667	314.223633	-74.073418
30692.741596	-3119.380667	312.929688	91.767639
30692.741596	-3119.380667	311.635742	-85.889130
30692.741596	-3119.380667	310.340820	-72.370132
30692.741596	-3119.380667	309.045898	-82.430305
30692.741596	-3119.380667	307.750977	-147.151260
30692.741596	-3119.380667	306.456055	-163.468201
30692.741596	-3119.380667	305.160156	-210.182846
30692.741596	-3119.380667	303.865234	-171.450592
30692.741596	-3119.380667	302.568359	1.289504
30692.741596	-3119.380667	301.272461	139.467987
30692.741596	-3119.380667	299.975586	106.410057
30692.741596	-3119.380667	298.678711	390.730835
