#X		#Y		#Wave		#Intensity
281.252660	6175.261667	1999.946289	-92.602333
281.252660	6175.261667	1998.981445	61.131962
281.252660	6175.261667	1998.017578	-2.234910
281.252660	6175.261667	1997.052734	-50.924835
281.252660	6175.261667	1996.088867	-55.216270
281.252660	6175.261667	1995.124023	-91.912292
281.252660	6175.261667	1994.159180	17.330328
281.252660	6175.261667	1993.193359	91.672432
281.252660	6175.261667	1992.228516	-47.127560
281.252660	6175.261667	1991.262695	-27.634535
281.252660	6175.261667	1990.296875	33.744644
281.252660	6175.261667	1989.331055	-78.284439
281.252660	6175.261667	1988.365234	111.384583
281.252660	6175.261667	1987.398438	50.996304
281.252660	6175.261667	1986.432617	15.198878
281.252660	6175.261667	1985.465820	65.804100
281.252660	6175.261667	1984.499023	-41.976765
281.252660	6175.261667	1983.532227	-46.051018
281.252660	6175.261667	1982.565430	75.767670
281.252660	6175.261667	1981.597656	180.112076
281.252660	6175.261667	1980.629883	116.305550
281.252660	6175.261667	1979.662109	-38.989300
281.252660	6175.261667	1978.694336	8.141042
281.252660	6175.261667	1977.726563	47.728165
281.252660	6175.261667	1976.758789	-88.075829
281.252660	6175.261667	1975.790039	74.691147
281.252660	6175.261667	1974.821289	-61.283569
281.252660	6175.261667	1973.852539	-41.883282
281.252660	6175.261667	1972.883789	-32.456226
281.252660	6175.261667	1971.915039	-82.316551
281.252660	6175.261667	1970.945313	151.308472
281.252660	6175.261667	1969.975586	143.162430
281.252660	6175.261667	1969.005859	26.482220
281.252660	6175.261667	1968.036133	-13.841040
281.252660	6175.261667	1967.066406	56.647160
281.252660	6175.261667	1966.096680	72.838745
281.252660	6175.261667	1965.125977	239.193481
281.252660	6175.261667	1964.155273	55.740177
281.252660	6175.261667	1963.184570	64.329056
281.252660	6175.261667	1962.213867	23.620302
281.252660	6175.261667	1961.242188	59.161526
281.252660	6175.261667	1960.271484	25.732782
281.252660	6175.261667	1959.299805	53.767498
281.252660	6175.261667	1958.328125	98.958038
281.252660	6175.261667	1957.356445	-18.232529
281.252660	6175.261667	1956.384766	39.152470
281.252660	6175.261667	1955.412109	0.593033
281.252660	6175.261667	1954.439453	38.202377
281.252660	6175.261667	1953.467773	154.398499
281.252660	6175.261667	1952.495117	-39.073288
281.252660	6175.261667	1951.521484	27.888260
281.252660	6175.261667	1950.548828	121.809578
281.252660	6175.261667	1949.575195	105.159691
281.252660	6175.261667	1948.601563	135.135681
281.252660	6175.261667	1947.627930	-114.767784
281.252660	6175.261667	1946.654297	94.349220
281.252660	6175.261667	1945.680664	48.166309
281.252660	6175.261667	1944.706055	176.168381
281.252660	6175.261667	1943.732422	137.305176
281.252660	6175.261667	1942.757813	71.460991
281.252660	6175.261667	1941.783203	334.194031
281.252660	6175.261667	1940.807617	37.859997
281.252660	6175.261667	1939.833008	48.011097
281.252660	6175.261667	1938.857422	33.639229
281.252660	6175.261667	1937.881836	-44.441696
281.252660	6175.261667	1936.906250	-2.465591
281.252660	6175.261667	1935.930664	-33.990154
281.252660	6175.261667	1934.955078	162.230576
281.252660	6175.261667	1933.978516	49.879570
281.252660	6175.261667	1933.001953	74.649933
281.252660	6175.261667	1932.025391	-133.098740
281.252660	6175.261667	1931.048828	-12.874061
281.252660	6175.261667	1930.072266	92.626350
281.252660	6175.261667	1929.094727	88.014420
281.252660	6175.261667	1928.118164	61.396626
281.252660	6175.261667	1927.140625	-50.789482
281.252660	6175.261667	1926.163086	-6.468257
281.252660	6175.261667	1925.184570	76.948654
281.252660	6175.261667	1924.207031	18.601210
281.252660	6175.261667	1923.228516	-95.915421
281.252660	6175.261667	1922.250000	75.435646
281.252660	6175.261667	1921.271484	92.858795
281.252660	6175.261667	1920.292969	-89.957741
281.252660	6175.261667	1919.314453	-62.725689
281.252660	6175.261667	1918.334961	-55.022888
281.252660	6175.261667	1917.355469	21.025711
281.252660	6175.261667	1916.375977	50.694626
281.252660	6175.261667	1915.396484	-24.542446
281.252660	6175.261667	1914.416992	-21.682533
281.252660	6175.261667	1913.436523	-28.566280
281.252660	6175.261667	1912.457031	130.373337
281.252660	6175.261667	1911.476563	60.107330
281.252660	6175.261667	1910.496094	-90.553032
281.252660	6175.261667	1909.515625	-80.302696
281.252660	6175.261667	1908.534180	-40.802689
281.252660	6175.261667	1907.552734	-59.767742
281.252660	6175.261667	1906.572266	82.041405
281.252660	6175.261667	1905.590820	-53.793877
281.252660	6175.261667	1904.608398	-118.956390
281.252660	6175.261667	1903.626953	32.570053
281.252660	6175.261667	1902.644531	79.403488
281.252660	6175.261667	1901.663086	-216.861404
281.252660	6175.261667	1900.680664	107.382683
281.252660	6175.261667	1899.698242	-42.797581
281.252660	6175.261667	1898.714844	-95.626297
281.252660	6175.261667	1897.732422	-68.177956
281.252660	6175.261667	1896.749023	-13.980446
281.252660	6175.261667	1895.765625	40.214367
281.252660	6175.261667	1894.782227	94.406494
281.252660	6175.261667	1893.798828	117.010460
281.252660	6175.261667	1892.814453	47.311939
281.252660	6175.261667	1891.831055	123.385010
281.252660	6175.261667	1890.846680	80.458237
281.252660	6175.261667	1889.862305	127.396713
281.252660	6175.261667	1888.877930	-107.245476
281.252660	6175.261667	1887.892578	102.351509
281.252660	6175.261667	1886.908203	-15.691139
281.252660	6175.261667	1885.922852	50.707756
281.252660	6175.261667	1884.937500	-30.863737
281.252660	6175.261667	1883.952148	54.947708
281.252660	6175.261667	1882.965820	-53.232407
281.252660	6175.261667	1881.980469	-81.354919
281.252660	6175.261667	1880.994141	-177.317551
281.252660	6175.261667	1880.007813	-26.048523
281.252660	6175.261667	1879.021484	45.224377
281.252660	6175.261667	1878.035156	-123.333603
281.252660	6175.261667	1877.047852	54.528053
281.252660	6175.261667	1876.061523	-14.656901
281.252660	6175.261667	1875.074219	51.778366
281.252660	6175.261667	1874.086914	81.893280
281.252660	6175.261667	1873.098633	-6.576778
281.252660	6175.261667	1872.111328	-58.704170
281.252660	6175.261667	1871.123047	-91.445038
281.252660	6175.261667	1870.135742	-27.409416
281.252660	6175.261667	1869.147461	-77.047073
281.252660	6175.261667	1868.158203	98.209038
281.252660	6175.261667	1867.169922	-173.813248
281.252660	6175.261667	1866.180664	66.676590
281.252660	6175.261667	1865.192383	-21.559578
281.252660	6175.261667	1864.203125	-34.854740
281.252660	6175.261667	1863.213867	-139.928040
281.252660	6175.261667	1862.223633	-17.926399
281.252660	6175.261667	1861.234375	9.864585
281.252660	6175.261667	1860.244141	187.338043
281.252660	6175.261667	1859.253906	9.923701
281.252660	6175.261667	1858.263672	-61.228527
281.252660	6175.261667	1857.273438	-105.805138
281.252660	6175.261667	1856.282227	6.451268
281.252660	6175.261667	1855.291992	159.675842
281.252660	6175.261667	1854.300781	-10.297774
281.252660	6175.261667	1853.309570	29.563063
281.252660	6175.261667	1852.317383	-22.190777
281.252660	6175.261667	1851.326172	3.205673
281.252660	6175.261667	1850.333984	-0.320179
281.252660	6175.261667	1849.342773	-23.115696
281.252660	6175.261667	1848.350586	96.221153
281.252660	6175.261667	1847.357422	42.113209
281.252660	6175.261667	1846.365234	26.554390
281.252660	6175.261667	1845.372070	30.262161
281.252660	6175.261667	1844.379883	72.481895
281.252660	6175.261667	1843.386719	-32.113377
281.252660	6175.261667	1842.393555	-13.958354
281.252660	6175.261667	1841.399414	4.189222
281.252660	6175.261667	1840.406250	-35.395504
281.252660	6175.261667	1839.412109	52.484428
281.252660	6175.261667	1838.417969	-68.844467
281.252660	6175.261667	1837.423828	86.311630
281.252660	6175.261667	1836.429688	29.907755
281.252660	6175.261667	1835.434570	-31.284544
281.252660	6175.261667	1834.440430	73.313606
281.252660	6175.261667	1833.445313	76.982147
281.252660	6175.261667	1832.450195	83.045647
281.252660	6175.261667	1831.454102	38.677498
281.252660	6175.261667	1830.458984	119.154854
281.252660	6175.261667	1829.462891	21.978800
281.252660	6175.261667	1828.466797	52.019348
281.252660	6175.261667	1827.470703	144.422958
281.252660	6175.261667	1826.474609	28.082184
281.252660	6175.261667	1825.478516	55.681076
281.252660	6175.261667	1824.481445	66.474525
281.252660	6175.261667	1823.484375	-45.018982
281.252660	6175.261667	1822.487305	133.562363
281.252660	6175.261667	1821.490234	-71.390846
281.252660	6175.261667	1820.493164	-86.982124
281.252660	6175.261667	1819.495117	72.306068
281.252660	6175.261667	1818.498047	30.321423
281.252660	6175.261667	1817.500000	38.629784
281.252660	6175.261667	1816.500977	-48.852383
281.252660	6175.261667	1815.502930	55.196342
281.252660	6175.261667	1814.504883	-44.251438
281.252660	6175.261667	1813.505859	-4.883318
281.252660	6175.261667	1812.506836	137.333511
281.252660	6175.261667	1811.507813	1.998677
281.252660	6175.261667	1810.508789	-44.811138
281.252660	6175.261667	1809.508789	97.283318
281.252660	6175.261667	1808.508789	36.094227
281.252660	6175.261667	1807.508789	113.546913
281.252660	6175.261667	1806.508789	23.664377
281.252660	6175.261667	1805.508789	-18.416138
281.252660	6175.261667	1804.508789	-163.222900
281.252660	6175.261667	1803.507813	200.748749
281.252660	6175.261667	1802.506836	89.347260
281.252660	6175.261667	1801.505859	104.508240
281.252660	6175.261667	1800.504883	76.674637
281.252660	6175.261667	1799.502930	46.442841
281.252660	6175.261667	1798.501953	145.056320
281.252660	6175.261667	1797.500000	-11.665780
281.252660	6175.261667	1796.498047	-101.563316
281.252660	6175.261667	1795.496094	16.032753
281.252660	6175.261667	1794.493164	11.956040
281.252660	6175.261667	1793.491211	50.768612
281.252660	6175.261667	1792.488281	-15.332625
281.252660	6175.261667	1791.485352	-0.409580
281.252660	6175.261667	1790.482422	24.012976
281.252660	6175.261667	1789.478516	43.636246
281.252660	6175.261667	1788.475586	32.264748
281.252660	6175.261667	1787.471680	-17.229034
281.252660	6175.261667	1786.467773	-9.591434
281.252660	6175.261667	1785.463867	-32.928246
281.252660	6175.261667	1784.459961	179.326126
281.252660	6175.261667	1783.455078	-84.416283
281.252660	6175.261667	1782.450195	58.720390
281.252660	6175.261667	1781.445313	-2.779293
281.252660	6175.261667	1780.440430	-23.857033
281.252660	6175.261667	1779.435547	-85.374931
281.252660	6175.261667	1778.429688	5.240067
281.252660	6175.261667	1777.424805	79.154945
281.252660	6175.261667	1776.418945	95.980942
281.252660	6175.261667	1775.413086	207.803131
281.252660	6175.261667	1774.406250	103.392746
281.252660	6175.261667	1773.400391	72.614761
281.252660	6175.261667	1772.393555	82.183243
281.252660	6175.261667	1771.386719	236.532532
281.252660	6175.261667	1770.379883	60.864578
281.252660	6175.261667	1769.373047	6.261168
281.252660	6175.261667	1768.365234	141.460190
281.252660	6175.261667	1767.358398	245.737671
281.252660	6175.261667	1766.350586	81.931885
281.252660	6175.261667	1765.342773	145.802567
281.252660	6175.261667	1764.334961	285.484833
281.252660	6175.261667	1763.326172	157.221771
281.252660	6175.261667	1762.318359	194.874252
281.252660	6175.261667	1761.309570	154.283188
281.252660	6175.261667	1760.300781	56.816925
281.252660	6175.261667	1759.291016	167.791260
281.252660	6175.261667	1758.282227	311.845154
281.252660	6175.261667	1757.272461	-95.869164
281.252660	6175.261667	1756.262695	74.150574
281.252660	6175.261667	1755.252930	-56.514183
281.252660	6175.261667	1754.243164	6.878639
281.252660	6175.261667	1753.233398	-100.132484
281.252660	6175.261667	1752.222656	-15.537118
281.252660	6175.261667	1751.211914	64.261482
281.252660	6175.261667	1750.201172	11.579639
281.252660	6175.261667	1749.190430	6.165330
281.252660	6175.261667	1748.179688	133.082947
281.252660	6175.261667	1747.167969	89.764183
281.252660	6175.261667	1746.156250	-38.632500
281.252660	6175.261667	1745.144531	111.737587
281.252660	6175.261667	1744.132813	63.618546
281.252660	6175.261667	1743.121094	112.300392
281.252660	6175.261667	1742.108398	-150.720367
281.252660	6175.261667	1741.095703	-85.565338
281.252660	6175.261667	1740.083008	40.890961
281.252660	6175.261667	1739.070313	176.702240
281.252660	6175.261667	1738.057617	29.326994
281.252660	6175.261667	1737.043945	51.797760
281.252660	6175.261667	1736.030273	17.625925
281.252660	6175.261667	1735.016602	14.083007
281.252660	6175.261667	1734.002930	24.650486
281.252660	6175.261667	1732.989258	-66.168663
281.252660	6175.261667	1731.974609	-65.088631
281.252660	6175.261667	1730.959961	58.467613
281.252660	6175.261667	1729.945313	59.452278
281.252660	6175.261667	1728.930664	-12.606733
281.252660	6175.261667	1727.916016	-61.127308
281.252660	6175.261667	1726.900391	62.190392
281.252660	6175.261667	1725.885742	46.556980
281.252660	6175.261667	1724.870117	-42.060787
281.252660	6175.261667	1723.853516	-137.740524
281.252660	6175.261667	1722.837891	51.224663
281.252660	6175.261667	1721.822266	150.708817
281.252660	6175.261667	1720.805664	-29.711506
281.252660	6175.261667	1719.789063	135.507935
281.252660	6175.261667	1718.772461	91.425377
281.252660	6175.261667	1717.754883	-20.831917
281.252660	6175.261667	1716.738281	50.199734
281.252660	6175.261667	1715.720703	-8.042227
281.252660	6175.261667	1714.703125	20.610180
281.252660	6175.261667	1713.685547	37.475975
281.252660	6175.261667	1712.667969	-34.918297
281.252660	6175.261667	1711.649414	14.745871
281.252660	6175.261667	1710.630859	43.234756
281.252660	6175.261667	1709.612305	20.055387
281.252660	6175.261667	1708.593750	-12.532266
281.252660	6175.261667	1707.575195	93.253258
281.252660	6175.261667	1706.555664	13.691277
281.252660	6175.261667	1705.536133	231.911530
281.252660	6175.261667	1704.516602	-54.010544
281.252660	6175.261667	1703.497070	-107.812531
281.252660	6175.261667	1702.477539	42.250450
281.252660	6175.261667	1701.457031	61.015709
281.252660	6175.261667	1700.437500	-67.832771
281.252660	6175.261667	1699.416992	37.540031
281.252660	6175.261667	1698.395508	9.366220
281.252660	6175.261667	1697.375000	18.634651
281.252660	6175.261667	1696.354492	109.793938
281.252660	6175.261667	1695.333008	-201.640015
281.252660	6175.261667	1694.311523	130.463379
281.252660	6175.261667	1693.290039	-54.588936
281.252660	6175.261667	1692.267578	-52.490128
281.252660	6175.261667	1691.246094	33.767090
281.252660	6175.261667	1690.223633	-46.040333
281.252660	6175.261667	1689.201172	51.809196
281.252660	6175.261667	1688.178711	-18.679132
281.252660	6175.261667	1687.155273	188.891266
281.252660	6175.261667	1686.132813	76.296021
281.252660	6175.261667	1685.109375	117.873863
281.252660	6175.261667	1684.085938	-118.493797
281.252660	6175.261667	1683.062500	-191.356430
281.252660	6175.261667	1682.039063	-30.776192
281.252660	6175.261667	1681.014648	-92.014336
281.252660	6175.261667	1679.990234	-73.914925
281.252660	6175.261667	1678.965820	-11.519605
281.252660	6175.261667	1677.941406	200.113876
281.252660	6175.261667	1676.916992	-1.152299
281.252660	6175.261667	1675.891602	82.100220
281.252660	6175.261667	1674.866211	-11.879727
281.252660	6175.261667	1673.840820	201.821320
281.252660	6175.261667	1672.815430	-111.247444
281.252660	6175.261667	1671.790039	-23.471865
281.252660	6175.261667	1670.763672	71.231865
281.252660	6175.261667	1669.737305	200.811920
281.252660	6175.261667	1668.710938	244.163223
281.252660	6175.261667	1667.684570	238.585495
281.252660	6175.261667	1666.658203	74.707039
281.252660	6175.261667	1665.630859	131.953400
281.252660	6175.261667	1664.603516	165.889572
281.252660	6175.261667	1663.576172	202.118973
281.252660	6175.261667	1662.548828	170.864670
281.252660	6175.261667	1661.520508	111.693764
281.252660	6175.261667	1660.493164	106.005539
281.252660	6175.261667	1659.464844	232.795532
281.252660	6175.261667	1658.436523	57.388153
281.252660	6175.261667	1657.408203	149.248657
281.252660	6175.261667	1656.378906	141.155487
281.252660	6175.261667	1655.350586	163.248337
281.252660	6175.261667	1654.321289	287.492859
281.252660	6175.261667	1653.291992	75.007431
281.252660	6175.261667	1652.261719	99.365898
281.252660	6175.261667	1651.232422	98.173401
281.252660	6175.261667	1650.202148	229.230927
281.252660	6175.261667	1649.171875	121.259483
281.252660	6175.261667	1648.141602	140.893814
281.252660	6175.261667	1647.111328	253.273010
281.252660	6175.261667	1646.080078	326.173492
281.252660	6175.261667	1645.049805	415.265503
281.252660	6175.261667	1644.018555	196.040329
281.252660	6175.261667	1642.987305	479.752258
281.252660	6175.261667	1641.955078	244.354431
281.252660	6175.261667	1640.923828	201.306717
281.252660	6175.261667	1639.891602	380.596924
281.252660	6175.261667	1638.859375	330.568237
281.252660	6175.261667	1637.827148	454.182617
281.252660	6175.261667	1636.794922	360.163605
281.252660	6175.261667	1635.761719	261.539520
281.252660	6175.261667	1634.729492	482.248352
281.252660	6175.261667	1633.696289	422.949707
281.252660	6175.261667	1632.662109	301.215851
281.252660	6175.261667	1631.628906	406.143433
281.252660	6175.261667	1630.594727	513.331604
281.252660	6175.261667	1629.561523	292.242706
281.252660	6175.261667	1628.527344	297.714600
281.252660	6175.261667	1627.493164	492.649689
281.252660	6175.261667	1626.458008	442.623047
281.252660	6175.261667	1625.423828	163.955566
281.252660	6175.261667	1624.388672	428.066132
281.252660	6175.261667	1623.353516	371.145630
281.252660	6175.261667	1622.318359	413.505157
281.252660	6175.261667	1621.282227	379.680725
281.252660	6175.261667	1620.247070	544.315063
281.252660	6175.261667	1619.210938	418.195618
281.252660	6175.261667	1618.174805	389.000641
281.252660	6175.261667	1617.137695	537.384949
281.252660	6175.261667	1616.101563	406.729858
281.252660	6175.261667	1615.064453	559.665222
281.252660	6175.261667	1614.027344	415.226257
281.252660	6175.261667	1612.990234	551.973938
281.252660	6175.261667	1611.953125	467.498596
281.252660	6175.261667	1610.916016	541.996033
281.252660	6175.261667	1609.877930	623.372498
281.252660	6175.261667	1608.839844	603.410156
281.252660	6175.261667	1607.801758	624.897156
281.252660	6175.261667	1606.763672	674.000977
281.252660	6175.261667	1605.724609	633.340210
281.252660	6175.261667	1604.685547	523.679565
281.252660	6175.261667	1603.646484	512.980347
281.252660	6175.261667	1602.607422	596.585938
281.252660	6175.261667	1601.568359	733.051819
281.252660	6175.261667	1600.528320	651.069153
281.252660	6175.261667	1599.489258	665.667419
281.252660	6175.261667	1598.449219	680.264771
281.252660	6175.261667	1597.408203	671.885681
281.252660	6175.261667	1596.368164	835.809692
281.252660	6175.261667	1595.327148	597.753723
281.252660	6175.261667	1594.287109	692.762024
281.252660	6175.261667	1593.246094	822.177124
281.252660	6175.261667	1592.204102	772.511719
281.252660	6175.261667	1591.163086	654.034485
281.252660	6175.261667	1590.121094	572.323853
281.252660	6175.261667	1589.079102	483.776154
281.252660	6175.261667	1588.037109	574.174011
281.252660	6175.261667	1586.995117	460.464233
281.252660	6175.261667	1585.953125	571.493896
281.252660	6175.261667	1584.910156	414.302338
281.252660	6175.261667	1583.867188	557.408813
281.252660	6175.261667	1582.824219	466.760956
281.252660	6175.261667	1581.781250	527.362244
281.252660	6175.261667	1580.737305	601.694824
281.252660	6175.261667	1579.693359	444.728607
281.252660	6175.261667	1578.649414	489.319977
281.252660	6175.261667	1577.605469	371.387329
281.252660	6175.261667	1576.561523	482.382263
281.252660	6175.261667	1575.516602	424.023926
281.252660	6175.261667	1574.472656	505.263062
281.252660	6175.261667	1573.427734	410.365631
281.252660	6175.261667	1572.381836	562.500610
281.252660	6175.261667	1571.336914	403.651733
281.252660	6175.261667	1570.291016	569.485535
281.252660	6175.261667	1569.246094	550.155212
281.252660	6175.261667	1568.200195	466.870209
281.252660	6175.261667	1567.153320	477.304413
281.252660	6175.261667	1566.107422	533.444275
281.252660	6175.261667	1565.060547	548.475159
281.252660	6175.261667	1564.013672	538.408447
281.252660	6175.261667	1562.966797	574.025818
281.252660	6175.261667	1561.919922	344.901428
281.252660	6175.261667	1560.872070	458.173615
281.252660	6175.261667	1559.825195	500.705048
281.252660	6175.261667	1558.777344	566.052856
281.252660	6175.261667	1557.729492	512.811890
281.252660	6175.261667	1556.680664	450.494537
281.252660	6175.261667	1555.632813	452.062469
281.252660	6175.261667	1554.583984	401.232574
281.252660	6175.261667	1553.535156	484.897491
281.252660	6175.261667	1552.486328	438.693298
281.252660	6175.261667	1551.436523	406.199982
281.252660	6175.261667	1550.387695	499.010162
281.252660	6175.261667	1549.337891	610.025635
281.252660	6175.261667	1548.288086	400.037781
281.252660	6175.261667	1547.238281	420.045929
281.252660	6175.261667	1546.187500	176.100433
281.252660	6175.261667	1545.136719	294.035980
281.252660	6175.261667	1544.086914	289.124176
281.252660	6175.261667	1543.035156	450.262024
281.252660	6175.261667	1541.984375	358.976044
281.252660	6175.261667	1540.933594	304.132507
281.252660	6175.261667	1539.881836	244.794098
281.252660	6175.261667	1538.830078	296.864166
281.252660	6175.261667	1537.778320	330.771271
281.252660	6175.261667	1536.725586	280.646576
281.252660	6175.261667	1535.673828	382.745270
281.252660	6175.261667	1534.621094	346.323120
281.252660	6175.261667	1533.568359	330.381836
281.252660	6175.261667	1532.515625	359.878296
281.252660	6175.261667	1531.461914	514.209900
281.252660	6175.261667	1530.409180	316.839081
281.252660	6175.261667	1529.355469	217.122910
281.252660	6175.261667	1528.301758	298.922821
281.252660	6175.261667	1527.247070	262.811707
281.252660	6175.261667	1526.193359	297.034821
281.252660	6175.261667	1525.138672	161.279633
281.252660	6175.261667	1524.083984	147.990921
281.252660	6175.261667	1523.029297	250.299316
281.252660	6175.261667	1521.974609	184.972153
281.252660	6175.261667	1520.918945	228.420364
281.252660	6175.261667	1519.863281	237.924042
281.252660	6175.261667	1518.807617	224.822754
281.252660	6175.261667	1517.751953	21.629469
281.252660	6175.261667	1516.696289	180.649094
281.252660	6175.261667	1515.639648	93.016335
281.252660	6175.261667	1514.583008	157.025253
281.252660	6175.261667	1513.526367	365.799591
281.252660	6175.261667	1512.469727	226.293655
281.252660	6175.261667	1511.412109	150.184814
281.252660	6175.261667	1510.355469	252.720596
281.252660	6175.261667	1509.297852	160.899063
281.252660	6175.261667	1508.240234	-7.667158
281.252660	6175.261667	1507.181641	38.483101
281.252660	6175.261667	1506.124023	89.176163
281.252660	6175.261667	1505.065430	13.432350
281.252660	6175.261667	1504.006836	-17.084620
281.252660	6175.261667	1502.948242	47.258240
281.252660	6175.261667	1501.888672	-59.901443
281.252660	6175.261667	1500.830078	-6.771962
281.252660	6175.261667	1499.770508	-46.114830
281.252660	6175.261667	1498.710938	-141.785110
281.252660	6175.261667	1497.650391	-77.269066
281.252660	6175.261667	1496.590820	122.541565
281.252660	6175.261667	1495.530273	-58.632477
281.252660	6175.261667	1494.469727	28.497101
281.252660	6175.261667	1493.409180	-15.050516
281.252660	6175.261667	1492.348633	-60.789360
281.252660	6175.261667	1491.287109	1.645123
281.252660	6175.261667	1490.225586	-80.020958
281.252660	6175.261667	1489.164063	-53.540413
281.252660	6175.261667	1488.102539	-155.332077
281.252660	6175.261667	1487.041016	-167.016464
281.252660	6175.261667	1485.978516	-86.397743
281.252660	6175.261667	1484.916016	-12.511789
281.252660	6175.261667	1483.853516	-82.563576
281.252660	6175.261667	1482.791016	106.065643
281.252660	6175.261667	1481.727539	-119.019981
281.252660	6175.261667	1480.664063	-31.512255
281.252660	6175.261667	1479.600586	-38.395466
281.252660	6175.261667	1478.537109	10.932012
281.252660	6175.261667	1477.473633	125.487335
281.252660	6175.261667	1476.409180	-29.524563
281.252660	6175.261667	1475.344727	-155.196594
281.252660	6175.261667	1474.280273	-141.552155
281.252660	6175.261667	1473.215820	65.125610
281.252660	6175.261667	1472.151367	-87.306328
281.252660	6175.261667	1471.085938	-129.643814
281.252660	6175.261667	1470.020508	18.689421
281.252660	6175.261667	1468.955078	88.494194
281.252660	6175.261667	1467.888672	-34.185387
281.252660	6175.261667	1466.823242	131.818909
281.252660	6175.261667	1465.756836	78.657829
281.252660	6175.261667	1464.690430	121.568527
281.252660	6175.261667	1463.624023	-30.122808
281.252660	6175.261667	1462.556641	306.293152
281.252660	6175.261667	1461.490234	183.758636
281.252660	6175.261667	1460.422852	233.578064
281.252660	6175.261667	1459.355469	180.518173
281.252660	6175.261667	1458.287109	49.550678
281.252660	6175.261667	1457.219727	291.526550
281.252660	6175.261667	1456.151367	89.421051
281.252660	6175.261667	1455.083008	129.842941
281.252660	6175.261667	1454.014648	35.470913
281.252660	6175.261667	1452.945313	111.985367
281.252660	6175.261667	1451.876953	120.544945
281.252660	6175.261667	1450.807617	114.139923
281.252660	6175.261667	1449.738281	154.066864
281.252660	6175.261667	1448.668945	130.322754
281.252660	6175.261667	1447.598633	113.948563
281.252660	6175.261667	1446.528320	130.110809
281.252660	6175.261667	1445.458008	50.336292
281.252660	6175.261667	1444.387695	169.094162
281.252660	6175.261667	1443.317383	287.911163
281.252660	6175.261667	1442.246094	87.094131
281.252660	6175.261667	1441.174805	166.648163
281.252660	6175.261667	1440.103516	119.568314
281.252660	6175.261667	1439.032227	237.223618
281.252660	6175.261667	1437.960938	97.408394
281.252660	6175.261667	1436.888672	69.010674
281.252660	6175.261667	1435.816406	227.023163
281.252660	6175.261667	1434.744141	143.022415
281.252660	6175.261667	1433.670898	65.172920
281.252660	6175.261667	1432.598633	10.556005
281.252660	6175.261667	1431.525391	11.810885
281.252660	6175.261667	1430.452148	120.842628
281.252660	6175.261667	1429.378906	-51.787857
281.252660	6175.261667	1428.304688	79.384407
281.252660	6175.261667	1427.231445	61.174191
281.252660	6175.261667	1426.157227	-130.689041
281.252660	6175.261667	1425.083008	-32.895683
281.252660	6175.261667	1424.007813	51.346569
281.252660	6175.261667	1422.933594	-11.025805
281.252660	6175.261667	1421.858398	170.958679
281.252660	6175.261667	1420.783203	97.612373
281.252660	6175.261667	1419.708008	27.596748
281.252660	6175.261667	1418.631836	-17.737139
281.252660	6175.261667	1417.555664	158.654388
281.252660	6175.261667	1416.479492	24.130543
281.252660	6175.261667	1415.403320	99.774124
281.252660	6175.261667	1414.327148	164.280746
281.252660	6175.261667	1413.250000	108.752647
281.252660	6175.261667	1412.173828	-36.762249
281.252660	6175.261667	1411.096680	163.152649
281.252660	6175.261667	1410.018555	67.118828
281.252660	6175.261667	1408.941406	90.152740
281.252660	6175.261667	1407.863281	261.414856
281.252660	6175.261667	1406.785156	98.444000
281.252660	6175.261667	1405.707031	92.512924
281.252660	6175.261667	1404.628906	137.570618
281.252660	6175.261667	1403.549805	15.144925
281.252660	6175.261667	1402.470703	73.515236
281.252660	6175.261667	1401.391602	74.572441
281.252660	6175.261667	1400.312500	115.989639
281.252660	6175.261667	1399.233398	16.212393
281.252660	6175.261667	1398.153320	-79.525238
281.252660	6175.261667	1397.073242	-13.980183
281.252660	6175.261667	1395.993164	64.231583
281.252660	6175.261667	1394.913086	47.897892
281.252660	6175.261667	1393.832031	6.429211
281.252660	6175.261667	1392.750977	-14.224037
281.252660	6175.261667	1391.669922	9.634664
281.252660	6175.261667	1390.588867	74.603195
281.252660	6175.261667	1389.506836	-47.005997
281.252660	6175.261667	1388.425781	62.601345
281.252660	6175.261667	1387.343750	-37.197632
281.252660	6175.261667	1386.261719	68.764061
281.252660	6175.261667	1385.178711	57.568531
281.252660	6175.261667	1384.096680	-106.497093
281.252660	6175.261667	1383.013672	-176.288300
281.252660	6175.261667	1381.930664	-7.190032
281.252660	6175.261667	1380.846680	94.050377
281.252660	6175.261667	1379.763672	-9.643523
281.252660	6175.261667	1378.679688	-196.899918
281.252660	6175.261667	1377.595703	-150.965668
281.252660	6175.261667	1376.511719	-81.384079
281.252660	6175.261667	1375.427734	-19.791168
281.252660	6175.261667	1374.342773	32.564415
281.252660	6175.261667	1373.257813	-31.329494
281.252660	6175.261667	1372.172852	99.716248
281.252660	6175.261667	1371.087891	36.725754
281.252660	6175.261667	1370.001953	22.676558
281.252660	6175.261667	1368.916992	-14.899549
281.252660	6175.261667	1367.831055	117.940659
281.252660	6175.261667	1366.744141	77.974289
281.252660	6175.261667	1365.658203	13.291544
281.252660	6175.261667	1364.571289	23.214720
281.252660	6175.261667	1363.484375	3.467689
281.252660	6175.261667	1362.397461	117.259102
281.252660	6175.261667	1361.310547	132.727310
281.252660	6175.261667	1360.222656	48.330074
281.252660	6175.261667	1359.135742	-83.810051
281.252660	6175.261667	1358.047852	18.121752
281.252660	6175.261667	1356.958984	109.252670
281.252660	6175.261667	1355.871094	44.465824
281.252660	6175.261667	1354.782227	10.146998
281.252660	6175.261667	1353.693359	89.749283
281.252660	6175.261667	1352.604492	10.443710
281.252660	6175.261667	1351.515625	94.480919
281.252660	6175.261667	1350.425781	160.278366
281.252660	6175.261667	1349.335938	42.110828
281.252660	6175.261667	1348.246094	2.170804
281.252660	6175.261667	1347.156250	30.933531
281.252660	6175.261667	1346.066406	76.440163
281.252660	6175.261667	1344.975586	2.409055
281.252660	6175.261667	1343.884766	77.412201
281.252660	6175.261667	1342.793945	173.807144
281.252660	6175.261667	1341.702148	108.421707
281.252660	6175.261667	1340.611328	99.533775
281.252660	6175.261667	1339.519531	185.198257
281.252660	6175.261667	1338.427734	-31.442158
281.252660	6175.261667	1337.334961	65.917938
281.252660	6175.261667	1336.243164	180.220337
281.252660	6175.261667	1335.150391	33.630951
281.252660	6175.261667	1334.057617	115.883186
281.252660	6175.261667	1332.964844	14.952253
281.252660	6175.261667	1331.871094	96.966919
281.252660	6175.261667	1330.778320	167.259384
281.252660	6175.261667	1329.684570	44.179371
281.252660	6175.261667	1328.590820	85.643265
281.252660	6175.261667	1327.496094	131.605103
281.252660	6175.261667	1326.402344	131.725037
281.252660	6175.261667	1325.307617	167.142990
281.252660	6175.261667	1324.212891	72.135628
281.252660	6175.261667	1323.117188	157.865540
281.252660	6175.261667	1322.022461	43.872139
281.252660	6175.261667	1320.926758	186.463455
281.252660	6175.261667	1319.831055	110.155800
281.252660	6175.261667	1318.735352	58.604095
281.252660	6175.261667	1317.638672	86.877258
281.252660	6175.261667	1316.542969	112.141487
281.252660	6175.261667	1315.446289	126.405159
281.252660	6175.261667	1314.349609	75.369583
281.252660	6175.261667	1313.251953	90.950920
281.252660	6175.261667	1312.155273	0.212213
281.252660	6175.261667	1311.057617	2.905120
281.252660	6175.261667	1309.959961	18.806086
281.252660	6175.261667	1308.862305	-28.128237
281.252660	6175.261667	1307.763672	23.733221
281.252660	6175.261667	1306.665039	-34.301884
281.252660	6175.261667	1305.566406	163.751907
281.252660	6175.261667	1304.467773	83.235046
281.252660	6175.261667	1303.369141	69.421074
281.252660	6175.261667	1302.269531	192.890335
281.252660	6175.261667	1301.169922	97.982658
281.252660	6175.261667	1300.070313	210.453522
281.252660	6175.261667	1298.970703	127.359688
281.252660	6175.261667	1297.870117	89.512497
281.252660	6175.261667	1296.769531	182.001236
281.252660	6175.261667	1295.668945	-35.538727
281.252660	6175.261667	1294.568359	25.360991
281.252660	6175.261667	1293.466797	44.112843
281.252660	6175.261667	1292.366211	37.390316
281.252660	6175.261667	1291.264648	128.423981
281.252660	6175.261667	1290.162109	73.663208
281.252660	6175.261667	1289.060547	-51.526680
281.252660	6175.261667	1287.958008	-25.352564
281.252660	6175.261667	1286.855469	-2.471313
281.252660	6175.261667	1285.752930	78.704590
281.252660	6175.261667	1284.650391	30.405254
281.252660	6175.261667	1283.546875	66.901596
281.252660	6175.261667	1282.444336	-59.007030
281.252660	6175.261667	1281.339844	4.114473
281.252660	6175.261667	1280.236328	86.037308
281.252660	6175.261667	1279.132813	151.655945
281.252660	6175.261667	1278.028320	46.269653
281.252660	6175.261667	1276.923828	20.203943
281.252660	6175.261667	1275.819336	124.002884
281.252660	6175.261667	1274.713867	111.579536
281.252660	6175.261667	1273.608398	35.377552
281.252660	6175.261667	1272.503906	-39.492908
281.252660	6175.261667	1271.397461	91.771530
281.252660	6175.261667	1270.291992	21.055260
281.252660	6175.261667	1269.185547	-58.629189
281.252660	6175.261667	1268.080078	-6.936648
281.252660	6175.261667	1266.972656	79.864990
281.252660	6175.261667	1265.866211	-25.472692
281.252660	6175.261667	1264.759766	8.249019
281.252660	6175.261667	1263.652344	-78.764801
281.252660	6175.261667	1262.544922	-94.418144
281.252660	6175.261667	1261.436523	-41.968842
281.252660	6175.261667	1260.329102	-23.350016
281.252660	6175.261667	1259.220703	-106.062805
281.252660	6175.261667	1258.112305	-135.229462
281.252660	6175.261667	1257.003906	-143.317596
281.252660	6175.261667	1255.895508	-125.547768
281.252660	6175.261667	1254.786133	-111.874557
281.252660	6175.261667	1253.676758	-200.765915
281.252660	6175.261667	1252.567383	-116.100578
281.252660	6175.261667	1251.458008	-56.251427
281.252660	6175.261667	1250.347656	-75.450897
281.252660	6175.261667	1249.237305	-141.494537
281.252660	6175.261667	1248.126953	-51.203003
281.252660	6175.261667	1247.016602	-53.676189
281.252660	6175.261667	1245.905273	-95.757393
281.252660	6175.261667	1244.793945	-59.181110
281.252660	6175.261667	1243.682617	-46.364151
281.252660	6175.261667	1242.571289	-73.174011
281.252660	6175.261667	1241.459961	-60.444984
281.252660	6175.261667	1240.347656	-92.429054
281.252660	6175.261667	1239.235352	-25.812832
281.252660	6175.261667	1238.123047	-21.849546
281.252660	6175.261667	1237.009766	54.097473
281.252660	6175.261667	1235.897461	-44.182041
281.252660	6175.261667	1234.784180	102.448830
281.252660	6175.261667	1233.670898	-49.610065
281.252660	6175.261667	1232.556641	11.115335
281.252660	6175.261667	1231.443359	17.944614
281.252660	6175.261667	1230.329102	-90.079109
281.252660	6175.261667	1229.214844	-76.393845
281.252660	6175.261667	1228.099609	110.383148
281.252660	6175.261667	1226.985352	5.042711
281.252660	6175.261667	1225.870117	0.232885
281.252660	6175.261667	1224.754883	134.386322
281.252660	6175.261667	1223.639648	90.371414
281.252660	6175.261667	1222.523438	136.976608
281.252660	6175.261667	1221.408203	189.870789
281.252660	6175.261667	1220.291992	73.187752
281.252660	6175.261667	1219.174805	52.536587
281.252660	6175.261667	1218.058594	8.292318
281.252660	6175.261667	1216.941406	-68.171089
281.252660	6175.261667	1215.824219	14.276388
281.252660	6175.261667	1214.707031	42.243393
281.252660	6175.261667	1213.589844	77.840523
281.252660	6175.261667	1212.471680	40.457710
281.252660	6175.261667	1211.353516	39.715759
281.252660	6175.261667	1210.235352	81.527519
281.252660	6175.261667	1209.117188	107.670601
281.252660	6175.261667	1207.998047	35.390846
281.252660	6175.261667	1206.878906	-5.499472
281.252660	6175.261667	1205.759766	-46.627041
281.252660	6175.261667	1204.640625	92.499130
281.252660	6175.261667	1203.520508	-81.339981
281.252660	6175.261667	1202.401367	51.417534
281.252660	6175.261667	1201.281250	-3.638830
281.252660	6175.261667	1200.160156	-20.107958
281.252660	6175.261667	1199.040039	-80.332619
281.252660	6175.261667	1197.918945	-83.230728
281.252660	6175.261667	1196.797852	-51.001587
281.252660	6175.261667	1195.676758	32.905392
281.252660	6175.261667	1194.555664	-45.824440
281.252660	6175.261667	1193.433594	-89.592834
281.252660	6175.261667	1192.311523	-33.387112
281.252660	6175.261667	1191.189453	-60.337822
281.252660	6175.261667	1190.066406	-15.544024
281.252660	6175.261667	1188.944336	-28.806194
281.252660	6175.261667	1187.821289	-92.183609
281.252660	6175.261667	1186.698242	-111.725998
281.252660	6175.261667	1185.574219	-72.912346
281.252660	6175.261667	1184.451172	-82.832542
281.252660	6175.261667	1183.327148	-157.590424
281.252660	6175.261667	1182.203125	-68.519806
281.252660	6175.261667	1181.078125	-2.288708
281.252660	6175.261667	1179.954102	29.363230
281.252660	6175.261667	1178.829102	-24.372044
281.252660	6175.261667	1177.704102	-30.530912
281.252660	6175.261667	1176.579102	12.711188
281.252660	6175.261667	1175.453125	-72.288429
281.252660	6175.261667	1174.327148	0.472967
281.252660	6175.261667	1173.201172	-75.262558
281.252660	6175.261667	1172.075195	-18.939478
281.252660	6175.261667	1170.949219	49.416214
281.252660	6175.261667	1169.822266	-98.372429
281.252660	6175.261667	1168.695313	-126.467606
281.252660	6175.261667	1167.568359	-24.493938
281.252660	6175.261667	1166.440430	-89.875000
281.252660	6175.261667	1165.313477	-5.886068
281.252660	6175.261667	1164.185547	8.282555
281.252660	6175.261667	1163.057617	60.362331
281.252660	6175.261667	1161.928711	-116.854546
281.252660	6175.261667	1160.800781	-12.587537
281.252660	6175.261667	1159.671875	-9.697972
281.252660	6175.261667	1158.541992	146.435089
281.252660	6175.261667	1157.413086	-22.382763
281.252660	6175.261667	1156.283203	21.941603
281.252660	6175.261667	1155.154297	-68.681168
281.252660	6175.261667	1154.023438	-133.985489
281.252660	6175.261667	1152.893555	-29.081810
281.252660	6175.261667	1151.763672	43.130062
281.252660	6175.261667	1150.632813	-69.106674
281.252660	6175.261667	1149.501953	20.008080
281.252660	6175.261667	1148.370117	113.858116
281.252660	6175.261667	1147.239258	27.488146
281.252660	6175.261667	1146.107422	75.836708
281.252660	6175.261667	1144.975586	61.405643
281.252660	6175.261667	1143.843750	13.687088
281.252660	6175.261667	1142.710938	-46.433289
281.252660	6175.261667	1141.578125	127.353058
281.252660	6175.261667	1140.445313	66.801956
281.252660	6175.261667	1139.312500	33.299595
281.252660	6175.261667	1138.178711	18.146620
281.252660	6175.261667	1137.045898	22.650824
281.252660	6175.261667	1135.912109	164.413986
281.252660	6175.261667	1134.777344	111.740715
281.252660	6175.261667	1133.643555	67.307587
281.252660	6175.261667	1132.508789	61.076630
281.252660	6175.261667	1131.374023	102.685204
281.252660	6175.261667	1130.239258	182.838379
281.252660	6175.261667	1129.104492	111.974144
281.252660	6175.261667	1127.968750	143.117096
281.252660	6175.261667	1126.833008	192.676682
281.252660	6175.261667	1125.697266	180.939514
281.252660	6175.261667	1124.560547	178.894028
281.252660	6175.261667	1123.424805	120.625374
281.252660	6175.261667	1122.288086	98.807663
281.252660	6175.261667	1121.151367	111.038910
281.252660	6175.261667	1120.013672	146.016937
281.252660	6175.261667	1118.876953	80.743111
281.252660	6175.261667	1117.739258	99.159439
281.252660	6175.261667	1116.601563	260.206818
281.252660	6175.261667	1115.462891	-87.936066
281.252660	6175.261667	1114.324219	34.270386
281.252660	6175.261667	1113.186523	42.292091
281.252660	6175.261667	1112.046875	101.747047
281.252660	6175.261667	1110.908203	89.053955
281.252660	6175.261667	1109.769531	192.178619
281.252660	6175.261667	1108.629883	112.792809
281.252660	6175.261667	1107.490234	106.263870
281.252660	6175.261667	1106.349609	61.319202
281.252660	6175.261667	1105.209961	12.509028
281.252660	6175.261667	1104.069336	-49.993649
281.252660	6175.261667	1102.928711	99.519913
281.252660	6175.261667	1101.787109	142.548050
281.252660	6175.261667	1100.646484	64.839867
281.252660	6175.261667	1099.504883	22.790394
281.252660	6175.261667	1098.363281	114.880928
281.252660	6175.261667	1097.221680	-38.247829
281.252660	6175.261667	1096.079102	152.292007
281.252660	6175.261667	1094.936523	130.321671
281.252660	6175.261667	1093.793945	148.959366
281.252660	6175.261667	1092.651367	55.638309
281.252660	6175.261667	1091.507813	63.856190
281.252660	6175.261667	1090.364258	45.187714
281.252660	6175.261667	1089.220703	3.241375
281.252660	6175.261667	1088.077148	-7.932933
281.252660	6175.261667	1086.933594	208.136078
281.252660	6175.261667	1085.789063	128.375717
281.252660	6175.261667	1084.644531	122.116158
281.252660	6175.261667	1083.499023	-27.544910
281.252660	6175.261667	1082.354492	57.245289
281.252660	6175.261667	1081.208984	119.535034
281.252660	6175.261667	1080.063477	268.049103
281.252660	6175.261667	1078.917969	92.243706
281.252660	6175.261667	1077.771484	4.239357
281.252660	6175.261667	1076.625977	150.862183
281.252660	6175.261667	1075.479492	165.147110
281.252660	6175.261667	1074.332031	1247.687012
281.252660	6175.261667	1073.185547	830.665405
281.252660	6175.261667	1072.038086	288.820404
281.252660	6175.261667	1070.890625	139.584396
281.252660	6175.261667	1069.743164	152.366226
281.252660	6175.261667	1068.594727	139.850769
281.252660	6175.261667	1067.447266	109.236015
281.252660	6175.261667	1066.298828	209.299805
281.252660	6175.261667	1065.149414	198.147171
281.252660	6175.261667	1064.000977	72.019226
281.252660	6175.261667	1062.851563	276.048645
281.252660	6175.261667	1061.702148	260.356049
281.252660	6175.261667	1060.552734	80.967484
281.252660	6175.261667	1059.402344	63.437317
281.252660	6175.261667	1058.252930	20.825647
281.252660	6175.261667	1057.102539	163.226944
281.252660	6175.261667	1055.951172	96.133972
281.252660	6175.261667	1054.800781	161.746094
281.252660	6175.261667	1053.649414	199.544907
281.252660	6175.261667	1052.498047	151.349869
281.252660	6175.261667	1051.346680	172.612823
281.252660	6175.261667	1050.194336	305.605804
281.252660	6175.261667	1049.042969	163.718750
281.252660	6175.261667	1047.890625	235.744171
281.252660	6175.261667	1046.738281	167.670059
281.252660	6175.261667	1045.584961	246.366074
281.252660	6175.261667	1044.431641	145.882294
281.252660	6175.261667	1043.278320	154.753082
281.252660	6175.261667	1042.125000	90.947815
281.252660	6175.261667	1040.971680	202.934937
281.252660	6175.261667	1039.817383	133.837936
281.252660	6175.261667	1038.663086	99.045349
281.252660	6175.261667	1037.508789	31.177452
281.252660	6175.261667	1036.353516	-35.599804
281.252660	6175.261667	1035.198242	84.259377
281.252660	6175.261667	1034.042969	212.589157
281.252660	6175.261667	1032.887695	31.960499
281.252660	6175.261667	1031.732422	45.502007
281.252660	6175.261667	1030.576172	82.470863
281.252660	6175.261667	1029.419922	128.570160
281.252660	6175.261667	1028.263672	30.099403
281.252660	6175.261667	1027.106445	85.402649
281.252660	6175.261667	1025.949219	204.188416
281.252660	6175.261667	1024.792969	224.011932
281.252660	6175.261667	1023.634766	164.530472
281.252660	6175.261667	1022.477539	157.999725
281.252660	6175.261667	1021.319336	22.823862
281.252660	6175.261667	1020.161133	12.439013
281.252660	6175.261667	1019.002930	-86.493515
281.252660	6175.261667	1017.843750	-26.127790
281.252660	6175.261667	1016.684570	32.923508
281.252660	6175.261667	1015.525391	54.847569
281.252660	6175.261667	1014.366211	-12.784129
281.252660	6175.261667	1013.207031	0.275175
281.252660	6175.261667	1012.046875	-24.233133
281.252660	6175.261667	1010.886719	-22.167770
281.252660	6175.261667	1009.726563	-153.140366
281.252660	6175.261667	1008.565430	-3.947660
281.252660	6175.261667	1007.404297	63.066319
281.252660	6175.261667	1006.243164	89.179588
281.252660	6175.261667	1005.082031	66.988518
281.252660	6175.261667	1003.920898	-127.911491
281.252660	6175.261667	1002.758789	21.211588
281.252660	6175.261667	1001.596680	69.837502
281.252660	6175.261667	1000.433594	-120.446754
281.252660	6175.261667	999.271484	12.208312
281.252660	6175.261667	998.108398	3.378849
281.252660	6175.261667	996.945313	-75.465622
281.252660	6175.261667	995.782227	96.270782
281.252660	6175.261667	994.618164	37.115444
281.252660	6175.261667	993.454102	-71.392754
281.252660	6175.261667	992.290039	14.741000
281.252660	6175.261667	991.125977	-63.726768
281.252660	6175.261667	989.960938	-71.714996
281.252660	6175.261667	988.796875	23.381813
281.252660	6175.261667	987.630859	147.150208
281.252660	6175.261667	986.465820	43.414158
281.252660	6175.261667	985.300781	139.751297
281.252660	6175.261667	984.134766	47.811481
281.252660	6175.261667	982.968750	14.004277
281.252660	6175.261667	981.801758	24.034218
281.252660	6175.261667	980.635742	-1.479910
281.252660	6175.261667	979.468750	109.197937
281.252660	6175.261667	978.301758	55.085732
281.252660	6175.261667	977.133789	29.334770
281.252660	6175.261667	975.966797	21.694736
281.252660	6175.261667	974.798828	146.715103
281.252660	6175.261667	973.630859	48.335739
281.252660	6175.261667	972.461914	-15.945902
281.252660	6175.261667	971.293945	16.175579
281.252660	6175.261667	970.125000	103.095787
281.252660	6175.261667	968.956055	207.157944
281.252660	6175.261667	967.786133	160.852142
281.252660	6175.261667	966.617188	130.440369
281.252660	6175.261667	965.447266	62.391911
281.252660	6175.261667	964.276367	45.906628
281.252660	6175.261667	963.106445	-41.242744
281.252660	6175.261667	961.935547	67.153786
281.252660	6175.261667	960.764648	-33.941895
281.252660	6175.261667	959.593750	70.314613
281.252660	6175.261667	958.422852	122.126091
281.252660	6175.261667	957.250977	50.455261
281.252660	6175.261667	956.079102	66.768898
281.252660	6175.261667	954.907227	92.652107
281.252660	6175.261667	953.734375	-80.787872
281.252660	6175.261667	952.562500	19.873606
281.252660	6175.261667	951.389648	69.777115
281.252660	6175.261667	950.215820	-12.784728
281.252660	6175.261667	949.042969	-45.000053
281.252660	6175.261667	947.869141	-26.319620
281.252660	6175.261667	946.695313	155.273666
281.252660	6175.261667	945.521484	110.560204
281.252660	6175.261667	944.346680	-21.085226
281.252660	6175.261667	943.172852	21.502779
281.252660	6175.261667	941.998047	-25.474230
281.252660	6175.261667	940.822266	78.195786
281.252660	6175.261667	939.647461	59.463390
281.252660	6175.261667	938.471680	-39.283844
281.252660	6175.261667	937.295898	83.402817
281.252660	6175.261667	936.119141	-6.130204
281.252660	6175.261667	934.943359	12.838666
281.252660	6175.261667	933.766602	1.192579
281.252660	6175.261667	932.589844	-62.273540
281.252660	6175.261667	931.413086	154.420883
281.252660	6175.261667	930.235352	173.364456
281.252660	6175.261667	929.057617	197.022018
281.252660	6175.261667	927.879883	190.048950
281.252660	6175.261667	926.702148	192.476608
281.252660	6175.261667	925.523438	-45.075680
281.252660	6175.261667	924.344727	-19.082024
281.252660	6175.261667	923.166016	18.662752
281.252660	6175.261667	921.987305	129.293503
281.252660	6175.261667	920.807617	94.114624
281.252660	6175.261667	919.627930	95.413704
281.252660	6175.261667	919.497070	54.392250
281.252660	6175.261667	918.331055	-8.976581
281.252660	6175.261667	917.165039	-11.225660
281.252660	6175.261667	915.999023	146.276443
281.252660	6175.261667	914.833008	188.623550
281.252660	6175.261667	913.666016	50.133213
281.252660	6175.261667	912.499023	22.048094
281.252660	6175.261667	911.332031	40.921486
281.252660	6175.261667	910.165039	31.625034
281.252660	6175.261667	908.997070	-137.222443
281.252660	6175.261667	907.830078	78.731468
281.252660	6175.261667	906.661133	-47.837097
281.252660	6175.261667	905.493164	8.553554
281.252660	6175.261667	904.325195	-195.317612
281.252660	6175.261667	903.156250	-77.973389
281.252660	6175.261667	901.987305	-16.921143
281.252660	6175.261667	900.818359	-63.674015
281.252660	6175.261667	899.648438	-44.813885
281.252660	6175.261667	898.478516	-65.776840
281.252660	6175.261667	897.308594	-35.214214
281.252660	6175.261667	896.138672	-28.075178
281.252660	6175.261667	894.968750	11.831712
281.252660	6175.261667	893.797852	-39.543701
281.252660	6175.261667	892.626953	-13.686347
281.252660	6175.261667	891.456055	-29.945320
281.252660	6175.261667	890.284180	16.951487
281.252660	6175.261667	889.113281	66.167465
281.252660	6175.261667	887.941406	54.581749
281.252660	6175.261667	886.768555	110.786163
281.252660	6175.261667	885.596680	89.850822
281.252660	6175.261667	884.423828	15.189529
281.252660	6175.261667	883.250977	141.447693
281.252660	6175.261667	882.078125	59.802097
281.252660	6175.261667	880.905273	-110.537308
281.252660	6175.261667	879.731445	-84.709068
281.252660	6175.261667	878.557617	90.485924
281.252660	6175.261667	877.383789	4.256168
281.252660	6175.261667	876.209961	132.702728
281.252660	6175.261667	875.035156	-4.813926
281.252660	6175.261667	873.860352	-51.321754
281.252660	6175.261667	872.685547	-93.145958
281.252660	6175.261667	871.510742	-18.395447
281.252660	6175.261667	870.334961	-92.835243
281.252660	6175.261667	869.159180	23.830900
281.252660	6175.261667	867.983398	7.657648
281.252660	6175.261667	866.807617	10.125448
281.252660	6175.261667	865.630859	-110.829079
281.252660	6175.261667	864.454102	-115.319366
281.252660	6175.261667	863.277344	-22.039783
281.252660	6175.261667	862.100586	-98.692017
281.252660	6175.261667	860.922852	-89.217392
281.252660	6175.261667	859.745117	-82.072121
281.252660	6175.261667	858.567383	80.904892
281.252660	6175.261667	857.389648	25.227755
281.252660	6175.261667	856.210938	-114.122002
281.252660	6175.261667	855.032227	-88.378441
281.252660	6175.261667	853.853516	-134.687607
281.252660	6175.261667	852.674805	-20.655996
281.252660	6175.261667	851.495117	149.083160
281.252660	6175.261667	850.315430	-27.306269
281.252660	6175.261667	849.135742	-85.197380
281.252660	6175.261667	847.956055	44.983974
281.252660	6175.261667	846.775391	133.333572
281.252660	6175.261667	845.595703	3.505851
281.252660	6175.261667	844.415039	38.464401
281.252660	6175.261667	843.233398	-35.615570
281.252660	6175.261667	842.052734	52.677719
281.252660	6175.261667	840.871094	-5.143832
281.252660	6175.261667	839.689453	52.970833
281.252660	6175.261667	838.506836	122.651161
281.252660	6175.261667	837.325195	187.666824
281.252660	6175.261667	836.142578	157.666916
281.252660	6175.261667	834.959961	211.066757
281.252660	6175.261667	833.777344	83.806198
281.252660	6175.261667	832.593750	162.668472
281.252660	6175.261667	831.410156	102.602562
281.252660	6175.261667	830.226563	14.787100
281.252660	6175.261667	829.042969	-144.725769
281.252660	6175.261667	827.858398	8.146965
281.252660	6175.261667	826.673828	112.382637
281.252660	6175.261667	825.489258	-12.366531
281.252660	6175.261667	824.304688	-30.711477
281.252660	6175.261667	823.120117	66.528839
281.252660	6175.261667	821.934570	-106.670486
281.252660	6175.261667	820.749023	-11.767680
281.252660	6175.261667	819.562500	9.170349
281.252660	6175.261667	818.376953	-18.406542
281.252660	6175.261667	817.190430	-18.262901
281.252660	6175.261667	816.003906	-64.295929
281.252660	6175.261667	814.817383	-8.749409
281.252660	6175.261667	813.629883	-29.383608
281.252660	6175.261667	812.442383	-107.693878
281.252660	6175.261667	811.254883	-42.952816
281.252660	6175.261667	810.067383	-102.783096
281.252660	6175.261667	808.878906	-49.603718
281.252660	6175.261667	807.690430	1.245259
281.252660	6175.261667	806.501953	-148.457016
281.252660	6175.261667	805.313477	-49.222378
281.252660	6175.261667	804.124023	-12.238401
281.252660	6175.261667	802.934570	17.816471
281.252660	6175.261667	801.745117	-9.720009
281.252660	6175.261667	800.555664	29.524088
281.252660	6175.261667	799.365234	-53.259422
281.252660	6175.261667	798.175781	142.475571
281.252660	6175.261667	796.985352	-7.037557
281.252660	6175.261667	795.793945	-55.265266
281.252660	6175.261667	794.603516	-87.377739
281.252660	6175.261667	793.412109	-6.797879
281.252660	6175.261667	792.220703	16.264156
281.252660	6175.261667	791.028320	60.001125
281.252660	6175.261667	789.836914	-43.373344
281.252660	6175.261667	788.644531	-8.844190
281.252660	6175.261667	787.452148	0.394545
281.252660	6175.261667	786.258789	-52.388718
281.252660	6175.261667	785.066406	62.474274
281.252660	6175.261667	783.873047	44.125492
281.252660	6175.261667	782.679688	-52.264343
281.252660	6175.261667	781.485352	67.100021
281.252660	6175.261667	780.291992	161.168610
281.252660	6175.261667	779.097656	103.792351
281.252660	6175.261667	777.903320	37.258663
281.252660	6175.261667	776.708008	16.606430
281.252660	6175.261667	775.512695	-10.922306
281.252660	6175.261667	774.318359	50.941856
281.252660	6175.261667	773.122070	94.441818
281.252660	6175.261667	771.926758	160.826050
281.252660	6175.261667	770.730469	98.900948
281.252660	6175.261667	769.534180	204.173233
281.252660	6175.261667	768.337891	142.248672
281.252660	6175.261667	767.141602	300.102722
281.252660	6175.261667	765.944336	409.820587
281.252660	6175.261667	764.747070	528.636963
281.252660	6175.261667	763.549805	443.784241
281.252660	6175.261667	762.351563	370.395355
281.252660	6175.261667	761.154297	269.585114
281.252660	6175.261667	759.956055	324.277924
281.252660	6175.261667	758.757813	125.209122
281.252660	6175.261667	757.558594	198.173798
281.252660	6175.261667	756.359375	243.679230
281.252660	6175.261667	755.160156	152.090500
281.252660	6175.261667	753.960938	167.874237
281.252660	6175.261667	752.761719	35.215824
281.252660	6175.261667	751.561523	78.393257
281.252660	6175.261667	750.361328	57.631145
281.252660	6175.261667	749.160156	260.507751
281.252660	6175.261667	747.959961	91.392410
281.252660	6175.261667	746.758789	189.224533
281.252660	6175.261667	745.557617	77.187759
281.252660	6175.261667	744.356445	117.955254
281.252660	6175.261667	743.154297	-7.720925
281.252660	6175.261667	741.952148	21.628523
281.252660	6175.261667	740.750000	105.642120
281.252660	6175.261667	739.547852	43.801167
281.252660	6175.261667	738.344727	120.917717
281.252660	6175.261667	737.142578	138.779785
281.252660	6175.261667	735.939453	111.085388
281.252660	6175.261667	734.735352	210.865082
281.252660	6175.261667	733.532227	51.141830
281.252660	6175.261667	732.328125	159.967575
281.252660	6175.261667	731.124023	93.566109
281.252660	6175.261667	729.918945	86.315361
281.252660	6175.261667	728.714844	158.641205
281.252660	6175.261667	727.509766	83.147240
281.252660	6175.261667	726.303711	153.143875
281.252660	6175.261667	725.098633	107.197639
281.252660	6175.261667	723.892578	170.315445
281.252660	6175.261667	722.686523	-36.925808
281.252660	6175.261667	721.480469	-76.033073
281.252660	6175.261667	720.274414	52.887573
281.252660	6175.261667	719.067383	2.398037
281.252660	6175.261667	717.860352	83.555763
281.252660	6175.261667	716.653320	-87.216995
281.252660	6175.261667	715.445313	-56.016075
281.252660	6175.261667	714.238281	-6.698514
281.252660	6175.261667	713.030273	-118.428520
281.252660	6175.261667	711.821289	12.473934
281.252660	6175.261667	710.613281	136.504913
281.252660	6175.261667	709.404297	92.758949
281.252660	6175.261667	708.195313	83.003059
281.252660	6175.261667	706.986328	-35.504055
281.252660	6175.261667	705.776367	70.250572
281.252660	6175.261667	704.566406	334.455414
281.252660	6175.261667	703.356445	82.347198
281.252660	6175.261667	702.146484	-199.097122
281.252660	6175.261667	700.935547	58.159809
281.252660	6175.261667	699.724609	55.099003
281.252660	6175.261667	698.513672	149.291672
281.252660	6175.261667	697.302734	-59.626038
281.252660	6175.261667	696.090820	70.695198
281.252660	6175.261667	694.878906	-70.332878
281.252660	6175.261667	693.666992	-116.391487
281.252660	6175.261667	692.455078	131.312759
281.252660	6175.261667	691.242188	-23.245846
281.252660	6175.261667	690.029297	120.397713
281.252660	6175.261667	688.816406	-18.320578
281.252660	6175.261667	687.602539	-59.912312
281.252660	6175.261667	686.389648	117.455597
281.252660	6175.261667	685.175781	80.330811
281.252660	6175.261667	683.960938	185.355820
281.252660	6175.261667	682.747070	-50.321751
281.252660	6175.261667	681.532227	124.568848
281.252660	6175.261667	680.317383	103.187592
281.252660	6175.261667	679.102539	223.829391
281.252660	6175.261667	677.886719	128.018692
281.252660	6175.261667	676.670898	20.962423
281.252660	6175.261667	675.455078	85.165459
281.252660	6175.261667	674.239258	162.838715
281.252660	6175.261667	673.022461	24.259550
281.252660	6175.261667	671.805664	79.360542
281.252660	6175.261667	670.588867	-23.160072
281.252660	6175.261667	669.372070	52.147919
281.252660	6175.261667	668.154297	64.400192
281.252660	6175.261667	666.936523	290.353638
281.252660	6175.261667	665.718750	70.841255
281.252660	6175.261667	664.500977	60.540329
281.252660	6175.261667	663.282227	50.225201
281.252660	6175.261667	662.063477	78.109840
281.252660	6175.261667	660.844727	96.975044
281.252660	6175.261667	659.625000	147.270416
281.252660	6175.261667	658.405273	105.423851
281.252660	6175.261667	657.185547	104.004257
281.252660	6175.261667	655.965820	158.703568
281.252660	6175.261667	654.745117	67.438156
281.252660	6175.261667	653.525391	155.754364
281.252660	6175.261667	652.303711	-5.073000
281.252660	6175.261667	651.083008	18.122320
281.252660	6175.261667	649.861328	128.770096
281.252660	6175.261667	648.640625	35.276672
281.252660	6175.261667	647.417969	11.310756
281.252660	6175.261667	646.196289	27.687702
281.252660	6175.261667	644.973633	149.375763
281.252660	6175.261667	643.750977	6.591163
281.252660	6175.261667	642.528320	96.834961
281.252660	6175.261667	641.305664	70.555519
281.252660	6175.261667	640.082031	-7.233752
281.252660	6175.261667	638.858398	-62.618820
281.252660	6175.261667	637.634766	-1.603468
281.252660	6175.261667	636.410156	-39.097157
281.252660	6175.261667	635.185547	8.429920
281.252660	6175.261667	633.960938	82.763542
281.252660	6175.261667	632.736328	-104.615692
281.252660	6175.261667	631.510742	-39.266182
281.252660	6175.261667	630.285156	81.926895
281.252660	6175.261667	629.059570	-36.095390
281.252660	6175.261667	627.833984	-49.058952
281.252660	6175.261667	626.607422	9.457253
281.252660	6175.261667	625.380859	25.494884
281.252660	6175.261667	624.154297	106.270912
281.252660	6175.261667	622.927734	88.761086
281.252660	6175.261667	621.700195	-154.207809
281.252660	6175.261667	620.472656	-69.026657
281.252660	6175.261667	619.245117	-48.602024
281.252660	6175.261667	618.016602	188.182892
281.252660	6175.261667	616.788086	-7.823011
281.252660	6175.261667	615.559570	32.600681
281.252660	6175.261667	614.331055	-62.996513
281.252660	6175.261667	613.101563	88.837135
281.252660	6175.261667	611.872070	-17.900967
281.252660	6175.261667	610.642578	11.296221
281.252660	6175.261667	609.413086	-15.218543
281.252660	6175.261667	608.182617	127.515244
281.252660	6175.261667	606.952148	45.298737
281.252660	6175.261667	605.721680	-63.607574
281.252660	6175.261667	604.491211	-85.683441
281.252660	6175.261667	603.259766	7.942257
281.252660	6175.261667	602.028320	21.430599
281.252660	6175.261667	600.796875	37.125576
281.252660	6175.261667	599.564453	101.722511
281.252660	6175.261667	598.332031	-107.171188
281.252660	6175.261667	597.099609	-118.165138
281.252660	6175.261667	595.867188	66.392776
281.252660	6175.261667	594.633789	44.236435
281.252660	6175.261667	593.400391	57.620251
281.252660	6175.261667	592.166992	213.121155
281.252660	6175.261667	590.933594	57.697414
281.252660	6175.261667	589.699219	-33.294056
281.252660	6175.261667	588.464844	113.221512
281.252660	6175.261667	587.230469	79.931900
281.252660	6175.261667	585.995117	31.117823
281.252660	6175.261667	584.760742	55.511135
281.252660	6175.261667	583.525391	-19.903154
281.252660	6175.261667	582.289063	-130.765900
281.252660	6175.261667	581.053711	77.598152
281.252660	6175.261667	579.817383	-35.469086
281.252660	6175.261667	578.581055	2.167758
281.252660	6175.261667	577.343750	181.551605
281.252660	6175.261667	576.107422	130.526184
281.252660	6175.261667	574.870117	57.373817
281.252660	6175.261667	573.631836	46.231018
281.252660	6175.261667	572.394531	1.889306
281.252660	6175.261667	571.156250	154.499146
281.252660	6175.261667	569.917969	176.512329
281.252660	6175.261667	568.679688	143.215317
281.252660	6175.261667	567.440430	-11.698150
281.252660	6175.261667	566.202148	123.080101
281.252660	6175.261667	564.961914	-53.875572
281.252660	6175.261667	563.722656	76.425987
281.252660	6175.261667	562.482422	93.984322
281.252660	6175.261667	561.243164	133.623230
281.252660	6175.261667	560.001953	82.690964
281.252660	6175.261667	558.761719	-12.381845
281.252660	6175.261667	557.520508	150.871613
281.252660	6175.261667	556.279297	-83.228668
281.252660	6175.261667	555.038086	-48.018829
281.252660	6175.261667	553.795898	4.823766
281.252660	6175.261667	552.554688	-8.527473
281.252660	6175.261667	551.311523	11.203431
281.252660	6175.261667	550.069336	50.768867
281.252660	6175.261667	548.826172	-24.306267
281.252660	6175.261667	547.583984	30.677286
281.252660	6175.261667	546.339844	-75.208595
281.252660	6175.261667	545.096680	-0.411262
281.252660	6175.261667	543.852539	72.151794
281.252660	6175.261667	542.608398	-53.489014
281.252660	6175.261667	541.364258	-5.159144
281.252660	6175.261667	540.119141	-84.506676
281.252660	6175.261667	538.875000	109.047478
281.252660	6175.261667	537.628906	126.515144
281.252660	6175.261667	536.383789	80.190590
281.252660	6175.261667	535.137695	31.689032
281.252660	6175.261667	533.892578	-43.172207
281.252660	6175.261667	532.645508	-133.386673
281.252660	6175.261667	531.399414	194.002930
281.252660	6175.261667	530.152344	-56.614250
281.252660	6175.261667	528.905273	-129.184006
281.252660	6175.261667	527.658203	57.442287
281.252660	6175.261667	526.410156	55.152119
281.252660	6175.261667	525.163086	-12.992161
281.252660	6175.261667	523.914063	19.858685
281.252660	6175.261667	522.666016	-21.908489
281.252660	6175.261667	521.416992	-72.429474
281.252660	6175.261667	520.167969	-61.508034
281.252660	6175.261667	518.918945	37.132767
281.252660	6175.261667	517.669922	45.842621
281.252660	6175.261667	516.419922	-57.241013
281.252660	6175.261667	515.169922	-127.401947
281.252660	6175.261667	513.919922	39.110825
281.252660	6175.261667	512.668945	10.590020
281.252660	6175.261667	511.417969	-37.624702
281.252660	6175.261667	510.166992	-182.160294
281.252660	6175.261667	508.916016	34.592121
281.252660	6175.261667	507.664063	23.625881
281.252660	6175.261667	506.412109	-140.509949
281.252660	6175.261667	505.160156	-26.719238
281.252660	6175.261667	503.907227	-50.775764
281.252660	6175.261667	502.655273	14.844814
281.252660	6175.261667	501.402344	-24.505583
281.252660	6175.261667	500.148438	-76.951103
281.252660	6175.261667	498.895508	-26.653028
281.252660	6175.261667	497.641602	-129.321487
281.252660	6175.261667	496.387695	-13.491096
281.252660	6175.261667	495.132813	-68.062691
281.252660	6175.261667	493.878906	-188.114166
281.252660	6175.261667	492.624023	71.748306
281.252660	6175.261667	491.368164	-13.353973
281.252660	6175.261667	490.113281	6.326703
281.252660	6175.261667	488.857422	95.814964
281.252660	6175.261667	487.601563	95.836266
281.252660	6175.261667	486.344727	-15.359486
281.252660	6175.261667	485.088867	235.421097
281.252660	6175.261667	483.832031	148.222580
281.252660	6175.261667	482.575195	-34.828331
281.252660	6175.261667	481.317383	-82.711807
281.252660	6175.261667	480.059570	21.913170
281.252660	6175.261667	478.801758	91.644691
281.252660	6175.261667	477.543945	21.986591
281.252660	6175.261667	476.285156	226.656815
281.252660	6175.261667	475.027344	111.287979
281.252660	6175.261667	473.767578	-51.909790
281.252660	6175.261667	472.508789	124.350571
281.252660	6175.261667	471.249023	-60.539997
281.252660	6175.261667	469.989258	0.378415
281.252660	6175.261667	468.729492	-3.961875
281.252660	6175.261667	467.469727	35.166828
281.252660	6175.261667	466.208984	-34.391846
281.252660	6175.261667	464.948242	-34.401745
281.252660	6175.261667	463.686523	61.159386
281.252660	6175.261667	462.425781	141.465393
281.252660	6175.261667	461.164063	-110.494041
281.252660	6175.261667	459.901367	132.604721
281.252660	6175.261667	458.639648	76.066811
281.252660	6175.261667	457.376953	80.295792
281.252660	6175.261667	456.114258	60.641853
281.252660	6175.261667	454.851563	149.428970
281.252660	6175.261667	453.587891	73.348907
281.252660	6175.261667	452.324219	133.869904
281.252660	6175.261667	451.060547	-80.943459
281.252660	6175.261667	449.796875	74.894234
281.252660	6175.261667	448.532227	130.971939
281.252660	6175.261667	447.267578	91.686020
281.252660	6175.261667	446.002930	167.173584
281.252660	6175.261667	444.737305	127.838837
281.252660	6175.261667	443.471680	216.213272
281.252660	6175.261667	442.206055	33.975365
281.252660	6175.261667	440.940430	148.231277
281.252660	6175.261667	439.673828	232.112427
281.252660	6175.261667	438.407227	279.149200
281.252660	6175.261667	437.140625	42.844105
281.252660	6175.261667	435.873047	245.481079
281.252660	6175.261667	434.605469	164.827286
281.252660	6175.261667	433.337891	218.147232
281.252660	6175.261667	432.070313	5.643339
281.252660	6175.261667	430.801758	35.112392
281.252660	6175.261667	429.533203	131.464966
281.252660	6175.261667	428.264648	70.100082
281.252660	6175.261667	426.996094	129.591522
281.252660	6175.261667	425.726563	378.920685
281.252660	6175.261667	424.457031	183.576614
281.252660	6175.261667	423.186523	167.306641
281.252660	6175.261667	421.916992	269.603394
281.252660	6175.261667	420.646484	227.305084
281.252660	6175.261667	419.375977	366.047729
281.252660	6175.261667	418.104492	245.998505
281.252660	6175.261667	416.833008	123.765480
281.252660	6175.261667	415.561523	51.056568
281.252660	6175.261667	414.290039	96.764153
281.252660	6175.261667	413.017578	140.207169
281.252660	6175.261667	411.746094	93.109581
281.252660	6175.261667	410.472656	-46.631680
281.252660	6175.261667	409.200195	319.349670
281.252660	6175.261667	407.926758	132.078766
281.252660	6175.261667	406.653320	136.241257
281.252660	6175.261667	405.379883	32.752853
281.252660	6175.261667	404.105469	103.365944
281.252660	6175.261667	402.831055	150.181152
281.252660	6175.261667	401.556641	54.994324
281.252660	6175.261667	400.282227	-57.469112
281.252660	6175.261667	399.006836	-4.588876
281.252660	6175.261667	397.731445	138.346985
281.252660	6175.261667	396.456055	135.050415
281.252660	6175.261667	395.179688	50.020020
281.252660	6175.261667	393.903320	29.273880
281.252660	6175.261667	392.626953	128.563705
281.252660	6175.261667	391.350586	51.709473
281.252660	6175.261667	390.073242	69.107788
281.252660	6175.261667	388.795898	139.947189
281.252660	6175.261667	387.518555	139.821289
281.252660	6175.261667	386.240234	92.348587
281.252660	6175.261667	384.961914	-0.297908
281.252660	6175.261667	383.683594	129.759705
281.252660	6175.261667	382.405273	6.764934
281.252660	6175.261667	381.125977	-67.119781
281.252660	6175.261667	379.846680	-59.805836
281.252660	6175.261667	378.567383	65.044174
281.252660	6175.261667	377.287109	1.250024
281.252660	6175.261667	376.006836	209.041550
281.252660	6175.261667	374.726563	249.622955
281.252660	6175.261667	373.446289	133.792099
281.252660	6175.261667	372.165039	205.959839
281.252660	6175.261667	370.883789	258.599823
281.252660	6175.261667	369.602539	30.915735
281.252660	6175.261667	368.320313	65.939056
281.252660	6175.261667	367.039063	171.193375
281.252660	6175.261667	365.755859	342.331726
281.252660	6175.261667	364.473633	254.675430
281.252660	6175.261667	363.190430	85.607552
281.252660	6175.261667	361.907227	5.975684
281.252660	6175.261667	360.624023	-9.900720
281.252660	6175.261667	359.340820	-92.244843
281.252660	6175.261667	358.056641	-42.611202
281.252660	6175.261667	356.772461	79.187004
281.252660	6175.261667	355.487305	142.996765
281.252660	6175.261667	354.202148	16.663288
281.252660	6175.261667	352.916992	-116.373825
281.252660	6175.261667	351.631836	125.365913
281.252660	6175.261667	350.346680	164.198288
281.252660	6175.261667	349.060547	157.875793
281.252660	6175.261667	347.774414	140.505920
281.252660	6175.261667	346.487305	-62.531395
281.252660	6175.261667	345.200195	15.110830
281.252660	6175.261667	343.913086	56.104450
281.252660	6175.261667	342.625977	128.558182
281.252660	6175.261667	341.338867	168.616684
281.252660	6175.261667	340.050781	155.006531
281.252660	6175.261667	338.762695	62.246319
281.252660	6175.261667	337.473633	-103.258324
281.252660	6175.261667	336.184570	-26.864965
281.252660	6175.261667	334.895508	-8.392262
281.252660	6175.261667	333.606445	43.548954
281.252660	6175.261667	332.317383	-223.699692
281.252660	6175.261667	331.027344	90.526276
281.252660	6175.261667	329.736328	15.477006
281.252660	6175.261667	328.446289	-123.776657
281.252660	6175.261667	327.155273	-91.653381
281.252660	6175.261667	325.864258	-2.845132
281.252660	6175.261667	324.573242	6.823950
281.252660	6175.261667	323.281250	-66.867371
281.252660	6175.261667	321.989258	9.397431
281.252660	6175.261667	320.697266	29.859978
281.252660	6175.261667	319.405273	-115.676788
281.252660	6175.261667	318.112305	94.171486
281.252660	6175.261667	316.819336	-116.261070
281.252660	6175.261667	315.526367	-81.593079
281.252660	6175.261667	314.232422	-79.446846
281.252660	6175.261667	312.938477	78.642952
281.252660	6175.261667	311.644531	-45.625607
281.252660	6175.261667	310.349609	17.728245
281.252660	6175.261667	309.054688	-118.623192
281.252660	6175.261667	307.759766	150.451996
281.252660	6175.261667	306.464844	82.312538
281.252660	6175.261667	305.168945	51.408009
281.252660	6175.261667	303.873047	154.967712
281.252660	6175.261667	302.577148	312.569824
281.252660	6175.261667	301.281250	137.458344
281.252660	6175.261667	299.984375	310.086029
