#X		#Y		#Wave		#Intensity
-53.752128	5798.218333	1999.946289	10.853676
-53.752128	5798.218333	1998.981445	104.611748
-53.752128	5798.218333	1998.017578	69.068733
-53.752128	5798.218333	1997.052734	100.517838
-53.752128	5798.218333	1996.088867	27.968014
-53.752128	5798.218333	1995.124023	34.782639
-53.752128	5798.218333	1994.159180	93.674408
-53.752128	5798.218333	1993.193359	43.652782
-53.752128	5798.218333	1992.228516	3.621257
-53.752128	5798.218333	1991.262695	87.434326
-53.752128	5798.218333	1990.296875	-39.087116
-53.752128	5798.218333	1989.331055	116.585815
-53.752128	5798.218333	1988.365234	113.926590
-53.752128	5798.218333	1987.398438	-76.662483
-53.752128	5798.218333	1986.432617	51.904060
-53.752128	5798.218333	1985.465820	7.394911
-53.752128	5798.218333	1984.499023	-37.042873
-53.752128	5798.218333	1983.532227	143.513260
-53.752128	5798.218333	1982.565430	79.403595
-53.752128	5798.218333	1981.597656	84.548965
-53.752128	5798.218333	1980.629883	74.920731
-53.752128	5798.218333	1979.662109	-53.207420
-53.752128	5798.218333	1978.694336	-35.546135
-53.752128	5798.218333	1977.726563	135.229355
-53.752128	5798.218333	1976.758789	83.824432
-53.752128	5798.218333	1975.790039	96.650055
-53.752128	5798.218333	1974.821289	67.565834
-53.752128	5798.218333	1973.852539	105.146843
-53.752128	5798.218333	1972.883789	-24.976419
-53.752128	5798.218333	1971.915039	7.757254
-53.752128	5798.218333	1970.945313	52.845291
-53.752128	5798.218333	1969.975586	11.670833
-53.752128	5798.218333	1969.005859	46.958210
-53.752128	5798.218333	1968.036133	-36.020138
-53.752128	5798.218333	1967.066406	-20.376276
-53.752128	5798.218333	1966.096680	-53.972496
-53.752128	5798.218333	1965.125977	13.458231
-53.752128	5798.218333	1964.155273	-2.828770
-53.752128	5798.218333	1963.184570	5.542533
-53.752128	5798.218333	1962.213867	50.865669
-53.752128	5798.218333	1961.242188	-2.244735
-53.752128	5798.218333	1960.271484	11.133493
-53.752128	5798.218333	1959.299805	61.437588
-53.752128	5798.218333	1958.328125	50.256020
-53.752128	5798.218333	1957.356445	21.890200
-53.752128	5798.218333	1956.384766	20.608351
-53.752128	5798.218333	1955.412109	-22.441444
-53.752128	5798.218333	1954.439453	-31.039677
-53.752128	5798.218333	1953.467773	-10.120480
-53.752128	5798.218333	1952.495117	-23.585506
-53.752128	5798.218333	1951.521484	9.650987
-53.752128	5798.218333	1950.548828	-18.505821
-53.752128	5798.218333	1949.575195	-2.430063
-53.752128	5798.218333	1948.601563	30.845999
-53.752128	5798.218333	1947.627930	39.581669
-53.752128	5798.218333	1946.654297	-13.024765
-53.752128	5798.218333	1945.680664	-4.247664
-53.752128	5798.218333	1944.706055	4.542868
-53.752128	5798.218333	1943.732422	-1.370249
-53.752128	5798.218333	1942.757813	-7.265582
-53.752128	5798.218333	1941.783203	72.676849
-53.752128	5798.218333	1940.807617	-26.359236
-53.752128	5798.218333	1939.833008	9.466366
-53.752128	5798.218333	1938.857422	30.588150
-53.752128	5798.218333	1937.881836	27.213041
-53.752128	5798.218333	1936.906250	-34.941521
-53.752128	5798.218333	1935.930664	30.300905
-53.752128	5798.218333	1934.955078	-4.871030
-53.752128	5798.218333	1933.978516	18.741447
-53.752128	5798.218333	1933.001953	66.834259
-53.752128	5798.218333	1932.025391	100.234283
-53.752128	5798.218333	1931.048828	-44.998947
-53.752128	5798.218333	1930.072266	81.395790
-53.752128	5798.218333	1929.094727	124.584892
-53.752128	5798.218333	1928.118164	13.691859
-53.752128	5798.218333	1927.140625	-48.249546
-53.752128	5798.218333	1926.163086	34.076958
-53.752128	5798.218333	1925.184570	-35.164604
-53.752128	5798.218333	1924.207031	-16.397625
-53.752128	5798.218333	1923.228516	-12.292118
-53.752128	5798.218333	1922.250000	113.961136
-53.752128	5798.218333	1921.271484	76.529190
-53.752128	5798.218333	1920.292969	19.579599
-53.752128	5798.218333	1919.314453	-78.850433
-53.752128	5798.218333	1918.334961	-50.305046
-53.752128	5798.218333	1917.355469	-9.564366
-53.752128	5798.218333	1916.375977	14.082899
-53.752128	5798.218333	1915.396484	25.525295
-53.752128	5798.218333	1914.416992	27.208504
-53.752128	5798.218333	1913.436523	-100.363220
-53.752128	5798.218333	1912.457031	74.467560
-53.752128	5798.218333	1911.476563	59.079338
-53.752128	5798.218333	1910.496094	46.134911
-53.752128	5798.218333	1909.515625	28.321693
-53.752128	5798.218333	1908.534180	-26.032530
-53.752128	5798.218333	1907.552734	56.052177
-53.752128	5798.218333	1906.572266	-25.079243
-53.752128	5798.218333	1905.590820	93.500595
-53.752128	5798.218333	1904.608398	65.953026
-53.752128	5798.218333	1903.626953	-2.967307
-53.752128	5798.218333	1902.644531	6.017108
-53.752128	5798.218333	1901.663086	75.829391
-53.752128	5798.218333	1900.680664	19.103998
-53.752128	5798.218333	1899.698242	-32.737923
-53.752128	5798.218333	1898.714844	-4.308712
-53.752128	5798.218333	1897.732422	4.655127
-53.752128	5798.218333	1896.749023	-20.422890
-53.752128	5798.218333	1895.765625	93.049332
-53.752128	5798.218333	1894.782227	36.365257
-53.752128	5798.218333	1893.798828	-27.590555
-53.752128	5798.218333	1892.814453	-40.513206
-53.752128	5798.218333	1891.831055	-0.001666
-53.752128	5798.218333	1890.846680	52.631489
-53.752128	5798.218333	1889.862305	-42.859982
-53.752128	5798.218333	1888.877930	-12.094910
-53.752128	5798.218333	1887.892578	-22.605307
-53.752128	5798.218333	1886.908203	80.929115
-53.752128	5798.218333	1885.922852	97.081017
-53.752128	5798.218333	1884.937500	52.581268
-53.752128	5798.218333	1883.952148	25.068127
-53.752128	5798.218333	1882.965820	72.724670
-53.752128	5798.218333	1881.980469	40.357365
-53.752128	5798.218333	1880.994141	126.761238
-53.752128	5798.218333	1880.007813	4.719697
-53.752128	5798.218333	1879.021484	-0.984677
-53.752128	5798.218333	1878.035156	0.573514
-53.752128	5798.218333	1877.047852	-29.361620
-53.752128	5798.218333	1876.061523	52.097527
-53.752128	5798.218333	1875.074219	26.991795
-53.752128	5798.218333	1874.086914	115.656662
-53.752128	5798.218333	1873.098633	13.088662
-53.752128	5798.218333	1872.111328	36.376163
-53.752128	5798.218333	1871.123047	40.292877
-53.752128	5798.218333	1870.135742	41.781940
-53.752128	5798.218333	1869.147461	45.680759
-53.752128	5798.218333	1868.158203	-90.667763
-53.752128	5798.218333	1867.169922	7.518193
-53.752128	5798.218333	1866.180664	35.566235
-53.752128	5798.218333	1865.192383	63.596111
-53.752128	5798.218333	1864.203125	36.036964
-53.752128	5798.218333	1863.213867	119.598427
-53.752128	5798.218333	1862.223633	9.906141
-53.752128	5798.218333	1861.234375	-12.823391
-53.752128	5798.218333	1860.244141	87.573799
-53.752128	5798.218333	1859.253906	122.751945
-53.752128	5798.218333	1858.263672	-11.026785
-53.752128	5798.218333	1857.273438	115.829094
-53.752128	5798.218333	1856.282227	-46.865341
-53.752128	5798.218333	1855.291992	-16.547770
-53.752128	5798.218333	1854.300781	42.687149
-53.752128	5798.218333	1853.309570	-9.018969
-53.752128	5798.218333	1852.317383	79.101326
-53.752128	5798.218333	1851.326172	-11.173261
-53.752128	5798.218333	1850.333984	9.423641
-53.752128	5798.218333	1849.342773	-59.138790
-53.752128	5798.218333	1848.350586	79.473412
-53.752128	5798.218333	1847.357422	80.746284
-53.752128	5798.218333	1846.365234	106.089485
-53.752128	5798.218333	1845.372070	32.707066
-53.752128	5798.218333	1844.379883	21.925968
-53.752128	5798.218333	1843.386719	100.181396
-53.752128	5798.218333	1842.393555	70.123405
-53.752128	5798.218333	1841.399414	-15.263597
-53.752128	5798.218333	1840.406250	-16.445057
-53.752128	5798.218333	1839.412109	-17.636221
-53.752128	5798.218333	1838.417969	-16.432116
-53.752128	5798.218333	1837.423828	18.416040
-53.752128	5798.218333	1836.429688	14.787152
-53.752128	5798.218333	1835.434570	126.490547
-53.752128	5798.218333	1834.440430	0.297221
-53.752128	5798.218333	1833.445313	23.067276
-53.752128	5798.218333	1832.450195	14.598576
-53.752128	5798.218333	1831.454102	22.930887
-53.752128	5798.218333	1830.458984	21.648520
-53.752128	5798.218333	1829.462891	-37.248840
-53.752128	5798.218333	1828.466797	-12.141511
-53.752128	5798.218333	1827.470703	29.742014
-53.752128	5798.218333	1826.474609	33.218647
-53.752128	5798.218333	1825.478516	-8.885176
-53.752128	5798.218333	1824.481445	107.282036
-53.752128	5798.218333	1823.484375	-42.727360
-53.752128	5798.218333	1822.487305	111.736557
-53.752128	5798.218333	1821.490234	12.092766
-53.752128	5798.218333	1820.493164	-39.599377
-53.752128	5798.218333	1819.495117	-60.138325
-53.752128	5798.218333	1818.498047	46.270428
-53.752128	5798.218333	1817.500000	87.969147
-53.752128	5798.218333	1816.500977	163.163162
-53.752128	5798.218333	1815.502930	-29.795347
-53.752128	5798.218333	1814.504883	19.047106
-53.752128	5798.218333	1813.505859	3.250675
-53.752128	5798.218333	1812.506836	83.152245
-53.752128	5798.218333	1811.507813	93.644440
-53.752128	5798.218333	1810.508789	46.724621
-53.752128	5798.218333	1809.508789	21.333029
-53.752128	5798.218333	1808.508789	72.445511
-53.752128	5798.218333	1807.508789	66.163193
-53.752128	5798.218333	1806.508789	93.331818
-53.752128	5798.218333	1805.508789	10.570580
-53.752128	5798.218333	1804.508789	-33.945663
-53.752128	5798.218333	1803.507813	0.364897
-53.752128	5798.218333	1802.506836	27.489632
-53.752128	5798.218333	1801.505859	56.983284
-53.752128	5798.218333	1800.504883	48.263386
-53.752128	5798.218333	1799.502930	77.723732
-53.752128	5798.218333	1798.501953	-47.938232
-53.752128	5798.218333	1797.500000	41.156559
-53.752128	5798.218333	1796.498047	63.420338
-53.752128	5798.218333	1795.496094	76.128319
-53.752128	5798.218333	1794.493164	141.278748
-53.752128	5798.218333	1793.491211	89.584023
-53.752128	5798.218333	1792.488281	28.365313
-53.752128	5798.218333	1791.485352	69.633263
-53.752128	5798.218333	1790.482422	37.016602
-53.752128	5798.218333	1789.478516	-17.035767
-53.752128	5798.218333	1788.475586	-30.585772
-53.752128	5798.218333	1787.471680	-79.858238
-53.752128	5798.218333	1786.467773	35.155102
-53.752128	5798.218333	1785.463867	33.480186
-53.752128	5798.218333	1784.459961	74.636368
-53.752128	5798.218333	1783.455078	-7.962636
-53.752128	5798.218333	1782.450195	85.507370
-53.752128	5798.218333	1781.445313	-30.376873
-53.752128	5798.218333	1780.440430	136.767746
-53.752128	5798.218333	1779.435547	-0.495937
-53.752128	5798.218333	1778.429688	100.002815
-53.752128	5798.218333	1777.424805	-34.839504
-53.752128	5798.218333	1776.418945	51.355404
-53.752128	5798.218333	1775.413086	4.464048
-53.752128	5798.218333	1774.406250	145.237488
-53.752128	5798.218333	1773.400391	171.954803
-53.752128	5798.218333	1772.393555	46.687405
-53.752128	5798.218333	1771.386719	56.780300
-53.752128	5798.218333	1770.379883	69.236259
-53.752128	5798.218333	1769.373047	74.561455
-53.752128	5798.218333	1768.365234	39.541336
-53.752128	5798.218333	1767.358398	63.834717
-53.752128	5798.218333	1766.350586	-56.566929
-53.752128	5798.218333	1765.342773	64.945625
-53.752128	5798.218333	1764.334961	-19.859959
-53.752128	5798.218333	1763.326172	-2.712912
-53.752128	5798.218333	1762.318359	38.122536
-53.752128	5798.218333	1761.309570	50.500847
-53.752128	5798.218333	1760.300781	13.117949
-53.752128	5798.218333	1759.291016	-0.571809
-53.752128	5798.218333	1758.282227	-14.260836
-53.752128	5798.218333	1757.272461	69.124527
-53.752128	5798.218333	1756.262695	-27.439991
-53.752128	5798.218333	1755.252930	-3.265586
-53.752128	5798.218333	1754.243164	4.329459
-53.752128	5798.218333	1753.233398	42.673103
-53.752128	5798.218333	1752.222656	59.705986
-53.752128	5798.218333	1751.211914	88.552071
-53.752128	5798.218333	1750.201172	1.518555
-53.752128	5798.218333	1749.190430	-16.928169
-53.752128	5798.218333	1748.179688	73.355774
-53.752128	5798.218333	1747.167969	-51.453396
-53.752128	5798.218333	1746.156250	76.595444
-53.752128	5798.218333	1745.144531	36.866390
-53.752128	5798.218333	1744.132813	-43.004009
-53.752128	5798.218333	1743.121094	75.509712
-53.752128	5798.218333	1742.108398	21.622095
-53.752128	5798.218333	1741.095703	-29.889063
-53.752128	5798.218333	1740.083008	-22.383547
-53.752128	5798.218333	1739.070313	-40.841011
-53.752128	5798.218333	1738.057617	-113.556549
-53.752128	5798.218333	1737.043945	-6.988246
-53.752128	5798.218333	1736.030273	-18.377819
-53.752128	5798.218333	1735.016602	12.673251
-53.752128	5798.218333	1734.002930	140.360107
-53.752128	5798.218333	1732.989258	15.805154
-53.752128	5798.218333	1731.974609	39.749241
-53.752128	5798.218333	1730.959961	58.968262
-53.752128	5798.218333	1729.945313	87.598274
-53.752128	5798.218333	1728.930664	-36.868198
-53.752128	5798.218333	1727.916016	95.366760
-53.752128	5798.218333	1726.900391	46.272274
-53.752128	5798.218333	1725.885742	-52.234444
-53.752128	5798.218333	1724.870117	25.789650
-53.752128	5798.218333	1723.853516	-27.980816
-53.752128	5798.218333	1722.837891	28.830620
-53.752128	5798.218333	1721.822266	-43.740524
-53.752128	5798.218333	1720.805664	3.638134
-53.752128	5798.218333	1719.789063	-0.727455
-53.752128	5798.218333	1718.772461	27.814152
-53.752128	5798.218333	1717.754883	2.286982
-53.752128	5798.218333	1716.738281	-39.679790
-53.752128	5798.218333	1715.720703	5.287735
-53.752128	5798.218333	1714.703125	90.164955
-53.752128	5798.218333	1713.685547	-29.299768
-53.752128	5798.218333	1712.667969	22.675871
-53.752128	5798.218333	1711.649414	37.068279
-53.752128	5798.218333	1710.630859	-44.774342
-53.752128	5798.218333	1709.612305	-2.220567
-53.752128	5798.218333	1708.593750	59.083435
-53.752128	5798.218333	1707.575195	47.646526
-53.752128	5798.218333	1706.555664	-41.181355
-53.752128	5798.218333	1705.536133	29.466309
-53.752128	5798.218333	1704.516602	95.396233
-53.752128	5798.218333	1703.497070	65.200775
-53.752128	5798.218333	1702.477539	-7.166136
-53.752128	5798.218333	1701.457031	4.837816
-53.752128	5798.218333	1700.437500	89.454880
-53.752128	5798.218333	1699.416992	94.406334
-53.752128	5798.218333	1698.395508	111.061134
-53.752128	5798.218333	1697.375000	-111.088943
-53.752128	5798.218333	1696.354492	-59.291870
-53.752128	5798.218333	1695.333008	-42.621559
-53.752128	5798.218333	1694.311523	25.517036
-53.752128	5798.218333	1693.290039	63.216518
-53.752128	5798.218333	1692.267578	49.443020
-53.752128	5798.218333	1691.246094	91.798172
-53.752128	5798.218333	1690.223633	-15.497978
-53.752128	5798.218333	1689.201172	162.428665
-53.752128	5798.218333	1688.178711	27.113066
-53.752128	5798.218333	1687.155273	13.353649
-53.752128	5798.218333	1686.132813	76.695648
-53.752128	5798.218333	1685.109375	76.945290
-53.752128	5798.218333	1684.085938	60.847260
-53.752128	5798.218333	1683.062500	7.396994
-53.752128	5798.218333	1682.039063	9.992756
-53.752128	5798.218333	1681.014648	3.249846
-53.752128	5798.218333	1679.990234	-10.491089
-53.752128	5798.218333	1678.965820	17.768307
-53.752128	5798.218333	1677.941406	122.992706
-53.752128	5798.218333	1676.916992	18.281773
-53.752128	5798.218333	1675.891602	27.863617
-53.752128	5798.218333	1674.866211	-9.183333
-53.752128	5798.218333	1673.840820	-15.915407
-53.752128	5798.218333	1672.815430	33.284405
-53.752128	5798.218333	1671.790039	12.567533
-53.752128	5798.218333	1670.763672	108.331512
-53.752128	5798.218333	1669.737305	-7.882333
-53.752128	5798.218333	1668.710938	-42.550751
-53.752128	5798.218333	1667.684570	-72.549164
-53.752128	5798.218333	1666.658203	67.384941
-53.752128	5798.218333	1665.630859	9.450135
-53.752128	5798.218333	1664.603516	42.282452
-53.752128	5798.218333	1663.576172	-41.213261
-53.752128	5798.218333	1662.548828	68.371994
-53.752128	5798.218333	1661.520508	59.317360
-53.752128	5798.218333	1660.493164	-0.880812
-53.752128	5798.218333	1659.464844	145.826904
-53.752128	5798.218333	1658.436523	87.960083
-53.752128	5798.218333	1657.408203	76.589340
-53.752128	5798.218333	1656.378906	-67.198563
-53.752128	5798.218333	1655.350586	56.185974
-53.752128	5798.218333	1654.321289	102.887604
-53.752128	5798.218333	1653.291992	-26.887091
-53.752128	5798.218333	1652.261719	12.849526
-53.752128	5798.218333	1651.232422	-0.807585
-53.752128	5798.218333	1650.202148	38.911976
-53.752128	5798.218333	1649.171875	36.856865
-53.752128	5798.218333	1648.141602	-67.257530
-53.752128	5798.218333	1647.111328	4.924813
-53.752128	5798.218333	1646.080078	33.024357
-53.752128	5798.218333	1645.049805	10.115282
-53.752128	5798.218333	1644.018555	89.198235
-53.752128	5798.218333	1642.987305	19.942665
-53.752128	5798.218333	1641.955078	161.552048
-53.752128	5798.218333	1640.923828	29.769249
-53.752128	5798.218333	1639.891602	69.422325
-53.752128	5798.218333	1638.859375	-22.924030
-53.752128	5798.218333	1637.827148	0.522477
-53.752128	5798.218333	1636.794922	81.828796
-53.752128	5798.218333	1635.761719	144.590759
-53.752128	5798.218333	1634.729492	-26.356770
-53.752128	5798.218333	1633.696289	96.552834
-53.752128	5798.218333	1632.662109	89.896049
-53.752128	5798.218333	1631.628906	50.871967
-53.752128	5798.218333	1630.594727	113.590691
-53.752128	5798.218333	1629.561523	65.336761
-53.752128	5798.218333	1628.527344	81.812561
-53.752128	5798.218333	1627.493164	5.860335
-53.752128	5798.218333	1626.458008	186.367218
-53.752128	5798.218333	1625.423828	175.102066
-53.752128	5798.218333	1624.388672	175.389404
-53.752128	5798.218333	1623.353516	101.797264
-53.752128	5798.218333	1622.318359	129.805191
-53.752128	5798.218333	1621.282227	143.956589
-53.752128	5798.218333	1620.247070	255.020782
-53.752128	5798.218333	1619.210938	213.780319
-53.752128	5798.218333	1618.174805	144.880356
-53.752128	5798.218333	1617.137695	34.498833
-53.752128	5798.218333	1616.101563	212.374542
-53.752128	5798.218333	1615.064453	143.523911
-53.752128	5798.218333	1614.027344	148.456635
-53.752128	5798.218333	1612.990234	144.173492
-53.752128	5798.218333	1611.953125	160.630814
-53.752128	5798.218333	1610.916016	232.367477
-53.752128	5798.218333	1609.877930	292.563873
-53.752128	5798.218333	1608.839844	166.235519
-53.752128	5798.218333	1607.801758	240.241333
-53.752128	5798.218333	1606.763672	134.694656
-53.752128	5798.218333	1605.724609	141.949951
-53.752128	5798.218333	1604.685547	151.507355
-53.752128	5798.218333	1603.646484	338.186951
-53.752128	5798.218333	1602.607422	221.219040
-53.752128	5798.218333	1601.568359	251.462051
-53.752128	5798.218333	1600.528320	219.624496
-53.752128	5798.218333	1599.489258	254.461349
-53.752128	5798.218333	1598.449219	176.683319
-53.752128	5798.218333	1597.408203	216.116119
-53.752128	5798.218333	1596.368164	200.407562
-53.752128	5798.218333	1595.327148	221.455597
-53.752128	5798.218333	1594.287109	203.464874
-53.752128	5798.218333	1593.246094	157.934692
-53.752128	5798.218333	1592.204102	162.923233
-53.752128	5798.218333	1591.163086	76.119705
-53.752128	5798.218333	1590.121094	177.498795
-53.752128	5798.218333	1589.079102	207.728760
-53.752128	5798.218333	1588.037109	205.841858
-53.752128	5798.218333	1586.995117	224.598373
-53.752128	5798.218333	1585.953125	188.328445
-53.752128	5798.218333	1584.910156	147.492081
-53.752128	5798.218333	1583.867188	193.763397
-53.752128	5798.218333	1582.824219	148.369232
-53.752128	5798.218333	1581.781250	176.305206
-53.752128	5798.218333	1580.737305	130.940826
-53.752128	5798.218333	1579.693359	64.989700
-53.752128	5798.218333	1578.649414	118.124474
-53.752128	5798.218333	1577.605469	120.884232
-53.752128	5798.218333	1576.561523	185.440903
-53.752128	5798.218333	1575.516602	41.751881
-53.752128	5798.218333	1574.472656	94.870735
-53.752128	5798.218333	1573.427734	179.994720
-53.752128	5798.218333	1572.381836	118.732285
-53.752128	5798.218333	1571.336914	176.392319
-53.752128	5798.218333	1570.291016	103.735603
-53.752128	5798.218333	1569.246094	140.817581
-53.752128	5798.218333	1568.200195	200.739868
-53.752128	5798.218333	1567.153320	169.259338
-53.752128	5798.218333	1566.107422	53.284462
-53.752128	5798.218333	1565.060547	90.367294
-53.752128	5798.218333	1564.013672	70.360039
-53.752128	5798.218333	1562.966797	127.981468
-53.752128	5798.218333	1561.919922	133.091965
-53.752128	5798.218333	1560.872070	124.513771
-53.752128	5798.218333	1559.825195	86.286842
-53.752128	5798.218333	1558.777344	130.195999
-53.752128	5798.218333	1557.729492	78.310440
-53.752128	5798.218333	1556.680664	44.690922
-53.752128	5798.218333	1555.632813	122.795105
-53.752128	5798.218333	1554.583984	168.964493
-53.752128	5798.218333	1553.535156	135.364914
-53.752128	5798.218333	1552.486328	17.487129
-53.752128	5798.218333	1551.436523	-25.169819
-53.752128	5798.218333	1550.387695	59.732754
-53.752128	5798.218333	1549.337891	39.866482
-53.752128	5798.218333	1548.288086	106.522179
-53.752128	5798.218333	1547.238281	93.495041
-53.752128	5798.218333	1546.187500	57.722122
-53.752128	5798.218333	1545.136719	126.627762
-53.752128	5798.218333	1544.086914	104.524467
-53.752128	5798.218333	1543.035156	61.965557
-53.752128	5798.218333	1541.984375	78.550591
-53.752128	5798.218333	1540.933594	229.265457
-53.752128	5798.218333	1539.881836	143.540665
-53.752128	5798.218333	1538.830078	151.028290
-53.752128	5798.218333	1537.778320	85.814049
-53.752128	5798.218333	1536.725586	97.865326
-53.752128	5798.218333	1535.673828	130.359497
-53.752128	5798.218333	1534.621094	119.703484
-53.752128	5798.218333	1533.568359	156.733658
-53.752128	5798.218333	1532.515625	146.089920
-53.752128	5798.218333	1531.461914	121.840042
-53.752128	5798.218333	1530.409180	63.573681
-53.752128	5798.218333	1529.355469	80.195129
-53.752128	5798.218333	1528.301758	194.341507
-53.752128	5798.218333	1527.247070	111.170692
-53.752128	5798.218333	1526.193359	157.265930
-53.752128	5798.218333	1525.138672	96.815758
-53.752128	5798.218333	1524.083984	120.246078
-53.752128	5798.218333	1523.029297	80.232697
-53.752128	5798.218333	1521.974609	35.711422
-53.752128	5798.218333	1520.918945	79.544022
-53.752128	5798.218333	1519.863281	32.788948
-53.752128	5798.218333	1518.807617	94.730644
-53.752128	5798.218333	1517.751953	-69.698502
-53.752128	5798.218333	1516.696289	164.247375
-53.752128	5798.218333	1515.639648	38.347553
-53.752128	5798.218333	1514.583008	93.480042
-53.752128	5798.218333	1513.526367	-11.986021
-53.752128	5798.218333	1512.469727	-13.383615
-53.752128	5798.218333	1511.412109	37.225254
-53.752128	5798.218333	1510.355469	105.904831
-53.752128	5798.218333	1509.297852	20.887548
-53.752128	5798.218333	1508.240234	17.253014
-53.752128	5798.218333	1507.181641	42.993942
-53.752128	5798.218333	1506.124023	5.491901
-53.752128	5798.218333	1505.065430	1.883675
-53.752128	5798.218333	1504.006836	-58.158627
-53.752128	5798.218333	1502.948242	-59.480938
-53.752128	5798.218333	1501.888672	67.842102
-53.752128	5798.218333	1500.830078	1.075538
-53.752128	5798.218333	1499.770508	2.019552
-53.752128	5798.218333	1498.710938	59.357201
-53.752128	5798.218333	1497.650391	-45.682652
-53.752128	5798.218333	1496.590820	34.202316
-53.752128	5798.218333	1495.530273	64.471535
-53.752128	5798.218333	1494.469727	22.618582
-53.752128	5798.218333	1493.409180	-55.262058
-53.752128	5798.218333	1492.348633	51.623814
-53.752128	5798.218333	1491.287109	41.352757
-53.752128	5798.218333	1490.225586	85.138771
-53.752128	5798.218333	1489.164063	59.120056
-53.752128	5798.218333	1488.102539	15.111304
-53.752128	5798.218333	1487.041016	-22.120625
-53.752128	5798.218333	1485.978516	35.173225
-53.752128	5798.218333	1484.916016	29.465363
-53.752128	5798.218333	1483.853516	-36.967598
-53.752128	5798.218333	1482.791016	58.546711
-53.752128	5798.218333	1481.727539	-28.084517
-53.752128	5798.218333	1480.664063	-20.255753
-53.752128	5798.218333	1479.600586	52.728809
-53.752128	5798.218333	1478.537109	100.993683
-53.752128	5798.218333	1477.473633	104.317932
-53.752128	5798.218333	1476.409180	22.318729
-53.752128	5798.218333	1475.344727	86.256851
-53.752128	5798.218333	1474.280273	123.281464
-53.752128	5798.218333	1473.215820	34.609863
-53.752128	5798.218333	1472.151367	38.030861
-53.752128	5798.218333	1471.085938	90.737122
-53.752128	5798.218333	1470.020508	150.190292
-53.752128	5798.218333	1468.955078	148.918213
-53.752128	5798.218333	1467.888672	-46.973347
-53.752128	5798.218333	1466.823242	3.384648
-53.752128	5798.218333	1465.756836	49.218143
-53.752128	5798.218333	1464.690430	1.434555
-53.752128	5798.218333	1463.624023	22.611763
-53.752128	5798.218333	1462.556641	-43.461811
-53.752128	5798.218333	1461.490234	33.910427
-53.752128	5798.218333	1460.422852	-36.371914
-53.752128	5798.218333	1459.355469	47.493561
-53.752128	5798.218333	1458.287109	-36.191521
-53.752128	5798.218333	1457.219727	25.710789
-53.752128	5798.218333	1456.151367	-4.408883
-53.752128	5798.218333	1455.083008	10.255489
-53.752128	5798.218333	1454.014648	107.259811
-53.752128	5798.218333	1452.945313	-36.274185
-53.752128	5798.218333	1451.876953	-35.440075
-53.752128	5798.218333	1450.807617	-78.132072
-53.752128	5798.218333	1449.738281	34.632572
-53.752128	5798.218333	1448.668945	66.795258
-53.752128	5798.218333	1447.598633	12.477015
-53.752128	5798.218333	1446.528320	-2.337717
-53.752128	5798.218333	1445.458008	-54.252708
-53.752128	5798.218333	1444.387695	-55.034084
-53.752128	5798.218333	1443.317383	-61.703087
-53.752128	5798.218333	1442.246094	-31.634497
-53.752128	5798.218333	1441.174805	-45.451588
-53.752128	5798.218333	1440.103516	-11.198560
-53.752128	5798.218333	1439.032227	31.555487
-53.752128	5798.218333	1437.960938	126.414055
-53.752128	5798.218333	1436.888672	-31.402378
-53.752128	5798.218333	1435.816406	-23.311808
-53.752128	5798.218333	1434.744141	-20.241001
-53.752128	5798.218333	1433.670898	5.605487
-53.752128	5798.218333	1432.598633	5.277605
-53.752128	5798.218333	1431.525391	142.640427
-53.752128	5798.218333	1430.452148	48.983944
-53.752128	5798.218333	1429.378906	109.907990
-53.752128	5798.218333	1428.304688	46.850368
-53.752128	5798.218333	1427.231445	-25.867062
-53.752128	5798.218333	1426.157227	77.559814
-53.752128	5798.218333	1425.083008	-17.983614
-53.752128	5798.218333	1424.007813	40.182934
-53.752128	5798.218333	1422.933594	67.819962
-53.752128	5798.218333	1421.858398	74.440636
-53.752128	5798.218333	1420.783203	-61.527946
-53.752128	5798.218333	1419.708008	1.438384
-53.752128	5798.218333	1418.631836	6.312407
-53.752128	5798.218333	1417.555664	64.289528
-53.752128	5798.218333	1416.479492	133.299911
-53.752128	5798.218333	1415.403320	-4.593737
-53.752128	5798.218333	1414.327148	83.466492
-53.752128	5798.218333	1413.250000	66.837936
-53.752128	5798.218333	1412.173828	6.118114
-53.752128	5798.218333	1411.096680	42.533943
-53.752128	5798.218333	1410.018555	82.880096
-53.752128	5798.218333	1408.941406	27.187654
-53.752128	5798.218333	1407.863281	-44.070583
-53.752128	5798.218333	1406.785156	68.776787
-53.752128	5798.218333	1405.707031	109.052017
-53.752128	5798.218333	1404.628906	63.340519
-53.752128	5798.218333	1403.549805	97.009720
-53.752128	5798.218333	1402.470703	50.342308
-53.752128	5798.218333	1401.391602	39.434216
-53.752128	5798.218333	1400.312500	-8.390118
-53.752128	5798.218333	1399.233398	37.477188
-53.752128	5798.218333	1398.153320	-14.515608
-53.752128	5798.218333	1397.073242	-28.900784
-53.752128	5798.218333	1395.993164	-81.860252
-53.752128	5798.218333	1394.913086	45.326431
-53.752128	5798.218333	1393.832031	44.650990
-53.752128	5798.218333	1392.750977	-26.151787
-53.752128	5798.218333	1391.669922	54.728138
-53.752128	5798.218333	1390.588867	86.560257
-53.752128	5798.218333	1389.506836	87.593185
-53.752128	5798.218333	1388.425781	-7.549026
-53.752128	5798.218333	1387.343750	77.617188
-53.752128	5798.218333	1386.261719	-20.321144
-53.752128	5798.218333	1385.178711	-55.790440
-53.752128	5798.218333	1384.096680	-70.604431
-53.752128	5798.218333	1383.013672	-12.315645
-53.752128	5798.218333	1381.930664	50.245201
-53.752128	5798.218333	1380.846680	-2.077779
-53.752128	5798.218333	1379.763672	101.686295
-53.752128	5798.218333	1378.679688	-15.721361
-53.752128	5798.218333	1377.595703	72.170280
-53.752128	5798.218333	1376.511719	-21.224016
-53.752128	5798.218333	1375.427734	-9.029288
-53.752128	5798.218333	1374.342773	-6.780787
-53.752128	5798.218333	1373.257813	-84.838089
-53.752128	5798.218333	1372.172852	-5.132379
-53.752128	5798.218333	1371.087891	125.529427
-53.752128	5798.218333	1370.001953	67.503693
-53.752128	5798.218333	1368.916992	-18.356010
-53.752128	5798.218333	1367.831055	18.457050
-53.752128	5798.218333	1366.744141	-10.513690
-53.752128	5798.218333	1365.658203	34.096283
-53.752128	5798.218333	1364.571289	43.278599
-53.752128	5798.218333	1363.484375	8.295450
-53.752128	5798.218333	1362.397461	-17.386160
-53.752128	5798.218333	1361.310547	29.536465
-53.752128	5798.218333	1360.222656	74.973953
-53.752128	5798.218333	1359.135742	58.668419
-53.752128	5798.218333	1358.047852	131.810303
-53.752128	5798.218333	1356.958984	42.491867
-53.752128	5798.218333	1355.871094	-4.253788
-53.752128	5798.218333	1354.782227	50.413464
-53.752128	5798.218333	1353.693359	45.950577
-53.752128	5798.218333	1352.604492	103.921722
-53.752128	5798.218333	1351.515625	85.186485
-53.752128	5798.218333	1350.425781	106.022720
-53.752128	5798.218333	1349.335938	49.215729
-53.752128	5798.218333	1348.246094	65.754494
-53.752128	5798.218333	1347.156250	61.719288
-53.752128	5798.218333	1346.066406	69.397430
-53.752128	5798.218333	1344.975586	57.182278
-53.752128	5798.218333	1343.884766	103.988266
-53.752128	5798.218333	1342.793945	8.810702
-53.752128	5798.218333	1341.702148	-5.375968
-53.752128	5798.218333	1340.611328	83.622574
-53.752128	5798.218333	1339.519531	131.345322
-53.752128	5798.218333	1338.427734	87.211571
-53.752128	5798.218333	1337.334961	66.917694
-53.752128	5798.218333	1336.243164	39.249516
-53.752128	5798.218333	1335.150391	68.911369
-53.752128	5798.218333	1334.057617	88.222412
-53.752128	5798.218333	1332.964844	66.676254
-53.752128	5798.218333	1331.871094	66.585747
-53.752128	5798.218333	1330.778320	107.148056
-53.752128	5798.218333	1329.684570	60.935230
-53.752128	5798.218333	1328.590820	-0.318069
-53.752128	5798.218333	1327.496094	-13.937154
-53.752128	5798.218333	1326.402344	-23.621632
-53.752128	5798.218333	1325.307617	37.777000
-53.752128	5798.218333	1324.212891	-38.597435
-53.752128	5798.218333	1323.117188	43.410725
-53.752128	5798.218333	1322.022461	-1.238253
-53.752128	5798.218333	1320.926758	-10.339677
-53.752128	5798.218333	1319.831055	-32.684559
-53.752128	5798.218333	1318.735352	-14.448484
-53.752128	5798.218333	1317.638672	-73.999199
-53.752128	5798.218333	1316.542969	12.159883
-53.752128	5798.218333	1315.446289	-47.934464
-53.752128	5798.218333	1314.349609	-21.374790
-53.752128	5798.218333	1313.251953	76.846901
-53.752128	5798.218333	1312.155273	50.400997
-53.752128	5798.218333	1311.057617	64.590172
-53.752128	5798.218333	1309.959961	9.026689
-53.752128	5798.218333	1308.862305	-6.940867
-53.752128	5798.218333	1307.763672	49.272427
-53.752128	5798.218333	1306.665039	37.624039
-53.752128	5798.218333	1305.566406	54.563629
-53.752128	5798.218333	1304.467773	-14.359538
-53.752128	5798.218333	1303.369141	92.877441
-53.752128	5798.218333	1302.269531	-11.034050
-53.752128	5798.218333	1301.169922	-32.209801
-53.752128	5798.218333	1300.070313	6.085485
-53.752128	5798.218333	1298.970703	25.064163
-53.752128	5798.218333	1297.870117	20.894444
-53.752128	5798.218333	1296.769531	0.210757
-53.752128	5798.218333	1295.668945	-103.771126
-53.752128	5798.218333	1294.568359	-12.256817
-53.752128	5798.218333	1293.466797	8.405055
-53.752128	5798.218333	1292.366211	-59.187531
-53.752128	5798.218333	1291.264648	43.952316
-53.752128	5798.218333	1290.162109	16.460054
-53.752128	5798.218333	1289.060547	-4.399856
-53.752128	5798.218333	1287.958008	-51.660770
-53.752128	5798.218333	1286.855469	12.461126
-53.752128	5798.218333	1285.752930	-16.771521
-53.752128	5798.218333	1284.650391	-17.042112
-53.752128	5798.218333	1283.546875	-24.851585
-53.752128	5798.218333	1282.444336	-30.029758
-53.752128	5798.218333	1281.339844	-56.651112
-53.752128	5798.218333	1280.236328	50.970306
-53.752128	5798.218333	1279.132813	-18.006283
-53.752128	5798.218333	1278.028320	14.451644
-53.752128	5798.218333	1276.923828	-9.098934
-53.752128	5798.218333	1275.819336	8.553845
-53.752128	5798.218333	1274.713867	65.547005
-53.752128	5798.218333	1273.608398	-1.422099
-53.752128	5798.218333	1272.503906	-13.352174
-53.752128	5798.218333	1271.397461	48.662842
-53.752128	5798.218333	1270.291992	20.123526
-53.752128	5798.218333	1269.185547	-5.029995
-53.752128	5798.218333	1268.080078	7.100421
-53.752128	5798.218333	1266.972656	36.892792
-53.752128	5798.218333	1265.866211	45.708740
-53.752128	5798.218333	1264.759766	79.149178
-53.752128	5798.218333	1263.652344	-33.019951
-53.752128	5798.218333	1262.544922	16.768808
-53.752128	5798.218333	1261.436523	93.150307
-53.752128	5798.218333	1260.329102	66.628365
-53.752128	5798.218333	1259.220703	73.082123
-53.752128	5798.218333	1258.112305	21.542877
-53.752128	5798.218333	1257.003906	-16.451576
-53.752128	5798.218333	1255.895508	44.970779
-53.752128	5798.218333	1254.786133	65.107414
-53.752128	5798.218333	1253.676758	-23.875380
-53.752128	5798.218333	1252.567383	-35.409039
-53.752128	5798.218333	1251.458008	-108.586632
-53.752128	5798.218333	1250.347656	-31.188818
-53.752128	5798.218333	1249.237305	-12.979226
-53.752128	5798.218333	1248.126953	21.680517
-53.752128	5798.218333	1247.016602	-45.467449
-53.752128	5798.218333	1245.905273	-16.411045
-53.752128	5798.218333	1244.793945	8.530910
-53.752128	5798.218333	1243.682617	5.683317
-53.752128	5798.218333	1242.571289	69.280014
-53.752128	5798.218333	1241.459961	25.103420
-53.752128	5798.218333	1240.347656	-14.438625
-53.752128	5798.218333	1239.235352	-3.644926
-53.752128	5798.218333	1238.123047	-18.494781
-53.752128	5798.218333	1237.009766	-19.223900
-53.752128	5798.218333	1235.897461	93.617264
-53.752128	5798.218333	1234.784180	85.275352
-53.752128	5798.218333	1233.670898	-42.672710
-53.752128	5798.218333	1232.556641	14.474139
-53.752128	5798.218333	1231.443359	-34.044037
-53.752128	5798.218333	1230.329102	56.843395
-53.752128	5798.218333	1229.214844	41.976780
-53.752128	5798.218333	1228.099609	-18.386669
-53.752128	5798.218333	1226.985352	71.548531
-53.752128	5798.218333	1225.870117	-13.056651
-53.752128	5798.218333	1224.754883	9.113957
-53.752128	5798.218333	1223.639648	121.573250
-53.752128	5798.218333	1222.523438	16.081617
-53.752128	5798.218333	1221.408203	72.459442
-53.752128	5798.218333	1220.291992	11.269061
-53.752128	5798.218333	1219.174805	66.168396
-53.752128	5798.218333	1218.058594	26.130156
-53.752128	5798.218333	1216.941406	65.364647
-53.752128	5798.218333	1215.824219	66.362587
-53.752128	5798.218333	1214.707031	33.532143
-53.752128	5798.218333	1213.589844	68.886932
-53.752128	5798.218333	1212.471680	40.112907
-53.752128	5798.218333	1211.353516	-3.367328
-53.752128	5798.218333	1210.235352	45.946426
-53.752128	5798.218333	1209.117188	71.211357
-53.752128	5798.218333	1207.998047	14.033806
-53.752128	5798.218333	1206.878906	14.596893
-53.752128	5798.218333	1205.759766	-9.608706
-53.752128	5798.218333	1204.640625	-0.276394
-53.752128	5798.218333	1203.520508	-68.031509
-53.752128	5798.218333	1202.401367	-9.674039
-53.752128	5798.218333	1201.281250	42.833466
-53.752128	5798.218333	1200.160156	-40.946533
-53.752128	5798.218333	1199.040039	55.637142
-53.752128	5798.218333	1197.918945	56.334351
-53.752128	5798.218333	1196.797852	54.302570
-53.752128	5798.218333	1195.676758	5.837658
-53.752128	5798.218333	1194.555664	-25.808226
-53.752128	5798.218333	1193.433594	-16.851974
-53.752128	5798.218333	1192.311523	26.327030
-53.752128	5798.218333	1191.189453	17.890858
-53.752128	5798.218333	1190.066406	-28.507509
-53.752128	5798.218333	1188.944336	-41.361172
-53.752128	5798.218333	1187.821289	13.380757
-53.752128	5798.218333	1186.698242	62.322781
-53.752128	5798.218333	1185.574219	93.628868
-53.752128	5798.218333	1184.451172	13.839611
-53.752128	5798.218333	1183.327148	-11.321251
-53.752128	5798.218333	1182.203125	36.542534
-53.752128	5798.218333	1181.078125	-59.885040
-53.752128	5798.218333	1179.954102	15.796486
-53.752128	5798.218333	1178.829102	-5.025095
-53.752128	5798.218333	1177.704102	67.608490
-53.752128	5798.218333	1176.579102	37.597351
-53.752128	5798.218333	1175.453125	14.148180
-53.752128	5798.218333	1174.327148	76.873062
-53.752128	5798.218333	1173.201172	42.828846
-53.752128	5798.218333	1172.075195	67.690308
-53.752128	5798.218333	1170.949219	38.710335
-53.752128	5798.218333	1169.822266	-17.721275
-53.752128	5798.218333	1168.695313	-19.069088
-53.752128	5798.218333	1167.568359	3.603874
-53.752128	5798.218333	1166.440430	4.586816
-53.752128	5798.218333	1165.313477	42.016804
-53.752128	5798.218333	1164.185547	-1.022830
-53.752128	5798.218333	1163.057617	39.769947
-53.752128	5798.218333	1161.928711	14.137713
-53.752128	5798.218333	1160.800781	-0.256334
-53.752128	5798.218333	1159.671875	-9.211687
-53.752128	5798.218333	1158.541992	17.714249
-53.752128	5798.218333	1157.413086	-73.075325
-53.752128	5798.218333	1156.283203	1.303924
-53.752128	5798.218333	1155.154297	9.385823
-53.752128	5798.218333	1154.023438	46.412777
-53.752128	5798.218333	1152.893555	-56.661633
-53.752128	5798.218333	1151.763672	-40.945419
-53.752128	5798.218333	1150.632813	119.809593
-53.752128	5798.218333	1149.501953	59.356396
-53.752128	5798.218333	1148.370117	77.264694
-53.752128	5798.218333	1147.239258	67.266823
-53.752128	5798.218333	1146.107422	18.231226
-53.752128	5798.218333	1144.975586	14.291027
-53.752128	5798.218333	1143.843750	11.045080
-53.752128	5798.218333	1142.710938	82.732521
-53.752128	5798.218333	1141.578125	45.628574
-53.752128	5798.218333	1140.445313	67.321342
-53.752128	5798.218333	1139.312500	13.975612
-53.752128	5798.218333	1138.178711	-17.022278
-53.752128	5798.218333	1137.045898	7.870342
-53.752128	5798.218333	1135.912109	-36.666092
-53.752128	5798.218333	1134.777344	-33.070328
-53.752128	5798.218333	1133.643555	-6.221559
-53.752128	5798.218333	1132.508789	3.110198
-53.752128	5798.218333	1131.374023	-38.534195
-53.752128	5798.218333	1130.239258	69.533966
-53.752128	5798.218333	1129.104492	-34.761261
-53.752128	5798.218333	1127.968750	43.065578
-53.752128	5798.218333	1126.833008	130.067078
-53.752128	5798.218333	1125.697266	-24.964540
-53.752128	5798.218333	1124.560547	28.934935
-53.752128	5798.218333	1123.424805	117.564812
-53.752128	5798.218333	1122.288086	70.538589
-53.752128	5798.218333	1121.151367	-21.000792
-53.752128	5798.218333	1120.013672	53.634510
-53.752128	5798.218333	1118.876953	96.101967
-53.752128	5798.218333	1117.739258	28.724056
-53.752128	5798.218333	1116.601563	-33.763260
-53.752128	5798.218333	1115.462891	62.332733
-53.752128	5798.218333	1114.324219	51.471642
-53.752128	5798.218333	1113.186523	55.919708
-53.752128	5798.218333	1112.046875	34.748512
-53.752128	5798.218333	1110.908203	68.507301
-53.752128	5798.218333	1109.769531	-55.795033
-53.752128	5798.218333	1108.629883	27.206573
-53.752128	5798.218333	1107.490234	-41.471622
-53.752128	5798.218333	1106.349609	-14.454538
-53.752128	5798.218333	1105.209961	19.974434
-53.752128	5798.218333	1104.069336	47.645786
-53.752128	5798.218333	1102.928711	-17.354877
-53.752128	5798.218333	1101.787109	-19.882713
-53.752128	5798.218333	1100.646484	110.507919
-53.752128	5798.218333	1099.504883	69.458031
-53.752128	5798.218333	1098.363281	8.988305
-53.752128	5798.218333	1097.221680	30.174414
-53.752128	5798.218333	1096.079102	61.366035
-53.752128	5798.218333	1094.936523	93.934677
-53.752128	5798.218333	1093.793945	42.900352
-53.752128	5798.218333	1092.651367	84.288940
-53.752128	5798.218333	1091.507813	98.979416
-53.752128	5798.218333	1090.364258	-2.750710
-53.752128	5798.218333	1089.220703	31.548521
-53.752128	5798.218333	1088.077148	5.601226
-53.752128	5798.218333	1086.933594	8.637390
-53.752128	5798.218333	1085.789063	111.325035
-53.752128	5798.218333	1084.644531	10.935348
-53.752128	5798.218333	1083.499023	86.105827
-53.752128	5798.218333	1082.354492	23.010212
-53.752128	5798.218333	1081.208984	38.248692
-53.752128	5798.218333	1080.063477	-30.343815
-53.752128	5798.218333	1078.917969	1.851352
-53.752128	5798.218333	1077.771484	75.596687
-53.752128	5798.218333	1076.625977	35.534443
-53.752128	5798.218333	1075.479492	82.220375
-53.752128	5798.218333	1074.332031	62.007988
-53.752128	5798.218333	1073.185547	19.575701
-53.752128	5798.218333	1072.038086	-84.956062
-53.752128	5798.218333	1070.890625	168.582108
-53.752128	5798.218333	1069.743164	63.633102
-53.752128	5798.218333	1068.594727	-71.117271
-53.752128	5798.218333	1067.447266	-20.790630
-53.752128	5798.218333	1066.298828	-53.998734
-53.752128	5798.218333	1065.149414	51.348751
-53.752128	5798.218333	1064.000977	49.977142
-53.752128	5798.218333	1062.851563	40.383801
-53.752128	5798.218333	1061.702148	62.936146
-53.752128	5798.218333	1060.552734	105.917885
-53.752128	5798.218333	1059.402344	73.229919
-53.752128	5798.218333	1058.252930	-5.947827
-53.752128	5798.218333	1057.102539	7.147122
-53.752128	5798.218333	1055.951172	26.875374
-53.752128	5798.218333	1054.800781	-50.593632
-53.752128	5798.218333	1053.649414	29.974495
-53.752128	5798.218333	1052.498047	17.910824
-53.752128	5798.218333	1051.346680	25.576700
-53.752128	5798.218333	1050.194336	0.306845
-53.752128	5798.218333	1049.042969	114.605438
-53.752128	5798.218333	1047.890625	134.182449
-53.752128	5798.218333	1046.738281	56.648972
-53.752128	5798.218333	1045.584961	2.101453
-53.752128	5798.218333	1044.431641	-108.423706
-53.752128	5798.218333	1043.278320	-64.795616
-53.752128	5798.218333	1042.125000	-32.879997
-53.752128	5798.218333	1040.971680	112.809258
-53.752128	5798.218333	1039.817383	24.654232
-53.752128	5798.218333	1038.663086	30.333426
-53.752128	5798.218333	1037.508789	-31.535465
-53.752128	5798.218333	1036.353516	3.808782
-53.752128	5798.218333	1035.198242	33.390381
-53.752128	5798.218333	1034.042969	76.367561
-53.752128	5798.218333	1032.887695	69.659531
-53.752128	5798.218333	1031.732422	57.455513
-53.752128	5798.218333	1030.576172	98.220345
-53.752128	5798.218333	1029.419922	70.187477
-53.752128	5798.218333	1028.263672	50.988529
-53.752128	5798.218333	1027.106445	23.668400
-53.752128	5798.218333	1025.949219	59.525246
-53.752128	5798.218333	1024.792969	-29.466257
-53.752128	5798.218333	1023.634766	57.987732
-53.752128	5798.218333	1022.477539	-19.219568
-53.752128	5798.218333	1021.319336	67.957184
-53.752128	5798.218333	1020.161133	33.758053
-53.752128	5798.218333	1019.002930	48.593216
-53.752128	5798.218333	1017.843750	13.975584
-53.752128	5798.218333	1016.684570	-63.268593
-53.752128	5798.218333	1015.525391	86.830681
-53.752128	5798.218333	1014.366211	-85.143562
-53.752128	5798.218333	1013.207031	-32.628559
-53.752128	5798.218333	1012.046875	13.822204
-53.752128	5798.218333	1010.886719	-3.295837
-53.752128	5798.218333	1009.726563	-76.087875
-53.752128	5798.218333	1008.565430	38.529297
-53.752128	5798.218333	1007.404297	1.841906
-53.752128	5798.218333	1006.243164	-69.362671
-53.752128	5798.218333	1005.082031	-21.281910
-53.752128	5798.218333	1003.920898	-39.830585
-53.752128	5798.218333	1002.758789	-0.426215
-53.752128	5798.218333	1001.596680	6.707905
-53.752128	5798.218333	1000.433594	18.476519
-53.752128	5798.218333	999.271484	0.295074
-53.752128	5798.218333	998.108398	-17.985220
-53.752128	5798.218333	996.945313	92.523430
-53.752128	5798.218333	995.782227	12.327394
-53.752128	5798.218333	994.618164	54.811886
-53.752128	5798.218333	993.454102	113.966995
-53.752128	5798.218333	992.290039	26.429718
-53.752128	5798.218333	991.125977	-47.485714
-53.752128	5798.218333	989.960938	141.590042
-53.752128	5798.218333	988.796875	97.059738
-53.752128	5798.218333	987.630859	76.180519
-53.752128	5798.218333	986.465820	156.266113
-53.752128	5798.218333	985.300781	160.183655
-53.752128	5798.218333	984.134766	143.293945
-53.752128	5798.218333	982.968750	84.042633
-53.752128	5798.218333	981.801758	101.163071
-53.752128	5798.218333	980.635742	116.928650
-53.752128	5798.218333	979.468750	225.528931
-53.752128	5798.218333	978.301758	124.085838
-53.752128	5798.218333	977.133789	122.667206
-53.752128	5798.218333	975.966797	49.765652
-53.752128	5798.218333	974.798828	71.142998
-53.752128	5798.218333	973.630859	112.798393
-53.752128	5798.218333	972.461914	70.563072
-53.752128	5798.218333	971.293945	113.050507
-53.752128	5798.218333	970.125000	89.800125
-53.752128	5798.218333	968.956055	39.566906
-53.752128	5798.218333	967.786133	5.356172
-53.752128	5798.218333	966.617188	126.212555
-53.752128	5798.218333	965.447266	117.208183
-53.752128	5798.218333	964.276367	-0.567082
-53.752128	5798.218333	963.106445	67.266609
-53.752128	5798.218333	961.935547	76.353630
-53.752128	5798.218333	960.764648	50.272480
-53.752128	5798.218333	959.593750	35.690903
-53.752128	5798.218333	958.422852	5.066933
-53.752128	5798.218333	957.250977	89.713989
-53.752128	5798.218333	956.079102	-2.527719
-53.752128	5798.218333	954.907227	13.824737
-53.752128	5798.218333	953.734375	11.506895
-53.752128	5798.218333	952.562500	51.444984
-53.752128	5798.218333	951.389648	91.461365
-53.752128	5798.218333	950.215820	4.083892
-53.752128	5798.218333	949.042969	-10.055390
-53.752128	5798.218333	947.869141	65.331207
-53.752128	5798.218333	946.695313	-17.540380
-53.752128	5798.218333	945.521484	93.451210
-53.752128	5798.218333	944.346680	128.676514
-53.752128	5798.218333	943.172852	-26.951649
-53.752128	5798.218333	941.998047	-67.376564
-53.752128	5798.218333	940.822266	36.334660
-53.752128	5798.218333	939.647461	10.304292
-53.752128	5798.218333	938.471680	43.212605
-53.752128	5798.218333	937.295898	-34.782578
-53.752128	5798.218333	936.119141	10.033769
-53.752128	5798.218333	934.943359	17.046362
-53.752128	5798.218333	933.766602	7.435228
-53.752128	5798.218333	932.589844	66.412392
-53.752128	5798.218333	931.413086	96.937340
-53.752128	5798.218333	930.235352	89.791031
-53.752128	5798.218333	929.057617	212.361496
-53.752128	5798.218333	927.879883	134.397537
-53.752128	5798.218333	926.702148	54.094494
-53.752128	5798.218333	925.523438	-26.188570
-53.752128	5798.218333	924.344727	-78.139786
-53.752128	5798.218333	923.166016	124.560455
-53.752128	5798.218333	921.987305	72.595016
-53.752128	5798.218333	920.807617	39.508045
-53.752128	5798.218333	919.627930	40.001041
-53.752128	5798.218333	919.497070	48.906841
-53.752128	5798.218333	918.331055	13.479058
-53.752128	5798.218333	917.165039	18.109295
-53.752128	5798.218333	915.999023	1.543419
-53.752128	5798.218333	914.833008	22.656933
-53.752128	5798.218333	913.666016	-62.168392
-53.752128	5798.218333	912.499023	-10.452234
-53.752128	5798.218333	911.332031	48.302731
-53.752128	5798.218333	910.165039	-90.583900
-53.752128	5798.218333	908.997070	74.010612
-53.752128	5798.218333	907.830078	-46.010006
-53.752128	5798.218333	906.661133	-27.261442
-53.752128	5798.218333	905.493164	29.090521
-53.752128	5798.218333	904.325195	-22.689043
-53.752128	5798.218333	903.156250	-3.954444
-53.752128	5798.218333	901.987305	5.376188
-53.752128	5798.218333	900.818359	24.099007
-53.752128	5798.218333	899.648438	21.680990
-53.752128	5798.218333	898.478516	49.786034
-53.752128	5798.218333	897.308594	37.975918
-53.752128	5798.218333	896.138672	49.640049
-53.752128	5798.218333	894.968750	-2.051886
-53.752128	5798.218333	893.797852	14.309475
-53.752128	5798.218333	892.626953	49.428551
-53.752128	5798.218333	891.456055	-9.263502
-53.752128	5798.218333	890.284180	68.048439
-53.752128	5798.218333	889.113281	-4.685779
-53.752128	5798.218333	887.941406	-60.984112
-53.752128	5798.218333	886.768555	18.637094
-53.752128	5798.218333	885.596680	135.706772
-53.752128	5798.218333	884.423828	-4.897279
-53.752128	5798.218333	883.250977	32.517883
-53.752128	5798.218333	882.078125	30.119736
-53.752128	5798.218333	880.905273	74.535965
-53.752128	5798.218333	879.731445	39.370022
-53.752128	5798.218333	878.557617	-37.894634
-53.752128	5798.218333	877.383789	34.581833
-53.752128	5798.218333	876.209961	109.368271
-53.752128	5798.218333	875.035156	111.639671
-53.752128	5798.218333	873.860352	-5.314614
-53.752128	5798.218333	872.685547	74.111610
-53.752128	5798.218333	871.510742	88.075813
-53.752128	5798.218333	870.334961	-59.171093
-53.752128	5798.218333	869.159180	-77.885170
-53.752128	5798.218333	867.983398	50.537346
-53.752128	5798.218333	866.807617	85.512688
-53.752128	5798.218333	865.630859	-26.593222
-53.752128	5798.218333	864.454102	15.387373
-53.752128	5798.218333	863.277344	-12.652228
-53.752128	5798.218333	862.100586	64.304565
-53.752128	5798.218333	860.922852	31.603636
-53.752128	5798.218333	859.745117	29.233059
-53.752128	5798.218333	858.567383	3.548532
-53.752128	5798.218333	857.389648	-31.448742
-53.752128	5798.218333	856.210938	3.487029
-53.752128	5798.218333	855.032227	73.361000
-53.752128	5798.218333	853.853516	-85.096870
-53.752128	5798.218333	852.674805	42.996452
-53.752128	5798.218333	851.495117	98.849411
-53.752128	5798.218333	850.315430	3.347529
-53.752128	5798.218333	849.135742	3.321831
-53.752128	5798.218333	847.956055	91.731773
-53.752128	5798.218333	846.775391	96.342911
-53.752128	5798.218333	845.595703	40.469028
-53.752128	5798.218333	844.415039	93.931801
-53.752128	5798.218333	843.233398	-64.231201
-53.752128	5798.218333	842.052734	-47.965485
-53.752128	5798.218333	840.871094	149.595306
-53.752128	5798.218333	839.689453	12.434820
-53.752128	5798.218333	838.506836	37.970722
-53.752128	5798.218333	837.325195	-15.483957
-53.752128	5798.218333	836.142578	10.047486
-53.752128	5798.218333	834.959961	-78.207893
-53.752128	5798.218333	833.777344	-31.779905
-53.752128	5798.218333	832.593750	112.112625
-53.752128	5798.218333	831.410156	-13.236838
-53.752128	5798.218333	830.226563	-64.292442
-53.752128	5798.218333	829.042969	-96.770287
-53.752128	5798.218333	827.858398	56.294655
-53.752128	5798.218333	826.673828	84.090355
-53.752128	5798.218333	825.489258	-13.305575
-53.752128	5798.218333	824.304688	-52.719593
-53.752128	5798.218333	823.120117	-55.042122
-53.752128	5798.218333	821.934570	-75.897003
-53.752128	5798.218333	820.749023	46.863445
-53.752128	5798.218333	819.562500	69.995758
-53.752128	5798.218333	818.376953	-64.321587
-53.752128	5798.218333	817.190430	83.823174
-53.752128	5798.218333	816.003906	42.131451
-53.752128	5798.218333	814.817383	-20.368000
-53.752128	5798.218333	813.629883	-27.320763
-53.752128	5798.218333	812.442383	-1.890423
-53.752128	5798.218333	811.254883	23.529177
-53.752128	5798.218333	810.067383	-34.292484
-53.752128	5798.218333	808.878906	-59.729752
-53.752128	5798.218333	807.690430	185.228104
-53.752128	5798.218333	806.501953	-32.017365
-53.752128	5798.218333	805.313477	11.859488
-53.752128	5798.218333	804.124023	-22.806717
-53.752128	5798.218333	802.934570	-62.077759
-53.752128	5798.218333	801.745117	106.440353
-53.752128	5798.218333	800.555664	104.086922
-53.752128	5798.218333	799.365234	69.427032
-53.752128	5798.218333	798.175781	32.472935
-53.752128	5798.218333	796.985352	71.653923
-53.752128	5798.218333	795.793945	-52.922886
-53.752128	5798.218333	794.603516	106.155388
-53.752128	5798.218333	793.412109	53.083664
-53.752128	5798.218333	792.220703	-76.025276
-53.752128	5798.218333	791.028320	122.128754
-53.752128	5798.218333	789.836914	48.348034
-53.752128	5798.218333	788.644531	18.360435
-53.752128	5798.218333	787.452148	-55.370914
-53.752128	5798.218333	786.258789	22.884825
-53.752128	5798.218333	785.066406	-9.385729
-53.752128	5798.218333	783.873047	-66.960091
-53.752128	5798.218333	782.679688	11.244249
-53.752128	5798.218333	781.485352	1.996213
-53.752128	5798.218333	780.291992	20.349813
-53.752128	5798.218333	779.097656	-0.397531
-53.752128	5798.218333	777.903320	80.019554
-53.752128	5798.218333	776.708008	50.070183
-53.752128	5798.218333	775.512695	50.006302
-53.752128	5798.218333	774.318359	38.451450
-53.752128	5798.218333	773.122070	-90.253830
-53.752128	5798.218333	771.926758	54.394024
-53.752128	5798.218333	770.730469	22.173611
-53.752128	5798.218333	769.534180	93.270721
-53.752128	5798.218333	768.337891	51.869373
-53.752128	5798.218333	767.141602	90.799088
-53.752128	5798.218333	765.944336	40.233532
-53.752128	5798.218333	764.747070	127.313843
-53.752128	5798.218333	763.549805	163.901993
-53.752128	5798.218333	762.351563	120.222694
-53.752128	5798.218333	761.154297	-26.597975
-53.752128	5798.218333	759.956055	99.374298
-53.752128	5798.218333	758.757813	12.189581
-53.752128	5798.218333	757.558594	101.440231
-53.752128	5798.218333	756.359375	121.936821
-53.752128	5798.218333	755.160156	215.700531
-53.752128	5798.218333	753.960938	151.446106
-53.752128	5798.218333	752.761719	206.244308
-53.752128	5798.218333	751.561523	155.743103
-53.752128	5798.218333	750.361328	89.242859
-53.752128	5798.218333	749.160156	105.120064
-53.752128	5798.218333	747.959961	120.986473
-53.752128	5798.218333	746.758789	107.116409
-53.752128	5798.218333	745.557617	84.103203
-53.752128	5798.218333	744.356445	143.380356
-53.752128	5798.218333	743.154297	99.794594
-53.752128	5798.218333	741.952148	138.473160
-53.752128	5798.218333	740.750000	49.212864
-53.752128	5798.218333	739.547852	101.579544
-53.752128	5798.218333	738.344727	192.736557
-53.752128	5798.218333	737.142578	121.769821
-53.752128	5798.218333	735.939453	75.934319
-53.752128	5798.218333	734.735352	50.650623
-53.752128	5798.218333	733.532227	146.285934
-53.752128	5798.218333	732.328125	148.359360
-53.752128	5798.218333	731.124023	79.733078
-53.752128	5798.218333	729.918945	61.290115
-53.752128	5798.218333	728.714844	102.115967
-53.752128	5798.218333	727.509766	104.176750
-53.752128	5798.218333	726.303711	28.761683
-53.752128	5798.218333	725.098633	-28.403091
-53.752128	5798.218333	723.892578	130.821121
-53.752128	5798.218333	722.686523	114.636101
-53.752128	5798.218333	721.480469	93.898964
-53.752128	5798.218333	720.274414	45.851326
-53.752128	5798.218333	719.067383	-22.662861
-53.752128	5798.218333	717.860352	88.586281
-53.752128	5798.218333	716.653320	29.179249
-53.752128	5798.218333	715.445313	38.018566
-53.752128	5798.218333	714.238281	103.692039
-53.752128	5798.218333	713.030273	67.034073
-53.752128	5798.218333	711.821289	62.204998
-53.752128	5798.218333	710.613281	-6.253997
-53.752128	5798.218333	709.404297	41.174587
-53.752128	5798.218333	708.195313	13.621303
-53.752128	5798.218333	706.986328	63.283840
-53.752128	5798.218333	705.776367	-21.036142
-53.752128	5798.218333	704.566406	185.226746
-53.752128	5798.218333	703.356445	75.939125
-53.752128	5798.218333	702.146484	34.760620
-53.752128	5798.218333	700.935547	7.203801
-53.752128	5798.218333	699.724609	27.280853
-53.752128	5798.218333	698.513672	-34.290020
-53.752128	5798.218333	697.302734	35.649567
-53.752128	5798.218333	696.090820	44.354118
-53.752128	5798.218333	694.878906	66.644684
-53.752128	5798.218333	693.666992	48.136688
-53.752128	5798.218333	692.455078	93.054680
-53.752128	5798.218333	691.242188	-47.760189
-53.752128	5798.218333	690.029297	60.543190
-53.752128	5798.218333	688.816406	28.440107
-53.752128	5798.218333	687.602539	37.082489
-53.752128	5798.218333	686.389648	59.290577
-53.752128	5798.218333	685.175781	47.546509
-53.752128	5798.218333	683.960938	-84.078499
-53.752128	5798.218333	682.747070	-16.654297
-53.752128	5798.218333	681.532227	30.385683
-53.752128	5798.218333	680.317383	43.491482
-53.752128	5798.218333	679.102539	2.344940
-53.752128	5798.218333	677.886719	33.511520
-53.752128	5798.218333	676.670898	17.217651
-53.752128	5798.218333	675.455078	52.868809
-53.752128	5798.218333	674.239258	50.109974
-53.752128	5798.218333	673.022461	-38.443607
-53.752128	5798.218333	671.805664	46.828568
-53.752128	5798.218333	670.588867	39.535107
-53.752128	5798.218333	669.372070	-24.167288
-53.752128	5798.218333	668.154297	22.676945
-53.752128	5798.218333	666.936523	78.513779
-53.752128	5798.218333	665.718750	35.111004
-53.752128	5798.218333	664.500977	30.040367
-53.752128	5798.218333	663.282227	-20.111971
-53.752128	5798.218333	662.063477	-38.705429
-53.752128	5798.218333	660.844727	95.892052
-53.752128	5798.218333	659.625000	14.199220
-53.752128	5798.218333	658.405273	13.599616
-53.752128	5798.218333	657.185547	-41.041794
-53.752128	5798.218333	655.965820	64.146309
-53.752128	5798.218333	654.745117	70.262016
-53.752128	5798.218333	653.525391	87.616417
-53.752128	5798.218333	652.303711	82.459602
-53.752128	5798.218333	651.083008	-48.648472
-53.752128	5798.218333	649.861328	42.895569
-53.752128	5798.218333	648.640625	44.469795
-53.752128	5798.218333	647.417969	-10.155286
-53.752128	5798.218333	646.196289	72.307915
-53.752128	5798.218333	644.973633	37.902176
-53.752128	5798.218333	643.750977	-32.436371
-53.752128	5798.218333	642.528320	-60.085655
-53.752128	5798.218333	641.305664	31.264145
-53.752128	5798.218333	640.082031	-7.628552
-53.752128	5798.218333	638.858398	-33.047802
-53.752128	5798.218333	637.634766	11.092348
-53.752128	5798.218333	636.410156	43.988533
-53.752128	5798.218333	635.185547	9.576699
-53.752128	5798.218333	633.960938	2.079027
-53.752128	5798.218333	632.736328	86.493340
-53.752128	5798.218333	631.510742	-30.864113
-53.752128	5798.218333	630.285156	-11.483378
-53.752128	5798.218333	629.059570	39.246895
-53.752128	5798.218333	627.833984	31.707352
-53.752128	5798.218333	626.607422	-4.951547
-53.752128	5798.218333	625.380859	90.499908
-53.752128	5798.218333	624.154297	24.725578
-53.752128	5798.218333	622.927734	77.589256
-53.752128	5798.218333	621.700195	18.541204
-53.752128	5798.218333	620.472656	-11.407588
-53.752128	5798.218333	619.245117	-7.802000
-53.752128	5798.218333	618.016602	13.682720
-53.752128	5798.218333	616.788086	6.085671
-53.752128	5798.218333	615.559570	-19.398273
-53.752128	5798.218333	614.331055	10.989237
-53.752128	5798.218333	613.101563	-34.610413
-53.752128	5798.218333	611.872070	-64.562141
-53.752128	5798.218333	610.642578	-58.775803
-53.752128	5798.218333	609.413086	51.944710
-53.752128	5798.218333	608.182617	68.849403
-53.752128	5798.218333	606.952148	116.985748
-53.752128	5798.218333	605.721680	-6.727482
-53.752128	5798.218333	604.491211	88.239319
-53.752128	5798.218333	603.259766	-8.665374
-53.752128	5798.218333	602.028320	162.066162
-53.752128	5798.218333	600.796875	27.269676
-53.752128	5798.218333	599.564453	-42.834614
-53.752128	5798.218333	598.332031	23.028109
-53.752128	5798.218333	597.099609	-24.779041
-53.752128	5798.218333	595.867188	-50.296501
-53.752128	5798.218333	594.633789	-53.538948
-53.752128	5798.218333	593.400391	72.361244
-53.752128	5798.218333	592.166992	-33.326790
-53.752128	5798.218333	590.933594	-7.657158
-53.752128	5798.218333	589.699219	-155.577896
-53.752128	5798.218333	588.464844	-38.690342
-53.752128	5798.218333	587.230469	35.878407
-53.752128	5798.218333	585.995117	-18.575556
-53.752128	5798.218333	584.760742	64.837570
-53.752128	5798.218333	583.525391	119.310471
-53.752128	5798.218333	582.289063	62.631310
-53.752128	5798.218333	581.053711	-31.802498
-53.752128	5798.218333	579.817383	27.079872
-53.752128	5798.218333	578.581055	45.953014
-53.752128	5798.218333	577.343750	-28.450962
-53.752128	5798.218333	576.107422	103.637955
-53.752128	5798.218333	574.870117	49.218292
-53.752128	5798.218333	573.631836	39.198120
-53.752128	5798.218333	572.394531	35.833565
-53.752128	5798.218333	571.156250	52.427818
-53.752128	5798.218333	569.917969	113.364021
-53.752128	5798.218333	568.679688	125.490196
-53.752128	5798.218333	567.440430	93.270859
-53.752128	5798.218333	566.202148	78.791039
-53.752128	5798.218333	564.961914	31.074627
-53.752128	5798.218333	563.722656	34.327248
-53.752128	5798.218333	562.482422	126.167976
-53.752128	5798.218333	561.243164	20.885231
-53.752128	5798.218333	560.001953	128.177933
-53.752128	5798.218333	558.761719	51.705841
-53.752128	5798.218333	557.520508	-35.802856
-53.752128	5798.218333	556.279297	-25.927866
-53.752128	5798.218333	555.038086	-31.545269
-53.752128	5798.218333	553.795898	-6.202287
-53.752128	5798.218333	552.554688	19.126856
-53.752128	5798.218333	551.311523	-70.510101
-53.752128	5798.218333	550.069336	25.539589
-53.752128	5798.218333	548.826172	6.642506
-53.752128	5798.218333	547.583984	-47.595722
-53.752128	5798.218333	546.339844	-39.970387
-53.752128	5798.218333	545.096680	-52.224480
-53.752128	5798.218333	543.852539	109.937279
-53.752128	5798.218333	542.608398	113.102455
-53.752128	5798.218333	541.364258	109.643753
-53.752128	5798.218333	540.119141	28.961922
-53.752128	5798.218333	538.875000	-11.980695
-53.752128	5798.218333	537.628906	81.620674
-53.752128	5798.218333	536.383789	-49.721313
-53.752128	5798.218333	535.137695	39.436302
-53.752128	5798.218333	533.892578	-21.315470
-53.752128	5798.218333	532.645508	12.707525
-53.752128	5798.218333	531.399414	-41.406132
-53.752128	5798.218333	530.152344	-20.610449
-53.752128	5798.218333	528.905273	108.077888
-53.752128	5798.218333	527.658203	-7.669123
-53.752128	5798.218333	526.410156	-15.511030
-53.752128	5798.218333	525.163086	62.476894
-53.752128	5798.218333	523.914063	103.026649
-53.752128	5798.218333	522.666016	-14.821044
-53.752128	5798.218333	521.416992	38.923634
-53.752128	5798.218333	520.167969	4.693931
-53.752128	5798.218333	518.918945	-5.339135
-53.752128	5798.218333	517.669922	52.765469
-53.752128	5798.218333	516.419922	-51.759991
-53.752128	5798.218333	515.169922	-24.426128
-53.752128	5798.218333	513.919922	73.182449
-53.752128	5798.218333	512.668945	8.248921
-53.752128	5798.218333	511.417969	-14.941433
-53.752128	5798.218333	510.166992	-42.511086
-53.752128	5798.218333	508.916016	63.799332
-53.752128	5798.218333	507.664063	23.062397
-53.752128	5798.218333	506.412109	-28.623653
-53.752128	5798.218333	505.160156	103.936081
-53.752128	5798.218333	503.907227	-77.109177
-53.752128	5798.218333	502.655273	2.794609
-53.752128	5798.218333	501.402344	51.981468
-53.752128	5798.218333	500.148438	15.689978
-53.752128	5798.218333	498.895508	47.330097
-53.752128	5798.218333	497.641602	0.106942
-53.752128	5798.218333	496.387695	31.739779
-53.752128	5798.218333	495.132813	80.875122
-53.752128	5798.218333	493.878906	-12.285613
-53.752128	5798.218333	492.624023	98.116974
-53.752128	5798.218333	491.368164	42.190063
-53.752128	5798.218333	490.113281	38.788849
-53.752128	5798.218333	488.857422	4.772469
-53.752128	5798.218333	487.601563	-13.921865
-53.752128	5798.218333	486.344727	-117.863014
-53.752128	5798.218333	485.088867	16.471153
-53.752128	5798.218333	483.832031	-19.689886
-53.752128	5798.218333	482.575195	-9.956574
-53.752128	5798.218333	481.317383	-28.620464
-53.752128	5798.218333	480.059570	37.889374
-53.752128	5798.218333	478.801758	-35.354893
-53.752128	5798.218333	477.543945	-25.621441
-53.752128	5798.218333	476.285156	14.660187
-53.752128	5798.218333	475.027344	81.107712
-53.752128	5798.218333	473.767578	3.557756
-53.752128	5798.218333	472.508789	-19.435993
-53.752128	5798.218333	471.249023	14.270644
-53.752128	5798.218333	469.989258	4.364452
-53.752128	5798.218333	468.729492	88.179451
-53.752128	5798.218333	467.469727	67.366547
-53.752128	5798.218333	466.208984	116.274162
-53.752128	5798.218333	464.948242	67.147865
-53.752128	5798.218333	463.686523	-1.556778
-53.752128	5798.218333	462.425781	160.540985
-53.752128	5798.218333	461.164063	148.435547
-53.752128	5798.218333	459.901367	3.586778
-53.752128	5798.218333	458.639648	-54.173443
-53.752128	5798.218333	457.376953	-9.675743
-53.752128	5798.218333	456.114258	-76.113159
-53.752128	5798.218333	454.851563	72.729729
-53.752128	5798.218333	453.587891	47.598366
-53.752128	5798.218333	452.324219	70.287209
-53.752128	5798.218333	451.060547	42.985493
-53.752128	5798.218333	449.796875	85.207382
-53.752128	5798.218333	448.532227	3.604216
-53.752128	5798.218333	447.267578	4.546065
-53.752128	5798.218333	446.002930	74.952538
-53.752128	5798.218333	444.737305	-19.639612
-53.752128	5798.218333	443.471680	44.215794
-53.752128	5798.218333	442.206055	77.660690
-53.752128	5798.218333	440.940430	-3.881984
-53.752128	5798.218333	439.673828	-7.328248
-53.752128	5798.218333	438.407227	56.430096
-53.752128	5798.218333	437.140625	74.627167
-53.752128	5798.218333	435.873047	3.946705
-53.752128	5798.218333	434.605469	54.623051
-53.752128	5798.218333	433.337891	144.257187
-53.752128	5798.218333	432.070313	69.233971
-53.752128	5798.218333	430.801758	78.676201
-53.752128	5798.218333	429.533203	77.273201
-53.752128	5798.218333	428.264648	39.057945
-53.752128	5798.218333	426.996094	100.382957
-53.752128	5798.218333	425.726563	-15.745645
-53.752128	5798.218333	424.457031	129.881653
-53.752128	5798.218333	423.186523	0.778212
-53.752128	5798.218333	421.916992	-54.780388
-53.752128	5798.218333	420.646484	53.943031
-53.752128	5798.218333	419.375977	-18.942688
-53.752128	5798.218333	418.104492	130.725708
-53.752128	5798.218333	416.833008	44.837772
-53.752128	5798.218333	415.561523	90.702217
-53.752128	5798.218333	414.290039	184.019806
-53.752128	5798.218333	413.017578	82.971100
-53.752128	5798.218333	411.746094	102.799965
-53.752128	5798.218333	410.472656	1.742467
-53.752128	5798.218333	409.200195	73.284782
-53.752128	5798.218333	407.926758	54.165398
-53.752128	5798.218333	406.653320	15.605466
-53.752128	5798.218333	405.379883	86.976074
-53.752128	5798.218333	404.105469	125.937721
-53.752128	5798.218333	402.831055	54.928543
-53.752128	5798.218333	401.556641	67.931778
-53.752128	5798.218333	400.282227	55.029957
-53.752128	5798.218333	399.006836	108.844162
-53.752128	5798.218333	397.731445	61.381546
-53.752128	5798.218333	396.456055	99.992302
-53.752128	5798.218333	395.179688	181.571854
-53.752128	5798.218333	393.903320	-14.525056
-53.752128	5798.218333	392.626953	-19.131992
-53.752128	5798.218333	391.350586	232.149338
-53.752128	5798.218333	390.073242	78.980019
-53.752128	5798.218333	388.795898	69.851456
-53.752128	5798.218333	387.518555	-31.772081
-53.752128	5798.218333	386.240234	42.788197
-53.752128	5798.218333	384.961914	74.267296
-53.752128	5798.218333	383.683594	26.174185
-53.752128	5798.218333	382.405273	46.740677
-53.752128	5798.218333	381.125977	90.827652
-53.752128	5798.218333	379.846680	115.485970
-53.752128	5798.218333	378.567383	22.000452
-53.752128	5798.218333	377.287109	112.989090
-53.752128	5798.218333	376.006836	103.011765
-53.752128	5798.218333	374.726563	110.094490
-53.752128	5798.218333	373.446289	87.047394
-53.752128	5798.218333	372.165039	85.336479
-53.752128	5798.218333	370.883789	94.230072
-53.752128	5798.218333	369.602539	79.430634
-53.752128	5798.218333	368.320313	79.511292
-53.752128	5798.218333	367.039063	-8.351506
-53.752128	5798.218333	365.755859	53.595676
-53.752128	5798.218333	364.473633	49.013443
-53.752128	5798.218333	363.190430	74.261345
-53.752128	5798.218333	361.907227	114.337692
-53.752128	5798.218333	360.624023	122.156441
-53.752128	5798.218333	359.340820	54.950050
-53.752128	5798.218333	358.056641	4.724630
-53.752128	5798.218333	356.772461	24.924059
-53.752128	5798.218333	355.487305	40.670925
-53.752128	5798.218333	354.202148	15.632757
-53.752128	5798.218333	352.916992	5.389150
-53.752128	5798.218333	351.631836	-43.484077
-53.752128	5798.218333	350.346680	-77.569176
-53.752128	5798.218333	349.060547	-7.196198
-53.752128	5798.218333	347.774414	41.600807
-53.752128	5798.218333	346.487305	70.959999
-53.752128	5798.218333	345.200195	23.273144
-53.752128	5798.218333	343.913086	54.337532
-53.752128	5798.218333	342.625977	19.042603
-53.752128	5798.218333	341.338867	-116.696686
-53.752128	5798.218333	340.050781	-43.657936
-53.752128	5798.218333	338.762695	-58.289299
-53.752128	5798.218333	337.473633	-62.508179
-53.752128	5798.218333	336.184570	-49.929646
-53.752128	5798.218333	334.895508	62.511707
-53.752128	5798.218333	333.606445	36.197792
-53.752128	5798.218333	332.317383	-26.576031
-53.752128	5798.218333	331.027344	6.194239
-53.752128	5798.218333	329.736328	30.142626
-53.752128	5798.218333	328.446289	-10.046439
-53.752128	5798.218333	327.155273	9.044039
-53.752128	5798.218333	325.864258	-72.156410
-53.752128	5798.218333	324.573242	-132.372620
-53.752128	5798.218333	323.281250	-61.075077
-53.752128	5798.218333	321.989258	-24.154358
-53.752128	5798.218333	320.697266	-19.470800
-53.752128	5798.218333	319.405273	12.481057
-53.752128	5798.218333	318.112305	-81.284401
-53.752128	5798.218333	316.819336	37.004681
-53.752128	5798.218333	315.526367	80.545380
-53.752128	5798.218333	314.232422	100.316277
-53.752128	5798.218333	312.938477	-39.502541
-53.752128	5798.218333	311.644531	-24.764105
-53.752128	5798.218333	310.349609	4.389301
-53.752128	5798.218333	309.054688	62.796280
-53.752128	5798.218333	307.759766	27.432817
-53.752128	5798.218333	306.464844	72.200249
-53.752128	5798.218333	305.168945	8.372884
-53.752128	5798.218333	303.873047	37.346443
-53.752128	5798.218333	302.577148	36.162281
-53.752128	5798.218333	301.281250	45.075897
-53.752128	5798.218333	299.984375	129.707199
