#X		#Y		#Wave		#Intensity
29470.584894	-1336.795500	1999.980469	-55.153534
29470.584894	-1336.795500	1999.016602	106.926987
29470.584894	-1336.795500	1998.052734	36.166996
29470.584894	-1336.795500	1997.087891	-94.011246
29470.584894	-1336.795500	1996.123047	63.299004
29470.584894	-1336.795500	1995.158203	24.881870
29470.584894	-1336.795500	1994.193359	-181.910126
29470.584894	-1336.795500	1993.228516	-56.774246
29470.584894	-1336.795500	1992.262695	95.575325
29470.584894	-1336.795500	1991.297852	-123.409492
29470.584894	-1336.795500	1990.332031	-20.550558
29470.584894	-1336.795500	1989.366211	-38.951946
29470.584894	-1336.795500	1988.399414	-106.805183
29470.584894	-1336.795500	1987.433594	97.481178
29470.584894	-1336.795500	1986.466797	46.984966
29470.584894	-1336.795500	1985.500977	90.489952
29470.584894	-1336.795500	1984.534180	183.442261
29470.584894	-1336.795500	1983.567383	268.963379
29470.584894	-1336.795500	1982.599609	265.507507
29470.584894	-1336.795500	1981.632813	244.776306
29470.584894	-1336.795500	1980.665039	68.439751
29470.584894	-1336.795500	1979.697266	67.546082
29470.584894	-1336.795500	1978.729492	256.813354
29470.584894	-1336.795500	1977.761719	258.385406
29470.584894	-1336.795500	1976.792969	255.034027
29470.584894	-1336.795500	1975.825195	135.702972
29470.584894	-1336.795500	1974.856445	305.133759
29470.584894	-1336.795500	1973.887695	-6.571687
29470.584894	-1336.795500	1972.918945	-12.283107
29470.584894	-1336.795500	1971.949219	21.477480
29470.584894	-1336.795500	1970.980469	151.401733
29470.584894	-1336.795500	1970.010742	86.530266
29470.584894	-1336.795500	1969.041016	-67.040909
29470.584894	-1336.795500	1968.071289	-6.144360
29470.584894	-1336.795500	1967.101563	27.635372
29470.584894	-1336.795500	1966.130859	125.459991
29470.584894	-1336.795500	1965.161133	169.071884
29470.584894	-1336.795500	1964.190430	27.983492
29470.584894	-1336.795500	1963.219727	209.487137
29470.584894	-1336.795500	1962.249023	26.610638
29470.584894	-1336.795500	1961.277344	13.627104
29470.584894	-1336.795500	1960.306641	227.039612
29470.584894	-1336.795500	1959.334961	44.277721
29470.584894	-1336.795500	1958.363281	73.129837
29470.584894	-1336.795500	1957.391602	-30.827356
29470.584894	-1336.795500	1956.419922	-90.483002
29470.584894	-1336.795500	1955.447266	147.354034
29470.584894	-1336.795500	1954.474609	127.020050
29470.584894	-1336.795500	1953.501953	84.579018
29470.584894	-1336.795500	1952.529297	91.296120
29470.584894	-1336.795500	1951.556641	-142.733383
29470.584894	-1336.795500	1950.583984	-138.429840
29470.584894	-1336.795500	1949.610352	-55.546398
29470.584894	-1336.795500	1948.636719	-16.887428
29470.584894	-1336.795500	1947.663086	-10.155500
29470.584894	-1336.795500	1946.689453	141.378448
29470.584894	-1336.795500	1945.715820	54.830215
29470.584894	-1336.795500	1944.741211	-80.754509
29470.584894	-1336.795500	1943.767578	92.778687
29470.584894	-1336.795500	1942.792969	-55.030125
29470.584894	-1336.795500	1941.818359	32.607475
29470.584894	-1336.795500	1940.842773	83.435425
29470.584894	-1336.795500	1939.868164	-167.244370
29470.584894	-1336.795500	1938.892578	60.040752
29470.584894	-1336.795500	1937.916992	135.325317
29470.584894	-1336.795500	1936.941406	-39.297310
29470.584894	-1336.795500	1935.965820	143.735916
29470.584894	-1336.795500	1934.990234	187.112091
29470.584894	-1336.795500	1934.013672	-21.716850
29470.584894	-1336.795500	1933.037109	36.348091
29470.584894	-1336.795500	1932.060547	8.723502
29470.584894	-1336.795500	1931.083984	22.700968
29470.584894	-1336.795500	1930.107422	-85.661324
29470.584894	-1336.795500	1929.129883	143.568008
29470.584894	-1336.795500	1928.153320	37.651913
29470.584894	-1336.795500	1927.175781	-102.467331
29470.584894	-1336.795500	1926.198242	-100.749283
29470.584894	-1336.795500	1925.219727	-72.155167
29470.584894	-1336.795500	1924.242188	-107.120209
29470.584894	-1336.795500	1923.263672	-102.990303
29470.584894	-1336.795500	1922.285156	91.673462
29470.584894	-1336.795500	1921.306641	100.626549
29470.584894	-1336.795500	1920.328125	-85.793587
29470.584894	-1336.795500	1919.349609	-13.354942
29470.584894	-1336.795500	1918.370117	-16.630156
29470.584894	-1336.795500	1917.391602	60.624393
29470.584894	-1336.795500	1916.412109	113.433739
29470.584894	-1336.795500	1915.431641	-41.166451
29470.584894	-1336.795500	1914.452148	104.304825
29470.584894	-1336.795500	1913.472656	-130.745636
29470.584894	-1336.795500	1912.492188	-17.040939
29470.584894	-1336.795500	1911.511719	-164.249496
29470.584894	-1336.795500	1910.531250	120.007164
29470.584894	-1336.795500	1909.550781	-41.826077
29470.584894	-1336.795500	1908.569336	161.860580
29470.584894	-1336.795500	1907.588867	-55.984875
29470.584894	-1336.795500	1906.607422	20.941576
29470.584894	-1336.795500	1905.625977	-6.891664
29470.584894	-1336.795500	1904.644531	55.350891
29470.584894	-1336.795500	1903.662109	-30.940781
29470.584894	-1336.795500	1902.680664	-44.204269
29470.584894	-1336.795500	1901.698242	149.349609
29470.584894	-1336.795500	1900.715820	123.850449
29470.584894	-1336.795500	1899.733398	108.068314
29470.584894	-1336.795500	1898.750000	-43.921394
29470.584894	-1336.795500	1897.767578	-13.511158
29470.584894	-1336.795500	1896.784180	179.745224
29470.584894	-1336.795500	1895.800781	-110.786247
29470.584894	-1336.795500	1894.817383	113.961357
29470.584894	-1336.795500	1893.833984	134.504166
29470.584894	-1336.795500	1892.850586	-189.938599
29470.584894	-1336.795500	1891.866211	-123.249702
29470.584894	-1336.795500	1890.881836	4.096179
29470.584894	-1336.795500	1889.897461	204.204010
29470.584894	-1336.795500	1888.913086	-71.566345
29470.584894	-1336.795500	1887.927734	-56.024521
29470.584894	-1336.795500	1886.943359	-42.941425
29470.584894	-1336.795500	1885.958008	50.166664
29470.584894	-1336.795500	1884.972656	21.930660
29470.584894	-1336.795500	1883.987305	47.028770
29470.584894	-1336.795500	1883.001953	-80.669388
29470.584894	-1336.795500	1882.015625	-33.805679
29470.584894	-1336.795500	1881.029297	109.961861
29470.584894	-1336.795500	1880.042969	207.600479
29470.584894	-1336.795500	1879.056641	38.651672
29470.584894	-1336.795500	1878.070313	-35.790359
29470.584894	-1336.795500	1877.083984	-42.423401
29470.584894	-1336.795500	1876.096680	130.104645
29470.584894	-1336.795500	1875.109375	-210.735199
29470.584894	-1336.795500	1874.122070	89.983307
29470.584894	-1336.795500	1873.134766	-18.455210
29470.584894	-1336.795500	1872.146484	66.685966
29470.584894	-1336.795500	1871.159180	100.956207
29470.584894	-1336.795500	1870.170898	-87.355141
29470.584894	-1336.795500	1869.182617	-108.767097
29470.584894	-1336.795500	1868.194336	41.461014
29470.584894	-1336.795500	1867.205078	80.389946
29470.584894	-1336.795500	1866.216797	172.440506
29470.584894	-1336.795500	1865.227539	73.507164
29470.584894	-1336.795500	1864.238281	107.456787
29470.584894	-1336.795500	1863.249023	187.248810
29470.584894	-1336.795500	1862.259766	122.058479
29470.584894	-1336.795500	1861.269531	-34.912094
29470.584894	-1336.795500	1860.279297	49.561554
29470.584894	-1336.795500	1859.290039	32.581978
29470.584894	-1336.795500	1858.298828	-93.041512
29470.584894	-1336.795500	1857.308594	-47.342930
29470.584894	-1336.795500	1856.318359	82.729347
29470.584894	-1336.795500	1855.327148	101.753159
29470.584894	-1336.795500	1854.335938	65.256920
29470.584894	-1336.795500	1853.344727	-67.715958
29470.584894	-1336.795500	1852.353516	175.374023
29470.584894	-1336.795500	1851.362305	117.051712
29470.584894	-1336.795500	1850.370117	318.951355
29470.584894	-1336.795500	1849.377930	320.754883
29470.584894	-1336.795500	1848.385742	344.188385
29470.584894	-1336.795500	1847.393555	215.833298
29470.584894	-1336.795500	1846.401367	150.082657
29470.584894	-1336.795500	1845.408203	202.268723
29470.584894	-1336.795500	1844.415039	237.534607
29470.584894	-1336.795500	1843.421875	20.043859
29470.584894	-1336.795500	1842.428711	108.159210
29470.584894	-1336.795500	1841.435547	138.451431
29470.584894	-1336.795500	1840.441406	296.150940
29470.584894	-1336.795500	1839.448242	160.359680
29470.584894	-1336.795500	1838.454102	-112.486382
29470.584894	-1336.795500	1837.459961	121.929100
29470.584894	-1336.795500	1836.464844	58.174252
29470.584894	-1336.795500	1835.470703	222.669785
29470.584894	-1336.795500	1834.475586	-129.495422
29470.584894	-1336.795500	1833.480469	193.389725
29470.584894	-1336.795500	1832.485352	112.625488
29470.584894	-1336.795500	1831.490234	298.359772
29470.584894	-1336.795500	1830.495117	61.442692
29470.584894	-1336.795500	1829.499023	254.192932
29470.584894	-1336.795500	1828.502930	91.641228
29470.584894	-1336.795500	1827.506836	121.036102
29470.584894	-1336.795500	1826.510742	66.396568
29470.584894	-1336.795500	1825.513672	201.186646
29470.584894	-1336.795500	1824.517578	93.671082
29470.584894	-1336.795500	1823.520508	237.868195
29470.584894	-1336.795500	1822.523438	-111.850113
29470.584894	-1336.795500	1821.526367	252.691452
29470.584894	-1336.795500	1820.529297	80.288307
29470.584894	-1336.795500	1819.531250	73.184387
29470.584894	-1336.795500	1818.533203	212.126846
29470.584894	-1336.795500	1817.535156	137.812500
29470.584894	-1336.795500	1816.537109	10.782835
29470.584894	-1336.795500	1815.539063	106.366508
29470.584894	-1336.795500	1814.540039	216.200699
29470.584894	-1336.795500	1813.541992	144.061340
29470.584894	-1336.795500	1812.542969	191.502518
29470.584894	-1336.795500	1811.543945	88.153694
29470.584894	-1336.795500	1810.543945	97.175262
29470.584894	-1336.795500	1809.544922	196.993103
29470.584894	-1336.795500	1808.544922	158.032852
29470.584894	-1336.795500	1807.544922	307.849060
29470.584894	-1336.795500	1806.544922	144.466721
29470.584894	-1336.795500	1805.544922	298.861969
29470.584894	-1336.795500	1804.544922	99.562668
29470.584894	-1336.795500	1803.543945	-18.532930
29470.584894	-1336.795500	1802.542969	-24.419708
29470.584894	-1336.795500	1801.541992	-87.681084
29470.584894	-1336.795500	1800.541016	35.201111
29470.584894	-1336.795500	1799.539063	-59.231617
29470.584894	-1336.795500	1798.538086	132.648376
29470.584894	-1336.795500	1797.536133	47.622707
29470.584894	-1336.795500	1796.534180	148.608063
29470.584894	-1336.795500	1795.532227	146.927338
29470.584894	-1336.795500	1794.529297	-7.438841
29470.584894	-1336.795500	1793.527344	136.176987
29470.584894	-1336.795500	1792.524414	-163.680603
29470.584894	-1336.795500	1791.521484	-65.532013
29470.584894	-1336.795500	1790.518555	-74.718391
29470.584894	-1336.795500	1789.514648	16.063797
29470.584894	-1336.795500	1788.511719	-24.256472
29470.584894	-1336.795500	1787.507813	-76.554276
29470.584894	-1336.795500	1786.503906	190.114258
29470.584894	-1336.795500	1785.500000	82.883598
29470.584894	-1336.795500	1784.496094	206.464371
29470.584894	-1336.795500	1783.491211	-17.492622
29470.584894	-1336.795500	1782.486328	98.750748
29470.584894	-1336.795500	1781.481445	3.175664
29470.584894	-1336.795500	1780.476563	-25.858772
29470.584894	-1336.795500	1779.471680	-52.588165
29470.584894	-1336.795500	1778.465820	-117.434349
29470.584894	-1336.795500	1777.460938	-11.205854
29470.584894	-1336.795500	1776.455078	-47.688530
29470.584894	-1336.795500	1775.449219	188.981354
29470.584894	-1336.795500	1774.442383	-28.231598
29470.584894	-1336.795500	1773.436523	-157.566895
29470.584894	-1336.795500	1772.429688	-4.382273
29470.584894	-1336.795500	1771.422852	3.842591
29470.584894	-1336.795500	1770.416016	-16.505768
29470.584894	-1336.795500	1769.409180	81.725792
29470.584894	-1336.795500	1768.402344	-142.853531
29470.584894	-1336.795500	1767.394531	156.822922
29470.584894	-1336.795500	1766.386719	-6.199686
29470.584894	-1336.795500	1765.378906	-12.739841
29470.584894	-1336.795500	1764.371094	-118.941238
29470.584894	-1336.795500	1763.362305	-0.008034
29470.584894	-1336.795500	1762.354492	9.782078
29470.584894	-1336.795500	1761.345703	-106.113907
29470.584894	-1336.795500	1760.336914	-113.075081
29470.584894	-1336.795500	1759.328125	45.681683
29470.584894	-1336.795500	1758.318359	171.126663
29470.584894	-1336.795500	1757.308594	24.145697
29470.584894	-1336.795500	1756.299805	-73.145554
29470.584894	-1336.795500	1755.290039	-26.121090
29470.584894	-1336.795500	1754.279297	-187.454056
29470.584894	-1336.795500	1753.269531	32.109669
29470.584894	-1336.795500	1752.258789	185.257141
29470.584894	-1336.795500	1751.249023	-4.662444
29470.584894	-1336.795500	1750.238281	18.204657
29470.584894	-1336.795500	1749.226563	161.533005
29470.584894	-1336.795500	1748.215820	285.818787
29470.584894	-1336.795500	1747.204102	135.823502
29470.584894	-1336.795500	1746.193359	-344.983643
29470.584894	-1336.795500	1745.181641	-117.007523
29470.584894	-1336.795500	1744.168945	44.648186
29470.584894	-1336.795500	1743.157227	109.344788
29470.584894	-1336.795500	1742.144531	117.253159
29470.584894	-1336.795500	1741.132813	214.779892
29470.584894	-1336.795500	1740.120117	-100.842934
29470.584894	-1336.795500	1739.106445	64.917747
29470.584894	-1336.795500	1738.093750	65.393852
29470.584894	-1336.795500	1737.080078	105.867783
29470.584894	-1336.795500	1736.067383	155.681564
29470.584894	-1336.795500	1735.053711	78.052872
29470.584894	-1336.795500	1734.040039	-1.991715
29470.584894	-1336.795500	1733.025391	-96.247353
29470.584894	-1336.795500	1732.011719	-164.624268
29470.584894	-1336.795500	1730.997070	9.595562
29470.584894	-1336.795500	1729.982422	348.550446
29470.584894	-1336.795500	1728.967773	301.047241
29470.584894	-1336.795500	1727.952148	62.733738
29470.584894	-1336.795500	1726.937500	189.339279
29470.584894	-1336.795500	1725.921875	134.555756
29470.584894	-1336.795500	1724.906250	51.466240
29470.584894	-1336.795500	1723.890625	215.371780
29470.584894	-1336.795500	1722.875000	195.638824
29470.584894	-1336.795500	1721.858398	321.635529
29470.584894	-1336.795500	1720.841797	247.618195
29470.584894	-1336.795500	1719.825195	185.297058
29470.584894	-1336.795500	1718.808594	355.625580
29470.584894	-1336.795500	1717.791992	156.824738
29470.584894	-1336.795500	1716.774414	94.286766
29470.584894	-1336.795500	1715.756836	374.679535
29470.584894	-1336.795500	1714.739258	229.742661
29470.584894	-1336.795500	1713.721680	289.084869
29470.584894	-1336.795500	1712.704102	364.754425
29470.584894	-1336.795500	1711.685547	13.058221
29470.584894	-1336.795500	1710.667969	208.280960
29470.584894	-1336.795500	1709.649414	206.219635
29470.584894	-1336.795500	1708.630859	77.385506
29470.584894	-1336.795500	1707.611328	82.208290
29470.584894	-1336.795500	1706.592773	140.899094
29470.584894	-1336.795500	1705.573242	246.367661
29470.584894	-1336.795500	1704.553711	4.753495
29470.584894	-1336.795500	1703.534180	-44.652882
29470.584894	-1336.795500	1702.513672	126.148239
29470.584894	-1336.795500	1701.494141	179.666595
29470.584894	-1336.795500	1700.473633	66.751694
29470.584894	-1336.795500	1699.453125	7.668463
29470.584894	-1336.795500	1698.432617	21.118593
29470.584894	-1336.795500	1697.412109	109.401436
29470.584894	-1336.795500	1696.390625	-15.447509
29470.584894	-1336.795500	1695.369141	-20.972557
29470.584894	-1336.795500	1694.347656	-181.001282
29470.584894	-1336.795500	1693.326172	119.810661
29470.584894	-1336.795500	1692.304688	48.541943
29470.584894	-1336.795500	1691.282227	2.932871
29470.584894	-1336.795500	1690.260742	237.844421
29470.584894	-1336.795500	1689.238281	222.454773
29470.584894	-1336.795500	1688.214844	-22.054991
29470.584894	-1336.795500	1687.192383	254.547638
29470.584894	-1336.795500	1686.168945	442.180725
29470.584894	-1336.795500	1685.146484	262.965698
29470.584894	-1336.795500	1684.123047	338.284241
29470.584894	-1336.795500	1683.099609	504.561737
29470.584894	-1336.795500	1682.075195	364.880768
29470.584894	-1336.795500	1681.051758	274.210938
29470.584894	-1336.795500	1680.027344	209.160095
29470.584894	-1336.795500	1679.002930	302.716339
29470.584894	-1336.795500	1677.978516	337.852112
29470.584894	-1336.795500	1676.953125	475.507141
29470.584894	-1336.795500	1675.928711	365.894867
29470.584894	-1336.795500	1674.903320	722.499512
29470.584894	-1336.795500	1673.877930	682.660217
29470.584894	-1336.795500	1672.852539	512.269226
29470.584894	-1336.795500	1671.826172	607.477112
29470.584894	-1336.795500	1670.800781	756.179504
29470.584894	-1336.795500	1669.774414	914.062317
29470.584894	-1336.795500	1668.748047	731.848694
29470.584894	-1336.795500	1667.721680	749.864624
29470.584894	-1336.795500	1666.694336	805.040710
29470.584894	-1336.795500	1665.667969	864.806335
29470.584894	-1336.795500	1664.640625	843.036438
29470.584894	-1336.795500	1663.613281	886.355774
29470.584894	-1336.795500	1662.585938	1262.202759
29470.584894	-1336.795500	1661.557617	1328.549683
29470.584894	-1336.795500	1660.530273	1257.656738
29470.584894	-1336.795500	1659.501953	1337.816162
29470.584894	-1336.795500	1658.473633	1459.724365
29470.584894	-1336.795500	1657.444336	1490.894653
29470.584894	-1336.795500	1656.416016	1828.678345
29470.584894	-1336.795500	1655.386719	1806.238525
29470.584894	-1336.795500	1654.358398	2071.739014
29470.584894	-1336.795500	1653.328125	1881.972412
29470.584894	-1336.795500	1652.298828	1982.423584
29470.584894	-1336.795500	1651.269531	2112.958008
29470.584894	-1336.795500	1650.239258	2350.125000
29470.584894	-1336.795500	1649.208984	2185.783691
29470.584894	-1336.795500	1648.178711	2290.536133
29470.584894	-1336.795500	1647.148438	2311.713867
29470.584894	-1336.795500	1646.117188	2374.560791
29470.584894	-1336.795500	1645.086914	2372.447266
29470.584894	-1336.795500	1644.055664	2717.950195
29470.584894	-1336.795500	1643.024414	2683.229736
29470.584894	-1336.795500	1641.992188	2856.991455
29470.584894	-1336.795500	1640.960938	2829.132324
29470.584894	-1336.795500	1639.928711	3062.938721
29470.584894	-1336.795500	1638.896484	3162.316895
29470.584894	-1336.795500	1637.864258	2974.547119
29470.584894	-1336.795500	1636.832031	3247.433594
29470.584894	-1336.795500	1635.798828	3240.145752
29470.584894	-1336.795500	1634.766602	3272.181152
29470.584894	-1336.795500	1633.733398	3246.321777
29470.584894	-1336.795500	1632.699219	3125.598145
29470.584894	-1336.795500	1631.666016	3330.962646
29470.584894	-1336.795500	1630.632813	3217.167236
29470.584894	-1336.795500	1629.598633	3644.268555
29470.584894	-1336.795500	1628.564453	3703.718018
29470.584894	-1336.795500	1627.530273	3894.827393
29470.584894	-1336.795500	1626.495117	3561.410889
29470.584894	-1336.795500	1625.460938	3946.444824
29470.584894	-1336.795500	1624.425781	4007.992188
29470.584894	-1336.795500	1623.390625	4164.159180
29470.584894	-1336.795500	1622.355469	3969.370361
29470.584894	-1336.795500	1621.319336	4046.959961
29470.584894	-1336.795500	1620.284180	4703.698730
29470.584894	-1336.795500	1619.248047	4674.960938
29470.584894	-1336.795500	1618.211914	4839.973633
29470.584894	-1336.795500	1617.174805	4857.298340
29470.584894	-1336.795500	1616.138672	5075.216797
29470.584894	-1336.795500	1615.101563	5491.272949
29470.584894	-1336.795500	1614.065430	5457.740723
29470.584894	-1336.795500	1613.027344	5391.919434
29470.584894	-1336.795500	1611.990234	5535.788574
29470.584894	-1336.795500	1610.953125	5774.035156
29470.584894	-1336.795500	1609.915039	5358.118164
29470.584894	-1336.795500	1608.876953	5552.532715
29470.584894	-1336.795500	1607.838867	5394.650391
29470.584894	-1336.795500	1606.800781	5630.408691
29470.584894	-1336.795500	1605.761719	5410.422363
29470.584894	-1336.795500	1604.723633	5501.140137
29470.584894	-1336.795500	1603.684570	5699.925293
29470.584894	-1336.795500	1602.644531	5634.132813
29470.584894	-1336.795500	1601.605469	5835.121582
29470.584894	-1336.795500	1600.566406	6180.873047
29470.584894	-1336.795500	1599.526367	6066.775879
29470.584894	-1336.795500	1598.486328	5927.456055
29470.584894	-1336.795500	1597.446289	5889.293457
29470.584894	-1336.795500	1596.405273	5945.325684
29470.584894	-1336.795500	1595.365234	6226.442383
29470.584894	-1336.795500	1594.324219	5791.012207
29470.584894	-1336.795500	1593.283203	5840.183594
29470.584894	-1336.795500	1592.242188	5919.194336
29470.584894	-1336.795500	1591.200195	5761.796875
29470.584894	-1336.795500	1590.159180	5843.121582
29470.584894	-1336.795500	1589.117188	6009.297852
29470.584894	-1336.795500	1588.075195	5794.695313
29470.584894	-1336.795500	1587.032227	5809.496582
29470.584894	-1336.795500	1585.990234	5920.626465
29470.584894	-1336.795500	1584.947266	6040.888672
29470.584894	-1336.795500	1583.904297	5906.744629
29470.584894	-1336.795500	1582.861328	5862.041504
29470.584894	-1336.795500	1581.818359	6186.220215
29470.584894	-1336.795500	1580.775391	6116.345703
29470.584894	-1336.795500	1579.731445	6401.461914
29470.584894	-1336.795500	1578.687500	6187.379883
29470.584894	-1336.795500	1577.643555	6383.164551
29470.584894	-1336.795500	1576.598633	6718.499023
29470.584894	-1336.795500	1575.554688	6788.324707
29470.584894	-1336.795500	1574.509766	6647.671387
29470.584894	-1336.795500	1573.464844	6742.707031
29470.584894	-1336.795500	1572.419922	6352.932617
29470.584894	-1336.795500	1571.374023	6690.413574
29470.584894	-1336.795500	1570.329102	6522.626465
29470.584894	-1336.795500	1569.283203	6887.454590
29470.584894	-1336.795500	1568.237305	6982.552734
29470.584894	-1336.795500	1567.191406	6812.643555
29470.584894	-1336.795500	1566.144531	6734.202148
29470.584894	-1336.795500	1565.098633	7092.045898
29470.584894	-1336.795500	1564.051758	6997.699219
29470.584894	-1336.795500	1563.004883	7364.569824
29470.584894	-1336.795500	1561.957031	7288.557617
29470.584894	-1336.795500	1560.910156	7358.688965
29470.584894	-1336.795500	1559.862305	7599.942383
29470.584894	-1336.795500	1558.814453	7528.660156
29470.584894	-1336.795500	1557.766602	7578.336426
29470.584894	-1336.795500	1556.718750	7514.045898
29470.584894	-1336.795500	1555.669922	7616.246094
29470.584894	-1336.795500	1554.621094	7745.818359
29470.584894	-1336.795500	1553.573242	7326.232422
29470.584894	-1336.795500	1552.523438	7111.899414
29470.584894	-1336.795500	1551.474609	7057.183594
29470.584894	-1336.795500	1550.424805	7075.420410
29470.584894	-1336.795500	1549.375000	7273.604004
29470.584894	-1336.795500	1548.325195	7223.636230
29470.584894	-1336.795500	1547.275391	7114.581055
29470.584894	-1336.795500	1546.225586	7169.491699
29470.584894	-1336.795500	1545.174805	7094.752441
29470.584894	-1336.795500	1544.124023	7054.241211
29470.584894	-1336.795500	1543.073242	7395.905762
29470.584894	-1336.795500	1542.022461	7191.789063
29470.584894	-1336.795500	1540.970703	6846.869629
29470.584894	-1336.795500	1539.919922	7022.687988
29470.584894	-1336.795500	1538.868164	7159.871582
29470.584894	-1336.795500	1537.815430	7188.013672
29470.584894	-1336.795500	1536.763672	6830.069336
29470.584894	-1336.795500	1535.710938	7137.789063
29470.584894	-1336.795500	1534.659180	6816.500977
29470.584894	-1336.795500	1533.606445	7006.226563
29470.584894	-1336.795500	1532.552734	6850.939453
29470.584894	-1336.795500	1531.500000	6959.066895
29470.584894	-1336.795500	1530.446289	6629.328125
29470.584894	-1336.795500	1529.393555	6145.571289
29470.584894	-1336.795500	1528.338867	6145.163574
29470.584894	-1336.795500	1527.285156	6283.187500
29470.584894	-1336.795500	1526.231445	6201.343750
29470.584894	-1336.795500	1525.176758	6412.018555
29470.584894	-1336.795500	1524.122070	6237.453125
29470.584894	-1336.795500	1523.067383	5786.630859
29470.584894	-1336.795500	1522.012695	5891.095703
29470.584894	-1336.795500	1520.957031	6018.260742
29470.584894	-1336.795500	1519.901367	5681.269531
29470.584894	-1336.795500	1518.845703	5530.165527
29470.584894	-1336.795500	1517.790039	5648.590820
29470.584894	-1336.795500	1516.734375	5457.032227
29470.584894	-1336.795500	1515.677734	5306.375000
29470.584894	-1336.795500	1514.621094	5228.280762
29470.584894	-1336.795500	1513.564453	5062.119141
29470.584894	-1336.795500	1512.507813	5049.905762
29470.584894	-1336.795500	1511.450195	4997.104492
29470.584894	-1336.795500	1510.393555	5123.021973
29470.584894	-1336.795500	1509.335938	4758.584473
29470.584894	-1336.795500	1508.278320	4938.953125
29470.584894	-1336.795500	1507.219727	4486.816406
29470.584894	-1336.795500	1506.162109	4470.904785
29470.584894	-1336.795500	1505.103516	4561.244141
29470.584894	-1336.795500	1504.044922	4886.474121
29470.584894	-1336.795500	1502.986328	4575.143555
29470.584894	-1336.795500	1501.926758	4613.860840
29470.584894	-1336.795500	1500.868164	4878.334961
29470.584894	-1336.795500	1499.808594	4655.540527
29470.584894	-1336.795500	1498.749023	4902.102051
29470.584894	-1336.795500	1497.688477	4564.630371
29470.584894	-1336.795500	1496.628906	4531.799316
29470.584894	-1336.795500	1495.568359	4674.927734
29470.584894	-1336.795500	1494.507813	4358.376465
29470.584894	-1336.795500	1493.447266	4402.602539
29470.584894	-1336.795500	1492.386719	4699.258789
29470.584894	-1336.795500	1491.325195	4516.170898
29470.584894	-1336.795500	1490.263672	4736.382813
29470.584894	-1336.795500	1489.202148	4636.937500
29470.584894	-1336.795500	1488.140625	4479.143066
29470.584894	-1336.795500	1487.079102	4746.904785
29470.584894	-1336.795500	1486.016602	4960.687012
29470.584894	-1336.795500	1484.954102	4940.562500
29470.584894	-1336.795500	1483.891602	4893.594238
29470.584894	-1336.795500	1482.829102	4626.398438
29470.584894	-1336.795500	1481.765625	4474.084961
29470.584894	-1336.795500	1480.702148	4672.612305
29470.584894	-1336.795500	1479.638672	4608.244141
29470.584894	-1336.795500	1478.575195	4483.363281
29470.584894	-1336.795500	1477.511719	4554.094727
29470.584894	-1336.795500	1476.447266	4362.102051
29470.584894	-1336.795500	1475.382813	4401.725098
29470.584894	-1336.795500	1474.318359	4039.567139
29470.584894	-1336.795500	1473.253906	4140.000977
29470.584894	-1336.795500	1472.189453	4139.506348
29470.584894	-1336.795500	1471.124023	4011.411377
29470.584894	-1336.795500	1470.058594	3975.559326
29470.584894	-1336.795500	1468.993164	3928.531006
29470.584894	-1336.795500	1467.927734	3424.764648
29470.584894	-1336.795500	1466.861328	3476.512695
29470.584894	-1336.795500	1465.794922	3772.699951
29470.584894	-1336.795500	1464.728516	3195.965820
29470.584894	-1336.795500	1463.662109	3421.023438
29470.584894	-1336.795500	1462.594727	3479.987793
29470.584894	-1336.795500	1461.528320	3065.270020
29470.584894	-1336.795500	1460.460938	3222.829590
29470.584894	-1336.795500	1459.393555	2983.425781
29470.584894	-1336.795500	1458.326172	2900.379639
29470.584894	-1336.795500	1457.257813	3139.195068
29470.584894	-1336.795500	1456.189453	3059.422119
29470.584894	-1336.795500	1455.121094	3089.420898
29470.584894	-1336.795500	1454.052734	2832.918457
29470.584894	-1336.795500	1452.984375	2976.538086
29470.584894	-1336.795500	1451.915039	3321.185059
29470.584894	-1336.795500	1450.845703	2863.873291
29470.584894	-1336.795500	1449.776367	3023.458984
29470.584894	-1336.795500	1448.707031	2824.381836
29470.584894	-1336.795500	1447.636719	3115.250732
29470.584894	-1336.795500	1446.567383	2917.796631
29470.584894	-1336.795500	1445.497070	2750.621826
29470.584894	-1336.795500	1444.425781	2715.312744
29470.584894	-1336.795500	1443.355469	2872.275635
29470.584894	-1336.795500	1442.285156	2566.228760
29470.584894	-1336.795500	1441.213867	2612.197754
29470.584894	-1336.795500	1440.142578	2390.751953
29470.584894	-1336.795500	1439.070313	2091.840576
29470.584894	-1336.795500	1437.999023	2060.499268
29470.584894	-1336.795500	1436.926758	2094.816650
29470.584894	-1336.795500	1435.854492	1873.314453
29470.584894	-1336.795500	1434.782227	1587.928223
29470.584894	-1336.795500	1433.709961	1547.234375
29470.584894	-1336.795500	1432.636719	1524.935669
29470.584894	-1336.795500	1431.563477	1213.867432
29470.584894	-1336.795500	1430.490234	1274.076538
29470.584894	-1336.795500	1429.416992	1008.967651
29470.584894	-1336.795500	1428.343750	672.617126
29470.584894	-1336.795500	1427.269531	784.392212
29470.584894	-1336.795500	1426.195313	617.199707
29470.584894	-1336.795500	1425.121094	524.006592
29470.584894	-1336.795500	1424.046875	231.725052
29470.584894	-1336.795500	1422.971680	213.209335
29470.584894	-1336.795500	1421.896484	280.267853
29470.584894	-1336.795500	1420.821289	0.652638
29470.584894	-1336.795500	1419.746094	188.295425
29470.584894	-1336.795500	1418.669922	191.306885
29470.584894	-1336.795500	1417.594727	88.647636
29470.584894	-1336.795500	1416.518555	33.035187
29470.584894	-1336.795500	1415.442383	-61.439884
29470.584894	-1336.795500	1414.365234	36.046574
29470.584894	-1336.795500	1413.289063	-30.417246
29470.584894	-1336.795500	1412.211914	-160.575500
29470.584894	-1336.795500	1411.134766	56.564037
29470.584894	-1336.795500	1410.057617	12.503269
29470.584894	-1336.795500	1408.979492	79.440125
29470.584894	-1336.795500	1407.902344	30.361506
29470.584894	-1336.795500	1406.824219	191.427139
29470.584894	-1336.795500	1405.746094	-56.959503
29470.584894	-1336.795500	1404.666992	252.489929
29470.584894	-1336.795500	1403.588867	139.032486
29470.584894	-1336.795500	1402.509766	127.385757
29470.584894	-1336.795500	1401.430664	199.741577
29470.584894	-1336.795500	1400.351563	319.418121
29470.584894	-1336.795500	1399.271484	387.530640
29470.584894	-1336.795500	1398.192383	389.346252
29470.584894	-1336.795500	1397.112305	743.459045
29470.584894	-1336.795500	1396.031250	859.039307
29470.584894	-1336.795500	1394.951172	713.149841
29470.584894	-1336.795500	1393.871094	718.720642
29470.584894	-1336.795500	1392.790039	935.524231
29470.584894	-1336.795500	1391.708984	962.420654
29470.584894	-1336.795500	1390.626953	1018.661133
29470.584894	-1336.795500	1389.545898	1286.057007
29470.584894	-1336.795500	1388.463867	1486.040649
29470.584894	-1336.795500	1387.381836	1142.268677
29470.584894	-1336.795500	1386.299805	846.554932
29470.584894	-1336.795500	1385.217773	1046.860107
29470.584894	-1336.795500	1384.134766	1258.158813
29470.584894	-1336.795500	1383.051758	1062.895996
29470.584894	-1336.795500	1381.968750	1167.137329
29470.584894	-1336.795500	1380.885742	1208.152222
29470.584894	-1336.795500	1379.802734	1136.922485
29470.584894	-1336.795500	1378.718750	1104.669678
29470.584894	-1336.795500	1377.634766	1008.915771
29470.584894	-1336.795500	1376.550781	1071.218994
29470.584894	-1336.795500	1375.465820	794.629211
29470.584894	-1336.795500	1374.381836	1038.037354
29470.584894	-1336.795500	1373.296875	874.569336
29470.584894	-1336.795500	1372.211914	924.584412
29470.584894	-1336.795500	1371.126953	955.997925
29470.584894	-1336.795500	1370.041016	692.339172
29470.584894	-1336.795500	1368.955078	679.185547
29470.584894	-1336.795500	1367.869141	605.948425
29470.584894	-1336.795500	1366.783203	564.406616
29470.584894	-1336.795500	1365.697266	454.782074
29470.584894	-1336.795500	1364.610352	486.966156
29470.584894	-1336.795500	1363.523438	478.150543
29470.584894	-1336.795500	1362.436523	506.066986
29470.584894	-1336.795500	1361.349609	498.294922
29470.584894	-1336.795500	1360.261719	450.931274
29470.584894	-1336.795500	1359.174805	421.329041
29470.584894	-1336.795500	1358.086914	421.659546
29470.584894	-1336.795500	1356.998047	691.565002
29470.584894	-1336.795500	1355.910156	800.085083
29470.584894	-1336.795500	1354.821289	631.319519
29470.584894	-1336.795500	1353.732422	784.189148
29470.584894	-1336.795500	1352.643555	903.093506
29470.584894	-1336.795500	1351.554688	889.998596
29470.584894	-1336.795500	1350.464844	1411.012329
29470.584894	-1336.795500	1349.375000	1239.863403
29470.584894	-1336.795500	1348.285156	1344.636841
29470.584894	-1336.795500	1347.195313	1286.140503
29470.584894	-1336.795500	1346.105469	1278.266113
29470.584894	-1336.795500	1345.014648	1365.381958
29470.584894	-1336.795500	1343.923828	1409.270508
29470.584894	-1336.795500	1342.833008	1390.419312
29470.584894	-1336.795500	1341.741211	1423.870850
29470.584894	-1336.795500	1340.650391	972.687866
29470.584894	-1336.795500	1339.558594	1252.085327
29470.584894	-1336.795500	1338.466797	1428.089233
29470.584894	-1336.795500	1337.374023	1401.879395
29470.584894	-1336.795500	1336.282227	1271.194946
29470.584894	-1336.795500	1335.189453	1288.574341
29470.584894	-1336.795500	1334.096680	1397.484375
29470.584894	-1336.795500	1333.003906	1255.683838
29470.584894	-1336.795500	1331.910156	1422.600830
29470.584894	-1336.795500	1330.817383	1400.794067
29470.584894	-1336.795500	1329.723633	1373.646606
29470.584894	-1336.795500	1328.629883	1210.997559
29470.584894	-1336.795500	1327.535156	1017.357788
29470.584894	-1336.795500	1326.441406	980.083496
29470.584894	-1336.795500	1325.346680	1067.326416
29470.584894	-1336.795500	1324.251953	1286.069702
29470.584894	-1336.795500	1323.156250	1181.453369
29470.584894	-1336.795500	1322.061523	1041.928589
29470.584894	-1336.795500	1320.965820	1049.800049
29470.584894	-1336.795500	1319.870117	1043.241943
29470.584894	-1336.795500	1318.774414	1034.678833
29470.584894	-1336.795500	1317.678711	1148.900757
29470.584894	-1336.795500	1316.582031	1063.044434
29470.584894	-1336.795500	1315.485352	986.295288
29470.584894	-1336.795500	1314.388672	1028.796509
29470.584894	-1336.795500	1313.291016	1136.486206
29470.584894	-1336.795500	1312.194336	1075.068970
29470.584894	-1336.795500	1311.096680	1073.365234
29470.584894	-1336.795500	1309.999023	842.962280
29470.584894	-1336.795500	1308.901367	944.552002
29470.584894	-1336.795500	1307.802734	788.387451
29470.584894	-1336.795500	1306.705078	873.197449
29470.584894	-1336.795500	1305.606445	657.717712
29470.584894	-1336.795500	1304.506836	703.017639
29470.584894	-1336.795500	1303.408203	761.858521
29470.584894	-1336.795500	1302.308594	748.574402
29470.584894	-1336.795500	1301.208984	869.120483
29470.584894	-1336.795500	1300.109375	716.696655
29470.584894	-1336.795500	1299.009766	688.547668
29470.584894	-1336.795500	1297.909180	622.331665
29470.584894	-1336.795500	1296.808594	715.259216
29470.584894	-1336.795500	1295.708008	554.104431
29470.584894	-1336.795500	1294.607422	682.703857
29470.584894	-1336.795500	1293.506836	496.759338
29470.584894	-1336.795500	1292.405273	344.177429
29470.584894	-1336.795500	1291.303711	550.525574
29470.584894	-1336.795500	1290.202148	680.273254
29470.584894	-1336.795500	1289.099609	591.752991
29470.584894	-1336.795500	1287.998047	594.826843
29470.584894	-1336.795500	1286.895508	568.970032
29470.584894	-1336.795500	1285.792969	344.641266
29470.584894	-1336.795500	1284.689453	434.801331
29470.584894	-1336.795500	1283.586914	518.255920
29470.584894	-1336.795500	1282.483398	371.476990
29470.584894	-1336.795500	1281.379883	-7.922858
29470.584894	-1336.795500	1280.276367	160.399658
29470.584894	-1336.795500	1279.171875	71.067886
29470.584894	-1336.795500	1278.067383	119.104263
29470.584894	-1336.795500	1276.962891	-38.398872
29470.584894	-1336.795500	1275.858398	-52.378490
29470.584894	-1336.795500	1274.753906	-10.932693
29470.584894	-1336.795500	1273.648438	-220.235672
29470.584894	-1336.795500	1272.542969	-157.791748
29470.584894	-1336.795500	1271.437500	10.192559
29470.584894	-1336.795500	1270.331055	-35.870811
29470.584894	-1336.795500	1269.225586	-148.116638
29470.584894	-1336.795500	1268.119141	72.701340
29470.584894	-1336.795500	1267.012695	-43.199875
29470.584894	-1336.795500	1265.906250	-11.937958
29470.584894	-1336.795500	1264.798828	-60.251072
29470.584894	-1336.795500	1263.691406	-16.796440
29470.584894	-1336.795500	1262.583984	-9.777691
29470.584894	-1336.795500	1261.476563	92.922844
29470.584894	-1336.795500	1260.368164	95.734207
29470.584894	-1336.795500	1259.260742	185.968735
29470.584894	-1336.795500	1258.152344	246.113968
29470.584894	-1336.795500	1257.043945	433.706635
29470.584894	-1336.795500	1255.934570	424.441650
29470.584894	-1336.795500	1254.825195	422.925873
29470.584894	-1336.795500	1253.716797	554.037598
29470.584894	-1336.795500	1252.606445	599.541382
29470.584894	-1336.795500	1251.497070	731.838623
29470.584894	-1336.795500	1250.387695	836.502197
29470.584894	-1336.795500	1249.277344	613.777954
29470.584894	-1336.795500	1248.166992	731.240356
29470.584894	-1336.795500	1247.055664	849.452698
29470.584894	-1336.795500	1245.945313	812.143250
29470.584894	-1336.795500	1244.833984	977.989075
29470.584894	-1336.795500	1243.722656	1043.538086
29470.584894	-1336.795500	1242.611328	1095.752441
29470.584894	-1336.795500	1241.499023	1193.769165
29470.584894	-1336.795500	1240.387695	1128.606079
29470.584894	-1336.795500	1239.275391	1125.242310
29470.584894	-1336.795500	1238.162109	1239.151978
29470.584894	-1336.795500	1237.049805	1316.299072
29470.584894	-1336.795500	1235.936523	1281.536987
29470.584894	-1336.795500	1234.823242	1278.756226
29470.584894	-1336.795500	1233.709961	1158.981445
29470.584894	-1336.795500	1232.596680	1040.609741
29470.584894	-1336.795500	1231.482422	1226.824951
29470.584894	-1336.795500	1230.369141	1351.981323
29470.584894	-1336.795500	1229.253906	1281.564331
29470.584894	-1336.795500	1228.139648	1252.487793
29470.584894	-1336.795500	1227.025391	1133.571411
29470.584894	-1336.795500	1225.910156	1034.576416
29470.584894	-1336.795500	1224.794922	923.740540
29470.584894	-1336.795500	1223.679688	812.834778
29470.584894	-1336.795500	1222.563477	667.065674
29470.584894	-1336.795500	1221.447266	678.833069
29470.584894	-1336.795500	1220.331055	742.681458
29470.584894	-1336.795500	1219.214844	776.535034
29470.584894	-1336.795500	1218.098633	699.685364
29470.584894	-1336.795500	1216.981445	764.558655
29470.584894	-1336.795500	1215.864258	785.444458
29470.584894	-1336.795500	1214.747070	962.712341
29470.584894	-1336.795500	1213.629883	1121.250610
29470.584894	-1336.795500	1212.511719	1043.083130
29470.584894	-1336.795500	1211.393555	1110.823608
29470.584894	-1336.795500	1210.275391	1220.134644
29470.584894	-1336.795500	1209.157227	1225.892822
29470.584894	-1336.795500	1208.038086	1233.993042
29470.584894	-1336.795500	1206.918945	1142.531616
29470.584894	-1336.795500	1205.799805	1309.027466
29470.584894	-1336.795500	1204.680664	1469.471558
29470.584894	-1336.795500	1203.560547	1299.073120
29470.584894	-1336.795500	1202.441406	1245.341553
29470.584894	-1336.795500	1201.321289	1485.013794
29470.584894	-1336.795500	1200.200195	1349.828491
29470.584894	-1336.795500	1199.080078	1389.534424
29470.584894	-1336.795500	1197.958984	1541.009766
29470.584894	-1336.795500	1196.837891	1598.389160
29470.584894	-1336.795500	1195.716797	1494.397583
29470.584894	-1336.795500	1194.594727	2051.177002
29470.584894	-1336.795500	1193.473633	1923.297852
29470.584894	-1336.795500	1192.351563	2001.439819
29470.584894	-1336.795500	1191.229492	2129.740479
29470.584894	-1336.795500	1190.106445	2296.589600
29470.584894	-1336.795500	1188.984375	2229.685059
29470.584894	-1336.795500	1187.861328	2315.143555
29470.584894	-1336.795500	1186.738281	2291.508057
29470.584894	-1336.795500	1185.614258	2185.423584
29470.584894	-1336.795500	1184.491211	1829.234009
29470.584894	-1336.795500	1183.367188	1886.676636
29470.584894	-1336.795500	1182.243164	1623.385132
29470.584894	-1336.795500	1181.119141	1570.044922
29470.584894	-1336.795500	1179.994141	1562.890259
29470.584894	-1336.795500	1178.869141	1506.313965
29470.584894	-1336.795500	1177.744141	1481.504272
29470.584894	-1336.795500	1176.619141	1400.074097
29470.584894	-1336.795500	1175.493164	1420.004883
29470.584894	-1336.795500	1174.368164	1391.939209
29470.584894	-1336.795500	1173.242188	1567.371582
29470.584894	-1336.795500	1172.115234	1638.938232
29470.584894	-1336.795500	1170.989258	1382.699219
29470.584894	-1336.795500	1169.862305	1490.366333
29470.584894	-1336.795500	1168.735352	1311.195068
29470.584894	-1336.795500	1167.608398	1254.566162
29470.584894	-1336.795500	1166.481445	1252.238037
29470.584894	-1336.795500	1165.353516	996.884216
29470.584894	-1336.795500	1164.225586	887.837585
29470.584894	-1336.795500	1163.097656	770.556885
29470.584894	-1336.795500	1161.968750	729.391235
29470.584894	-1336.795500	1160.840820	705.406494
29470.584894	-1336.795500	1159.711914	809.523682
29470.584894	-1336.795500	1158.583008	698.681396
29470.584894	-1336.795500	1157.453125	476.288177
29470.584894	-1336.795500	1156.324219	552.719910
29470.584894	-1336.795500	1155.194336	534.254639
29470.584894	-1336.795500	1154.064453	492.382965
29470.584894	-1336.795500	1152.933594	433.815979
29470.584894	-1336.795500	1151.803711	398.038483
29470.584894	-1336.795500	1150.672852	621.078003
29470.584894	-1336.795500	1149.541992	589.990051
29470.584894	-1336.795500	1148.411133	587.130981
29470.584894	-1336.795500	1147.279297	492.400940
29470.584894	-1336.795500	1146.147461	496.980652
29470.584894	-1336.795500	1145.015625	430.553619
29470.584894	-1336.795500	1143.883789	505.068085
29470.584894	-1336.795500	1142.750977	609.973877
29470.584894	-1336.795500	1141.619141	470.116425
29470.584894	-1336.795500	1140.486328	346.077942
29470.584894	-1336.795500	1139.352539	333.887482
29470.584894	-1336.795500	1138.219727	353.082458
29470.584894	-1336.795500	1137.085938	320.714325
29470.584894	-1336.795500	1135.952148	509.793518
29470.584894	-1336.795500	1134.818359	367.318237
29470.584894	-1336.795500	1133.683594	263.549225
29470.584894	-1336.795500	1132.549805	263.495392
29470.584894	-1336.795500	1131.415039	536.292480
29470.584894	-1336.795500	1130.279297	523.955078
29470.584894	-1336.795500	1129.144531	603.350891
29470.584894	-1336.795500	1128.008789	486.569427
29470.584894	-1336.795500	1126.873047	434.173492
29470.584894	-1336.795500	1125.737305	223.186813
29470.584894	-1336.795500	1124.601563	296.046082
29470.584894	-1336.795500	1123.464844	414.364075
29470.584894	-1336.795500	1122.328125	204.528290
29470.584894	-1336.795500	1121.191406	120.134697
29470.584894	-1336.795500	1120.054688	79.643509
29470.584894	-1336.795500	1118.916992	-19.713657
29470.584894	-1336.795500	1117.779297	87.216736
29470.584894	-1336.795500	1116.641602	216.216232
29470.584894	-1336.795500	1115.503906	352.523438
29470.584894	-1336.795500	1114.365234	356.959503
29470.584894	-1336.795500	1113.226563	290.429352
29470.584894	-1336.795500	1112.087891	522.634521
29470.584894	-1336.795500	1110.949219	450.427917
29470.584894	-1336.795500	1109.809570	349.333527
29470.584894	-1336.795500	1108.669922	173.908020
29470.584894	-1336.795500	1107.530273	416.617645
29470.584894	-1336.795500	1106.390625	246.596619
29470.584894	-1336.795500	1105.250000	298.310059
29470.584894	-1336.795500	1104.109375	232.200775
29470.584894	-1336.795500	1102.968750	191.994843
29470.584894	-1336.795500	1101.828125	197.409515
29470.584894	-1336.795500	1100.686523	-0.260293
29470.584894	-1336.795500	1099.544922	166.637634
29470.584894	-1336.795500	1098.403320	216.415359
29470.584894	-1336.795500	1097.261719	348.127136
29470.584894	-1336.795500	1096.120117	305.054749
29470.584894	-1336.795500	1094.977539	309.439972
29470.584894	-1336.795500	1093.834961	379.416046
29470.584894	-1336.795500	1092.691406	156.690384
29470.584894	-1336.795500	1091.548828	314.699493
29470.584894	-1336.795500	1090.405273	136.474731
29470.584894	-1336.795500	1089.261719	188.903671
29470.584894	-1336.795500	1088.118164	43.312180
29470.584894	-1336.795500	1086.973633	-99.753883
29470.584894	-1336.795500	1085.829102	75.043602
29470.584894	-1336.795500	1084.684570	139.006149
29470.584894	-1336.795500	1083.540039	-67.557938
29470.584894	-1336.795500	1082.395508	-18.367619
29470.584894	-1336.795500	1081.250000	-120.186050
29470.584894	-1336.795500	1080.104492	-47.100315
29470.584894	-1336.795500	1078.958984	79.454811
29470.584894	-1336.795500	1077.812500	87.547974
29470.584894	-1336.795500	1076.666016	-16.373404
29470.584894	-1336.795500	1075.519531	-62.635643
29470.584894	-1336.795500	1074.373047	16.546284
29470.584894	-1336.795500	1073.226563	57.219131
29470.584894	-1336.795500	1072.079102	-72.135796
29470.584894	-1336.795500	1070.931641	-174.799011
29470.584894	-1336.795500	1069.784180	-50.781349
29470.584894	-1336.795500	1068.635742	25.070137
29470.584894	-1336.795500	1067.487305	72.433273
29470.584894	-1336.795500	1066.338867	79.532631
29470.584894	-1336.795500	1065.190430	360.920959
29470.584894	-1336.795500	1064.041992	314.708588
29470.584894	-1336.795500	1062.892578	235.679855
29470.584894	-1336.795500	1061.743164	428.204590
29470.584894	-1336.795500	1060.593750	329.072845
29470.584894	-1336.795500	1059.443359	270.048248
29470.584894	-1336.795500	1058.292969	325.113220
29470.584894	-1336.795500	1057.142578	305.806915
29470.584894	-1336.795500	1055.992188	451.362885
29470.584894	-1336.795500	1054.841797	345.065369
29470.584894	-1336.795500	1053.690430	368.111145
29470.584894	-1336.795500	1052.539063	345.737152
29470.584894	-1336.795500	1051.387695	-206.204865
29470.584894	-1336.795500	1050.235352	410.553833
29470.584894	-1336.795500	1049.083984	117.710548
29470.584894	-1336.795500	1047.931641	210.874832
29470.584894	-1336.795500	1046.778320	176.893295
29470.584894	-1336.795500	1045.625977	287.670929
29470.584894	-1336.795500	1044.472656	159.079391
29470.584894	-1336.795500	1043.319336	36.835049
29470.584894	-1336.795500	1042.166016	77.048546
29470.584894	-1336.795500	1041.012695	52.943810
29470.584894	-1336.795500	1039.858398	-9.556864
29470.584894	-1336.795500	1038.704102	321.020172
29470.584894	-1336.795500	1037.549805	205.832489
29470.584894	-1336.795500	1036.394531	228.992569
29470.584894	-1336.795500	1035.239258	298.261505
29470.584894	-1336.795500	1034.083984	494.554718
29470.584894	-1336.795500	1032.928711	412.753418
29470.584894	-1336.795500	1031.773438	555.217468
29470.584894	-1336.795500	1030.617188	492.723907
29470.584894	-1336.795500	1029.460938	522.841064
29470.584894	-1336.795500	1028.304688	410.144562
29470.584894	-1336.795500	1027.147461	570.459106
29470.584894	-1336.795500	1025.991211	239.085800
29470.584894	-1336.795500	1024.833984	343.910858
29470.584894	-1336.795500	1023.675781	221.743088
29470.584894	-1336.795500	1022.518555	52.283585
29470.584894	-1336.795500	1021.360352	150.958084
29470.584894	-1336.795500	1020.202148	-55.537308
29470.584894	-1336.795500	1019.043945	123.528412
29470.584894	-1336.795500	1017.884766	152.385590
29470.584894	-1336.795500	1016.726563	33.919868
29470.584894	-1336.795500	1015.567383	113.949722
29470.584894	-1336.795500	1014.407227	193.170776
29470.584894	-1336.795500	1013.248047	68.560104
29470.584894	-1336.795500	1012.087891	357.103607
29470.584894	-1336.795500	1010.927734	272.335114
29470.584894	-1336.795500	1009.767578	198.382233
29470.584894	-1336.795500	1008.606445	246.237381
29470.584894	-1336.795500	1007.446289	293.593384
29470.584894	-1336.795500	1006.285156	22.399250
29470.584894	-1336.795500	1005.123047	157.539169
29470.584894	-1336.795500	1003.961914	230.555161
29470.584894	-1336.795500	1002.799805	488.267792
29470.584894	-1336.795500	1001.637695	402.203857
29470.584894	-1336.795500	1000.475586	359.522308
29470.584894	-1336.795500	999.312500	636.220825
29470.584894	-1336.795500	998.149414	377.178070
29470.584894	-1336.795500	996.986328	473.788330
29470.584894	-1336.795500	995.823242	504.546570
29470.584894	-1336.795500	994.659180	272.464844
29470.584894	-1336.795500	993.496094	345.250763
29470.584894	-1336.795500	992.332031	650.045837
29470.584894	-1336.795500	991.166992	689.962891
29470.584894	-1336.795500	990.002930	714.621216
29470.584894	-1336.795500	988.837891	618.294739
29470.584894	-1336.795500	987.672852	740.794434
29470.584894	-1336.795500	986.506836	1029.818481
29470.584894	-1336.795500	985.341797	976.261108
29470.584894	-1336.795500	984.175781	1006.341003
29470.584894	-1336.795500	983.009766	1057.104980
29470.584894	-1336.795500	981.843750	899.836975
29470.584894	-1336.795500	980.676758	1114.959473
29470.584894	-1336.795500	979.509766	803.613342
29470.584894	-1336.795500	978.342773	667.318848
29470.584894	-1336.795500	977.175781	741.828979
29470.584894	-1336.795500	976.007813	599.285583
29470.584894	-1336.795500	974.839844	450.719391
29470.584894	-1336.795500	973.671875	567.622559
29470.584894	-1336.795500	972.503906	575.273315
29470.584894	-1336.795500	971.334961	487.005829
29470.584894	-1336.795500	970.166016	480.269958
29470.584894	-1336.795500	968.997070	465.710236
29470.584894	-1336.795500	967.828125	556.638245
29470.584894	-1336.795500	966.658203	405.352539
29470.584894	-1336.795500	965.488281	473.772217
29470.584894	-1336.795500	964.318359	305.024170
29470.584894	-1336.795500	963.148438	487.641632
29470.584894	-1336.795500	961.977539	384.142792
29470.584894	-1336.795500	960.806641	218.062134
29470.584894	-1336.795500	959.635742	436.034454
29470.584894	-1336.795500	958.463867	616.038696
29470.584894	-1336.795500	957.292969	663.614075
29470.584894	-1336.795500	956.121094	583.684265
29470.584894	-1336.795500	954.948242	565.202271
29470.584894	-1336.795500	953.776367	432.191010
29470.584894	-1336.795500	952.603516	274.576782
29470.584894	-1336.795500	951.430664	256.551758
29470.584894	-1336.795500	950.257813	86.230255
29470.584894	-1336.795500	949.084961	140.334045
29470.584894	-1336.795500	947.911133	228.889481
29470.584894	-1336.795500	946.737305	228.836060
29470.584894	-1336.795500	945.563477	210.418961
29470.584894	-1336.795500	944.388672	108.212273
29470.584894	-1336.795500	943.213867	399.586304
29470.584894	-1336.795500	942.039063	585.895630
29470.584894	-1336.795500	940.864258	743.852173
29470.584894	-1336.795500	939.688477	624.673523
29470.584894	-1336.795500	938.513672	616.919922
29470.584894	-1336.795500	937.337891	779.330017
29470.584894	-1336.795500	936.161133	834.187866
29470.584894	-1336.795500	934.985352	828.477966
29470.584894	-1336.795500	933.808594	627.126099
29470.584894	-1336.795500	932.631836	619.293945
29470.584894	-1336.795500	931.454102	573.894043
29470.584894	-1336.795500	930.277344	458.945343
29470.584894	-1336.795500	929.099609	523.155518
29470.584894	-1336.795500	927.921875	578.056580
29470.584894	-1336.795500	926.743164	449.222076
29470.584894	-1336.795500	925.565430	448.286346
29470.584894	-1336.795500	924.386719	163.676605
29470.584894	-1336.795500	923.208008	74.429863
29470.584894	-1336.795500	922.028320	208.336304
29470.584894	-1336.795500	920.849609	112.096931
29470.584894	-1336.795500	919.669922	115.692459
29470.584894	-1336.795500	919.474609	158.195084
29470.584894	-1336.795500	918.309570	287.232452
29470.584894	-1336.795500	917.143555	135.159363
29470.584894	-1336.795500	915.977539	189.786331
29470.584894	-1336.795500	914.810547	84.173866
29470.584894	-1336.795500	913.644531	113.201958
29470.584894	-1336.795500	912.477539	158.438828
29470.584894	-1336.795500	911.310547	157.228271
29470.584894	-1336.795500	910.143555	46.966805
29470.584894	-1336.795500	908.975586	245.191330
29470.584894	-1336.795500	907.807617	151.146118
29470.584894	-1336.795500	906.639648	-51.842678
29470.584894	-1336.795500	905.471680	-13.713552
29470.584894	-1336.795500	904.303711	140.248306
29470.584894	-1336.795500	903.134766	-64.986687
29470.584894	-1336.795500	901.965820	98.156845
29470.584894	-1336.795500	900.796875	-67.649269
29470.584894	-1336.795500	899.626953	-69.001076
29470.584894	-1336.795500	898.457031	-47.217693
29470.584894	-1336.795500	897.287109	-48.601925
29470.584894	-1336.795500	896.117188	-47.684116
29470.584894	-1336.795500	894.947266	-14.389151
29470.584894	-1336.795500	893.776367	-25.065121
29470.584894	-1336.795500	892.605469	-142.129761
29470.584894	-1336.795500	891.434570	-208.287262
29470.584894	-1336.795500	890.262695	-68.682640
29470.584894	-1336.795500	889.091797	-116.354340
29470.584894	-1336.795500	887.919922	4.674304
29470.584894	-1336.795500	886.748047	26.304893
29470.584894	-1336.795500	885.575195	-67.567596
29470.584894	-1336.795500	884.403320	106.476410
29470.584894	-1336.795500	883.230469	-155.929276
29470.584894	-1336.795500	882.057617	-166.614487
29470.584894	-1336.795500	880.883789	-209.606201
29470.584894	-1336.795500	879.710938	-194.897934
29470.584894	-1336.795500	878.537109	55.120647
29470.584894	-1336.795500	877.362305	226.617294
29470.584894	-1336.795500	876.188477	-169.245300
29470.584894	-1336.795500	875.013672	-108.436905
29470.584894	-1336.795500	873.839844	175.941467
29470.584894	-1336.795500	872.664063	123.735054
29470.584894	-1336.795500	871.489258	101.506317
29470.584894	-1336.795500	870.313477	-22.068081
29470.584894	-1336.795500	869.138672	-12.003253
29470.584894	-1336.795500	867.962891	-13.447745
29470.584894	-1336.795500	866.786133	-86.252434
29470.584894	-1336.795500	865.610352	-48.536018
29470.584894	-1336.795500	864.433594	62.818584
29470.584894	-1336.795500	863.256836	296.081909
29470.584894	-1336.795500	862.079102	195.705414
29470.584894	-1336.795500	860.902344	371.367157
29470.584894	-1336.795500	859.724609	450.393219
29470.584894	-1336.795500	858.546875	455.830444
29470.584894	-1336.795500	857.368164	406.116547
29470.584894	-1336.795500	856.190430	216.252731
29470.584894	-1336.795500	855.011719	334.355164
29470.584894	-1336.795500	853.833008	397.291840
29470.584894	-1336.795500	852.654297	464.810364
29470.584894	-1336.795500	851.474609	552.983215
29470.584894	-1336.795500	850.294922	386.315094
29470.584894	-1336.795500	849.115234	511.221497
29470.584894	-1336.795500	847.935547	424.978302
29470.584894	-1336.795500	846.754883	554.448975
29470.584894	-1336.795500	845.575195	704.524048
29470.584894	-1336.795500	844.393555	590.829285
29470.584894	-1336.795500	843.212891	795.901855
29470.584894	-1336.795500	842.032227	824.394287
29470.584894	-1336.795500	840.850586	706.214966
29470.584894	-1336.795500	839.668945	858.492371
29470.584894	-1336.795500	838.486328	747.267761
29470.584894	-1336.795500	837.304688	693.368835
29470.584894	-1336.795500	836.122070	541.042725
29470.584894	-1336.795500	834.939453	407.116974
29470.584894	-1336.795500	833.756836	218.328201
29470.584894	-1336.795500	832.573242	400.394440
29470.584894	-1336.795500	831.389648	440.541534
29470.584894	-1336.795500	830.206055	194.737488
29470.584894	-1336.795500	829.022461	312.717865
29470.584894	-1336.795500	827.838867	419.237732
29470.584894	-1336.795500	826.654297	207.949661
29470.584894	-1336.795500	825.469727	479.069611
29470.584894	-1336.795500	824.284180	306.754059
29470.584894	-1336.795500	823.099609	184.794968
29470.584894	-1336.795500	821.914063	247.945557
29470.584894	-1336.795500	820.728516	217.451904
29470.584894	-1336.795500	819.542969	433.603149
29470.584894	-1336.795500	818.356445	211.365372
29470.584894	-1336.795500	817.169922	82.822418
29470.584894	-1336.795500	815.983398	-0.004205
29470.584894	-1336.795500	814.796875	-110.151611
29470.584894	-1336.795500	813.609375	315.820862
29470.584894	-1336.795500	812.422852	46.057251
29470.584894	-1336.795500	811.235352	104.768929
29470.584894	-1336.795500	810.046875	74.575035
29470.584894	-1336.795500	808.859375	-85.500717
29470.584894	-1336.795500	807.670898	151.010971
29470.584894	-1336.795500	806.482422	34.320583
29470.584894	-1336.795500	805.293945	79.422127
29470.584894	-1336.795500	804.104492	163.244537
29470.584894	-1336.795500	802.915039	203.795105
29470.584894	-1336.795500	801.725586	48.583378
29470.584894	-1336.795500	800.536133	-131.577377
29470.584894	-1336.795500	799.345703	27.398039
29470.584894	-1336.795500	798.155273	197.703262
29470.584894	-1336.795500	796.964844	81.376129
29470.584894	-1336.795500	795.774414	244.818680
29470.584894	-1336.795500	794.583008	103.564339
29470.584894	-1336.795500	793.392578	210.148849
29470.584894	-1336.795500	792.200195	184.906525
29470.584894	-1336.795500	791.008789	50.627338
29470.584894	-1336.795500	789.816406	350.311096
29470.584894	-1336.795500	788.625000	302.396606
29470.584894	-1336.795500	787.432617	263.605438
29470.584894	-1336.795500	786.239258	186.258423
29470.584894	-1336.795500	785.046875	310.966187
29470.584894	-1336.795500	783.853516	558.183655
29470.584894	-1336.795500	782.660156	444.572723
29470.584894	-1336.795500	781.465820	830.065308
29470.584894	-1336.795500	780.272461	553.188721
29470.584894	-1336.795500	779.078125	525.860901
29470.584894	-1336.795500	777.883789	416.948730
29470.584894	-1336.795500	776.688477	219.707199
29470.584894	-1336.795500	775.494141	265.019073
29470.584894	-1336.795500	774.298828	462.117615
29470.584894	-1336.795500	773.103516	308.062988
29470.584894	-1336.795500	771.907227	167.674652
29470.584894	-1336.795500	770.711914	265.083252
29470.584894	-1336.795500	769.515625	188.164612
29470.584894	-1336.795500	768.318359	16.238390
29470.584894	-1336.795500	767.122070	199.632370
29470.584894	-1336.795500	765.924805	487.023193
29470.584894	-1336.795500	764.727539	310.641754
29470.584894	-1336.795500	763.530273	432.830017
29470.584894	-1336.795500	762.333008	753.925110
29470.584894	-1336.795500	761.134766	697.417358
29470.584894	-1336.795500	759.936523	654.495422
29470.584894	-1336.795500	758.738281	778.791443
29470.584894	-1336.795500	757.540039	385.740997
29470.584894	-1336.795500	756.340820	455.845032
29470.584894	-1336.795500	755.141602	426.567719
29470.584894	-1336.795500	753.942383	523.724487
29470.584894	-1336.795500	752.742188	442.536072
29470.584894	-1336.795500	751.541992	318.504517
29470.584894	-1336.795500	750.341797	343.423889
29470.584894	-1336.795500	749.141602	194.644775
29470.584894	-1336.795500	747.941406	508.233582
29470.584894	-1336.795500	746.740234	140.769211
29470.584894	-1336.795500	745.539063	429.431519
29470.584894	-1336.795500	744.337891	226.646301
29470.584894	-1336.795500	743.135742	23.940577
29470.584894	-1336.795500	741.933594	60.107487
29470.584894	-1336.795500	740.731445	-11.864761
29470.584894	-1336.795500	739.529297	78.316711
29470.584894	-1336.795500	738.326172	-52.187305
29470.584894	-1336.795500	737.124023	-160.144974
29470.584894	-1336.795500	735.919922	49.250374
29470.584894	-1336.795500	734.716797	-22.712477
29470.584894	-1336.795500	733.513672	220.270737
29470.584894	-1336.795500	732.309570	166.262039
29470.584894	-1336.795500	731.105469	-47.393719
29470.584894	-1336.795500	729.900391	69.495300
29470.584894	-1336.795500	728.696289	22.230415
29470.584894	-1336.795500	727.491211	255.863403
29470.584894	-1336.795500	726.286133	154.614136
29470.584894	-1336.795500	725.080078	-31.973106
29470.584894	-1336.795500	723.874023	71.195587
29470.584894	-1336.795500	722.668945	118.156624
29470.584894	-1336.795500	721.461914	90.995163
29470.584894	-1336.795500	720.255859	149.096237
29470.584894	-1336.795500	719.048828	-138.414505
29470.584894	-1336.795500	717.841797	-53.430408
29470.584894	-1336.795500	716.634766	-60.478085
29470.584894	-1336.795500	715.427734	80.445107
29470.584894	-1336.795500	714.219727	124.868454
29470.584894	-1336.795500	713.011719	88.539360
29470.584894	-1336.795500	711.803711	-71.073715
29470.584894	-1336.795500	710.594727	150.244919
29470.584894	-1336.795500	709.385742	57.809155
29470.584894	-1336.795500	708.176758	115.425316
29470.584894	-1336.795500	706.967773	-120.362000
29470.584894	-1336.795500	705.758789	221.492783
29470.584894	-1336.795500	704.548828	48.361408
29470.584894	-1336.795500	703.338867	307.145813
29470.584894	-1336.795500	702.127930	362.178558
29470.584894	-1336.795500	700.917969	95.026878
29470.584894	-1336.795500	699.707031	241.666733
29470.584894	-1336.795500	698.496094	332.292236
29470.584894	-1336.795500	697.285156	413.882507
29470.584894	-1336.795500	696.073242	341.170288
29470.584894	-1336.795500	694.861328	290.774658
29470.584894	-1336.795500	693.649414	436.934448
29470.584894	-1336.795500	692.436523	495.865723
29470.584894	-1336.795500	691.224609	163.914688
29470.584894	-1336.795500	690.011719	452.710907
29470.584894	-1336.795500	688.798828	326.139221
29470.584894	-1336.795500	687.584961	273.202606
29470.584894	-1336.795500	686.372070	474.574829
29470.584894	-1336.795500	685.158203	508.488525
29470.584894	-1336.795500	683.943359	323.753754
29470.584894	-1336.795500	682.729492	297.336700
29470.584894	-1336.795500	681.514648	411.307556
29470.584894	-1336.795500	680.299805	317.870941
29470.584894	-1336.795500	679.084961	375.927917
29470.584894	-1336.795500	677.869141	609.890137
29470.584894	-1336.795500	676.653320	754.576721
29470.584894	-1336.795500	675.437500	754.368164
29470.584894	-1336.795500	674.221680	658.336609
29470.584894	-1336.795500	673.004883	800.450867
29470.584894	-1336.795500	671.789063	806.659912
29470.584894	-1336.795500	670.571289	788.306641
29470.584894	-1336.795500	669.354492	812.141357
29470.584894	-1336.795500	668.136719	875.913574
29470.584894	-1336.795500	666.919922	881.751465
29470.584894	-1336.795500	665.701172	894.168945
29470.584894	-1336.795500	664.483398	830.912415
29470.584894	-1336.795500	663.264648	885.373352
29470.584894	-1336.795500	662.045898	1101.910034
29470.584894	-1336.795500	660.827148	960.619812
29470.584894	-1336.795500	659.608398	1043.603271
29470.584894	-1336.795500	658.388672	977.684937
29470.584894	-1336.795500	657.168945	1055.993042
29470.584894	-1336.795500	655.949219	929.973633
29470.584894	-1336.795500	654.728516	1052.437622
29470.584894	-1336.795500	653.507813	837.526978
29470.584894	-1336.795500	652.287109	1188.213379
29470.584894	-1336.795500	651.066406	1130.606079
29470.584894	-1336.795500	649.844727	1236.986450
29470.584894	-1336.795500	648.623047	1159.230225
29470.584894	-1336.795500	647.401367	1094.695801
29470.584894	-1336.795500	646.179688	928.156738
29470.584894	-1336.795500	644.957031	1120.450684
29470.584894	-1336.795500	643.734375	805.362976
29470.584894	-1336.795500	642.511719	888.875244
29470.584894	-1336.795500	641.289063	810.628174
29470.584894	-1336.795500	640.065430	867.316650
29470.584894	-1336.795500	638.841797	961.486206
29470.584894	-1336.795500	637.618164	829.829468
29470.584894	-1336.795500	636.393555	1058.665161
29470.584894	-1336.795500	635.168945	995.366089
29470.584894	-1336.795500	633.944336	892.176941
29470.584894	-1336.795500	632.719727	1135.973877
29470.584894	-1336.795500	631.494141	1132.013916
29470.584894	-1336.795500	630.269531	1046.180542
29470.584894	-1336.795500	629.042969	1185.595093
29470.584894	-1336.795500	627.817383	1402.135132
29470.584894	-1336.795500	626.590820	1243.058960
29470.584894	-1336.795500	625.365234	1200.940552
29470.584894	-1336.795500	624.137695	1372.821777
29470.584894	-1336.795500	622.911133	957.489075
29470.584894	-1336.795500	621.683594	1131.306152
29470.584894	-1336.795500	620.456055	943.157410
29470.584894	-1336.795500	619.228516	955.657715
29470.584894	-1336.795500	618.000977	974.641724
29470.584894	-1336.795500	616.772461	792.879150
29470.584894	-1336.795500	615.543945	1131.218628
29470.584894	-1336.795500	614.314453	878.730713
29470.584894	-1336.795500	613.085938	760.613647
29470.584894	-1336.795500	611.856445	549.906860
29470.584894	-1336.795500	610.626953	717.932190
29470.584894	-1336.795500	609.397461	474.043182
29470.584894	-1336.795500	608.166992	712.194580
29470.584894	-1336.795500	606.936523	668.419617
29470.584894	-1336.795500	605.706055	362.701721
29470.584894	-1336.795500	604.474609	287.962341
29470.584894	-1336.795500	603.244141	573.824646
29470.584894	-1336.795500	602.012695	672.527832
29470.584894	-1336.795500	600.780273	522.637268
29470.584894	-1336.795500	599.548828	486.978912
29470.584894	-1336.795500	598.316406	719.297424
29470.584894	-1336.795500	597.083984	637.215942
29470.584894	-1336.795500	595.851563	410.070831
29470.584894	-1336.795500	594.618164	547.440186
29470.584894	-1336.795500	593.384766	357.477997
29470.584894	-1336.795500	592.151367	483.571411
29470.584894	-1336.795500	590.917969	664.352783
29470.584894	-1336.795500	589.683594	654.029968
29470.584894	-1336.795500	588.449219	476.862854
29470.584894	-1336.795500	587.214844	505.815002
29470.584894	-1336.795500	585.979492	512.697632
29470.584894	-1336.795500	584.745117	462.458649
29470.584894	-1336.795500	583.509766	572.120178
29470.584894	-1336.795500	582.273438	449.319489
29470.584894	-1336.795500	581.038086	457.910522
29470.584894	-1336.795500	579.801758	310.850464
29470.584894	-1336.795500	578.565430	157.163025
29470.584894	-1336.795500	577.329102	202.670517
29470.584894	-1336.795500	576.091797	110.124161
29470.584894	-1336.795500	574.854492	225.418213
29470.584894	-1336.795500	573.617188	285.843842
29470.584894	-1336.795500	572.378906	361.436310
29470.584894	-1336.795500	571.141602	320.968384
29470.584894	-1336.795500	569.903320	133.888351
29470.584894	-1336.795500	568.664063	300.947266
29470.584894	-1336.795500	567.425781	386.955597
29470.584894	-1336.795500	566.186523	317.654297
29470.584894	-1336.795500	564.947266	311.635895
29470.584894	-1336.795500	563.708008	272.749573
29470.584894	-1336.795500	562.467773	351.701141
29470.584894	-1336.795500	561.227539	-137.185913
29470.584894	-1336.795500	559.987305	164.282364
29470.584894	-1336.795500	558.747070	-204.517365
29470.584894	-1336.795500	557.505859	18.076719
29470.584894	-1336.795500	556.264648	-23.494303
29470.584894	-1336.795500	555.023438	-121.851692
29470.584894	-1336.795500	553.781250	-39.271221
29470.584894	-1336.795500	552.539063	71.525467
29470.584894	-1336.795500	551.296875	51.400627
29470.584894	-1336.795500	550.054688	-8.029521
29470.584894	-1336.795500	548.811523	58.843918
29470.584894	-1336.795500	547.569336	114.720230
29470.584894	-1336.795500	546.325195	0.602700
29470.584894	-1336.795500	545.082031	-59.102493
29470.584894	-1336.795500	543.837891	-36.143543
29470.584894	-1336.795500	542.593750	-45.917038
29470.584894	-1336.795500	541.349609	-79.695160
29470.584894	-1336.795500	540.105469	-46.087944
29470.584894	-1336.795500	538.860352	80.955757
29470.584894	-1336.795500	537.615234	27.387383
29470.584894	-1336.795500	536.369141	78.129158
29470.584894	-1336.795500	535.124023	-97.267570
29470.584894	-1336.795500	533.877930	92.442604
29470.584894	-1336.795500	532.631836	-15.650848
29470.584894	-1336.795500	531.384766	-212.822998
29470.584894	-1336.795500	530.138672	-188.430252
29470.584894	-1336.795500	528.891602	157.254059
29470.584894	-1336.795500	527.643555	57.704128
29470.584894	-1336.795500	526.396484	394.414429
29470.584894	-1336.795500	525.148438	194.953278
29470.584894	-1336.795500	523.900391	112.690933
29470.584894	-1336.795500	522.652344	175.752136
29470.584894	-1336.795500	521.403320	69.596191
29470.584894	-1336.795500	520.154297	-10.526670
29470.584894	-1336.795500	518.905273	158.632401
29470.584894	-1336.795500	517.656250	30.793003
29470.584894	-1336.795500	516.406250	108.813843
29470.584894	-1336.795500	515.156250	145.623047
29470.584894	-1336.795500	513.906250	32.961727
29470.584894	-1336.795500	512.655273	-42.863136
29470.584894	-1336.795500	511.404297	-8.260260
29470.584894	-1336.795500	510.153320	-32.119358
29470.584894	-1336.795500	508.902344	-49.481506
29470.584894	-1336.795500	507.650391	-64.684219
29470.584894	-1336.795500	506.398438	8.802296
29470.584894	-1336.795500	505.146484	17.384247
29470.584894	-1336.795500	503.893555	6.502461
29470.584894	-1336.795500	502.641602	2.127671
29470.584894	-1336.795500	501.388672	-138.392593
29470.584894	-1336.795500	500.134766	-127.600327
29470.584894	-1336.795500	498.881836	-17.418472
29470.584894	-1336.795500	497.627930	-82.209381
29470.584894	-1336.795500	496.374023	166.141586
29470.584894	-1336.795500	495.119141	38.775505
29470.584894	-1336.795500	493.865234	105.750687
29470.584894	-1336.795500	492.610352	274.138458
29470.584894	-1336.795500	491.355469	4.538653
29470.584894	-1336.795500	490.099609	75.878510
29470.584894	-1336.795500	488.843750	203.294846
29470.584894	-1336.795500	487.587891	164.687759
29470.584894	-1336.795500	486.332031	117.519852
29470.584894	-1336.795500	485.075195	94.118767
29470.584894	-1336.795500	483.818359	-90.817467
29470.584894	-1336.795500	482.561523	43.191185
29470.584894	-1336.795500	481.304688	-36.015930
29470.584894	-1336.795500	480.046875	309.043121
29470.584894	-1336.795500	478.789063	139.508423
29470.584894	-1336.795500	477.531250	254.209335
29470.584894	-1336.795500	476.272461	297.909058
29470.584894	-1336.795500	475.013672	100.704323
29470.584894	-1336.795500	473.754883	28.405783
29470.584894	-1336.795500	472.496094	-73.895714
29470.584894	-1336.795500	471.236328	73.307083
29470.584894	-1336.795500	469.976563	80.804710
29470.584894	-1336.795500	468.716797	-79.248756
29470.584894	-1336.795500	467.456055	7.924364
29470.584894	-1336.795500	466.196289	60.776497
29470.584894	-1336.795500	464.935547	-98.935616
29470.584894	-1336.795500	463.673828	158.049316
29470.584894	-1336.795500	462.413086	28.606819
29470.584894	-1336.795500	461.151367	4.464411
29470.584894	-1336.795500	459.889648	31.918098
29470.584894	-1336.795500	458.626953	-4.918787
29470.584894	-1336.795500	457.364258	44.142918
29470.584894	-1336.795500	456.101563	61.105743
29470.584894	-1336.795500	454.838867	15.977946
29470.584894	-1336.795500	453.575195	-16.186991
29470.584894	-1336.795500	452.312500	268.923676
29470.584894	-1336.795500	451.047852	33.350636
29470.584894	-1336.795500	449.784180	-94.920654
29470.584894	-1336.795500	448.519531	-30.307226
29470.584894	-1336.795500	447.254883	-14.879560
29470.584894	-1336.795500	445.990234	0.631139
29470.584894	-1336.795500	444.725586	-77.947922
29470.584894	-1336.795500	443.459961	81.101929
29470.584894	-1336.795500	442.194336	-55.054546
29470.584894	-1336.795500	440.927734	236.693619
29470.584894	-1336.795500	439.662109	173.432251
29470.584894	-1336.795500	438.395508	161.583633
29470.584894	-1336.795500	437.127930	226.761963
29470.584894	-1336.795500	435.861328	-79.843552
29470.584894	-1336.795500	434.593750	-31.585356
29470.584894	-1336.795500	433.326172	-53.767593
29470.584894	-1336.795500	432.058594	-139.940369
29470.584894	-1336.795500	430.790039	-53.072308
29470.584894	-1336.795500	429.521484	-128.415817
29470.584894	-1336.795500	428.252930	-67.081429
29470.584894	-1336.795500	426.984375	75.360115
29470.584894	-1336.795500	425.714844	94.051460
29470.584894	-1336.795500	424.445313	55.190952
29470.584894	-1336.795500	423.174805	-11.342022
29470.584894	-1336.795500	421.905273	188.678513
29470.584894	-1336.795500	420.634766	154.173203
29470.584894	-1336.795500	419.364258	60.035191
29470.584894	-1336.795500	418.092773	326.002899
29470.584894	-1336.795500	416.822266	485.362213
29470.584894	-1336.795500	415.550781	374.186768
29470.584894	-1336.795500	414.278320	269.431580
29470.584894	-1336.795500	413.006836	484.010284
29470.584894	-1336.795500	411.734375	521.821411
29470.584894	-1336.795500	410.461914	276.590210
29470.584894	-1336.795500	409.188477	335.616699
29470.584894	-1336.795500	407.916016	173.376389
29470.584894	-1336.795500	406.642578	236.530472
29470.584894	-1336.795500	405.368164	344.218262
29470.584894	-1336.795500	404.094727	188.221878
29470.584894	-1336.795500	402.820313	74.686989
29470.584894	-1336.795500	401.545898	92.808525
29470.584894	-1336.795500	400.270508	149.023193
29470.584894	-1336.795500	398.996094	143.495407
29470.584894	-1336.795500	397.720703	33.777287
29470.584894	-1336.795500	396.444336	-146.114822
29470.584894	-1336.795500	395.168945	26.179800
29470.584894	-1336.795500	393.892578	77.254723
29470.584894	-1336.795500	392.616211	98.393456
29470.584894	-1336.795500	391.339844	-14.321292
29470.584894	-1336.795500	390.062500	50.865593
29470.584894	-1336.795500	388.785156	30.958849
29470.584894	-1336.795500	387.507813	97.671104
29470.584894	-1336.795500	386.229492	217.012650
29470.584894	-1336.795500	384.951172	187.678177
29470.584894	-1336.795500	383.672852	117.764008
29470.584894	-1336.795500	382.394531	356.678253
29470.584894	-1336.795500	381.115234	484.995575
29470.584894	-1336.795500	379.835938	348.254547
29470.584894	-1336.795500	378.556641	338.104126
29470.584894	-1336.795500	377.277344	543.300049
29470.584894	-1336.795500	375.997070	595.602844
29470.584894	-1336.795500	374.716797	376.664459
29470.584894	-1336.795500	373.435547	224.924622
29470.584894	-1336.795500	372.155273	110.736801
29470.584894	-1336.795500	370.874023	-107.575645
29470.584894	-1336.795500	369.591797	368.737457
29470.584894	-1336.795500	368.310547	191.415344
29470.584894	-1336.795500	367.028320	171.865662
29470.584894	-1336.795500	365.746094	73.463547
29470.584894	-1336.795500	364.463867	145.344543
29470.584894	-1336.795500	363.180664	188.940796
29470.584894	-1336.795500	361.897461	-8.885595
29470.584894	-1336.795500	360.614258	62.552563
29470.584894	-1336.795500	359.330078	194.202820
29470.584894	-1336.795500	358.045898	35.930862
29470.584894	-1336.795500	356.761719	195.105225
29470.584894	-1336.795500	355.477539	36.986954
29470.584894	-1336.795500	354.192383	103.342278
29470.584894	-1336.795500	352.907227	153.800873
29470.584894	-1336.795500	351.622070	89.318527
29470.584894	-1336.795500	350.336914	82.624283
29470.584894	-1336.795500	349.050781	230.470139
29470.584894	-1336.795500	347.764648	-90.407303
29470.584894	-1336.795500	346.477539	-54.725498
29470.584894	-1336.795500	345.191406	48.998962
29470.584894	-1336.795500	343.904297	-50.776726
29470.584894	-1336.795500	342.616211	-51.094387
29470.584894	-1336.795500	341.329102	37.468437
29470.584894	-1336.795500	340.041016	86.489815
29470.584894	-1336.795500	338.752930	41.313576
29470.584894	-1336.795500	337.463867	-7.727404
29470.584894	-1336.795500	336.175781	-178.282608
29470.584894	-1336.795500	334.886719	-182.625107
29470.584894	-1336.795500	333.596680	81.975410
29470.584894	-1336.795500	332.307617	-62.845505
29470.584894	-1336.795500	331.017578	35.892269
29470.584894	-1336.795500	329.727539	-69.037178
29470.584894	-1336.795500	328.436523	-218.146851
29470.584894	-1336.795500	327.146484	-105.105606
29470.584894	-1336.795500	325.855469	30.645628
29470.584894	-1336.795500	324.563477	0.286381
29470.584894	-1336.795500	323.272461	-114.291183
29470.584894	-1336.795500	321.980469	-101.515968
29470.584894	-1336.795500	320.688477	-154.296906
29470.584894	-1336.795500	319.395508	-209.878845
29470.584894	-1336.795500	318.103516	-113.226471
29470.584894	-1336.795500	316.810547	108.127457
29470.584894	-1336.795500	315.516602	139.946716
29470.584894	-1336.795500	314.223633	41.001408
29470.584894	-1336.795500	312.929688	60.198132
29470.584894	-1336.795500	311.635742	209.979446
29470.584894	-1336.795500	310.340820	119.822838
29470.584894	-1336.795500	309.045898	76.381279
29470.584894	-1336.795500	307.750977	100.431168
29470.584894	-1336.795500	306.456055	206.456741
29470.584894	-1336.795500	305.160156	440.192902
29470.584894	-1336.795500	303.865234	590.563843
29470.584894	-1336.795500	302.568359	410.724335
29470.584894	-1336.795500	301.272461	429.485504
29470.584894	-1336.795500	299.975586	247.557556
29470.584894	-1336.795500	298.678711	205.353012
