#X		#Y		#Wave		#Intensity
-167.027128	5519.108333	1999.946289	-214.919647
-167.027128	5519.108333	1998.981445	54.779549
-167.027128	5519.108333	1998.017578	87.216438
-167.027128	5519.108333	1997.052734	-21.534851
-167.027128	5519.108333	1996.088867	-177.243011
-167.027128	5519.108333	1995.124023	28.848120
-167.027128	5519.108333	1994.159180	-15.215642
-167.027128	5519.108333	1993.193359	59.666759
-167.027128	5519.108333	1992.228516	62.793514
-167.027128	5519.108333	1991.262695	-65.211342
-167.027128	5519.108333	1990.296875	-104.006271
-167.027128	5519.108333	1989.331055	8.216509
-167.027128	5519.108333	1988.365234	-15.609203
-167.027128	5519.108333	1987.398438	29.889673
-167.027128	5519.108333	1986.432617	80.378860
-167.027128	5519.108333	1985.465820	-0.144614
-167.027128	5519.108333	1984.499023	164.159576
-167.027128	5519.108333	1983.532227	-22.523670
-167.027128	5519.108333	1982.565430	77.576492
-167.027128	5519.108333	1981.597656	83.798485
-167.027128	5519.108333	1980.629883	13.487378
-167.027128	5519.108333	1979.662109	-9.823208
-167.027128	5519.108333	1978.694336	184.227524
-167.027128	5519.108333	1977.726563	101.729874
-167.027128	5519.108333	1976.758789	100.765404
-167.027128	5519.108333	1975.790039	124.521553
-167.027128	5519.108333	1974.821289	212.464340
-167.027128	5519.108333	1973.852539	11.763284
-167.027128	5519.108333	1972.883789	10.972654
-167.027128	5519.108333	1971.915039	27.480753
-167.027128	5519.108333	1970.945313	41.550529
-167.027128	5519.108333	1969.975586	-79.940956
-167.027128	5519.108333	1969.005859	20.477654
-167.027128	5519.108333	1968.036133	78.995522
-167.027128	5519.108333	1967.066406	75.924881
-167.027128	5519.108333	1966.096680	82.737160
-167.027128	5519.108333	1965.125977	-156.725296
-167.027128	5519.108333	1964.155273	229.408661
-167.027128	5519.108333	1963.184570	54.072411
-167.027128	5519.108333	1962.213867	19.137859
-167.027128	5519.108333	1961.242188	193.434845
-167.027128	5519.108333	1960.271484	74.867722
-167.027128	5519.108333	1959.299805	-73.158493
-167.027128	5519.108333	1958.328125	-107.960228
-167.027128	5519.108333	1957.356445	2.368695
-167.027128	5519.108333	1956.384766	85.627037
-167.027128	5519.108333	1955.412109	-30.261370
-167.027128	5519.108333	1954.439453	21.050121
-167.027128	5519.108333	1953.467773	-52.974697
-167.027128	5519.108333	1952.495117	35.204342
-167.027128	5519.108333	1951.521484	84.058014
-167.027128	5519.108333	1950.548828	127.993416
-167.027128	5519.108333	1949.575195	-39.264580
-167.027128	5519.108333	1948.601563	-12.489431
-167.027128	5519.108333	1947.627930	164.024033
-167.027128	5519.108333	1946.654297	139.229050
-167.027128	5519.108333	1945.680664	-25.418192
-167.027128	5519.108333	1944.706055	-32.982826
-167.027128	5519.108333	1943.732422	1.161948
-167.027128	5519.108333	1942.757813	10.772491
-167.027128	5519.108333	1941.783203	162.600784
-167.027128	5519.108333	1940.807617	-46.003178
-167.027128	5519.108333	1939.833008	-58.438942
-167.027128	5519.108333	1938.857422	117.831192
-167.027128	5519.108333	1937.881836	208.278976
-167.027128	5519.108333	1936.906250	2.277721
-167.027128	5519.108333	1935.930664	119.655830
-167.027128	5519.108333	1934.955078	11.698747
-167.027128	5519.108333	1933.978516	6.610094
-167.027128	5519.108333	1933.001953	-27.854137
-167.027128	5519.108333	1932.025391	99.223373
-167.027128	5519.108333	1931.048828	-35.577919
-167.027128	5519.108333	1930.072266	155.055817
-167.027128	5519.108333	1929.094727	-65.328964
-167.027128	5519.108333	1928.118164	130.120300
-167.027128	5519.108333	1927.140625	44.294991
-167.027128	5519.108333	1926.163086	22.058615
-167.027128	5519.108333	1925.184570	-66.173210
-167.027128	5519.108333	1924.207031	2.024456
-167.027128	5519.108333	1923.228516	-108.176750
-167.027128	5519.108333	1922.250000	-105.972809
-167.027128	5519.108333	1921.271484	-15.850546
-167.027128	5519.108333	1920.292969	-104.037018
-167.027128	5519.108333	1919.314453	8.004409
-167.027128	5519.108333	1918.334961	-89.939537
-167.027128	5519.108333	1917.355469	-31.658491
-167.027128	5519.108333	1916.375977	14.388128
-167.027128	5519.108333	1915.396484	170.191101
-167.027128	5519.108333	1914.416992	40.533188
-167.027128	5519.108333	1913.436523	-93.968788
-167.027128	5519.108333	1912.457031	-30.927610
-167.027128	5519.108333	1911.476563	-58.125847
-167.027128	5519.108333	1910.496094	-14.643012
-167.027128	5519.108333	1909.515625	53.178726
-167.027128	5519.108333	1908.534180	-39.850475
-167.027128	5519.108333	1907.552734	-154.784683
-167.027128	5519.108333	1906.572266	-4.210086
-167.027128	5519.108333	1905.590820	-9.558791
-167.027128	5519.108333	1904.608398	-80.658310
-167.027128	5519.108333	1903.626953	40.556664
-167.027128	5519.108333	1902.644531	-1.353842
-167.027128	5519.108333	1901.663086	58.934345
-167.027128	5519.108333	1900.680664	-26.791248
-167.027128	5519.108333	1899.698242	-178.177246
-167.027128	5519.108333	1898.714844	-20.667480
-167.027128	5519.108333	1897.732422	-23.712992
-167.027128	5519.108333	1896.749023	4.827162
-167.027128	5519.108333	1895.765625	35.767391
-167.027128	5519.108333	1894.782227	15.644574
-167.027128	5519.108333	1893.798828	148.580566
-167.027128	5519.108333	1892.814453	174.559204
-167.027128	5519.108333	1891.831055	6.206882
-167.027128	5519.108333	1890.846680	83.157516
-167.027128	5519.108333	1889.862305	167.342880
-167.027128	5519.108333	1888.877930	91.266685
-167.027128	5519.108333	1887.892578	-13.927107
-167.027128	5519.108333	1886.908203	-48.732018
-167.027128	5519.108333	1885.922852	-25.319923
-167.027128	5519.108333	1884.937500	-62.578270
-167.027128	5519.108333	1883.952148	-155.623413
-167.027128	5519.108333	1882.965820	98.075264
-167.027128	5519.108333	1881.980469	-4.704045
-167.027128	5519.108333	1880.994141	52.502361
-167.027128	5519.108333	1880.007813	-125.398880
-167.027128	5519.108333	1879.021484	-111.847328
-167.027128	5519.108333	1878.035156	51.866875
-167.027128	5519.108333	1877.047852	154.946136
-167.027128	5519.108333	1876.061523	195.007813
-167.027128	5519.108333	1875.074219	162.398193
-167.027128	5519.108333	1874.086914	76.525078
-167.027128	5519.108333	1873.098633	82.624985
-167.027128	5519.108333	1872.111328	180.651382
-167.027128	5519.108333	1871.123047	-33.467510
-167.027128	5519.108333	1870.135742	-15.322073
-167.027128	5519.108333	1869.147461	147.891800
-167.027128	5519.108333	1868.158203	8.784338
-167.027128	5519.108333	1867.169922	125.955772
-167.027128	5519.108333	1866.180664	146.379028
-167.027128	5519.108333	1865.192383	31.448357
-167.027128	5519.108333	1864.203125	349.011627
-167.027128	5519.108333	1863.213867	4.554034
-167.027128	5519.108333	1862.223633	49.042431
-167.027128	5519.108333	1861.234375	37.954262
-167.027128	5519.108333	1860.244141	87.201691
-167.027128	5519.108333	1859.253906	201.580582
-167.027128	5519.108333	1858.263672	-17.149256
-167.027128	5519.108333	1857.273438	169.546356
-167.027128	5519.108333	1856.282227	204.162476
-167.027128	5519.108333	1855.291992	195.329193
-167.027128	5519.108333	1854.300781	-37.799381
-167.027128	5519.108333	1853.309570	170.365768
-167.027128	5519.108333	1852.317383	216.914337
-167.027128	5519.108333	1851.326172	222.452194
-167.027128	5519.108333	1850.333984	35.184086
-167.027128	5519.108333	1849.342773	190.082184
-167.027128	5519.108333	1848.350586	118.468353
-167.027128	5519.108333	1847.357422	213.033997
-167.027128	5519.108333	1846.365234	-140.328659
-167.027128	5519.108333	1845.372070	329.768555
-167.027128	5519.108333	1844.379883	169.031433
-167.027128	5519.108333	1843.386719	-95.150993
-167.027128	5519.108333	1842.393555	4.064490
-167.027128	5519.108333	1841.399414	112.840645
-167.027128	5519.108333	1840.406250	132.563141
-167.027128	5519.108333	1839.412109	193.134552
-167.027128	5519.108333	1838.417969	70.935272
-167.027128	5519.108333	1837.423828	117.027924
-167.027128	5519.108333	1836.429688	76.559097
-167.027128	5519.108333	1835.434570	112.975639
-167.027128	5519.108333	1834.440430	19.625401
-167.027128	5519.108333	1833.445313	17.562099
-167.027128	5519.108333	1832.450195	-109.403053
-167.027128	5519.108333	1831.454102	-116.288124
-167.027128	5519.108333	1830.458984	-15.160122
-167.027128	5519.108333	1829.462891	-38.904930
-167.027128	5519.108333	1828.466797	184.515320
-167.027128	5519.108333	1827.470703	182.293137
-167.027128	5519.108333	1826.474609	175.253891
-167.027128	5519.108333	1825.478516	86.650627
-167.027128	5519.108333	1824.481445	98.771843
-167.027128	5519.108333	1823.484375	-71.342545
-167.027128	5519.108333	1822.487305	252.379883
-167.027128	5519.108333	1821.490234	-1.621263
-167.027128	5519.108333	1820.493164	5.634657
-167.027128	5519.108333	1819.495117	151.814941
-167.027128	5519.108333	1818.498047	3.308126
-167.027128	5519.108333	1817.500000	79.945709
-167.027128	5519.108333	1816.500977	60.758076
-167.027128	5519.108333	1815.502930	-30.254787
-167.027128	5519.108333	1814.504883	-59.023258
-167.027128	5519.108333	1813.505859	196.962646
-167.027128	5519.108333	1812.506836	110.701088
-167.027128	5519.108333	1811.507813	5.316276
-167.027128	5519.108333	1810.508789	-1.989456
-167.027128	5519.108333	1809.508789	38.509644
-167.027128	5519.108333	1808.508789	40.723919
-167.027128	5519.108333	1807.508789	66.822510
-167.027128	5519.108333	1806.508789	119.180611
-167.027128	5519.108333	1805.508789	114.157799
-167.027128	5519.108333	1804.508789	-31.827753
-167.027128	5519.108333	1803.507813	-120.454674
-167.027128	5519.108333	1802.506836	72.721664
-167.027128	5519.108333	1801.505859	-18.313175
-167.027128	5519.108333	1800.504883	0.478123
-167.027128	5519.108333	1799.502930	162.442276
-167.027128	5519.108333	1798.501953	54.690178
-167.027128	5519.108333	1797.500000	121.121101
-167.027128	5519.108333	1796.498047	49.162193
-167.027128	5519.108333	1795.496094	43.991402
-167.027128	5519.108333	1794.493164	105.567696
-167.027128	5519.108333	1793.491211	124.197426
-167.027128	5519.108333	1792.488281	109.434029
-167.027128	5519.108333	1791.485352	163.768204
-167.027128	5519.108333	1790.482422	275.250977
-167.027128	5519.108333	1789.478516	46.026772
-167.027128	5519.108333	1788.475586	57.429440
-167.027128	5519.108333	1787.471680	-9.769927
-167.027128	5519.108333	1786.467773	149.218262
-167.027128	5519.108333	1785.463867	231.961639
-167.027128	5519.108333	1784.459961	69.531715
-167.027128	5519.108333	1783.455078	225.991837
-167.027128	5519.108333	1782.450195	163.513474
-167.027128	5519.108333	1781.445313	41.583206
-167.027128	5519.108333	1780.440430	83.774513
-167.027128	5519.108333	1779.435547	-130.846939
-167.027128	5519.108333	1778.429688	58.719650
-167.027128	5519.108333	1777.424805	-63.146721
-167.027128	5519.108333	1776.418945	-2.007200
-167.027128	5519.108333	1775.413086	49.594929
-167.027128	5519.108333	1774.406250	94.037384
-167.027128	5519.108333	1773.400391	41.083035
-167.027128	5519.108333	1772.393555	14.254643
-167.027128	5519.108333	1771.386719	63.395691
-167.027128	5519.108333	1770.379883	-105.861740
-167.027128	5519.108333	1769.373047	-144.541824
-167.027128	5519.108333	1768.365234	80.147209
-167.027128	5519.108333	1767.358398	79.383331
-167.027128	5519.108333	1766.350586	-61.327366
-167.027128	5519.108333	1765.342773	-28.886469
-167.027128	5519.108333	1764.334961	27.242403
-167.027128	5519.108333	1763.326172	80.968155
-167.027128	5519.108333	1762.318359	-5.159081
-167.027128	5519.108333	1761.309570	-98.373512
-167.027128	5519.108333	1760.300781	-13.879422
-167.027128	5519.108333	1759.291016	151.104126
-167.027128	5519.108333	1758.282227	-20.257425
-167.027128	5519.108333	1757.272461	87.826065
-167.027128	5519.108333	1756.262695	115.375931
-167.027128	5519.108333	1755.252930	-58.270664
-167.027128	5519.108333	1754.243164	-30.716002
-167.027128	5519.108333	1753.233398	138.777481
-167.027128	5519.108333	1752.222656	66.920418
-167.027128	5519.108333	1751.211914	18.735104
-167.027128	5519.108333	1750.201172	-131.112167
-167.027128	5519.108333	1749.190430	-70.501045
-167.027128	5519.108333	1748.179688	-28.826746
-167.027128	5519.108333	1747.167969	-140.784927
-167.027128	5519.108333	1746.156250	-47.144272
-167.027128	5519.108333	1745.144531	84.254662
-167.027128	5519.108333	1744.132813	43.184593
-167.027128	5519.108333	1743.121094	-130.112015
-167.027128	5519.108333	1742.108398	-121.555443
-167.027128	5519.108333	1741.095703	-79.956345
-167.027128	5519.108333	1740.083008	81.986336
-167.027128	5519.108333	1739.070313	-105.356071
-167.027128	5519.108333	1738.057617	-120.410042
-167.027128	5519.108333	1737.043945	-116.593887
-167.027128	5519.108333	1736.030273	16.923332
-167.027128	5519.108333	1735.016602	-24.088593
-167.027128	5519.108333	1734.002930	-180.596191
-167.027128	5519.108333	1732.989258	-65.999603
-167.027128	5519.108333	1731.974609	-22.144846
-167.027128	5519.108333	1730.959961	111.221855
-167.027128	5519.108333	1729.945313	-94.661926
-167.027128	5519.108333	1728.930664	-130.899445
-167.027128	5519.108333	1727.916016	-54.098850
-167.027128	5519.108333	1726.900391	-73.851265
-167.027128	5519.108333	1725.885742	-44.163086
-167.027128	5519.108333	1724.870117	-23.901413
-167.027128	5519.108333	1723.853516	229.283630
-167.027128	5519.108333	1722.837891	-155.124130
-167.027128	5519.108333	1721.822266	-379.449249
-167.027128	5519.108333	1720.805664	-69.898033
-167.027128	5519.108333	1719.789063	100.825241
-167.027128	5519.108333	1718.772461	57.582150
-167.027128	5519.108333	1717.754883	-25.597298
-167.027128	5519.108333	1716.738281	161.478668
-167.027128	5519.108333	1715.720703	80.667618
-167.027128	5519.108333	1714.703125	51.566067
-167.027128	5519.108333	1713.685547	-31.531788
-167.027128	5519.108333	1712.667969	-67.635460
-167.027128	5519.108333	1711.649414	-49.731506
-167.027128	5519.108333	1710.630859	127.766769
-167.027128	5519.108333	1709.612305	68.201424
-167.027128	5519.108333	1708.593750	-146.179245
-167.027128	5519.108333	1707.575195	3.105476
-167.027128	5519.108333	1706.555664	35.075909
-167.027128	5519.108333	1705.536133	106.900742
-167.027128	5519.108333	1704.516602	209.181793
-167.027128	5519.108333	1703.497070	194.236694
-167.027128	5519.108333	1702.477539	73.852814
-167.027128	5519.108333	1701.457031	199.529007
-167.027128	5519.108333	1700.437500	34.697994
-167.027128	5519.108333	1699.416992	-38.725739
-167.027128	5519.108333	1698.395508	82.238548
-167.027128	5519.108333	1697.375000	-14.560461
-167.027128	5519.108333	1696.354492	-41.091663
-167.027128	5519.108333	1695.333008	-60.585629
-167.027128	5519.108333	1694.311523	50.966072
-167.027128	5519.108333	1693.290039	71.250206
-167.027128	5519.108333	1692.267578	54.110458
-167.027128	5519.108333	1691.246094	125.852402
-167.027128	5519.108333	1690.223633	-33.889580
-167.027128	5519.108333	1689.201172	51.885082
-167.027128	5519.108333	1688.178711	132.962753
-167.027128	5519.108333	1687.155273	195.324875
-167.027128	5519.108333	1686.132813	-34.350060
-167.027128	5519.108333	1685.109375	193.882019
-167.027128	5519.108333	1684.085938	60.064598
-167.027128	5519.108333	1683.062500	288.215454
-167.027128	5519.108333	1682.039063	-121.004967
-167.027128	5519.108333	1681.014648	-84.270470
-167.027128	5519.108333	1679.990234	-42.870647
-167.027128	5519.108333	1678.965820	14.857821
-167.027128	5519.108333	1677.941406	233.528458
-167.027128	5519.108333	1676.916992	167.604370
-167.027128	5519.108333	1675.891602	218.301529
-167.027128	5519.108333	1674.866211	21.880049
-167.027128	5519.108333	1673.840820	177.501297
-167.027128	5519.108333	1672.815430	62.754368
-167.027128	5519.108333	1671.790039	-12.324376
-167.027128	5519.108333	1670.763672	269.047485
-167.027128	5519.108333	1669.737305	186.998199
-167.027128	5519.108333	1668.710938	18.838490
-167.027128	5519.108333	1667.684570	302.416260
-167.027128	5519.108333	1666.658203	290.285431
-167.027128	5519.108333	1665.630859	152.502960
-167.027128	5519.108333	1664.603516	82.266281
-167.027128	5519.108333	1663.576172	191.201584
-167.027128	5519.108333	1662.548828	223.356949
-167.027128	5519.108333	1661.520508	83.432930
-167.027128	5519.108333	1660.493164	-21.542204
-167.027128	5519.108333	1659.464844	129.236755
-167.027128	5519.108333	1658.436523	80.103851
-167.027128	5519.108333	1657.408203	51.920635
-167.027128	5519.108333	1656.378906	302.545959
-167.027128	5519.108333	1655.350586	83.904373
-167.027128	5519.108333	1654.321289	278.729004
-167.027128	5519.108333	1653.291992	178.625290
-167.027128	5519.108333	1652.261719	115.717789
-167.027128	5519.108333	1651.232422	243.175034
-167.027128	5519.108333	1650.202148	157.114090
-167.027128	5519.108333	1649.171875	214.948898
-167.027128	5519.108333	1648.141602	193.916000
-167.027128	5519.108333	1647.111328	240.166000
-167.027128	5519.108333	1646.080078	270.185852
-167.027128	5519.108333	1645.049805	443.948517
-167.027128	5519.108333	1644.018555	263.039093
-167.027128	5519.108333	1642.987305	313.955383
-167.027128	5519.108333	1641.955078	290.731293
-167.027128	5519.108333	1640.923828	394.944122
-167.027128	5519.108333	1639.891602	455.132263
-167.027128	5519.108333	1638.859375	462.060974
-167.027128	5519.108333	1637.827148	661.163086
-167.027128	5519.108333	1636.794922	496.809845
-167.027128	5519.108333	1635.761719	427.424042
-167.027128	5519.108333	1634.729492	471.462494
-167.027128	5519.108333	1633.696289	582.591797
-167.027128	5519.108333	1632.662109	372.211670
-167.027128	5519.108333	1631.628906	365.430145
-167.027128	5519.108333	1630.594727	541.318298
-167.027128	5519.108333	1629.561523	451.339539
-167.027128	5519.108333	1628.527344	363.729095
-167.027128	5519.108333	1627.493164	400.950195
-167.027128	5519.108333	1626.458008	634.542969
-167.027128	5519.108333	1625.423828	537.782166
-167.027128	5519.108333	1624.388672	600.421814
-167.027128	5519.108333	1623.353516	305.195465
-167.027128	5519.108333	1622.318359	631.058411
-167.027128	5519.108333	1621.282227	608.324341
-167.027128	5519.108333	1620.247070	428.716949
-167.027128	5519.108333	1619.210938	332.257050
-167.027128	5519.108333	1618.174805	348.882294
-167.027128	5519.108333	1617.137695	425.484528
-167.027128	5519.108333	1616.101563	555.116394
-167.027128	5519.108333	1615.064453	539.492310
-167.027128	5519.108333	1614.027344	507.767456
-167.027128	5519.108333	1612.990234	655.819946
-167.027128	5519.108333	1611.953125	730.116760
-167.027128	5519.108333	1610.916016	739.915894
-167.027128	5519.108333	1609.877930	830.341736
-167.027128	5519.108333	1608.839844	674.388367
-167.027128	5519.108333	1607.801758	688.878235
-167.027128	5519.108333	1606.763672	627.435425
-167.027128	5519.108333	1605.724609	658.090881
-167.027128	5519.108333	1604.685547	622.041565
-167.027128	5519.108333	1603.646484	659.643066
-167.027128	5519.108333	1602.607422	699.558716
-167.027128	5519.108333	1601.568359	688.900818
-167.027128	5519.108333	1600.528320	846.096985
-167.027128	5519.108333	1599.489258	573.443970
-167.027128	5519.108333	1598.449219	682.401123
-167.027128	5519.108333	1597.408203	892.437378
-167.027128	5519.108333	1596.368164	764.741089
-167.027128	5519.108333	1595.327148	850.717041
-167.027128	5519.108333	1594.287109	883.875610
-167.027128	5519.108333	1593.246094	838.992859
-167.027128	5519.108333	1592.204102	814.814087
-167.027128	5519.108333	1591.163086	1070.655273
-167.027128	5519.108333	1590.121094	883.595215
-167.027128	5519.108333	1589.079102	903.100159
-167.027128	5519.108333	1588.037109	844.645691
-167.027128	5519.108333	1586.995117	857.331543
-167.027128	5519.108333	1585.953125	808.142273
-167.027128	5519.108333	1584.910156	720.033020
-167.027128	5519.108333	1583.867188	700.743225
-167.027128	5519.108333	1582.824219	708.987854
-167.027128	5519.108333	1581.781250	602.718201
-167.027128	5519.108333	1580.737305	633.944214
-167.027128	5519.108333	1579.693359	786.559448
-167.027128	5519.108333	1578.649414	650.665649
-167.027128	5519.108333	1577.605469	556.061707
-167.027128	5519.108333	1576.561523	747.604126
-167.027128	5519.108333	1575.516602	703.420349
-167.027128	5519.108333	1574.472656	842.305664
-167.027128	5519.108333	1573.427734	960.582214
-167.027128	5519.108333	1572.381836	733.533325
-167.027128	5519.108333	1571.336914	815.267639
-167.027128	5519.108333	1570.291016	858.141663
-167.027128	5519.108333	1569.246094	745.618347
-167.027128	5519.108333	1568.200195	688.013245
-167.027128	5519.108333	1567.153320	776.676086
-167.027128	5519.108333	1566.107422	780.825684
-167.027128	5519.108333	1565.060547	947.147705
-167.027128	5519.108333	1564.013672	880.547058
-167.027128	5519.108333	1562.966797	683.886047
-167.027128	5519.108333	1561.919922	681.336609
-167.027128	5519.108333	1560.872070	649.155518
-167.027128	5519.108333	1559.825195	612.458435
-167.027128	5519.108333	1558.777344	965.862305
-167.027128	5519.108333	1557.729492	730.775574
-167.027128	5519.108333	1556.680664	685.065369
-167.027128	5519.108333	1555.632813	691.839417
-167.027128	5519.108333	1554.583984	871.864197
-167.027128	5519.108333	1553.535156	609.772705
-167.027128	5519.108333	1552.486328	769.307190
-167.027128	5519.108333	1551.436523	443.626923
-167.027128	5519.108333	1550.387695	441.503357
-167.027128	5519.108333	1549.337891	439.415192
-167.027128	5519.108333	1548.288086	794.776489
-167.027128	5519.108333	1547.238281	662.952576
-167.027128	5519.108333	1546.187500	638.170227
-167.027128	5519.108333	1545.136719	470.095306
-167.027128	5519.108333	1544.086914	841.233459
-167.027128	5519.108333	1543.035156	821.083740
-167.027128	5519.108333	1541.984375	823.714478
-167.027128	5519.108333	1540.933594	655.876099
-167.027128	5519.108333	1539.881836	685.884460
-167.027128	5519.108333	1538.830078	729.551758
-167.027128	5519.108333	1537.778320	695.987366
-167.027128	5519.108333	1536.725586	630.669373
-167.027128	5519.108333	1535.673828	474.566559
-167.027128	5519.108333	1534.621094	518.382080
-167.027128	5519.108333	1533.568359	553.135071
-167.027128	5519.108333	1532.515625	494.847992
-167.027128	5519.108333	1531.461914	729.367188
-167.027128	5519.108333	1530.409180	623.492126
-167.027128	5519.108333	1529.355469	633.387390
-167.027128	5519.108333	1528.301758	430.120605
-167.027128	5519.108333	1527.247070	390.235565
-167.027128	5519.108333	1526.193359	361.737488
-167.027128	5519.108333	1525.138672	399.019714
-167.027128	5519.108333	1524.083984	304.882172
-167.027128	5519.108333	1523.029297	265.196930
-167.027128	5519.108333	1521.974609	248.215927
-167.027128	5519.108333	1520.918945	308.283966
-167.027128	5519.108333	1519.863281	162.302429
-167.027128	5519.108333	1518.807617	54.901180
-167.027128	5519.108333	1517.751953	264.473755
-167.027128	5519.108333	1516.696289	91.537735
-167.027128	5519.108333	1515.639648	70.304260
-167.027128	5519.108333	1514.583008	189.370819
-167.027128	5519.108333	1513.526367	161.412201
-167.027128	5519.108333	1512.469727	126.718437
-167.027128	5519.108333	1511.412109	107.900200
-167.027128	5519.108333	1510.355469	113.989998
-167.027128	5519.108333	1509.297852	31.975863
-167.027128	5519.108333	1508.240234	205.353500
-167.027128	5519.108333	1507.181641	-57.296543
-167.027128	5519.108333	1506.124023	-44.257477
-167.027128	5519.108333	1505.065430	45.589851
-167.027128	5519.108333	1504.006836	-92.590050
-167.027128	5519.108333	1502.948242	-74.928062
-167.027128	5519.108333	1501.888672	44.321541
-167.027128	5519.108333	1500.830078	-37.258579
-167.027128	5519.108333	1499.770508	-82.673943
-167.027128	5519.108333	1498.710938	74.956589
-167.027128	5519.108333	1497.650391	200.992157
-167.027128	5519.108333	1496.590820	-44.992668
-167.027128	5519.108333	1495.530273	114.901146
-167.027128	5519.108333	1494.469727	-56.523525
-167.027128	5519.108333	1493.409180	-13.787252
-167.027128	5519.108333	1492.348633	87.539604
-167.027128	5519.108333	1491.287109	8.677708
-167.027128	5519.108333	1490.225586	103.278419
-167.027128	5519.108333	1489.164063	134.837769
-167.027128	5519.108333	1488.102539	137.156479
-167.027128	5519.108333	1487.041016	216.028427
-167.027128	5519.108333	1485.978516	157.651962
-167.027128	5519.108333	1484.916016	85.826736
-167.027128	5519.108333	1483.853516	-93.877998
-167.027128	5519.108333	1482.791016	90.812088
-167.027128	5519.108333	1481.727539	-28.052940
-167.027128	5519.108333	1480.664063	37.477753
-167.027128	5519.108333	1479.600586	-40.804886
-167.027128	5519.108333	1478.537109	-123.492729
-167.027128	5519.108333	1477.473633	-3.917896
-167.027128	5519.108333	1476.409180	-133.707916
-167.027128	5519.108333	1475.344727	26.149403
-167.027128	5519.108333	1474.280273	-159.591125
-167.027128	5519.108333	1473.215820	7.152421
-167.027128	5519.108333	1472.151367	97.472748
-167.027128	5519.108333	1471.085938	-235.956757
-167.027128	5519.108333	1470.020508	-4.229542
-167.027128	5519.108333	1468.955078	-196.357407
-167.027128	5519.108333	1467.888672	-128.197144
-167.027128	5519.108333	1466.823242	67.582741
-167.027128	5519.108333	1465.756836	83.991432
-167.027128	5519.108333	1464.690430	39.955845
-167.027128	5519.108333	1463.624023	-68.667686
-167.027128	5519.108333	1462.556641	-125.676224
-167.027128	5519.108333	1461.490234	375.902985
-167.027128	5519.108333	1460.422852	115.305046
-167.027128	5519.108333	1459.355469	-44.653664
-167.027128	5519.108333	1458.287109	119.489670
-167.027128	5519.108333	1457.219727	109.329620
-167.027128	5519.108333	1456.151367	97.389618
-167.027128	5519.108333	1455.083008	76.443909
-167.027128	5519.108333	1454.014648	278.502167
-167.027128	5519.108333	1452.945313	192.625946
-167.027128	5519.108333	1451.876953	376.179077
-167.027128	5519.108333	1450.807617	364.736023
-167.027128	5519.108333	1449.738281	243.254486
-167.027128	5519.108333	1448.668945	173.619125
-167.027128	5519.108333	1447.598633	290.489319
-167.027128	5519.108333	1446.528320	204.757233
-167.027128	5519.108333	1445.458008	309.416870
-167.027128	5519.108333	1444.387695	85.843124
-167.027128	5519.108333	1443.317383	54.654976
-167.027128	5519.108333	1442.246094	306.139893
-167.027128	5519.108333	1441.174805	167.659576
-167.027128	5519.108333	1440.103516	167.173904
-167.027128	5519.108333	1439.032227	100.480560
-167.027128	5519.108333	1437.960938	-179.433289
-167.027128	5519.108333	1436.888672	142.643768
-167.027128	5519.108333	1435.816406	170.016678
-167.027128	5519.108333	1434.744141	84.746819
-167.027128	5519.108333	1433.670898	75.618942
-167.027128	5519.108333	1432.598633	-21.142923
-167.027128	5519.108333	1431.525391	61.365845
-167.027128	5519.108333	1430.452148	137.370941
-167.027128	5519.108333	1429.378906	32.277485
-167.027128	5519.108333	1428.304688	56.123280
-167.027128	5519.108333	1427.231445	228.688721
-167.027128	5519.108333	1426.157227	65.643333
-167.027128	5519.108333	1425.083008	-15.657436
-167.027128	5519.108333	1424.007813	-18.063387
-167.027128	5519.108333	1422.933594	-87.042389
-167.027128	5519.108333	1421.858398	-31.854382
-167.027128	5519.108333	1420.783203	111.891106
-167.027128	5519.108333	1419.708008	-1.785590
-167.027128	5519.108333	1418.631836	-214.409912
-167.027128	5519.108333	1417.555664	14.552079
-167.027128	5519.108333	1416.479492	-71.165405
-167.027128	5519.108333	1415.403320	0.828080
-167.027128	5519.108333	1414.327148	-256.731323
-167.027128	5519.108333	1413.250000	-148.043716
-167.027128	5519.108333	1412.173828	-41.285542
-167.027128	5519.108333	1411.096680	-112.249435
-167.027128	5519.108333	1410.018555	93.393593
-167.027128	5519.108333	1408.941406	161.928894
-167.027128	5519.108333	1407.863281	112.071785
-167.027128	5519.108333	1406.785156	23.789526
-167.027128	5519.108333	1405.707031	-20.774502
-167.027128	5519.108333	1404.628906	-23.541391
-167.027128	5519.108333	1403.549805	-244.682755
-167.027128	5519.108333	1402.470703	21.196339
-167.027128	5519.108333	1401.391602	31.331024
-167.027128	5519.108333	1400.312500	86.412521
-167.027128	5519.108333	1399.233398	157.770721
-167.027128	5519.108333	1398.153320	7.678455
-167.027128	5519.108333	1397.073242	125.787346
-167.027128	5519.108333	1395.993164	-15.993624
-167.027128	5519.108333	1394.913086	130.467178
-167.027128	5519.108333	1393.832031	150.201477
-167.027128	5519.108333	1392.750977	104.092232
-167.027128	5519.108333	1391.669922	11.345292
-167.027128	5519.108333	1390.588867	92.618660
-167.027128	5519.108333	1389.506836	29.815237
-167.027128	5519.108333	1388.425781	206.172577
-167.027128	5519.108333	1387.343750	-77.784554
-167.027128	5519.108333	1386.261719	305.401855
-167.027128	5519.108333	1385.178711	296.372131
-167.027128	5519.108333	1384.096680	172.497375
-167.027128	5519.108333	1383.013672	332.012543
-167.027128	5519.108333	1381.930664	249.744644
-167.027128	5519.108333	1380.846680	200.352646
-167.027128	5519.108333	1379.763672	356.648956
-167.027128	5519.108333	1378.679688	297.207458
-167.027128	5519.108333	1377.595703	344.629578
-167.027128	5519.108333	1376.511719	176.122131
-167.027128	5519.108333	1375.427734	352.446594
-167.027128	5519.108333	1374.342773	121.101868
-167.027128	5519.108333	1373.257813	187.188278
-167.027128	5519.108333	1372.172852	316.579620
-167.027128	5519.108333	1371.087891	200.280563
-167.027128	5519.108333	1370.001953	291.805664
-167.027128	5519.108333	1368.916992	168.222824
-167.027128	5519.108333	1367.831055	248.727402
-167.027128	5519.108333	1366.744141	214.028214
-167.027128	5519.108333	1365.658203	145.812195
-167.027128	5519.108333	1364.571289	160.234756
-167.027128	5519.108333	1363.484375	47.365810
-167.027128	5519.108333	1362.397461	116.113335
-167.027128	5519.108333	1361.310547	204.171432
-167.027128	5519.108333	1360.222656	194.809692
-167.027128	5519.108333	1359.135742	143.468735
-167.027128	5519.108333	1358.047852	42.134274
-167.027128	5519.108333	1356.958984	195.264130
-167.027128	5519.108333	1355.871094	110.508789
-167.027128	5519.108333	1354.782227	303.774963
-167.027128	5519.108333	1353.693359	195.979050
-167.027128	5519.108333	1352.604492	207.703842
-167.027128	5519.108333	1351.515625	116.282104
-167.027128	5519.108333	1350.425781	236.181808
-167.027128	5519.108333	1349.335938	143.356430
-167.027128	5519.108333	1348.246094	94.666077
-167.027128	5519.108333	1347.156250	294.387848
-167.027128	5519.108333	1346.066406	192.652374
-167.027128	5519.108333	1344.975586	361.318329
-167.027128	5519.108333	1343.884766	255.316605
-167.027128	5519.108333	1342.793945	278.850128
-167.027128	5519.108333	1341.702148	231.595947
-167.027128	5519.108333	1340.611328	258.754883
-167.027128	5519.108333	1339.519531	250.275085
-167.027128	5519.108333	1338.427734	357.472168
-167.027128	5519.108333	1337.334961	282.754669
-167.027128	5519.108333	1336.243164	185.570419
-167.027128	5519.108333	1335.150391	167.030716
-167.027128	5519.108333	1334.057617	158.532181
-167.027128	5519.108333	1332.964844	198.058960
-167.027128	5519.108333	1331.871094	160.357529
-167.027128	5519.108333	1330.778320	162.957642
-167.027128	5519.108333	1329.684570	127.209953
-167.027128	5519.108333	1328.590820	130.887009
-167.027128	5519.108333	1327.496094	103.360359
-167.027128	5519.108333	1326.402344	128.158661
-167.027128	5519.108333	1325.307617	278.771332
-167.027128	5519.108333	1324.212891	197.481644
-167.027128	5519.108333	1323.117188	187.753937
-167.027128	5519.108333	1322.022461	83.577713
-167.027128	5519.108333	1320.926758	100.587997
-167.027128	5519.108333	1319.831055	128.153946
-167.027128	5519.108333	1318.735352	370.948151
-167.027128	5519.108333	1317.638672	219.930115
-167.027128	5519.108333	1316.542969	81.643005
-167.027128	5519.108333	1315.446289	213.071503
-167.027128	5519.108333	1314.349609	256.164825
-167.027128	5519.108333	1313.251953	182.270157
-167.027128	5519.108333	1312.155273	210.775360
-167.027128	5519.108333	1311.057617	310.674927
-167.027128	5519.108333	1309.959961	111.945358
-167.027128	5519.108333	1308.862305	261.449707
-167.027128	5519.108333	1307.763672	112.304756
-167.027128	5519.108333	1306.665039	262.597351
-167.027128	5519.108333	1305.566406	377.688538
-167.027128	5519.108333	1304.467773	222.215820
-167.027128	5519.108333	1303.369141	255.346893
-167.027128	5519.108333	1302.269531	30.939800
-167.027128	5519.108333	1301.169922	62.348919
-167.027128	5519.108333	1300.070313	137.157990
-167.027128	5519.108333	1298.970703	106.706619
-167.027128	5519.108333	1297.870117	29.861645
-167.027128	5519.108333	1296.769531	-0.987413
-167.027128	5519.108333	1295.668945	200.235382
-167.027128	5519.108333	1294.568359	59.680161
-167.027128	5519.108333	1293.466797	212.105408
-167.027128	5519.108333	1292.366211	46.208309
-167.027128	5519.108333	1291.264648	222.350769
-167.027128	5519.108333	1290.162109	145.395828
-167.027128	5519.108333	1289.060547	163.918610
-167.027128	5519.108333	1287.958008	104.745857
-167.027128	5519.108333	1286.855469	112.431137
-167.027128	5519.108333	1285.752930	167.378510
-167.027128	5519.108333	1284.650391	36.007633
-167.027128	5519.108333	1283.546875	20.283073
-167.027128	5519.108333	1282.444336	154.074829
-167.027128	5519.108333	1281.339844	42.057297
-167.027128	5519.108333	1280.236328	47.013615
-167.027128	5519.108333	1279.132813	42.606579
-167.027128	5519.108333	1278.028320	-41.285198
-167.027128	5519.108333	1276.923828	-130.440216
-167.027128	5519.108333	1275.819336	20.607124
-167.027128	5519.108333	1274.713867	132.642654
-167.027128	5519.108333	1273.608398	-49.798645
-167.027128	5519.108333	1272.503906	-25.254045
-167.027128	5519.108333	1271.397461	-93.040367
-167.027128	5519.108333	1270.291992	-103.499466
-167.027128	5519.108333	1269.185547	-58.129723
-167.027128	5519.108333	1268.080078	50.516010
-167.027128	5519.108333	1266.972656	-53.285339
-167.027128	5519.108333	1265.866211	-136.739868
-167.027128	5519.108333	1264.759766	-329.597839
-167.027128	5519.108333	1263.652344	-146.973846
-167.027128	5519.108333	1262.544922	-101.308449
-167.027128	5519.108333	1261.436523	-92.677155
-167.027128	5519.108333	1260.329102	-86.157173
-167.027128	5519.108333	1259.220703	-154.626831
-167.027128	5519.108333	1258.112305	61.215511
-167.027128	5519.108333	1257.003906	-82.316910
-167.027128	5519.108333	1255.895508	-89.511421
-167.027128	5519.108333	1254.786133	-138.597824
-167.027128	5519.108333	1253.676758	-59.754959
-167.027128	5519.108333	1252.567383	-178.001602
-167.027128	5519.108333	1251.458008	-127.203194
-167.027128	5519.108333	1250.347656	-118.685265
-167.027128	5519.108333	1249.237305	-68.041672
-167.027128	5519.108333	1248.126953	-112.812668
-167.027128	5519.108333	1247.016602	4.367749
-167.027128	5519.108333	1245.905273	-80.275177
-167.027128	5519.108333	1244.793945	-203.090179
-167.027128	5519.108333	1243.682617	-24.107716
-167.027128	5519.108333	1242.571289	-79.076057
-167.027128	5519.108333	1241.459961	-37.218063
-167.027128	5519.108333	1240.347656	-95.932541
-167.027128	5519.108333	1239.235352	-106.775192
-167.027128	5519.108333	1238.123047	6.979343
-167.027128	5519.108333	1237.009766	99.609016
-167.027128	5519.108333	1235.897461	59.824924
-167.027128	5519.108333	1234.784180	-26.295387
-167.027128	5519.108333	1233.670898	-22.809546
-167.027128	5519.108333	1232.556641	-40.081242
-167.027128	5519.108333	1231.443359	69.967873
-167.027128	5519.108333	1230.329102	-14.517322
-167.027128	5519.108333	1229.214844	-87.552429
-167.027128	5519.108333	1228.099609	-19.805857
-167.027128	5519.108333	1226.985352	43.162140
-167.027128	5519.108333	1225.870117	145.658493
-167.027128	5519.108333	1224.754883	-49.025723
-167.027128	5519.108333	1223.639648	-24.135813
-167.027128	5519.108333	1222.523438	-5.424201
-167.027128	5519.108333	1221.408203	-77.009651
-167.027128	5519.108333	1220.291992	-143.097992
-167.027128	5519.108333	1219.174805	-3.099608
-167.027128	5519.108333	1218.058594	90.423454
-167.027128	5519.108333	1216.941406	116.058266
-167.027128	5519.108333	1215.824219	58.930946
-167.027128	5519.108333	1214.707031	-0.247749
-167.027128	5519.108333	1213.589844	-31.955530
-167.027128	5519.108333	1212.471680	0.128351
-167.027128	5519.108333	1211.353516	34.694504
-167.027128	5519.108333	1210.235352	21.094318
-167.027128	5519.108333	1209.117188	153.190918
-167.027128	5519.108333	1207.998047	89.220032
-167.027128	5519.108333	1206.878906	95.919220
-167.027128	5519.108333	1205.759766	-86.323029
-167.027128	5519.108333	1204.640625	-67.524452
-167.027128	5519.108333	1203.520508	-12.753040
-167.027128	5519.108333	1202.401367	1.646244
-167.027128	5519.108333	1201.281250	78.981888
-167.027128	5519.108333	1200.160156	148.635544
-167.027128	5519.108333	1199.040039	33.550400
-167.027128	5519.108333	1197.918945	-3.559838
-167.027128	5519.108333	1196.797852	69.864746
-167.027128	5519.108333	1195.676758	51.548607
-167.027128	5519.108333	1194.555664	86.878319
-167.027128	5519.108333	1193.433594	11.998681
-167.027128	5519.108333	1192.311523	58.735283
-167.027128	5519.108333	1191.189453	17.359472
-167.027128	5519.108333	1190.066406	135.233780
-167.027128	5519.108333	1188.944336	45.094620
-167.027128	5519.108333	1187.821289	-48.389442
-167.027128	5519.108333	1186.698242	-150.727707
-167.027128	5519.108333	1185.574219	-107.000069
-167.027128	5519.108333	1184.451172	9.807349
-167.027128	5519.108333	1183.327148	71.197960
-167.027128	5519.108333	1182.203125	167.166443
-167.027128	5519.108333	1181.078125	17.337933
-167.027128	5519.108333	1179.954102	64.508636
-167.027128	5519.108333	1178.829102	101.209229
-167.027128	5519.108333	1177.704102	113.453964
-167.027128	5519.108333	1176.579102	51.034714
-167.027128	5519.108333	1175.453125	-87.153908
-167.027128	5519.108333	1174.327148	-26.012630
-167.027128	5519.108333	1173.201172	-124.973206
-167.027128	5519.108333	1172.075195	14.138083
-167.027128	5519.108333	1170.949219	-40.996258
-167.027128	5519.108333	1169.822266	-2.563718
-167.027128	5519.108333	1168.695313	-28.559668
-167.027128	5519.108333	1167.568359	-39.665852
-167.027128	5519.108333	1166.440430	-48.967258
-167.027128	5519.108333	1165.313477	-87.472939
-167.027128	5519.108333	1164.185547	26.357178
-167.027128	5519.108333	1163.057617	-47.570827
-167.027128	5519.108333	1161.928711	-27.605675
-167.027128	5519.108333	1160.800781	-83.070724
-167.027128	5519.108333	1159.671875	-47.407482
-167.027128	5519.108333	1158.541992	-25.005726
-167.027128	5519.108333	1157.413086	-18.090090
-167.027128	5519.108333	1156.283203	60.281628
-167.027128	5519.108333	1155.154297	28.603611
-167.027128	5519.108333	1154.023438	150.114777
-167.027128	5519.108333	1152.893555	-44.033329
-167.027128	5519.108333	1151.763672	32.275341
-167.027128	5519.108333	1150.632813	10.946813
-167.027128	5519.108333	1149.501953	-52.279613
-167.027128	5519.108333	1148.370117	-10.460832
-167.027128	5519.108333	1147.239258	107.310669
-167.027128	5519.108333	1146.107422	52.059818
-167.027128	5519.108333	1144.975586	108.624634
-167.027128	5519.108333	1143.843750	-51.664875
-167.027128	5519.108333	1142.710938	58.397018
-167.027128	5519.108333	1141.578125	25.545839
-167.027128	5519.108333	1140.445313	9.541297
-167.027128	5519.108333	1139.312500	-63.232876
-167.027128	5519.108333	1138.178711	57.713161
-167.027128	5519.108333	1137.045898	40.562637
-167.027128	5519.108333	1135.912109	-79.308243
-167.027128	5519.108333	1134.777344	60.859211
-167.027128	5519.108333	1133.643555	58.479778
-167.027128	5519.108333	1132.508789	134.683472
-167.027128	5519.108333	1131.374023	230.827103
-167.027128	5519.108333	1130.239258	-18.008343
-167.027128	5519.108333	1129.104492	29.118523
-167.027128	5519.108333	1127.968750	183.291153
-167.027128	5519.108333	1126.833008	88.186714
-167.027128	5519.108333	1125.697266	22.462416
-167.027128	5519.108333	1124.560547	-15.606934
-167.027128	5519.108333	1123.424805	-46.333767
-167.027128	5519.108333	1122.288086	57.140156
-167.027128	5519.108333	1121.151367	112.371017
-167.027128	5519.108333	1120.013672	-66.501190
-167.027128	5519.108333	1118.876953	195.301086
-167.027128	5519.108333	1117.739258	159.381073
-167.027128	5519.108333	1116.601563	42.884880
-167.027128	5519.108333	1115.462891	148.396759
-167.027128	5519.108333	1114.324219	206.632187
-167.027128	5519.108333	1113.186523	192.625092
-167.027128	5519.108333	1112.046875	184.491455
-167.027128	5519.108333	1110.908203	51.081085
-167.027128	5519.108333	1109.769531	-32.683891
-167.027128	5519.108333	1108.629883	21.315849
-167.027128	5519.108333	1107.490234	29.653322
-167.027128	5519.108333	1106.349609	64.273994
-167.027128	5519.108333	1105.209961	-81.716988
-167.027128	5519.108333	1104.069336	110.477531
-167.027128	5519.108333	1102.928711	108.917969
-167.027128	5519.108333	1101.787109	100.684479
-167.027128	5519.108333	1100.646484	154.719269
-167.027128	5519.108333	1099.504883	63.114307
-167.027128	5519.108333	1098.363281	-1.850217
-167.027128	5519.108333	1097.221680	81.392120
-167.027128	5519.108333	1096.079102	49.896015
-167.027128	5519.108333	1094.936523	85.708328
-167.027128	5519.108333	1093.793945	30.047838
-167.027128	5519.108333	1092.651367	130.605957
-167.027128	5519.108333	1091.507813	161.714676
-167.027128	5519.108333	1090.364258	203.031281
-167.027128	5519.108333	1089.220703	154.606583
-167.027128	5519.108333	1088.077148	96.925964
-167.027128	5519.108333	1086.933594	132.093933
-167.027128	5519.108333	1085.789063	236.852554
-167.027128	5519.108333	1084.644531	69.580887
-167.027128	5519.108333	1083.499023	148.233841
-167.027128	5519.108333	1082.354492	37.242527
-167.027128	5519.108333	1081.208984	-9.152251
-167.027128	5519.108333	1080.063477	20.367136
-167.027128	5519.108333	1078.917969	167.677689
-167.027128	5519.108333	1077.771484	220.620941
-167.027128	5519.108333	1076.625977	105.845963
-167.027128	5519.108333	1075.479492	28.466436
-167.027128	5519.108333	1074.332031	103.956978
-167.027128	5519.108333	1073.185547	81.443298
-167.027128	5519.108333	1072.038086	45.160110
-167.027128	5519.108333	1070.890625	82.744507
-167.027128	5519.108333	1069.743164	32.217068
-167.027128	5519.108333	1068.594727	154.035416
-167.027128	5519.108333	1067.447266	-15.843492
-167.027128	5519.108333	1066.298828	75.649841
-167.027128	5519.108333	1065.149414	84.499794
-167.027128	5519.108333	1064.000977	209.654633
-167.027128	5519.108333	1062.851563	227.166183
-167.027128	5519.108333	1061.702148	225.576019
-167.027128	5519.108333	1060.552734	237.317764
-167.027128	5519.108333	1059.402344	152.857758
-167.027128	5519.108333	1058.252930	115.804565
-167.027128	5519.108333	1057.102539	19.728424
-167.027128	5519.108333	1055.951172	-20.762253
-167.027128	5519.108333	1054.800781	-73.873222
-167.027128	5519.108333	1053.649414	43.396313
-167.027128	5519.108333	1052.498047	53.897614
-167.027128	5519.108333	1051.346680	202.474518
-167.027128	5519.108333	1050.194336	75.870529
-167.027128	5519.108333	1049.042969	214.945511
-167.027128	5519.108333	1047.890625	55.123924
-167.027128	5519.108333	1046.738281	178.778595
-167.027128	5519.108333	1045.584961	209.534851
-167.027128	5519.108333	1044.431641	53.982346
-167.027128	5519.108333	1043.278320	14.933672
-167.027128	5519.108333	1042.125000	131.881104
-167.027128	5519.108333	1040.971680	12.918460
-167.027128	5519.108333	1039.817383	-28.503815
-167.027128	5519.108333	1038.663086	-17.044014
-167.027128	5519.108333	1037.508789	111.658302
-167.027128	5519.108333	1036.353516	39.392380
-167.027128	5519.108333	1035.198242	-62.029312
-167.027128	5519.108333	1034.042969	-22.079340
-167.027128	5519.108333	1032.887695	223.142776
-167.027128	5519.108333	1031.732422	186.997498
-167.027128	5519.108333	1030.576172	211.250549
-167.027128	5519.108333	1029.419922	193.465454
-167.027128	5519.108333	1028.263672	231.623749
-167.027128	5519.108333	1027.106445	130.126892
-167.027128	5519.108333	1025.949219	31.917355
-167.027128	5519.108333	1024.792969	58.142738
-167.027128	5519.108333	1023.634766	175.390884
-167.027128	5519.108333	1022.477539	86.422798
-167.027128	5519.108333	1021.319336	22.604633
-167.027128	5519.108333	1020.161133	-65.520470
-167.027128	5519.108333	1019.002930	186.438217
-167.027128	5519.108333	1017.843750	26.785357
-167.027128	5519.108333	1016.684570	131.881500
-167.027128	5519.108333	1015.525391	-1.122849
-167.027128	5519.108333	1014.366211	6.165967
-167.027128	5519.108333	1013.207031	-49.638664
-167.027128	5519.108333	1012.046875	-68.254616
-167.027128	5519.108333	1010.886719	52.889687
-167.027128	5519.108333	1009.726563	-48.132404
-167.027128	5519.108333	1008.565430	-7.480212
-167.027128	5519.108333	1007.404297	-26.897545
-167.027128	5519.108333	1006.243164	55.218243
-167.027128	5519.108333	1005.082031	141.682693
-167.027128	5519.108333	1003.920898	-141.622253
-167.027128	5519.108333	1002.758789	101.162582
-167.027128	5519.108333	1001.596680	157.269043
-167.027128	5519.108333	1000.433594	-58.198616
-167.027128	5519.108333	999.271484	-135.480820
-167.027128	5519.108333	998.108398	31.081993
-167.027128	5519.108333	996.945313	-19.038031
-167.027128	5519.108333	995.782227	-28.978481
-167.027128	5519.108333	994.618164	85.132423
-167.027128	5519.108333	993.454102	137.586182
-167.027128	5519.108333	992.290039	105.411240
-167.027128	5519.108333	991.125977	68.639923
-167.027128	5519.108333	989.960938	35.329521
-167.027128	5519.108333	988.796875	-190.081482
-167.027128	5519.108333	987.630859	-28.233011
-167.027128	5519.108333	986.465820	-60.286667
-167.027128	5519.108333	985.300781	-8.492801
-167.027128	5519.108333	984.134766	75.666756
-167.027128	5519.108333	982.968750	-23.018345
-167.027128	5519.108333	981.801758	-5.349299
-167.027128	5519.108333	980.635742	-73.646240
-167.027128	5519.108333	979.468750	77.281288
-167.027128	5519.108333	978.301758	-206.165695
-167.027128	5519.108333	977.133789	3.768222
-167.027128	5519.108333	975.966797	-19.220413
-167.027128	5519.108333	974.798828	-18.051586
-167.027128	5519.108333	973.630859	52.196281
-167.027128	5519.108333	972.461914	-83.033951
-167.027128	5519.108333	971.293945	65.957275
-167.027128	5519.108333	970.125000	26.474510
-167.027128	5519.108333	968.956055	30.868078
-167.027128	5519.108333	967.786133	-187.077408
-167.027128	5519.108333	966.617188	-5.160352
-167.027128	5519.108333	965.447266	25.494017
-167.027128	5519.108333	964.276367	85.059601
-167.027128	5519.108333	963.106445	-15.252169
-167.027128	5519.108333	961.935547	-28.377140
-167.027128	5519.108333	960.764648	151.051697
-167.027128	5519.108333	959.593750	51.565678
-167.027128	5519.108333	958.422852	-107.287224
-167.027128	5519.108333	957.250977	203.327301
-167.027128	5519.108333	956.079102	58.053654
-167.027128	5519.108333	954.907227	83.548164
-167.027128	5519.108333	953.734375	18.005491
-167.027128	5519.108333	952.562500	-118.520004
-167.027128	5519.108333	951.389648	-242.348145
-167.027128	5519.108333	950.215820	84.313156
-167.027128	5519.108333	949.042969	-110.143799
-167.027128	5519.108333	947.869141	-65.788887
-167.027128	5519.108333	946.695313	57.761608
-167.027128	5519.108333	945.521484	-78.529327
-167.027128	5519.108333	944.346680	-82.537445
-167.027128	5519.108333	943.172852	155.314224
-167.027128	5519.108333	941.998047	-184.016464
-167.027128	5519.108333	940.822266	-178.143677
-167.027128	5519.108333	939.647461	145.641418
-167.027128	5519.108333	938.471680	-42.172581
-167.027128	5519.108333	937.295898	68.806374
-167.027128	5519.108333	936.119141	228.532562
-167.027128	5519.108333	934.943359	155.886749
-167.027128	5519.108333	933.766602	225.234421
-167.027128	5519.108333	932.589844	287.057007
-167.027128	5519.108333	931.413086	136.112442
-167.027128	5519.108333	930.235352	36.463295
-167.027128	5519.108333	929.057617	169.187744
-167.027128	5519.108333	927.879883	13.370838
-167.027128	5519.108333	926.702148	116.751892
-167.027128	5519.108333	925.523438	-63.458065
-167.027128	5519.108333	924.344727	-45.674023
-167.027128	5519.108333	923.166016	45.393158
-167.027128	5519.108333	921.987305	60.695690
-167.027128	5519.108333	920.807617	-68.107185
-167.027128	5519.108333	919.627930	-65.778099
-167.027128	5519.108333	919.497070	89.073586
-167.027128	5519.108333	918.331055	-108.083908
-167.027128	5519.108333	917.165039	-80.619850
-167.027128	5519.108333	915.999023	-184.948715
-167.027128	5519.108333	914.833008	-145.297501
-167.027128	5519.108333	913.666016	45.566689
-167.027128	5519.108333	912.499023	-73.378975
-167.027128	5519.108333	911.332031	-53.302410
-167.027128	5519.108333	910.165039	-28.365671
-167.027128	5519.108333	908.997070	76.984917
-167.027128	5519.108333	907.830078	118.927307
-167.027128	5519.108333	906.661133	-60.854164
-167.027128	5519.108333	905.493164	76.081268
-167.027128	5519.108333	904.325195	-106.070648
-167.027128	5519.108333	903.156250	-95.804619
-167.027128	5519.108333	901.987305	50.771599
-167.027128	5519.108333	900.818359	-55.836586
-167.027128	5519.108333	899.648438	-31.007198
-167.027128	5519.108333	898.478516	74.088051
-167.027128	5519.108333	897.308594	81.838837
-167.027128	5519.108333	896.138672	99.307709
-167.027128	5519.108333	894.968750	119.192932
-167.027128	5519.108333	893.797852	163.373260
-167.027128	5519.108333	892.626953	15.531527
-167.027128	5519.108333	891.456055	30.542736
-167.027128	5519.108333	890.284180	111.134270
-167.027128	5519.108333	889.113281	164.966675
-167.027128	5519.108333	887.941406	31.788620
-167.027128	5519.108333	886.768555	20.053223
-167.027128	5519.108333	885.596680	-120.337715
-167.027128	5519.108333	884.423828	35.401524
-167.027128	5519.108333	883.250977	-109.799629
-167.027128	5519.108333	882.078125	-65.730721
-167.027128	5519.108333	880.905273	-157.507950
-167.027128	5519.108333	879.731445	-43.138390
-167.027128	5519.108333	878.557617	-52.466038
-167.027128	5519.108333	877.383789	-73.915695
-167.027128	5519.108333	876.209961	-39.626526
-167.027128	5519.108333	875.035156	-41.699863
-167.027128	5519.108333	873.860352	-19.555874
-167.027128	5519.108333	872.685547	109.136505
-167.027128	5519.108333	871.510742	-1.950872
-167.027128	5519.108333	870.334961	-108.156677
-167.027128	5519.108333	869.159180	90.646805
-167.027128	5519.108333	867.983398	88.508881
-167.027128	5519.108333	866.807617	192.818680
-167.027128	5519.108333	865.630859	-14.962201
-167.027128	5519.108333	864.454102	-212.991196
-167.027128	5519.108333	863.277344	-108.703873
-167.027128	5519.108333	862.100586	-55.232582
-167.027128	5519.108333	860.922852	99.722610
-167.027128	5519.108333	859.745117	145.867081
-167.027128	5519.108333	858.567383	-110.010132
-167.027128	5519.108333	857.389648	-46.948616
-167.027128	5519.108333	856.210938	103.020470
-167.027128	5519.108333	855.032227	18.716288
-167.027128	5519.108333	853.853516	84.105606
-167.027128	5519.108333	852.674805	-5.002047
-167.027128	5519.108333	851.495117	-9.625663
-167.027128	5519.108333	850.315430	79.833733
-167.027128	5519.108333	849.135742	99.299911
-167.027128	5519.108333	847.956055	-21.116808
-167.027128	5519.108333	846.775391	147.830170
-167.027128	5519.108333	845.595703	155.194351
-167.027128	5519.108333	844.415039	61.328365
-167.027128	5519.108333	843.233398	-32.505177
-167.027128	5519.108333	842.052734	198.907440
-167.027128	5519.108333	840.871094	54.489079
-167.027128	5519.108333	839.689453	59.419819
-167.027128	5519.108333	838.506836	11.374910
-167.027128	5519.108333	837.325195	95.728256
-167.027128	5519.108333	836.142578	-34.143219
-167.027128	5519.108333	834.959961	148.816544
-167.027128	5519.108333	833.777344	62.270557
-167.027128	5519.108333	832.593750	317.270966
-167.027128	5519.108333	831.410156	-12.150532
-167.027128	5519.108333	830.226563	-209.222076
-167.027128	5519.108333	829.042969	-24.053112
-167.027128	5519.108333	827.858398	-40.826382
-167.027128	5519.108333	826.673828	2.462451
-167.027128	5519.108333	825.489258	36.115551
-167.027128	5519.108333	824.304688	21.714367
-167.027128	5519.108333	823.120117	-182.376923
-167.027128	5519.108333	821.934570	-88.718086
-167.027128	5519.108333	820.749023	88.896935
-167.027128	5519.108333	819.562500	-33.521828
-167.027128	5519.108333	818.376953	14.436382
-167.027128	5519.108333	817.190430	-55.166740
-167.027128	5519.108333	816.003906	275.736176
-167.027128	5519.108333	814.817383	52.639698
-167.027128	5519.108333	813.629883	-0.176680
-167.027128	5519.108333	812.442383	57.264126
-167.027128	5519.108333	811.254883	-7.533597
-167.027128	5519.108333	810.067383	179.228378
-167.027128	5519.108333	808.878906	56.928669
-167.027128	5519.108333	807.690430	-209.010315
-167.027128	5519.108333	806.501953	154.814148
-167.027128	5519.108333	805.313477	247.993240
-167.027128	5519.108333	804.124023	-25.032450
-167.027128	5519.108333	802.934570	60.945160
-167.027128	5519.108333	801.745117	-133.009109
-167.027128	5519.108333	800.555664	-4.017449
-167.027128	5519.108333	799.365234	12.524740
-167.027128	5519.108333	798.175781	-90.488129
-167.027128	5519.108333	796.985352	31.209898
-167.027128	5519.108333	795.793945	71.596695
-167.027128	5519.108333	794.603516	68.947098
-167.027128	5519.108333	793.412109	-19.706396
-167.027128	5519.108333	792.220703	94.662727
-167.027128	5519.108333	791.028320	70.485161
-167.027128	5519.108333	789.836914	27.205740
-167.027128	5519.108333	788.644531	136.683533
-167.027128	5519.108333	787.452148	107.700958
-167.027128	5519.108333	786.258789	-11.941232
-167.027128	5519.108333	785.066406	140.371811
-167.027128	5519.108333	783.873047	82.749535
-167.027128	5519.108333	782.679688	-105.997269
-167.027128	5519.108333	781.485352	-27.696320
-167.027128	5519.108333	780.291992	-180.620880
-167.027128	5519.108333	779.097656	42.984440
-167.027128	5519.108333	777.903320	23.489510
-167.027128	5519.108333	776.708008	132.605164
-167.027128	5519.108333	775.512695	96.402466
-167.027128	5519.108333	774.318359	-13.606515
-167.027128	5519.108333	773.122070	128.729935
-167.027128	5519.108333	771.926758	-24.105917
-167.027128	5519.108333	770.730469	99.108391
-167.027128	5519.108333	769.534180	-60.824062
-167.027128	5519.108333	768.337891	178.853897
-167.027128	5519.108333	767.141602	228.188995
-167.027128	5519.108333	765.944336	73.036934
-167.027128	5519.108333	764.747070	103.326828
-167.027128	5519.108333	763.549805	269.040466
-167.027128	5519.108333	762.351563	85.418739
-167.027128	5519.108333	761.154297	63.379730
-167.027128	5519.108333	759.956055	-89.283531
-167.027128	5519.108333	758.757813	-2.088660
-167.027128	5519.108333	757.558594	123.035789
-167.027128	5519.108333	756.359375	55.846153
-167.027128	5519.108333	755.160156	147.650864
-167.027128	5519.108333	753.960938	153.992264
-167.027128	5519.108333	752.761719	136.595261
-167.027128	5519.108333	751.561523	206.930176
-167.027128	5519.108333	750.361328	35.383293
-167.027128	5519.108333	749.160156	105.673904
-167.027128	5519.108333	747.959961	121.406883
-167.027128	5519.108333	746.758789	25.752403
-167.027128	5519.108333	745.557617	-39.084827
-167.027128	5519.108333	744.356445	35.823261
-167.027128	5519.108333	743.154297	18.332113
-167.027128	5519.108333	741.952148	78.954102
-167.027128	5519.108333	740.750000	125.330193
-167.027128	5519.108333	739.547852	98.305923
-167.027128	5519.108333	738.344727	83.103386
-167.027128	5519.108333	737.142578	56.059177
-167.027128	5519.108333	735.939453	78.671326
-167.027128	5519.108333	734.735352	-76.082344
-167.027128	5519.108333	733.532227	147.445908
-167.027128	5519.108333	732.328125	106.148521
-167.027128	5519.108333	731.124023	8.135699
-167.027128	5519.108333	729.918945	-42.607410
-167.027128	5519.108333	728.714844	1.130059
-167.027128	5519.108333	727.509766	11.767286
-167.027128	5519.108333	726.303711	107.375366
-167.027128	5519.108333	725.098633	-127.553970
-167.027128	5519.108333	723.892578	-79.201248
-167.027128	5519.108333	722.686523	-7.295516
-167.027128	5519.108333	721.480469	-154.834473
-167.027128	5519.108333	720.274414	-116.007225
-167.027128	5519.108333	719.067383	35.968128
-167.027128	5519.108333	717.860352	-149.275574
-167.027128	5519.108333	716.653320	-58.686710
-167.027128	5519.108333	715.445313	-12.933141
-167.027128	5519.108333	714.238281	35.133446
-167.027128	5519.108333	713.030273	-62.889950
-167.027128	5519.108333	711.821289	-94.952728
-167.027128	5519.108333	710.613281	-25.778032
-167.027128	5519.108333	709.404297	43.344303
-167.027128	5519.108333	708.195313	62.987720
-167.027128	5519.108333	706.986328	4.945559
-167.027128	5519.108333	705.776367	104.530289
-167.027128	5519.108333	704.566406	-47.629906
-167.027128	5519.108333	703.356445	98.908226
-167.027128	5519.108333	702.146484	106.642143
-167.027128	5519.108333	700.935547	-94.860878
-167.027128	5519.108333	699.724609	42.120213
-167.027128	5519.108333	698.513672	197.816284
-167.027128	5519.108333	697.302734	184.280930
-167.027128	5519.108333	696.090820	-59.445465
-167.027128	5519.108333	694.878906	100.794746
-167.027128	5519.108333	693.666992	221.031265
-167.027128	5519.108333	692.455078	14.930516
-167.027128	5519.108333	691.242188	130.389725
-167.027128	5519.108333	690.029297	229.351303
-167.027128	5519.108333	688.816406	316.517334
-167.027128	5519.108333	687.602539	295.739105
-167.027128	5519.108333	686.389648	160.052094
-167.027128	5519.108333	685.175781	279.918701
-167.027128	5519.108333	683.960938	317.677643
-167.027128	5519.108333	682.747070	179.649734
-167.027128	5519.108333	681.532227	247.816772
-167.027128	5519.108333	680.317383	11.433356
-167.027128	5519.108333	679.102539	138.098587
-167.027128	5519.108333	677.886719	112.500496
-167.027128	5519.108333	676.670898	302.239990
-167.027128	5519.108333	675.455078	49.555313
-167.027128	5519.108333	674.239258	119.844383
-167.027128	5519.108333	673.022461	150.307892
-167.027128	5519.108333	671.805664	173.715759
-167.027128	5519.108333	670.588867	35.742279
-167.027128	5519.108333	669.372070	129.245865
-167.027128	5519.108333	668.154297	84.779648
-167.027128	5519.108333	666.936523	-46.158302
-167.027128	5519.108333	665.718750	21.522350
-167.027128	5519.108333	664.500977	82.140450
-167.027128	5519.108333	663.282227	56.296467
-167.027128	5519.108333	662.063477	240.575943
-167.027128	5519.108333	660.844727	249.671310
-167.027128	5519.108333	659.625000	207.389481
-167.027128	5519.108333	658.405273	109.096893
-167.027128	5519.108333	657.185547	164.791107
-167.027128	5519.108333	655.965820	-73.449196
-167.027128	5519.108333	654.745117	-20.126719
-167.027128	5519.108333	653.525391	201.010605
-167.027128	5519.108333	652.303711	144.644531
-167.027128	5519.108333	651.083008	11.371745
-167.027128	5519.108333	649.861328	43.554420
-167.027128	5519.108333	648.640625	50.073223
-167.027128	5519.108333	647.417969	0.665843
-167.027128	5519.108333	646.196289	0.151873
-167.027128	5519.108333	644.973633	192.833298
-167.027128	5519.108333	643.750977	19.990408
-167.027128	5519.108333	642.528320	100.837646
-167.027128	5519.108333	641.305664	209.542099
-167.027128	5519.108333	640.082031	4.161469
-167.027128	5519.108333	638.858398	131.391647
-167.027128	5519.108333	637.634766	19.063341
-167.027128	5519.108333	636.410156	64.824501
-167.027128	5519.108333	635.185547	84.976105
-167.027128	5519.108333	633.960938	-11.084249
-167.027128	5519.108333	632.736328	94.977066
-167.027128	5519.108333	631.510742	187.030640
-167.027128	5519.108333	630.285156	-64.646408
-167.027128	5519.108333	629.059570	-109.621284
-167.027128	5519.108333	627.833984	-47.831829
-167.027128	5519.108333	626.607422	18.546591
-167.027128	5519.108333	625.380859	-72.895309
-167.027128	5519.108333	624.154297	25.885126
-167.027128	5519.108333	622.927734	13.281640
-167.027128	5519.108333	621.700195	-217.292816
-167.027128	5519.108333	620.472656	-153.390503
-167.027128	5519.108333	619.245117	19.390654
-167.027128	5519.108333	618.016602	-48.910957
-167.027128	5519.108333	616.788086	14.842920
-167.027128	5519.108333	615.559570	97.075844
-167.027128	5519.108333	614.331055	47.256783
-167.027128	5519.108333	613.101563	303.039825
-167.027128	5519.108333	611.872070	7.793281
-167.027128	5519.108333	610.642578	-60.558281
-167.027128	5519.108333	609.413086	56.194363
-167.027128	5519.108333	608.182617	47.960133
-167.027128	5519.108333	606.952148	-31.987284
-167.027128	5519.108333	605.721680	-98.048508
-167.027128	5519.108333	604.491211	-50.827274
-167.027128	5519.108333	603.259766	139.649261
-167.027128	5519.108333	602.028320	-62.806072
-167.027128	5519.108333	600.796875	46.691288
-167.027128	5519.108333	599.564453	146.880753
-167.027128	5519.108333	598.332031	-173.282684
-167.027128	5519.108333	597.099609	-20.026270
-167.027128	5519.108333	595.867188	-192.325287
-167.027128	5519.108333	594.633789	30.064524
-167.027128	5519.108333	593.400391	65.447838
-167.027128	5519.108333	592.166992	-28.384991
-167.027128	5519.108333	590.933594	-20.716841
-167.027128	5519.108333	589.699219	37.657448
-167.027128	5519.108333	588.464844	-162.211288
-167.027128	5519.108333	587.230469	-140.745056
-167.027128	5519.108333	585.995117	-6.391581
-167.027128	5519.108333	584.760742	-97.891167
-167.027128	5519.108333	583.525391	116.982040
-167.027128	5519.108333	582.289063	-75.867844
-167.027128	5519.108333	581.053711	67.502548
-167.027128	5519.108333	579.817383	-44.718117
-167.027128	5519.108333	578.581055	234.337067
-167.027128	5519.108333	577.343750	-18.259645
-167.027128	5519.108333	576.107422	25.997225
-167.027128	5519.108333	574.870117	33.419827
-167.027128	5519.108333	573.631836	121.305374
-167.027128	5519.108333	572.394531	126.378647
-167.027128	5519.108333	571.156250	60.183182
-167.027128	5519.108333	569.917969	60.645042
-167.027128	5519.108333	568.679688	-10.127964
-167.027128	5519.108333	567.440430	4.104843
-167.027128	5519.108333	566.202148	163.004852
-167.027128	5519.108333	564.961914	80.737648
-167.027128	5519.108333	563.722656	-79.551018
-167.027128	5519.108333	562.482422	-46.998867
-167.027128	5519.108333	561.243164	134.678116
-167.027128	5519.108333	560.001953	-66.844788
-167.027128	5519.108333	558.761719	96.390739
-167.027128	5519.108333	557.520508	46.287968
-167.027128	5519.108333	556.279297	129.170013
-167.027128	5519.108333	555.038086	150.121246
-167.027128	5519.108333	553.795898	33.558090
-167.027128	5519.108333	552.554688	-41.721222
-167.027128	5519.108333	551.311523	31.913565
-167.027128	5519.108333	550.069336	265.823212
-167.027128	5519.108333	548.826172	7.348890
-167.027128	5519.108333	547.583984	106.091614
-167.027128	5519.108333	546.339844	-40.106503
-167.027128	5519.108333	545.096680	12.829200
-167.027128	5519.108333	543.852539	129.790649
-167.027128	5519.108333	542.608398	127.763596
-167.027128	5519.108333	541.364258	50.272816
-167.027128	5519.108333	540.119141	-84.346878
-167.027128	5519.108333	538.875000	-17.763531
-167.027128	5519.108333	537.628906	151.620300
-167.027128	5519.108333	536.383789	97.025253
-167.027128	5519.108333	535.137695	21.891069
-167.027128	5519.108333	533.892578	154.614639
-167.027128	5519.108333	532.645508	113.745018
-167.027128	5519.108333	531.399414	168.772858
-167.027128	5519.108333	530.152344	130.199402
-167.027128	5519.108333	528.905273	23.187088
-167.027128	5519.108333	527.658203	59.945198
-167.027128	5519.108333	526.410156	39.665413
-167.027128	5519.108333	525.163086	101.489647
-167.027128	5519.108333	523.914063	-12.265465
-167.027128	5519.108333	522.666016	-48.469734
-167.027128	5519.108333	521.416992	11.054797
-167.027128	5519.108333	520.167969	102.451935
-167.027128	5519.108333	518.918945	-106.870872
-167.027128	5519.108333	517.669922	-92.915352
-167.027128	5519.108333	516.419922	-35.702808
-167.027128	5519.108333	515.169922	-33.147102
-167.027128	5519.108333	513.919922	24.032213
-167.027128	5519.108333	512.668945	62.985687
-167.027128	5519.108333	511.417969	-111.923256
-167.027128	5519.108333	510.166992	-198.048508
-167.027128	5519.108333	508.916016	125.185738
-167.027128	5519.108333	507.664063	-40.520710
-167.027128	5519.108333	506.412109	-35.677071
-167.027128	5519.108333	505.160156	-83.099709
-167.027128	5519.108333	503.907227	108.063995
-167.027128	5519.108333	502.655273	-18.866695
-167.027128	5519.108333	501.402344	70.010635
-167.027128	5519.108333	500.148438	-47.771801
-167.027128	5519.108333	498.895508	-54.262989
-167.027128	5519.108333	497.641602	-58.481464
-167.027128	5519.108333	496.387695	-139.843399
-167.027128	5519.108333	495.132813	-44.217003
-167.027128	5519.108333	493.878906	-218.535202
-167.027128	5519.108333	492.624023	-161.476730
-167.027128	5519.108333	491.368164	-81.771309
-167.027128	5519.108333	490.113281	-4.361688
-167.027128	5519.108333	488.857422	-26.697212
-167.027128	5519.108333	487.601563	12.151431
-167.027128	5519.108333	486.344727	-168.740814
-167.027128	5519.108333	485.088867	-98.168411
-167.027128	5519.108333	483.832031	-18.571056
-167.027128	5519.108333	482.575195	13.453079
-167.027128	5519.108333	481.317383	-8.855167
-167.027128	5519.108333	480.059570	-1.739560
-167.027128	5519.108333	478.801758	-46.660603
-167.027128	5519.108333	477.543945	-87.039780
-167.027128	5519.108333	476.285156	-48.260429
-167.027128	5519.108333	475.027344	10.847495
-167.027128	5519.108333	473.767578	-142.547501
-167.027128	5519.108333	472.508789	-13.399547
-167.027128	5519.108333	471.249023	54.683296
-167.027128	5519.108333	469.989258	-17.318447
-167.027128	5519.108333	468.729492	39.430267
-167.027128	5519.108333	467.469727	78.083786
-167.027128	5519.108333	466.208984	98.650940
-167.027128	5519.108333	464.948242	-74.895737
-167.027128	5519.108333	463.686523	-22.737955
-167.027128	5519.108333	462.425781	-13.475597
-167.027128	5519.108333	461.164063	110.795502
-167.027128	5519.108333	459.901367	56.853363
-167.027128	5519.108333	458.639648	32.228844
-167.027128	5519.108333	457.376953	86.486023
-167.027128	5519.108333	456.114258	52.812916
-167.027128	5519.108333	454.851563	152.062500
-167.027128	5519.108333	453.587891	-12.300008
-167.027128	5519.108333	452.324219	-68.518425
-167.027128	5519.108333	451.060547	140.946579
-167.027128	5519.108333	449.796875	183.714340
-167.027128	5519.108333	448.532227	107.152054
-167.027128	5519.108333	447.267578	39.592846
-167.027128	5519.108333	446.002930	21.520103
-167.027128	5519.108333	444.737305	250.822205
-167.027128	5519.108333	443.471680	86.476646
-167.027128	5519.108333	442.206055	187.444122
-167.027128	5519.108333	440.940430	34.341499
-167.027128	5519.108333	439.673828	110.469780
-167.027128	5519.108333	438.407227	123.610954
-167.027128	5519.108333	437.140625	275.961700
-167.027128	5519.108333	435.873047	82.352943
-167.027128	5519.108333	434.605469	-1.210846
-167.027128	5519.108333	433.337891	180.083939
-167.027128	5519.108333	432.070313	51.532227
-167.027128	5519.108333	430.801758	86.765182
-167.027128	5519.108333	429.533203	77.050735
-167.027128	5519.108333	428.264648	-35.898491
-167.027128	5519.108333	426.996094	268.199371
-167.027128	5519.108333	425.726563	137.171097
-167.027128	5519.108333	424.457031	187.667267
-167.027128	5519.108333	423.186523	29.655922
-167.027128	5519.108333	421.916992	21.732861
-167.027128	5519.108333	420.646484	74.194977
-167.027128	5519.108333	419.375977	166.847855
-167.027128	5519.108333	418.104492	-7.072605
-167.027128	5519.108333	416.833008	318.147278
-167.027128	5519.108333	415.561523	153.008057
-167.027128	5519.108333	414.290039	106.412506
-167.027128	5519.108333	413.017578	84.323212
-167.027128	5519.108333	411.746094	-56.409870
-167.027128	5519.108333	410.472656	131.474838
-167.027128	5519.108333	409.200195	158.192261
-167.027128	5519.108333	407.926758	218.282440
-167.027128	5519.108333	406.653320	-12.288386
-167.027128	5519.108333	405.379883	107.840591
-167.027128	5519.108333	404.105469	111.611694
-167.027128	5519.108333	402.831055	41.529118
-167.027128	5519.108333	401.556641	170.012787
-167.027128	5519.108333	400.282227	117.466858
-167.027128	5519.108333	399.006836	129.477036
-167.027128	5519.108333	397.731445	-55.044415
-167.027128	5519.108333	396.456055	16.849133
-167.027128	5519.108333	395.179688	164.334244
-167.027128	5519.108333	393.903320	-7.298001
-167.027128	5519.108333	392.626953	86.208069
-167.027128	5519.108333	391.350586	199.511292
-167.027128	5519.108333	390.073242	147.642334
-167.027128	5519.108333	388.795898	57.687092
-167.027128	5519.108333	387.518555	216.983521
-167.027128	5519.108333	386.240234	146.592438
-167.027128	5519.108333	384.961914	129.403366
-167.027128	5519.108333	383.683594	158.695114
-167.027128	5519.108333	382.405273	47.501122
-167.027128	5519.108333	381.125977	280.913757
-167.027128	5519.108333	379.846680	-35.489925
-167.027128	5519.108333	378.567383	303.985962
-167.027128	5519.108333	377.287109	202.757629
-167.027128	5519.108333	376.006836	-23.234587
-167.027128	5519.108333	374.726563	-85.003464
-167.027128	5519.108333	373.446289	24.000532
-167.027128	5519.108333	372.165039	37.069607
-167.027128	5519.108333	370.883789	-32.410568
-167.027128	5519.108333	369.602539	-17.857983
-167.027128	5519.108333	368.320313	82.870522
-167.027128	5519.108333	367.039063	-5.496092
-167.027128	5519.108333	365.755859	-112.008743
-167.027128	5519.108333	364.473633	160.485199
-167.027128	5519.108333	363.190430	-2.330874
-167.027128	5519.108333	361.907227	-34.687252
-167.027128	5519.108333	360.624023	-96.314293
-167.027128	5519.108333	359.340820	-45.342014
-167.027128	5519.108333	358.056641	111.482185
-167.027128	5519.108333	356.772461	46.168480
-167.027128	5519.108333	355.487305	144.276703
-167.027128	5519.108333	354.202148	157.651138
-167.027128	5519.108333	352.916992	15.477655
-167.027128	5519.108333	351.631836	16.697721
-167.027128	5519.108333	350.346680	19.554230
-167.027128	5519.108333	349.060547	105.887566
-167.027128	5519.108333	347.774414	198.211426
-167.027128	5519.108333	346.487305	33.283543
-167.027128	5519.108333	345.200195	75.650055
-167.027128	5519.108333	343.913086	-13.101098
-167.027128	5519.108333	342.625977	54.446777
-167.027128	5519.108333	341.338867	-11.322175
-167.027128	5519.108333	340.050781	262.454895
-167.027128	5519.108333	338.762695	-8.013065
-167.027128	5519.108333	337.473633	83.050957
-167.027128	5519.108333	336.184570	-109.311737
-167.027128	5519.108333	334.895508	-61.765739
-167.027128	5519.108333	333.606445	-162.918381
-167.027128	5519.108333	332.317383	-192.041458
-167.027128	5519.108333	331.027344	-199.963470
-167.027128	5519.108333	329.736328	-61.006821
-167.027128	5519.108333	328.446289	-132.461945
-167.027128	5519.108333	327.155273	26.654085
-167.027128	5519.108333	325.864258	-112.791550
-167.027128	5519.108333	324.573242	86.219856
-167.027128	5519.108333	323.281250	-123.448692
-167.027128	5519.108333	321.989258	40.415462
-167.027128	5519.108333	320.697266	57.831661
-167.027128	5519.108333	319.405273	-165.803268
-167.027128	5519.108333	318.112305	-36.059975
-167.027128	5519.108333	316.819336	-8.716812
-167.027128	5519.108333	315.526367	-22.126406
-167.027128	5519.108333	314.232422	-45.525513
-167.027128	5519.108333	312.938477	48.655186
-167.027128	5519.108333	311.644531	156.966858
-167.027128	5519.108333	310.349609	-74.593224
-167.027128	5519.108333	309.054688	-118.314980
-167.027128	5519.108333	307.759766	14.661748
-167.027128	5519.108333	306.464844	278.057953
-167.027128	5519.108333	305.168945	274.167572
-167.027128	5519.108333	303.873047	224.961166
-167.027128	5519.108333	302.577148	235.818207
-167.027128	5519.108333	301.281250	346.177246
-167.027128	5519.108333	299.984375	604.174316
