#X		#Y		#Wave		#Intensity
293.303191	6082.225000	1999.946289	91.788628
293.303191	6082.225000	1998.981445	-131.598419
293.303191	6082.225000	1998.017578	10.712615
293.303191	6082.225000	1997.052734	-45.291138
293.303191	6082.225000	1996.088867	94.448433
293.303191	6082.225000	1995.124023	87.969643
293.303191	6082.225000	1994.159180	24.516338
293.303191	6082.225000	1993.193359	-95.878754
293.303191	6082.225000	1992.228516	-10.747289
293.303191	6082.225000	1991.262695	39.687222
293.303191	6082.225000	1990.296875	20.795107
293.303191	6082.225000	1989.331055	88.505913
293.303191	6082.225000	1988.365234	59.696926
293.303191	6082.225000	1987.398438	-53.210541
293.303191	6082.225000	1986.432617	-126.515640
293.303191	6082.225000	1985.465820	-34.138325
293.303191	6082.225000	1984.499023	154.610138
293.303191	6082.225000	1983.532227	98.584038
293.303191	6082.225000	1982.565430	111.765640
293.303191	6082.225000	1981.597656	70.577141
293.303191	6082.225000	1980.629883	-2.716568
293.303191	6082.225000	1979.662109	-100.688919
293.303191	6082.225000	1978.694336	-92.447052
293.303191	6082.225000	1977.726563	31.825237
293.303191	6082.225000	1976.758789	-73.522659
293.303191	6082.225000	1975.790039	-38.160892
293.303191	6082.225000	1974.821289	125.495766
293.303191	6082.225000	1973.852539	-4.498232
293.303191	6082.225000	1972.883789	109.748001
293.303191	6082.225000	1971.915039	53.781097
293.303191	6082.225000	1970.945313	-21.895788
293.303191	6082.225000	1969.975586	-50.709160
293.303191	6082.225000	1969.005859	-12.965421
293.303191	6082.225000	1968.036133	0.116912
293.303191	6082.225000	1967.066406	23.046854
293.303191	6082.225000	1966.096680	134.648361
293.303191	6082.225000	1965.125977	113.203819
293.303191	6082.225000	1964.155273	54.826782
293.303191	6082.225000	1963.184570	-10.917124
293.303191	6082.225000	1962.213867	-56.946148
293.303191	6082.225000	1961.242188	-24.204481
293.303191	6082.225000	1960.271484	3.602123
293.303191	6082.225000	1959.299805	-3.046759
293.303191	6082.225000	1958.328125	-110.546394
293.303191	6082.225000	1957.356445	-1.587033
293.303191	6082.225000	1956.384766	38.482384
293.303191	6082.225000	1955.412109	17.075062
293.303191	6082.225000	1954.439453	91.534973
293.303191	6082.225000	1953.467773	43.092323
293.303191	6082.225000	1952.495117	83.119232
293.303191	6082.225000	1951.521484	19.954723
293.303191	6082.225000	1950.548828	55.058048
293.303191	6082.225000	1949.575195	-54.735794
293.303191	6082.225000	1948.601563	63.844883
293.303191	6082.225000	1947.627930	64.553642
293.303191	6082.225000	1946.654297	3.905267
293.303191	6082.225000	1945.680664	31.617668
293.303191	6082.225000	1944.706055	42.146004
293.303191	6082.225000	1943.732422	-133.750229
293.303191	6082.225000	1942.757813	-88.858582
293.303191	6082.225000	1941.783203	59.001274
293.303191	6082.225000	1940.807617	25.391428
293.303191	6082.225000	1939.833008	50.622627
293.303191	6082.225000	1938.857422	78.295479
293.303191	6082.225000	1937.881836	128.010727
293.303191	6082.225000	1936.906250	-72.162682
293.303191	6082.225000	1935.930664	55.941849
293.303191	6082.225000	1934.955078	-60.880657
293.303191	6082.225000	1933.978516	45.141346
293.303191	6082.225000	1933.001953	-12.883130
293.303191	6082.225000	1932.025391	-97.806053
293.303191	6082.225000	1931.048828	-55.452045
293.303191	6082.225000	1930.072266	-42.469952
293.303191	6082.225000	1929.094727	-29.491066
293.303191	6082.225000	1928.118164	0.605332
293.303191	6082.225000	1927.140625	152.950134
293.303191	6082.225000	1926.163086	-12.571797
293.303191	6082.225000	1925.184570	15.066439
293.303191	6082.225000	1924.207031	108.679382
293.303191	6082.225000	1923.228516	31.226053
293.303191	6082.225000	1922.250000	-165.897476
293.303191	6082.225000	1921.271484	140.195557
293.303191	6082.225000	1920.292969	77.439278
293.303191	6082.225000	1919.314453	114.811295
293.303191	6082.225000	1918.334961	115.556274
293.303191	6082.225000	1917.355469	-15.489315
293.303191	6082.225000	1916.375977	90.211189
293.303191	6082.225000	1915.396484	117.805275
293.303191	6082.225000	1914.416992	121.000015
293.303191	6082.225000	1913.436523	33.960510
293.303191	6082.225000	1912.457031	-74.988075
293.303191	6082.225000	1911.476563	-15.679637
293.303191	6082.225000	1910.496094	28.985432
293.303191	6082.225000	1909.515625	-75.018730
293.303191	6082.225000	1908.534180	-1.115389
293.303191	6082.225000	1907.552734	75.199333
293.303191	6082.225000	1906.572266	168.538177
293.303191	6082.225000	1905.590820	-93.686119
293.303191	6082.225000	1904.608398	48.349213
293.303191	6082.225000	1903.626953	-55.522945
293.303191	6082.225000	1902.644531	28.047649
293.303191	6082.225000	1901.663086	-36.842461
293.303191	6082.225000	1900.680664	-33.585217
293.303191	6082.225000	1899.698242	-35.190456
293.303191	6082.225000	1898.714844	-73.271866
293.303191	6082.225000	1897.732422	92.911591
293.303191	6082.225000	1896.749023	37.809307
293.303191	6082.225000	1895.765625	53.218544
293.303191	6082.225000	1894.782227	51.614391
293.303191	6082.225000	1893.798828	-15.587634
293.303191	6082.225000	1892.814453	-94.907944
293.303191	6082.225000	1891.831055	15.249416
293.303191	6082.225000	1890.846680	-25.187609
293.303191	6082.225000	1889.862305	135.907318
293.303191	6082.225000	1888.877930	136.735336
293.303191	6082.225000	1887.892578	42.913757
293.303191	6082.225000	1886.908203	169.943756
293.303191	6082.225000	1885.922852	22.784065
293.303191	6082.225000	1884.937500	55.177204
293.303191	6082.225000	1883.952148	73.010353
293.303191	6082.225000	1882.965820	-132.231995
293.303191	6082.225000	1881.980469	33.513794
293.303191	6082.225000	1880.994141	-60.144585
293.303191	6082.225000	1880.007813	-102.875290
293.303191	6082.225000	1879.021484	77.317749
293.303191	6082.225000	1878.035156	44.272858
293.303191	6082.225000	1877.047852	-66.260315
293.303191	6082.225000	1876.061523	-62.937901
293.303191	6082.225000	1875.074219	-1.508629
293.303191	6082.225000	1874.086914	52.638618
293.303191	6082.225000	1873.098633	-55.382744
293.303191	6082.225000	1872.111328	160.879044
293.303191	6082.225000	1871.123047	21.432573
293.303191	6082.225000	1870.135742	75.545036
293.303191	6082.225000	1869.147461	13.558537
293.303191	6082.225000	1868.158203	24.134661
293.303191	6082.225000	1867.169922	-105.502411
293.303191	6082.225000	1866.180664	54.948917
293.303191	6082.225000	1865.192383	171.845139
293.303191	6082.225000	1864.203125	37.428310
293.303191	6082.225000	1863.213867	86.650314
293.303191	6082.225000	1862.223633	32.003979
293.303191	6082.225000	1861.234375	78.798416
293.303191	6082.225000	1860.244141	-65.149620
293.303191	6082.225000	1859.253906	111.994095
293.303191	6082.225000	1858.263672	62.218746
293.303191	6082.225000	1857.273438	10.050654
293.303191	6082.225000	1856.282227	134.011948
293.303191	6082.225000	1855.291992	-48.394459
293.303191	6082.225000	1854.300781	85.180946
293.303191	6082.225000	1853.309570	81.275970
293.303191	6082.225000	1852.317383	-69.675156
293.303191	6082.225000	1851.326172	155.420334
293.303191	6082.225000	1850.333984	4.514482
293.303191	6082.225000	1849.342773	-16.231613
293.303191	6082.225000	1848.350586	-70.693039
293.303191	6082.225000	1847.357422	62.719997
293.303191	6082.225000	1846.365234	-44.707409
293.303191	6082.225000	1845.372070	-10.052963
293.303191	6082.225000	1844.379883	29.403488
293.303191	6082.225000	1843.386719	-15.383535
293.303191	6082.225000	1842.393555	149.177948
293.303191	6082.225000	1841.399414	-49.575466
293.303191	6082.225000	1840.406250	64.423058
293.303191	6082.225000	1839.412109	38.903919
293.303191	6082.225000	1838.417969	20.607534
293.303191	6082.225000	1837.423828	-0.085311
293.303191	6082.225000	1836.429688	8.070924
293.303191	6082.225000	1835.434570	21.030035
293.303191	6082.225000	1834.440430	-42.894096
293.303191	6082.225000	1833.445313	70.955711
293.303191	6082.225000	1832.450195	-4.961890
293.303191	6082.225000	1831.454102	-44.834206
293.303191	6082.225000	1830.458984	-106.297066
293.303191	6082.225000	1829.462891	120.289124
293.303191	6082.225000	1828.466797	116.412331
293.303191	6082.225000	1827.470703	-134.592560
293.303191	6082.225000	1826.474609	-20.876007
293.303191	6082.225000	1825.478516	-19.927822
293.303191	6082.225000	1824.481445	-76.531509
293.303191	6082.225000	1823.484375	-20.431532
293.303191	6082.225000	1822.487305	-33.867706
293.303191	6082.225000	1821.490234	110.876205
293.303191	6082.225000	1820.493164	85.438324
293.303191	6082.225000	1819.495117	-90.919937
293.303191	6082.225000	1818.498047	41.774483
293.303191	6082.225000	1817.500000	54.678272
293.303191	6082.225000	1816.500977	98.702492
293.303191	6082.225000	1815.502930	44.559467
293.303191	6082.225000	1814.504883	-33.498180
293.303191	6082.225000	1813.505859	84.697212
293.303191	6082.225000	1812.506836	16.228834
293.303191	6082.225000	1811.507813	-13.941477
293.303191	6082.225000	1810.508789	97.004578
293.303191	6082.225000	1809.508789	164.866013
293.303191	6082.225000	1808.508789	125.117104
293.303191	6082.225000	1807.508789	-36.521976
293.303191	6082.225000	1806.508789	-83.390167
293.303191	6082.225000	1805.508789	20.288345
293.303191	6082.225000	1804.508789	159.760086
293.303191	6082.225000	1803.507813	272.903625
293.303191	6082.225000	1802.506836	27.799765
293.303191	6082.225000	1801.505859	2.443027
293.303191	6082.225000	1800.504883	36.771351
293.303191	6082.225000	1799.502930	49.604740
293.303191	6082.225000	1798.501953	-188.120819
293.303191	6082.225000	1797.500000	156.367050
293.303191	6082.225000	1796.498047	28.430862
293.303191	6082.225000	1795.496094	34.092518
293.303191	6082.225000	1794.493164	96.975723
293.303191	6082.225000	1793.491211	202.744034
293.303191	6082.225000	1792.488281	222.663467
293.303191	6082.225000	1791.485352	37.630211
293.303191	6082.225000	1790.482422	152.872253
293.303191	6082.225000	1789.478516	163.253525
293.303191	6082.225000	1788.475586	204.589935
293.303191	6082.225000	1787.471680	69.695839
293.303191	6082.225000	1786.467773	87.220848
293.303191	6082.225000	1785.463867	-99.973251
293.303191	6082.225000	1784.459961	131.761902
293.303191	6082.225000	1783.455078	223.018768
293.303191	6082.225000	1782.450195	114.403046
293.303191	6082.225000	1781.445313	84.317505
293.303191	6082.225000	1780.440430	25.703016
293.303191	6082.225000	1779.435547	62.212856
293.303191	6082.225000	1778.429688	96.328125
293.303191	6082.225000	1777.424805	-47.827095
293.303191	6082.225000	1776.418945	-42.226101
293.303191	6082.225000	1775.413086	127.302742
293.303191	6082.225000	1774.406250	-0.159865
293.303191	6082.225000	1773.400391	19.668879
293.303191	6082.225000	1772.393555	101.222397
293.303191	6082.225000	1771.386719	2.315888
293.303191	6082.225000	1770.379883	-136.908096
293.303191	6082.225000	1769.373047	115.483490
293.303191	6082.225000	1768.365234	-40.325130
293.303191	6082.225000	1767.358398	43.516747
293.303191	6082.225000	1766.350586	3.990362
293.303191	6082.225000	1765.342773	-16.553898
293.303191	6082.225000	1764.334961	-51.319195
293.303191	6082.225000	1763.326172	-64.741936
293.303191	6082.225000	1762.318359	-78.163269
293.303191	6082.225000	1761.309570	55.326725
293.303191	6082.225000	1760.300781	122.427574
293.303191	6082.225000	1759.291016	149.232651
293.303191	6082.225000	1758.282227	-8.693414
293.303191	6082.225000	1757.272461	51.265835
293.303191	6082.225000	1756.262695	-4.797482
293.303191	6082.225000	1755.252930	78.798248
293.303191	6082.225000	1754.243164	91.367447
293.303191	6082.225000	1753.233398	-47.490776
293.303191	6082.225000	1752.222656	-96.413551
293.303191	6082.225000	1751.211914	-83.831192
293.303191	6082.225000	1750.201172	-182.392639
293.303191	6082.225000	1749.190430	-32.688755
293.303191	6082.225000	1748.179688	-34.320610
293.303191	6082.225000	1747.167969	13.670840
293.303191	6082.225000	1746.156250	111.258141
293.303191	6082.225000	1745.144531	-138.456680
293.303191	6082.225000	1744.132813	-85.761719
293.303191	6082.225000	1743.121094	82.617416
293.303191	6082.225000	1742.108398	-32.387566
293.303191	6082.225000	1741.095703	-8.083405
293.303191	6082.225000	1740.083008	56.328720
293.303191	6082.225000	1739.070313	35.765297
293.303191	6082.225000	1738.057617	74.184814
293.303191	6082.225000	1737.043945	41.823158
293.303191	6082.225000	1736.030273	146.248123
293.303191	6082.225000	1735.016602	-4.014400
293.303191	6082.225000	1734.002930	-41.070881
293.303191	6082.225000	1732.989258	-47.477959
293.303191	6082.225000	1731.974609	59.222900
293.303191	6082.225000	1730.959961	41.009666
293.303191	6082.225000	1729.945313	72.265160
293.303191	6082.225000	1728.930664	-99.034546
293.303191	6082.225000	1727.916016	0.512399
293.303191	6082.225000	1726.900391	12.909926
293.303191	6082.225000	1725.885742	-2.946008
293.303191	6082.225000	1724.870117	51.798637
293.303191	6082.225000	1723.853516	-1.714543
293.303191	6082.225000	1722.837891	-99.906944
293.303191	6082.225000	1721.822266	88.872322
293.303191	6082.225000	1720.805664	-2.255149
293.303191	6082.225000	1719.789063	132.349319
293.303191	6082.225000	1718.772461	64.745789
293.303191	6082.225000	1717.754883	-117.994453
293.303191	6082.225000	1716.738281	91.732147
293.303191	6082.225000	1715.720703	-29.871784
293.303191	6082.225000	1714.703125	43.517014
293.303191	6082.225000	1713.685547	147.401978
293.303191	6082.225000	1712.667969	162.022385
293.303191	6082.225000	1711.649414	228.276154
293.303191	6082.225000	1710.630859	90.310806
293.303191	6082.225000	1709.612305	109.612686
293.303191	6082.225000	1708.593750	100.750175
293.303191	6082.225000	1707.575195	197.440582
293.303191	6082.225000	1706.555664	183.864517
293.303191	6082.225000	1705.536133	163.254990
293.303191	6082.225000	1704.516602	34.811237
293.303191	6082.225000	1703.497070	58.762768
293.303191	6082.225000	1702.477539	12.398677
293.303191	6082.225000	1701.457031	108.967941
293.303191	6082.225000	1700.437500	-113.084442
293.303191	6082.225000	1699.416992	-187.506638
293.303191	6082.225000	1698.395508	72.945030
293.303191	6082.225000	1697.375000	234.964584
293.303191	6082.225000	1696.354492	90.284431
293.303191	6082.225000	1695.333008	-129.232727
293.303191	6082.225000	1694.311523	74.836105
293.303191	6082.225000	1693.290039	56.582756
293.303191	6082.225000	1692.267578	-34.174000
293.303191	6082.225000	1691.246094	127.654457
293.303191	6082.225000	1690.223633	43.924900
293.303191	6082.225000	1689.201172	98.139900
293.303191	6082.225000	1688.178711	-43.987110
293.303191	6082.225000	1687.155273	94.335777
293.303191	6082.225000	1686.132813	-47.743698
293.303191	6082.225000	1685.109375	-180.429352
293.303191	6082.225000	1684.085938	-142.590149
293.303191	6082.225000	1683.062500	14.309595
293.303191	6082.225000	1682.039063	-172.014252
293.303191	6082.225000	1681.014648	-155.215118
293.303191	6082.225000	1679.990234	132.261902
293.303191	6082.225000	1678.965820	27.669260
293.303191	6082.225000	1677.941406	70.068550
293.303191	6082.225000	1676.916992	-8.824361
293.303191	6082.225000	1675.891602	-118.003708
293.303191	6082.225000	1674.866211	-136.224182
293.303191	6082.225000	1673.840820	11.046992
293.303191	6082.225000	1672.815430	-2.536817
293.303191	6082.225000	1671.790039	2.520542
293.303191	6082.225000	1670.763672	-25.040312
293.303191	6082.225000	1669.737305	-22.316334
293.303191	6082.225000	1668.710938	13.003570
293.303191	6082.225000	1667.684570	-91.380348
293.303191	6082.225000	1666.658203	-151.500748
293.303191	6082.225000	1665.630859	-2.151180
293.303191	6082.225000	1664.603516	-94.846565
293.303191	6082.225000	1663.576172	107.934639
293.303191	6082.225000	1662.548828	101.305779
293.303191	6082.225000	1661.520508	-16.944185
293.303191	6082.225000	1660.493164	97.347748
293.303191	6082.225000	1659.464844	148.830215
293.303191	6082.225000	1658.436523	184.021545
293.303191	6082.225000	1657.408203	100.691795
293.303191	6082.225000	1656.378906	19.714890
293.303191	6082.225000	1655.350586	254.659622
293.303191	6082.225000	1654.321289	27.375778
293.303191	6082.225000	1653.291992	104.338722
293.303191	6082.225000	1652.261719	165.019043
293.303191	6082.225000	1651.232422	-50.516426
293.303191	6082.225000	1650.202148	135.473724
293.303191	6082.225000	1649.171875	49.944832
293.303191	6082.225000	1648.141602	284.551270
293.303191	6082.225000	1647.111328	55.237427
293.303191	6082.225000	1646.080078	69.472450
293.303191	6082.225000	1645.049805	41.973095
293.303191	6082.225000	1644.018555	308.841583
293.303191	6082.225000	1642.987305	274.351166
293.303191	6082.225000	1641.955078	246.822479
293.303191	6082.225000	1640.923828	258.684235
293.303191	6082.225000	1639.891602	187.163193
293.303191	6082.225000	1638.859375	53.149246
293.303191	6082.225000	1637.827148	150.696198
293.303191	6082.225000	1636.794922	69.976974
293.303191	6082.225000	1635.761719	153.595474
293.303191	6082.225000	1634.729492	112.238686
293.303191	6082.225000	1633.696289	98.656784
293.303191	6082.225000	1632.662109	103.581795
293.303191	6082.225000	1631.628906	311.996613
293.303191	6082.225000	1630.594727	157.352585
293.303191	6082.225000	1629.561523	250.100372
293.303191	6082.225000	1628.527344	248.057571
293.303191	6082.225000	1627.493164	287.606750
293.303191	6082.225000	1626.458008	218.562286
293.303191	6082.225000	1625.423828	398.994476
293.303191	6082.225000	1624.388672	279.151520
293.303191	6082.225000	1623.353516	304.810577
293.303191	6082.225000	1622.318359	505.896057
293.303191	6082.225000	1621.282227	236.088028
293.303191	6082.225000	1620.247070	125.601791
293.303191	6082.225000	1619.210938	188.184631
293.303191	6082.225000	1618.174805	202.305573
293.303191	6082.225000	1617.137695	368.625671
293.303191	6082.225000	1616.101563	251.284485
293.303191	6082.225000	1615.064453	274.608459
293.303191	6082.225000	1614.027344	330.190643
293.303191	6082.225000	1612.990234	560.881653
293.303191	6082.225000	1611.953125	309.973175
293.303191	6082.225000	1610.916016	372.430542
293.303191	6082.225000	1609.877930	467.105774
293.303191	6082.225000	1608.839844	398.266235
293.303191	6082.225000	1607.801758	532.037964
293.303191	6082.225000	1606.763672	474.724274
293.303191	6082.225000	1605.724609	456.553650
293.303191	6082.225000	1604.685547	413.083954
293.303191	6082.225000	1603.646484	567.458313
293.303191	6082.225000	1602.607422	452.692963
293.303191	6082.225000	1601.568359	462.141998
293.303191	6082.225000	1600.528320	324.456757
293.303191	6082.225000	1599.489258	327.036011
293.303191	6082.225000	1598.449219	320.424042
293.303191	6082.225000	1597.408203	550.469116
293.303191	6082.225000	1596.368164	470.312622
293.303191	6082.225000	1595.327148	495.838287
293.303191	6082.225000	1594.287109	548.911621
293.303191	6082.225000	1593.246094	595.079895
293.303191	6082.225000	1592.204102	563.189880
293.303191	6082.225000	1591.163086	623.112915
293.303191	6082.225000	1590.121094	733.493042
293.303191	6082.225000	1589.079102	669.488586
293.303191	6082.225000	1588.037109	761.474670
293.303191	6082.225000	1586.995117	782.341553
293.303191	6082.225000	1585.953125	819.252869
293.303191	6082.225000	1584.910156	558.165100
293.303191	6082.225000	1583.867188	611.155273
293.303191	6082.225000	1582.824219	586.223328
293.303191	6082.225000	1581.781250	414.690247
293.303191	6082.225000	1580.737305	490.592651
293.303191	6082.225000	1579.693359	390.142120
293.303191	6082.225000	1578.649414	292.024841
293.303191	6082.225000	1577.605469	404.545532
293.303191	6082.225000	1576.561523	478.119843
293.303191	6082.225000	1575.516602	267.934845
293.303191	6082.225000	1574.472656	190.526352
293.303191	6082.225000	1573.427734	248.101913
293.303191	6082.225000	1572.381836	259.922852
293.303191	6082.225000	1571.336914	312.899536
293.303191	6082.225000	1570.291016	322.427429
293.303191	6082.225000	1569.246094	283.961823
293.303191	6082.225000	1568.200195	240.946579
293.303191	6082.225000	1567.153320	159.114731
293.303191	6082.225000	1566.107422	170.970795
293.303191	6082.225000	1565.060547	139.437225
293.303191	6082.225000	1564.013672	286.015076
293.303191	6082.225000	1562.966797	332.098511
293.303191	6082.225000	1561.919922	275.463470
293.303191	6082.225000	1560.872070	237.111572
293.303191	6082.225000	1559.825195	267.224976
293.303191	6082.225000	1558.777344	235.745239
293.303191	6082.225000	1557.729492	316.031799
293.303191	6082.225000	1556.680664	526.258667
293.303191	6082.225000	1555.632813	451.452148
293.303191	6082.225000	1554.583984	431.382477
293.303191	6082.225000	1553.535156	349.800690
293.303191	6082.225000	1552.486328	530.264526
293.303191	6082.225000	1551.436523	510.211090
293.303191	6082.225000	1550.387695	622.263367
293.303191	6082.225000	1549.337891	497.472992
293.303191	6082.225000	1548.288086	488.841858
293.303191	6082.225000	1547.238281	475.669342
293.303191	6082.225000	1546.187500	587.668579
293.303191	6082.225000	1545.136719	490.314667
293.303191	6082.225000	1544.086914	590.908325
293.303191	6082.225000	1543.035156	361.698547
293.303191	6082.225000	1541.984375	384.982391
293.303191	6082.225000	1540.933594	462.826538
293.303191	6082.225000	1539.881836	336.083252
293.303191	6082.225000	1538.830078	354.837402
293.303191	6082.225000	1537.778320	539.451416
293.303191	6082.225000	1536.725586	421.878235
293.303191	6082.225000	1535.673828	313.444672
293.303191	6082.225000	1534.621094	384.447083
293.303191	6082.225000	1533.568359	462.240875
293.303191	6082.225000	1532.515625	342.540009
293.303191	6082.225000	1531.461914	295.513702
293.303191	6082.225000	1530.409180	318.851501
293.303191	6082.225000	1529.355469	326.309418
293.303191	6082.225000	1528.301758	233.980484
293.303191	6082.225000	1527.247070	280.018402
293.303191	6082.225000	1526.193359	387.259644
293.303191	6082.225000	1525.138672	95.533936
293.303191	6082.225000	1524.083984	137.067154
293.303191	6082.225000	1523.029297	149.138657
293.303191	6082.225000	1521.974609	168.010269
293.303191	6082.225000	1520.918945	180.089600
293.303191	6082.225000	1519.863281	-16.153341
293.303191	6082.225000	1518.807617	-171.557861
293.303191	6082.225000	1517.751953	19.429838
293.303191	6082.225000	1516.696289	-68.008041
293.303191	6082.225000	1515.639648	43.710983
293.303191	6082.225000	1514.583008	-97.969528
293.303191	6082.225000	1513.526367	-29.241390
293.303191	6082.225000	1512.469727	-170.830612
293.303191	6082.225000	1511.412109	-77.225960
293.303191	6082.225000	1510.355469	-182.562958
293.303191	6082.225000	1509.297852	-50.552601
293.303191	6082.225000	1508.240234	-54.154713
293.303191	6082.225000	1507.181641	-89.371201
293.303191	6082.225000	1506.124023	-45.511509
293.303191	6082.225000	1505.065430	90.925362
293.303191	6082.225000	1504.006836	26.383360
293.303191	6082.225000	1502.948242	-90.039314
293.303191	6082.225000	1501.888672	-43.914337
293.303191	6082.225000	1500.830078	54.100101
293.303191	6082.225000	1499.770508	14.475809
293.303191	6082.225000	1498.710938	17.732355
293.303191	6082.225000	1497.650391	95.414307
293.303191	6082.225000	1496.590820	206.895615
293.303191	6082.225000	1495.530273	34.324436
293.303191	6082.225000	1494.469727	-32.244057
293.303191	6082.225000	1493.409180	43.178959
293.303191	6082.225000	1492.348633	80.286415
293.303191	6082.225000	1491.287109	54.325569
293.303191	6082.225000	1490.225586	57.661118
293.303191	6082.225000	1489.164063	18.230120
293.303191	6082.225000	1488.102539	291.714264
293.303191	6082.225000	1487.041016	69.982285
293.303191	6082.225000	1485.978516	143.113007
293.303191	6082.225000	1484.916016	252.259644
293.303191	6082.225000	1483.853516	266.833893
293.303191	6082.225000	1482.791016	391.643372
293.303191	6082.225000	1481.727539	237.629791
293.303191	6082.225000	1480.664063	312.987823
293.303191	6082.225000	1479.600586	399.528076
293.303191	6082.225000	1478.537109	310.827698
293.303191	6082.225000	1477.473633	186.247131
293.303191	6082.225000	1476.409180	194.203674
293.303191	6082.225000	1475.344727	137.116058
293.303191	6082.225000	1474.280273	176.481873
293.303191	6082.225000	1473.215820	-15.086513
293.303191	6082.225000	1472.151367	-42.930874
293.303191	6082.225000	1471.085938	243.219696
293.303191	6082.225000	1470.020508	147.917160
293.303191	6082.225000	1468.955078	100.109291
293.303191	6082.225000	1467.888672	135.152969
293.303191	6082.225000	1466.823242	89.370224
293.303191	6082.225000	1465.756836	-30.145834
293.303191	6082.225000	1464.690430	54.362244
293.303191	6082.225000	1463.624023	131.930130
293.303191	6082.225000	1462.556641	162.195541
293.303191	6082.225000	1461.490234	-8.407849
293.303191	6082.225000	1460.422852	167.516434
293.303191	6082.225000	1459.355469	95.294144
293.303191	6082.225000	1458.287109	282.167023
293.303191	6082.225000	1457.219727	94.082306
293.303191	6082.225000	1456.151367	175.822830
293.303191	6082.225000	1455.083008	299.775299
293.303191	6082.225000	1454.014648	133.067657
293.303191	6082.225000	1452.945313	138.073074
293.303191	6082.225000	1451.876953	189.036530
293.303191	6082.225000	1450.807617	201.450394
293.303191	6082.225000	1449.738281	216.638855
293.303191	6082.225000	1448.668945	349.756195
293.303191	6082.225000	1447.598633	296.027710
293.303191	6082.225000	1446.528320	293.058228
293.303191	6082.225000	1445.458008	321.776031
293.303191	6082.225000	1444.387695	333.664032
293.303191	6082.225000	1443.317383	195.589905
293.303191	6082.225000	1442.246094	294.821960
293.303191	6082.225000	1441.174805	219.747208
293.303191	6082.225000	1440.103516	256.607391
293.303191	6082.225000	1439.032227	166.470840
293.303191	6082.225000	1437.960938	124.677422
293.303191	6082.225000	1436.888672	215.802139
293.303191	6082.225000	1435.816406	144.716797
293.303191	6082.225000	1434.744141	-11.298800
293.303191	6082.225000	1433.670898	1.357708
293.303191	6082.225000	1432.598633	220.609055
293.303191	6082.225000	1431.525391	-24.473316
293.303191	6082.225000	1430.452148	63.210861
293.303191	6082.225000	1429.378906	-16.063015
293.303191	6082.225000	1428.304688	-175.488419
293.303191	6082.225000	1427.231445	72.911438
293.303191	6082.225000	1426.157227	-82.959846
293.303191	6082.225000	1425.083008	47.934460
293.303191	6082.225000	1424.007813	27.078665
293.303191	6082.225000	1422.933594	17.895746
293.303191	6082.225000	1421.858398	161.781586
293.303191	6082.225000	1420.783203	-81.511330
293.303191	6082.225000	1419.708008	-9.486426
293.303191	6082.225000	1418.631836	17.815765
293.303191	6082.225000	1417.555664	104.819572
293.303191	6082.225000	1416.479492	65.183174
293.303191	6082.225000	1415.403320	308.634094
293.303191	6082.225000	1414.327148	154.088852
293.303191	6082.225000	1413.250000	254.460068
293.303191	6082.225000	1412.173828	-48.380325
293.303191	6082.225000	1411.096680	153.539001
293.303191	6082.225000	1410.018555	224.003204
293.303191	6082.225000	1408.941406	109.793335
293.303191	6082.225000	1407.863281	6.956465
293.303191	6082.225000	1406.785156	70.230743
293.303191	6082.225000	1405.707031	56.392029
293.303191	6082.225000	1404.628906	-25.702286
293.303191	6082.225000	1403.549805	50.240437
293.303191	6082.225000	1402.470703	33.180954
293.303191	6082.225000	1401.391602	2.775972
293.303191	6082.225000	1400.312500	26.519117
293.303191	6082.225000	1399.233398	53.066120
293.303191	6082.225000	1398.153320	248.453323
293.303191	6082.225000	1397.073242	355.331360
293.303191	6082.225000	1395.993164	180.152328
293.303191	6082.225000	1394.913086	334.793671
293.303191	6082.225000	1393.832031	231.900635
293.303191	6082.225000	1392.750977	267.554474
293.303191	6082.225000	1391.669922	262.036377
293.303191	6082.225000	1390.588867	344.534302
293.303191	6082.225000	1389.506836	283.669678
293.303191	6082.225000	1388.425781	235.437851
293.303191	6082.225000	1387.343750	258.572388
293.303191	6082.225000	1386.261719	272.982117
293.303191	6082.225000	1385.178711	348.086304
293.303191	6082.225000	1384.096680	561.965149
293.303191	6082.225000	1383.013672	493.767456
293.303191	6082.225000	1381.930664	464.434082
293.303191	6082.225000	1380.846680	586.482117
293.303191	6082.225000	1379.763672	734.423706
293.303191	6082.225000	1378.679688	672.865295
293.303191	6082.225000	1377.595703	760.503113
293.303191	6082.225000	1376.511719	808.435242
293.303191	6082.225000	1375.427734	852.611328
293.303191	6082.225000	1374.342773	899.904358
293.303191	6082.225000	1373.257813	816.611755
293.303191	6082.225000	1372.172852	860.752930
293.303191	6082.225000	1371.087891	910.400085
293.303191	6082.225000	1370.001953	911.803223
293.303191	6082.225000	1368.916992	905.095459
293.303191	6082.225000	1367.831055	1005.440002
293.303191	6082.225000	1366.744141	849.895386
293.303191	6082.225000	1365.658203	903.455505
293.303191	6082.225000	1364.571289	801.385681
293.303191	6082.225000	1363.484375	829.966003
293.303191	6082.225000	1362.397461	813.143188
293.303191	6082.225000	1361.310547	589.717896
293.303191	6082.225000	1360.222656	607.090210
293.303191	6082.225000	1359.135742	664.422852
293.303191	6082.225000	1358.047852	676.179321
293.303191	6082.225000	1356.958984	681.709839
293.303191	6082.225000	1355.871094	643.445068
293.303191	6082.225000	1354.782227	525.540100
293.303191	6082.225000	1353.693359	392.017578
293.303191	6082.225000	1352.604492	454.204651
293.303191	6082.225000	1351.515625	439.697906
293.303191	6082.225000	1350.425781	367.080536
293.303191	6082.225000	1349.335938	360.907867
293.303191	6082.225000	1348.246094	390.456238
293.303191	6082.225000	1347.156250	457.258728
293.303191	6082.225000	1346.066406	490.740570
293.303191	6082.225000	1344.975586	446.818542
293.303191	6082.225000	1343.884766	318.347687
293.303191	6082.225000	1342.793945	349.378235
293.303191	6082.225000	1341.702148	375.022278
293.303191	6082.225000	1340.611328	356.577881
293.303191	6082.225000	1339.519531	531.020752
293.303191	6082.225000	1338.427734	410.241608
293.303191	6082.225000	1337.334961	367.106934
293.303191	6082.225000	1336.243164	475.370270
293.303191	6082.225000	1335.150391	331.207642
293.303191	6082.225000	1334.057617	303.240601
293.303191	6082.225000	1332.964844	252.213730
293.303191	6082.225000	1331.871094	225.835358
293.303191	6082.225000	1330.778320	62.204666
293.303191	6082.225000	1329.684570	233.625641
293.303191	6082.225000	1328.590820	100.338501
293.303191	6082.225000	1327.496094	189.694199
293.303191	6082.225000	1326.402344	134.942200
293.303191	6082.225000	1325.307617	-4.536732
293.303191	6082.225000	1324.212891	77.034164
293.303191	6082.225000	1323.117188	-0.494593
293.303191	6082.225000	1322.022461	219.005783
293.303191	6082.225000	1320.926758	76.844330
293.303191	6082.225000	1319.831055	184.572205
293.303191	6082.225000	1318.735352	46.059914
293.303191	6082.225000	1317.638672	70.593552
293.303191	6082.225000	1316.542969	80.292068
293.303191	6082.225000	1315.446289	39.977257
293.303191	6082.225000	1314.349609	209.543503
293.303191	6082.225000	1313.251953	164.861389
293.303191	6082.225000	1312.155273	40.233406
293.303191	6082.225000	1311.057617	112.323196
293.303191	6082.225000	1309.959961	38.968960
293.303191	6082.225000	1308.862305	191.351746
293.303191	6082.225000	1307.763672	41.522366
293.303191	6082.225000	1306.665039	176.337540
293.303191	6082.225000	1305.566406	126.615532
293.303191	6082.225000	1304.467773	62.009060
293.303191	6082.225000	1303.369141	-53.716339
293.303191	6082.225000	1302.269531	66.781670
293.303191	6082.225000	1301.169922	-0.807211
293.303191	6082.225000	1300.070313	-83.217468
293.303191	6082.225000	1298.970703	103.636246
293.303191	6082.225000	1297.870117	60.934193
293.303191	6082.225000	1296.769531	-43.016289
293.303191	6082.225000	1295.668945	65.444359
293.303191	6082.225000	1294.568359	15.592897
293.303191	6082.225000	1293.466797	23.513411
293.303191	6082.225000	1292.366211	132.719528
293.303191	6082.225000	1291.264648	-25.036940
293.303191	6082.225000	1290.162109	-3.454829
293.303191	6082.225000	1289.060547	-81.993683
293.303191	6082.225000	1287.958008	-14.103334
293.303191	6082.225000	1286.855469	47.912167
293.303191	6082.225000	1285.752930	-40.174828
293.303191	6082.225000	1284.650391	-12.935712
293.303191	6082.225000	1283.546875	-34.858124
293.303191	6082.225000	1282.444336	100.820976
293.303191	6082.225000	1281.339844	81.296135
293.303191	6082.225000	1280.236328	130.689972
293.303191	6082.225000	1279.132813	256.176483
293.303191	6082.225000	1278.028320	103.661583
293.303191	6082.225000	1276.923828	103.586807
293.303191	6082.225000	1275.819336	197.231323
293.303191	6082.225000	1274.713867	104.368294
293.303191	6082.225000	1273.608398	139.813705
293.303191	6082.225000	1272.503906	65.131096
293.303191	6082.225000	1271.397461	76.129898
293.303191	6082.225000	1270.291992	57.457005
293.303191	6082.225000	1269.185547	-28.420256
293.303191	6082.225000	1268.080078	1.035928
293.303191	6082.225000	1266.972656	-50.595432
293.303191	6082.225000	1265.866211	-59.953144
293.303191	6082.225000	1264.759766	-92.012566
293.303191	6082.225000	1263.652344	-154.386749
293.303191	6082.225000	1262.544922	-68.949196
293.303191	6082.225000	1261.436523	-142.083435
293.303191	6082.225000	1260.329102	-117.879173
293.303191	6082.225000	1259.220703	-57.677101
293.303191	6082.225000	1258.112305	-135.694489
293.303191	6082.225000	1257.003906	-149.756653
293.303191	6082.225000	1255.895508	-197.886627
293.303191	6082.225000	1254.786133	-126.143753
293.303191	6082.225000	1253.676758	-135.316086
293.303191	6082.225000	1252.567383	-149.568298
293.303191	6082.225000	1251.458008	-214.191513
293.303191	6082.225000	1250.347656	-20.154699
293.303191	6082.225000	1249.237305	-148.161957
293.303191	6082.225000	1248.126953	-190.191925
293.303191	6082.225000	1247.016602	-99.850159
293.303191	6082.225000	1245.905273	-122.012383
293.303191	6082.225000	1244.793945	-132.986694
293.303191	6082.225000	1243.682617	-15.152115
293.303191	6082.225000	1242.571289	-119.090790
293.303191	6082.225000	1241.459961	-83.690041
293.303191	6082.225000	1240.347656	-132.957870
293.303191	6082.225000	1239.235352	-22.037373
293.303191	6082.225000	1238.123047	-76.360779
293.303191	6082.225000	1237.009766	-139.586487
293.303191	6082.225000	1235.897461	-69.189064
293.303191	6082.225000	1234.784180	-53.306950
293.303191	6082.225000	1233.670898	-103.392326
293.303191	6082.225000	1232.556641	-144.178299
293.303191	6082.225000	1231.443359	-101.122810
293.303191	6082.225000	1230.329102	-86.786682
293.303191	6082.225000	1229.214844	-7.373073
293.303191	6082.225000	1228.099609	-17.644369
293.303191	6082.225000	1226.985352	-79.045845
293.303191	6082.225000	1225.870117	-57.299431
293.303191	6082.225000	1224.754883	83.844345
293.303191	6082.225000	1223.639648	-47.432983
293.303191	6082.225000	1222.523438	40.508545
293.303191	6082.225000	1221.408203	-86.290512
293.303191	6082.225000	1220.291992	60.012867
293.303191	6082.225000	1219.174805	-26.693735
293.303191	6082.225000	1218.058594	64.529663
293.303191	6082.225000	1216.941406	165.746765
293.303191	6082.225000	1215.824219	91.945839
293.303191	6082.225000	1214.707031	104.919250
293.303191	6082.225000	1213.589844	86.242577
293.303191	6082.225000	1212.471680	56.989864
293.303191	6082.225000	1211.353516	50.808533
293.303191	6082.225000	1210.235352	40.038334
293.303191	6082.225000	1209.117188	46.290489
293.303191	6082.225000	1207.998047	52.559444
293.303191	6082.225000	1206.878906	104.013634
293.303191	6082.225000	1205.759766	33.424442
293.303191	6082.225000	1204.640625	-32.946518
293.303191	6082.225000	1203.520508	79.751160
293.303191	6082.225000	1202.401367	82.365685
293.303191	6082.225000	1201.281250	137.466125
293.303191	6082.225000	1200.160156	28.272106
293.303191	6082.225000	1199.040039	71.432625
293.303191	6082.225000	1197.918945	-20.039408
293.303191	6082.225000	1196.797852	-10.963825
293.303191	6082.225000	1195.676758	207.847748
293.303191	6082.225000	1194.555664	98.267296
293.303191	6082.225000	1193.433594	98.281433
293.303191	6082.225000	1192.311523	22.004412
293.303191	6082.225000	1191.189453	72.156364
293.303191	6082.225000	1190.066406	50.508072
293.303191	6082.225000	1188.944336	-76.083885
293.303191	6082.225000	1187.821289	-6.828812
293.303191	6082.225000	1186.698242	32.106808
293.303191	6082.225000	1185.574219	60.448833
293.303191	6082.225000	1184.451172	74.048981
293.303191	6082.225000	1183.327148	75.708176
293.303191	6082.225000	1182.203125	-73.509575
293.303191	6082.225000	1181.078125	1.628895
293.303191	6082.225000	1179.954102	93.256577
293.303191	6082.225000	1178.829102	-14.776781
293.303191	6082.225000	1177.704102	36.002491
293.303191	6082.225000	1176.579102	-48.203541
293.303191	6082.225000	1175.453125	-14.441499
293.303191	6082.225000	1174.327148	25.642679
293.303191	6082.225000	1173.201172	75.283768
293.303191	6082.225000	1172.075195	109.622322
293.303191	6082.225000	1170.949219	228.402390
293.303191	6082.225000	1169.822266	289.238953
293.303191	6082.225000	1168.695313	193.956314
293.303191	6082.225000	1167.568359	287.479675
293.303191	6082.225000	1166.440430	449.196991
293.303191	6082.225000	1165.313477	430.795013
293.303191	6082.225000	1164.185547	438.885162
293.303191	6082.225000	1163.057617	504.662354
293.303191	6082.225000	1161.928711	413.930511
293.303191	6082.225000	1160.800781	576.172363
293.303191	6082.225000	1159.671875	425.182343
293.303191	6082.225000	1158.541992	376.791962
293.303191	6082.225000	1157.413086	262.024933
293.303191	6082.225000	1156.283203	223.964294
293.303191	6082.225000	1155.154297	332.181183
293.303191	6082.225000	1154.023438	224.946869
293.303191	6082.225000	1152.893555	100.422089
293.303191	6082.225000	1151.763672	296.358978
293.303191	6082.225000	1150.632813	177.501877
293.303191	6082.225000	1149.501953	163.260117
293.303191	6082.225000	1148.370117	116.948799
293.303191	6082.225000	1147.239258	147.485382
293.303191	6082.225000	1146.107422	219.898560
293.303191	6082.225000	1144.975586	128.171432
293.303191	6082.225000	1143.843750	247.799072
293.303191	6082.225000	1142.710938	199.203964
293.303191	6082.225000	1141.578125	242.558212
293.303191	6082.225000	1140.445313	199.581482
293.303191	6082.225000	1139.312500	225.088638
293.303191	6082.225000	1138.178711	17.513424
293.303191	6082.225000	1137.045898	30.324133
293.303191	6082.225000	1135.912109	62.095306
293.303191	6082.225000	1134.777344	58.679409
293.303191	6082.225000	1133.643555	59.919300
293.303191	6082.225000	1132.508789	180.375809
293.303191	6082.225000	1131.374023	53.660034
293.303191	6082.225000	1130.239258	37.753380
293.303191	6082.225000	1129.104492	7.459493
293.303191	6082.225000	1127.968750	136.877594
293.303191	6082.225000	1126.833008	33.940086
293.303191	6082.225000	1125.697266	-91.409218
293.303191	6082.225000	1124.560547	87.817047
293.303191	6082.225000	1123.424805	99.065384
293.303191	6082.225000	1122.288086	138.031769
293.303191	6082.225000	1121.151367	18.069542
293.303191	6082.225000	1120.013672	-166.898865
293.303191	6082.225000	1118.876953	23.478848
293.303191	6082.225000	1117.739258	12.348323
293.303191	6082.225000	1116.601563	82.751907
293.303191	6082.225000	1115.462891	-97.818672
293.303191	6082.225000	1114.324219	1.968982
293.303191	6082.225000	1113.186523	88.960976
293.303191	6082.225000	1112.046875	85.109573
293.303191	6082.225000	1110.908203	96.593781
293.303191	6082.225000	1109.769531	20.492235
293.303191	6082.225000	1108.629883	-39.897713
293.303191	6082.225000	1107.490234	-7.252896
293.303191	6082.225000	1106.349609	27.219152
293.303191	6082.225000	1105.209961	-89.676949
293.303191	6082.225000	1104.069336	84.430374
293.303191	6082.225000	1102.928711	-47.025822
293.303191	6082.225000	1101.787109	11.138514
293.303191	6082.225000	1100.646484	72.471214
293.303191	6082.225000	1099.504883	-12.144958
293.303191	6082.225000	1098.363281	-13.531800
293.303191	6082.225000	1097.221680	58.016720
293.303191	6082.225000	1096.079102	149.290085
293.303191	6082.225000	1094.936523	110.749725
293.303191	6082.225000	1093.793945	70.126099
293.303191	6082.225000	1092.651367	189.539780
293.303191	6082.225000	1091.507813	22.351025
293.303191	6082.225000	1090.364258	-20.851740
293.303191	6082.225000	1089.220703	82.102852
293.303191	6082.225000	1088.077148	64.723091
293.303191	6082.225000	1086.933594	83.465004
293.303191	6082.225000	1085.789063	103.154640
293.303191	6082.225000	1084.644531	50.758888
293.303191	6082.225000	1083.499023	-12.207746
293.303191	6082.225000	1082.354492	94.105057
293.303191	6082.225000	1081.208984	72.248314
293.303191	6082.225000	1080.063477	183.162064
293.303191	6082.225000	1078.917969	60.522579
293.303191	6082.225000	1077.771484	118.476173
293.303191	6082.225000	1076.625977	236.545120
293.303191	6082.225000	1075.479492	354.229584
293.303191	6082.225000	1074.332031	197.141815
293.303191	6082.225000	1073.185547	307.346649
293.303191	6082.225000	1072.038086	152.868607
293.303191	6082.225000	1070.890625	200.410980
293.303191	6082.225000	1069.743164	111.415665
293.303191	6082.225000	1068.594727	96.350716
293.303191	6082.225000	1067.447266	172.618408
293.303191	6082.225000	1066.298828	200.397003
293.303191	6082.225000	1065.149414	172.136200
293.303191	6082.225000	1064.000977	90.143600
293.303191	6082.225000	1062.851563	34.620865
293.303191	6082.225000	1061.702148	87.311401
293.303191	6082.225000	1060.552734	182.346069
293.303191	6082.225000	1059.402344	176.883316
293.303191	6082.225000	1058.252930	147.379700
293.303191	6082.225000	1057.102539	111.889893
293.303191	6082.225000	1055.951172	-63.845421
293.303191	6082.225000	1054.800781	-12.421348
293.303191	6082.225000	1053.649414	46.985748
293.303191	6082.225000	1052.498047	52.881054
293.303191	6082.225000	1051.346680	222.749451
293.303191	6082.225000	1050.194336	42.620388
293.303191	6082.225000	1049.042969	-19.274496
293.303191	6082.225000	1047.890625	23.292658
293.303191	6082.225000	1046.738281	-128.697830
293.303191	6082.225000	1045.584961	-99.532913
293.303191	6082.225000	1044.431641	-141.665848
293.303191	6082.225000	1043.278320	-36.416447
293.303191	6082.225000	1042.125000	-43.089375
293.303191	6082.225000	1040.971680	83.355423
293.303191	6082.225000	1039.817383	-152.134674
293.303191	6082.225000	1038.663086	125.546692
293.303191	6082.225000	1037.508789	76.110489
293.303191	6082.225000	1036.353516	-6.871428
293.303191	6082.225000	1035.198242	-18.629581
293.303191	6082.225000	1034.042969	26.685169
293.303191	6082.225000	1032.887695	-56.280666
293.303191	6082.225000	1031.732422	-6.333219
293.303191	6082.225000	1030.576172	76.182365
293.303191	6082.225000	1029.419922	62.301701
293.303191	6082.225000	1028.263672	39.360748
293.303191	6082.225000	1027.106445	71.103706
293.303191	6082.225000	1025.949219	3.717077
293.303191	6082.225000	1024.792969	6.340053
293.303191	6082.225000	1023.634766	-12.989721
293.303191	6082.225000	1022.477539	51.608620
293.303191	6082.225000	1021.319336	72.786957
293.303191	6082.225000	1020.161133	-69.005943
293.303191	6082.225000	1019.002930	25.739222
293.303191	6082.225000	1017.843750	-88.305672
293.303191	6082.225000	1016.684570	-12.270947
293.303191	6082.225000	1015.525391	-41.761059
293.303191	6082.225000	1014.366211	-68.878998
293.303191	6082.225000	1013.207031	40.243912
293.303191	6082.225000	1012.046875	86.902084
293.303191	6082.225000	1010.886719	18.923721
293.303191	6082.225000	1009.726563	44.219513
293.303191	6082.225000	1008.565430	-95.415672
293.303191	6082.225000	1007.404297	-55.884068
293.303191	6082.225000	1006.243164	22.641514
293.303191	6082.225000	1005.082031	6.846162
293.303191	6082.225000	1003.920898	-64.618713
293.303191	6082.225000	1002.758789	19.336653
293.303191	6082.225000	1001.596680	38.399902
293.303191	6082.225000	1000.433594	-56.597996
293.303191	6082.225000	999.271484	94.475082
293.303191	6082.225000	998.108398	26.479259
293.303191	6082.225000	996.945313	202.259933
293.303191	6082.225000	995.782227	144.009018
293.303191	6082.225000	994.618164	113.179054
293.303191	6082.225000	993.454102	121.694534
293.303191	6082.225000	992.290039	197.972504
293.303191	6082.225000	991.125977	-118.107620
293.303191	6082.225000	989.960938	1.376888
293.303191	6082.225000	988.796875	92.381996
293.303191	6082.225000	987.630859	35.289501
293.303191	6082.225000	986.465820	-64.709557
293.303191	6082.225000	985.300781	-11.632900
293.303191	6082.225000	984.134766	-71.306381
293.303191	6082.225000	982.968750	-58.598404
293.303191	6082.225000	981.801758	-36.577023
293.303191	6082.225000	980.635742	-211.585999
293.303191	6082.225000	979.468750	-86.013412
293.303191	6082.225000	978.301758	-113.709114
293.303191	6082.225000	977.133789	44.009327
293.303191	6082.225000	975.966797	51.264008
293.303191	6082.225000	974.798828	34.785442
293.303191	6082.225000	973.630859	-16.394825
293.303191	6082.225000	972.461914	-3.329265
293.303191	6082.225000	971.293945	4.740505
293.303191	6082.225000	970.125000	50.364288
293.303191	6082.225000	968.956055	-16.401449
293.303191	6082.225000	967.786133	64.614929
293.303191	6082.225000	966.617188	-177.852585
293.303191	6082.225000	965.447266	4.001663
293.303191	6082.225000	964.276367	-93.414116
293.303191	6082.225000	963.106445	-141.976715
293.303191	6082.225000	961.935547	-141.297546
293.303191	6082.225000	960.764648	27.475803
293.303191	6082.225000	959.593750	13.503041
293.303191	6082.225000	958.422852	-166.000458
293.303191	6082.225000	957.250977	-93.190727
293.303191	6082.225000	956.079102	20.909145
293.303191	6082.225000	954.907227	16.625872
293.303191	6082.225000	953.734375	32.577320
293.303191	6082.225000	952.562500	-83.996529
293.303191	6082.225000	951.389648	-152.057266
293.303191	6082.225000	950.215820	-50.860207
293.303191	6082.225000	949.042969	44.640301
293.303191	6082.225000	947.869141	31.094471
293.303191	6082.225000	946.695313	-96.859604
293.303191	6082.225000	945.521484	-104.863472
293.303191	6082.225000	944.346680	105.234375
293.303191	6082.225000	943.172852	-11.794265
293.303191	6082.225000	941.998047	37.525967
293.303191	6082.225000	940.822266	34.923122
293.303191	6082.225000	939.647461	-19.585371
293.303191	6082.225000	938.471680	133.141342
293.303191	6082.225000	937.295898	114.161804
293.303191	6082.225000	936.119141	46.137749
293.303191	6082.225000	934.943359	38.028049
293.303191	6082.225000	933.766602	225.955948
293.303191	6082.225000	932.589844	8.193852
293.303191	6082.225000	931.413086	38.192989
293.303191	6082.225000	930.235352	13.726894
293.303191	6082.225000	929.057617	122.701294
293.303191	6082.225000	927.879883	57.400909
293.303191	6082.225000	926.702148	111.856529
293.303191	6082.225000	925.523438	188.076050
293.303191	6082.225000	924.344727	65.680550
293.303191	6082.225000	923.166016	54.844879
293.303191	6082.225000	921.987305	-53.888451
293.303191	6082.225000	920.807617	190.899078
293.303191	6082.225000	919.627930	192.108353
293.303191	6082.225000	919.497070	60.566551
293.303191	6082.225000	918.331055	163.880432
293.303191	6082.225000	917.165039	68.776878
293.303191	6082.225000	915.999023	57.930241
293.303191	6082.225000	914.833008	-18.107691
293.303191	6082.225000	913.666016	120.427277
293.303191	6082.225000	912.499023	-61.493153
293.303191	6082.225000	911.332031	-1.739069
293.303191	6082.225000	910.165039	76.985458
293.303191	6082.225000	908.997070	-47.842010
293.303191	6082.225000	907.830078	-36.973385
293.303191	6082.225000	906.661133	-156.309067
293.303191	6082.225000	905.493164	-23.394878
293.303191	6082.225000	904.325195	49.811661
293.303191	6082.225000	903.156250	-26.107897
293.303191	6082.225000	901.987305	120.239067
293.303191	6082.225000	900.818359	38.908737
293.303191	6082.225000	899.648438	71.391815
293.303191	6082.225000	898.478516	198.658585
293.303191	6082.225000	897.308594	147.139221
293.303191	6082.225000	896.138672	222.888947
293.303191	6082.225000	894.968750	122.653381
293.303191	6082.225000	893.797852	214.608276
293.303191	6082.225000	892.626953	274.052521
293.303191	6082.225000	891.456055	152.215134
293.303191	6082.225000	890.284180	68.290901
293.303191	6082.225000	889.113281	233.179382
293.303191	6082.225000	887.941406	51.935150
293.303191	6082.225000	886.768555	108.631454
293.303191	6082.225000	885.596680	103.142479
293.303191	6082.225000	884.423828	-21.233570
293.303191	6082.225000	883.250977	11.119110
293.303191	6082.225000	882.078125	-67.279930
293.303191	6082.225000	880.905273	37.970200
293.303191	6082.225000	879.731445	-75.505577
293.303191	6082.225000	878.557617	134.965195
293.303191	6082.225000	877.383789	-72.944138
293.303191	6082.225000	876.209961	18.716637
293.303191	6082.225000	875.035156	-11.052089
293.303191	6082.225000	873.860352	32.006134
293.303191	6082.225000	872.685547	-111.010536
293.303191	6082.225000	871.510742	-16.734921
293.303191	6082.225000	870.334961	-54.571411
293.303191	6082.225000	869.159180	-89.702034
293.303191	6082.225000	867.983398	-41.300117
293.303191	6082.225000	866.807617	-33.327091
293.303191	6082.225000	865.630859	17.730108
293.303191	6082.225000	864.454102	87.610367
293.303191	6082.225000	863.277344	63.237999
293.303191	6082.225000	862.100586	33.488979
293.303191	6082.225000	860.922852	-31.232529
293.303191	6082.225000	859.745117	-17.910776
293.303191	6082.225000	858.567383	-195.574570
293.303191	6082.225000	857.389648	89.383492
293.303191	6082.225000	856.210938	129.549683
293.303191	6082.225000	855.032227	-126.002113
293.303191	6082.225000	853.853516	91.566460
293.303191	6082.225000	852.674805	18.839872
293.303191	6082.225000	851.495117	-48.486744
293.303191	6082.225000	850.315430	93.714691
293.303191	6082.225000	849.135742	149.921219
293.303191	6082.225000	847.956055	90.652351
293.303191	6082.225000	846.775391	71.669624
293.303191	6082.225000	845.595703	125.150604
293.303191	6082.225000	844.415039	98.111542
293.303191	6082.225000	843.233398	122.049957
293.303191	6082.225000	842.052734	44.055069
293.303191	6082.225000	840.871094	78.713890
293.303191	6082.225000	839.689453	-85.038857
293.303191	6082.225000	838.506836	62.202881
293.303191	6082.225000	837.325195	21.788090
293.303191	6082.225000	836.142578	101.956100
293.303191	6082.225000	834.959961	66.899956
293.303191	6082.225000	833.777344	-24.388664
293.303191	6082.225000	832.593750	-48.701019
293.303191	6082.225000	831.410156	79.588554
293.303191	6082.225000	830.226563	-25.040468
293.303191	6082.225000	829.042969	33.606701
293.303191	6082.225000	827.858398	-6.766579
293.303191	6082.225000	826.673828	-92.600548
293.303191	6082.225000	825.489258	-50.033913
293.303191	6082.225000	824.304688	-162.570602
293.303191	6082.225000	823.120117	-50.510475
293.303191	6082.225000	821.934570	5.372285
293.303191	6082.225000	820.749023	7.784903
293.303191	6082.225000	819.562500	68.967812
293.303191	6082.225000	818.376953	15.265227
293.303191	6082.225000	817.190430	39.025234
293.303191	6082.225000	816.003906	97.480469
293.303191	6082.225000	814.817383	-6.926729
293.303191	6082.225000	813.629883	171.603622
293.303191	6082.225000	812.442383	-39.516628
293.303191	6082.225000	811.254883	216.302307
293.303191	6082.225000	810.067383	-0.083642
293.303191	6082.225000	808.878906	-40.385757
293.303191	6082.225000	807.690430	148.608109
293.303191	6082.225000	806.501953	-19.664093
293.303191	6082.225000	805.313477	67.967995
293.303191	6082.225000	804.124023	-1.642469
293.303191	6082.225000	802.934570	-105.860466
293.303191	6082.225000	801.745117	-39.586437
293.303191	6082.225000	800.555664	-23.938114
293.303191	6082.225000	799.365234	-26.936369
293.303191	6082.225000	798.175781	-192.302307
293.303191	6082.225000	796.985352	-59.557125
293.303191	6082.225000	795.793945	51.843540
293.303191	6082.225000	794.603516	75.411034
293.303191	6082.225000	793.412109	-34.010643
293.303191	6082.225000	792.220703	-114.144348
293.303191	6082.225000	791.028320	90.196999
293.303191	6082.225000	789.836914	-29.807743
293.303191	6082.225000	788.644531	185.049164
293.303191	6082.225000	787.452148	-123.564987
293.303191	6082.225000	786.258789	-46.909920
293.303191	6082.225000	785.066406	-18.094820
293.303191	6082.225000	783.873047	-15.848027
293.303191	6082.225000	782.679688	-122.443649
293.303191	6082.225000	781.485352	105.400085
293.303191	6082.225000	780.291992	102.294235
293.303191	6082.225000	779.097656	101.837082
293.303191	6082.225000	777.903320	-7.371447
293.303191	6082.225000	776.708008	-82.067657
293.303191	6082.225000	775.512695	-26.829355
293.303191	6082.225000	774.318359	118.501534
293.303191	6082.225000	773.122070	-27.746719
293.303191	6082.225000	771.926758	-14.967465
293.303191	6082.225000	770.730469	191.178711
293.303191	6082.225000	769.534180	29.095484
293.303191	6082.225000	768.337891	110.680733
293.303191	6082.225000	767.141602	17.498842
293.303191	6082.225000	765.944336	91.098114
293.303191	6082.225000	764.747070	58.809490
293.303191	6082.225000	763.549805	76.795494
293.303191	6082.225000	762.351563	-63.942951
293.303191	6082.225000	761.154297	1.649225
293.303191	6082.225000	759.956055	257.579773
293.303191	6082.225000	758.757813	66.642097
293.303191	6082.225000	757.558594	89.857071
293.303191	6082.225000	756.359375	-74.556602
293.303191	6082.225000	755.160156	56.978622
293.303191	6082.225000	753.960938	-49.266811
293.303191	6082.225000	752.761719	174.619629
293.303191	6082.225000	751.561523	179.267197
293.303191	6082.225000	750.361328	-27.268459
293.303191	6082.225000	749.160156	167.419250
293.303191	6082.225000	747.959961	19.004198
293.303191	6082.225000	746.758789	168.738617
293.303191	6082.225000	745.557617	260.377380
293.303191	6082.225000	744.356445	96.189476
293.303191	6082.225000	743.154297	171.970123
293.303191	6082.225000	741.952148	71.111908
293.303191	6082.225000	740.750000	99.414070
293.303191	6082.225000	739.547852	77.636314
293.303191	6082.225000	738.344727	-15.263557
293.303191	6082.225000	737.142578	181.563248
293.303191	6082.225000	735.939453	36.001667
293.303191	6082.225000	734.735352	87.929535
293.303191	6082.225000	733.532227	168.778198
293.303191	6082.225000	732.328125	125.907661
293.303191	6082.225000	731.124023	154.078720
293.303191	6082.225000	729.918945	-28.195677
293.303191	6082.225000	728.714844	-86.805420
293.303191	6082.225000	727.509766	133.295959
293.303191	6082.225000	726.303711	-88.318382
293.303191	6082.225000	725.098633	-7.617889
293.303191	6082.225000	723.892578	73.039078
293.303191	6082.225000	722.686523	66.961235
293.303191	6082.225000	721.480469	131.790100
293.303191	6082.225000	720.274414	49.530510
293.303191	6082.225000	719.067383	-56.332512
293.303191	6082.225000	717.860352	16.325708
293.303191	6082.225000	716.653320	-31.773218
293.303191	6082.225000	715.445313	132.658463
293.303191	6082.225000	714.238281	11.086047
293.303191	6082.225000	713.030273	70.513817
293.303191	6082.225000	711.821289	135.151154
293.303191	6082.225000	710.613281	81.781761
293.303191	6082.225000	709.404297	2.214567
293.303191	6082.225000	708.195313	-124.496986
293.303191	6082.225000	706.986328	-17.999443
293.303191	6082.225000	705.776367	117.255142
293.303191	6082.225000	704.566406	-56.571842
293.303191	6082.225000	703.356445	-54.916492
293.303191	6082.225000	702.146484	90.697693
293.303191	6082.225000	700.935547	94.915802
293.303191	6082.225000	699.724609	49.406090
293.303191	6082.225000	698.513672	-74.576614
293.303191	6082.225000	697.302734	18.564802
293.303191	6082.225000	696.090820	22.748344
293.303191	6082.225000	694.878906	-103.799583
293.303191	6082.225000	693.666992	-10.745057
293.303191	6082.225000	692.455078	152.816177
293.303191	6082.225000	691.242188	41.961765
293.303191	6082.225000	690.029297	145.340012
293.303191	6082.225000	688.816406	-9.887498
293.303191	6082.225000	687.602539	-18.841885
293.303191	6082.225000	686.389648	-87.846489
293.303191	6082.225000	685.175781	119.822807
293.303191	6082.225000	683.960938	123.857826
293.303191	6082.225000	682.747070	-44.306908
293.303191	6082.225000	681.532227	53.635689
293.303191	6082.225000	680.317383	-57.096649
293.303191	6082.225000	679.102539	14.710889
293.303191	6082.225000	677.886719	31.735458
293.303191	6082.225000	676.670898	-32.049793
293.303191	6082.225000	675.455078	-74.975456
293.303191	6082.225000	674.239258	77.481377
293.303191	6082.225000	673.022461	-20.168667
293.303191	6082.225000	671.805664	-104.770752
293.303191	6082.225000	670.588867	16.317677
293.303191	6082.225000	669.372070	82.683014
293.303191	6082.225000	668.154297	-64.379959
293.303191	6082.225000	666.936523	-3.254461
293.303191	6082.225000	665.718750	120.260666
293.303191	6082.225000	664.500977	121.480843
293.303191	6082.225000	663.282227	159.088974
293.303191	6082.225000	662.063477	-37.290264
293.303191	6082.225000	660.844727	-46.471844
293.303191	6082.225000	659.625000	-8.890537
293.303191	6082.225000	658.405273	18.270237
293.303191	6082.225000	657.185547	14.238502
293.303191	6082.225000	655.965820	147.825775
293.303191	6082.225000	654.745117	32.104092
293.303191	6082.225000	653.525391	69.564148
293.303191	6082.225000	652.303711	-25.357292
293.303191	6082.225000	651.083008	-76.142883
293.303191	6082.225000	649.861328	161.019852
293.303191	6082.225000	648.640625	37.571899
293.303191	6082.225000	647.417969	-0.269339
293.303191	6082.225000	646.196289	26.702589
293.303191	6082.225000	644.973633	302.469513
293.303191	6082.225000	643.750977	93.530289
293.303191	6082.225000	642.528320	-3.930008
293.303191	6082.225000	641.305664	170.610611
293.303191	6082.225000	640.082031	119.763168
293.303191	6082.225000	638.858398	151.776047
293.303191	6082.225000	637.634766	-93.214973
293.303191	6082.225000	636.410156	88.909386
293.303191	6082.225000	635.185547	141.569458
293.303191	6082.225000	633.960938	300.258911
293.303191	6082.225000	632.736328	101.947510
293.303191	6082.225000	631.510742	76.957642
293.303191	6082.225000	630.285156	114.012894
293.303191	6082.225000	629.059570	130.361847
293.303191	6082.225000	627.833984	149.275543
293.303191	6082.225000	626.607422	137.164200
293.303191	6082.225000	625.380859	-6.691878
293.303191	6082.225000	624.154297	146.492996
293.303191	6082.225000	622.927734	155.008926
293.303191	6082.225000	621.700195	80.901840
293.303191	6082.225000	620.472656	99.726006
293.303191	6082.225000	619.245117	-15.648402
293.303191	6082.225000	618.016602	212.128250
293.303191	6082.225000	616.788086	34.851967
293.303191	6082.225000	615.559570	-26.318996
293.303191	6082.225000	614.331055	7.915728
293.303191	6082.225000	613.101563	-53.248058
293.303191	6082.225000	611.872070	32.494957
293.303191	6082.225000	610.642578	-0.330250
293.303191	6082.225000	609.413086	10.638709
293.303191	6082.225000	608.182617	44.769482
293.303191	6082.225000	606.952148	45.400139
293.303191	6082.225000	605.721680	33.147949
293.303191	6082.225000	604.491211	-51.176933
293.303191	6082.225000	603.259766	8.623673
293.303191	6082.225000	602.028320	117.268745
293.303191	6082.225000	600.796875	128.114822
293.303191	6082.225000	599.564453	126.086632
293.303191	6082.225000	598.332031	-27.644184
293.303191	6082.225000	597.099609	163.127548
293.303191	6082.225000	595.867188	207.319427
293.303191	6082.225000	594.633789	102.455750
293.303191	6082.225000	593.400391	133.775101
293.303191	6082.225000	592.166992	167.639389
293.303191	6082.225000	590.933594	227.156158
293.303191	6082.225000	589.699219	137.737885
293.303191	6082.225000	588.464844	35.513805
293.303191	6082.225000	587.230469	143.746231
293.303191	6082.225000	585.995117	226.265594
293.303191	6082.225000	584.760742	52.237061
293.303191	6082.225000	583.525391	-6.326096
293.303191	6082.225000	582.289063	68.450737
293.303191	6082.225000	581.053711	48.340675
293.303191	6082.225000	579.817383	115.366234
293.303191	6082.225000	578.581055	146.481430
293.303191	6082.225000	577.343750	146.832565
293.303191	6082.225000	576.107422	37.042912
293.303191	6082.225000	574.870117	-11.253736
293.303191	6082.225000	573.631836	14.703960
293.303191	6082.225000	572.394531	2.248790
293.303191	6082.225000	571.156250	156.126328
293.303191	6082.225000	569.917969	89.900482
293.303191	6082.225000	568.679688	21.136341
293.303191	6082.225000	567.440430	59.802906
293.303191	6082.225000	566.202148	-47.294312
293.303191	6082.225000	564.961914	-13.759774
293.303191	6082.225000	563.722656	-169.371094
293.303191	6082.225000	562.482422	-8.080529
293.303191	6082.225000	561.243164	239.993149
293.303191	6082.225000	560.001953	35.873833
293.303191	6082.225000	558.761719	89.744911
293.303191	6082.225000	557.520508	51.676537
293.303191	6082.225000	556.279297	-19.565163
293.303191	6082.225000	555.038086	-24.433680
293.303191	6082.225000	553.795898	-11.447859
293.303191	6082.225000	552.554688	-23.982258
293.303191	6082.225000	551.311523	-8.466712
293.303191	6082.225000	550.069336	60.581093
293.303191	6082.225000	548.826172	-161.016342
293.303191	6082.225000	547.583984	-84.332253
293.303191	6082.225000	546.339844	35.628254
293.303191	6082.225000	545.096680	-2.416624
293.303191	6082.225000	543.852539	-119.409554
293.303191	6082.225000	542.608398	48.845802
293.303191	6082.225000	541.364258	-14.655345
293.303191	6082.225000	540.119141	-24.683859
293.303191	6082.225000	538.875000	0.915062
293.303191	6082.225000	537.628906	-154.148926
293.303191	6082.225000	536.383789	13.904424
293.303191	6082.225000	535.137695	-57.182064
293.303191	6082.225000	533.892578	-29.078775
293.303191	6082.225000	532.645508	52.389702
293.303191	6082.225000	531.399414	-11.050542
293.303191	6082.225000	530.152344	50.040031
293.303191	6082.225000	528.905273	113.639488
293.303191	6082.225000	527.658203	34.970535
293.303191	6082.225000	526.410156	169.637711
293.303191	6082.225000	525.163086	154.451111
293.303191	6082.225000	523.914063	245.872162
293.303191	6082.225000	522.666016	50.484917
293.303191	6082.225000	521.416992	-58.560253
293.303191	6082.225000	520.167969	-68.633446
293.303191	6082.225000	518.918945	-76.171661
293.303191	6082.225000	517.669922	-126.816017
293.303191	6082.225000	516.419922	-53.228668
293.303191	6082.225000	515.169922	-96.264099
293.303191	6082.225000	513.919922	-83.539536
293.303191	6082.225000	512.668945	-10.025258
293.303191	6082.225000	511.417969	7.729396
293.303191	6082.225000	510.166992	-73.288322
293.303191	6082.225000	508.916016	-58.070179
293.303191	6082.225000	507.664063	-90.958107
293.303191	6082.225000	506.412109	-93.468742
293.303191	6082.225000	505.160156	-88.394173
293.303191	6082.225000	503.907227	-65.621307
293.303191	6082.225000	502.655273	-15.043682
293.303191	6082.225000	501.402344	-126.318314
293.303191	6082.225000	500.148438	-42.900429
293.303191	6082.225000	498.895508	-12.599130
293.303191	6082.225000	497.641602	15.155079
293.303191	6082.225000	496.387695	-169.320526
293.303191	6082.225000	495.132813	75.657341
293.303191	6082.225000	493.878906	-33.009003
293.303191	6082.225000	492.624023	65.387535
293.303191	6082.225000	491.368164	-68.488266
293.303191	6082.225000	490.113281	-48.373764
293.303191	6082.225000	488.857422	-114.060966
293.303191	6082.225000	487.601563	82.613022
293.303191	6082.225000	486.344727	-0.746299
293.303191	6082.225000	485.088867	21.822435
293.303191	6082.225000	483.832031	36.807850
293.303191	6082.225000	482.575195	-38.955334
293.303191	6082.225000	481.317383	81.846786
293.303191	6082.225000	480.059570	89.220291
293.303191	6082.225000	478.801758	26.054884
293.303191	6082.225000	477.543945	-21.985340
293.303191	6082.225000	476.285156	15.580391
293.303191	6082.225000	475.027344	-27.427240
293.303191	6082.225000	473.767578	93.142487
293.303191	6082.225000	472.508789	85.332123
293.303191	6082.225000	471.249023	69.963402
293.303191	6082.225000	469.989258	89.794739
293.303191	6082.225000	468.729492	16.571110
293.303191	6082.225000	467.469727	-46.582153
293.303191	6082.225000	466.208984	56.149906
293.303191	6082.225000	464.948242	-54.762451
293.303191	6082.225000	463.686523	-42.548786
293.303191	6082.225000	462.425781	145.457245
293.303191	6082.225000	461.164063	119.916824
293.303191	6082.225000	459.901367	199.808563
293.303191	6082.225000	458.639648	46.213371
293.303191	6082.225000	457.376953	23.154034
293.303191	6082.225000	456.114258	235.921494
293.303191	6082.225000	454.851563	109.938637
293.303191	6082.225000	453.587891	46.679604
293.303191	6082.225000	452.324219	224.123764
293.303191	6082.225000	451.060547	48.008820
293.303191	6082.225000	449.796875	142.613953
293.303191	6082.225000	448.532227	-18.433098
293.303191	6082.225000	447.267578	156.247833
293.303191	6082.225000	446.002930	-19.823977
293.303191	6082.225000	444.737305	222.324249
293.303191	6082.225000	443.471680	191.448593
293.303191	6082.225000	442.206055	-24.670547
293.303191	6082.225000	440.940430	137.134399
293.303191	6082.225000	439.673828	-13.908740
293.303191	6082.225000	438.407227	52.690933
293.303191	6082.225000	437.140625	164.234131
293.303191	6082.225000	435.873047	28.156981
293.303191	6082.225000	434.605469	19.578709
293.303191	6082.225000	433.337891	153.411224
293.303191	6082.225000	432.070313	-12.700687
293.303191	6082.225000	430.801758	26.051279
293.303191	6082.225000	429.533203	224.577805
293.303191	6082.225000	428.264648	135.806229
293.303191	6082.225000	426.996094	74.477783
293.303191	6082.225000	425.726563	95.481934
293.303191	6082.225000	424.457031	121.406555
293.303191	6082.225000	423.186523	12.532996
293.303191	6082.225000	421.916992	85.729164
293.303191	6082.225000	420.646484	39.122673
293.303191	6082.225000	419.375977	94.689522
293.303191	6082.225000	418.104492	107.781891
293.303191	6082.225000	416.833008	125.778572
293.303191	6082.225000	415.561523	116.283043
293.303191	6082.225000	414.290039	243.720505
293.303191	6082.225000	413.017578	-32.448471
293.303191	6082.225000	411.746094	102.269371
293.303191	6082.225000	410.472656	154.682999
293.303191	6082.225000	409.200195	97.473961
293.303191	6082.225000	407.926758	30.239710
293.303191	6082.225000	406.653320	-34.574154
293.303191	6082.225000	405.379883	-7.430158
293.303191	6082.225000	404.105469	-15.218843
293.303191	6082.225000	402.831055	-95.210457
293.303191	6082.225000	401.556641	118.032631
293.303191	6082.225000	400.282227	99.951866
293.303191	6082.225000	399.006836	-2.717487
293.303191	6082.225000	397.731445	8.804106
293.303191	6082.225000	396.456055	27.647295
293.303191	6082.225000	395.179688	38.901272
293.303191	6082.225000	393.903320	-2.112909
293.303191	6082.225000	392.626953	36.175549
293.303191	6082.225000	391.350586	-59.685596
293.303191	6082.225000	390.073242	171.813934
293.303191	6082.225000	388.795898	127.753990
293.303191	6082.225000	387.518555	24.045805
293.303191	6082.225000	386.240234	14.430454
293.303191	6082.225000	384.961914	12.092791
293.303191	6082.225000	383.683594	116.148811
293.303191	6082.225000	382.405273	81.243233
293.303191	6082.225000	381.125977	68.464317
293.303191	6082.225000	379.846680	50.556061
293.303191	6082.225000	378.567383	121.603752
293.303191	6082.225000	377.287109	46.372154
293.303191	6082.225000	376.006836	-36.449379
293.303191	6082.225000	374.726563	-15.515660
293.303191	6082.225000	373.446289	89.309891
293.303191	6082.225000	372.165039	55.365623
293.303191	6082.225000	370.883789	-149.403625
293.303191	6082.225000	369.602539	-18.091619
293.303191	6082.225000	368.320313	-188.619232
293.303191	6082.225000	367.039063	-18.290071
293.303191	6082.225000	365.755859	144.292969
293.303191	6082.225000	364.473633	44.734707
293.303191	6082.225000	363.190430	-74.802498
293.303191	6082.225000	361.907227	101.722160
293.303191	6082.225000	360.624023	23.648024
293.303191	6082.225000	359.340820	29.235678
293.303191	6082.225000	358.056641	-44.430622
293.303191	6082.225000	356.772461	69.117874
293.303191	6082.225000	355.487305	179.838669
293.303191	6082.225000	354.202148	31.296839
293.303191	6082.225000	352.916992	72.321022
293.303191	6082.225000	351.631836	51.383770
293.303191	6082.225000	350.346680	69.545837
293.303191	6082.225000	349.060547	28.219738
293.303191	6082.225000	347.774414	8.726256
293.303191	6082.225000	346.487305	97.219688
293.303191	6082.225000	345.200195	-105.210953
293.303191	6082.225000	343.913086	-101.172272
293.303191	6082.225000	342.625977	30.442793
293.303191	6082.225000	341.338867	-246.821350
293.303191	6082.225000	340.050781	70.895248
293.303191	6082.225000	338.762695	-64.457092
293.303191	6082.225000	337.473633	72.730553
293.303191	6082.225000	336.184570	-80.653282
293.303191	6082.225000	334.895508	119.486595
293.303191	6082.225000	333.606445	-113.381790
293.303191	6082.225000	332.317383	-42.000069
293.303191	6082.225000	331.027344	-224.123413
293.303191	6082.225000	329.736328	-21.157074
293.303191	6082.225000	328.446289	-137.923752
293.303191	6082.225000	327.155273	-53.906120
293.303191	6082.225000	325.864258	100.706833
293.303191	6082.225000	324.573242	36.356236
293.303191	6082.225000	323.281250	-1.558073
293.303191	6082.225000	321.989258	-89.071770
293.303191	6082.225000	320.697266	-83.962189
293.303191	6082.225000	319.405273	-74.547913
293.303191	6082.225000	318.112305	0.403621
293.303191	6082.225000	316.819336	-60.061474
293.303191	6082.225000	315.526367	-64.795731
293.303191	6082.225000	314.232422	-26.116131
293.303191	6082.225000	312.938477	24.122181
293.303191	6082.225000	311.644531	51.624004
293.303191	6082.225000	310.349609	26.997757
293.303191	6082.225000	309.054688	153.380661
293.303191	6082.225000	307.759766	198.247223
293.303191	6082.225000	306.464844	164.079971
293.303191	6082.225000	305.168945	63.118267
293.303191	6082.225000	303.873047	279.250366
293.303191	6082.225000	302.577148	210.953995
293.303191	6082.225000	301.281250	88.112396
293.303191	6082.225000	299.984375	272.315887
