#X		#Y		#Wave		#Intensity
29683.876968	-1287.614000	1999.980469	-14.974253
29683.876968	-1287.614000	1999.016602	297.216827
29683.876968	-1287.614000	1998.052734	77.367233
29683.876968	-1287.614000	1997.087891	65.679932
29683.876968	-1287.614000	1996.123047	138.155640
29683.876968	-1287.614000	1995.158203	-104.079659
29683.876968	-1287.614000	1994.193359	-106.056267
29683.876968	-1287.614000	1993.228516	-162.583374
29683.876968	-1287.614000	1992.262695	-115.173599
29683.876968	-1287.614000	1991.297852	55.917831
29683.876968	-1287.614000	1990.332031	-92.381165
29683.876968	-1287.614000	1989.366211	76.041573
29683.876968	-1287.614000	1988.399414	-27.795784
29683.876968	-1287.614000	1987.433594	-17.871361
29683.876968	-1287.614000	1986.466797	95.864609
29683.876968	-1287.614000	1985.500977	9.221703
29683.876968	-1287.614000	1984.534180	-37.883945
29683.876968	-1287.614000	1983.567383	21.262383
29683.876968	-1287.614000	1982.599609	255.799789
29683.876968	-1287.614000	1981.632813	139.352982
29683.876968	-1287.614000	1980.665039	47.611420
29683.876968	-1287.614000	1979.697266	34.899178
29683.876968	-1287.614000	1978.729492	101.174286
29683.876968	-1287.614000	1977.761719	78.506027
29683.876968	-1287.614000	1976.792969	119.992935
29683.876968	-1287.614000	1975.825195	107.133904
29683.876968	-1287.614000	1974.856445	-24.194378
29683.876968	-1287.614000	1973.887695	34.464909
29683.876968	-1287.614000	1972.918945	181.873688
29683.876968	-1287.614000	1971.949219	166.433334
29683.876968	-1287.614000	1970.980469	-19.162882
29683.876968	-1287.614000	1970.010742	17.162888
29683.876968	-1287.614000	1969.041016	-148.662415
29683.876968	-1287.614000	1968.071289	-161.655396
29683.876968	-1287.614000	1967.101563	-44.075405
29683.876968	-1287.614000	1966.130859	73.443848
29683.876968	-1287.614000	1965.161133	94.845665
29683.876968	-1287.614000	1964.190430	59.587254
29683.876968	-1287.614000	1963.219727	39.100323
29683.876968	-1287.614000	1962.249023	-33.085621
29683.876968	-1287.614000	1961.277344	42.414497
29683.876968	-1287.614000	1960.306641	41.593224
29683.876968	-1287.614000	1959.334961	92.428932
29683.876968	-1287.614000	1958.363281	64.524086
29683.876968	-1287.614000	1957.391602	-27.320004
29683.876968	-1287.614000	1956.419922	75.114410
29683.876968	-1287.614000	1955.447266	-100.294701
29683.876968	-1287.614000	1954.474609	282.313812
29683.876968	-1287.614000	1953.501953	173.275269
29683.876968	-1287.614000	1952.529297	128.157898
29683.876968	-1287.614000	1951.556641	56.032780
29683.876968	-1287.614000	1950.583984	67.441704
29683.876968	-1287.614000	1949.610352	177.073441
29683.876968	-1287.614000	1948.636719	41.142475
29683.876968	-1287.614000	1947.663086	-70.189873
29683.876968	-1287.614000	1946.689453	61.497421
29683.876968	-1287.614000	1945.715820	-47.339470
29683.876968	-1287.614000	1944.741211	45.045212
29683.876968	-1287.614000	1943.767578	53.998539
29683.876968	-1287.614000	1942.792969	43.332699
29683.876968	-1287.614000	1941.818359	22.866945
29683.876968	-1287.614000	1940.842773	51.445087
29683.876968	-1287.614000	1939.868164	67.761703
29683.876968	-1287.614000	1938.892578	106.133797
29683.876968	-1287.614000	1937.916992	-156.876831
29683.876968	-1287.614000	1936.941406	-152.761047
29683.876968	-1287.614000	1935.965820	-33.524376
29683.876968	-1287.614000	1934.990234	68.532684
29683.876968	-1287.614000	1934.013672	-25.310150
29683.876968	-1287.614000	1933.037109	101.201637
29683.876968	-1287.614000	1932.060547	107.748444
29683.876968	-1287.614000	1931.083984	-30.072836
29683.876968	-1287.614000	1930.107422	-89.545723
29683.876968	-1287.614000	1929.129883	-217.477493
29683.876968	-1287.614000	1928.153320	119.316200
29683.876968	-1287.614000	1927.175781	113.668373
29683.876968	-1287.614000	1926.198242	2.908036
29683.876968	-1287.614000	1925.219727	-127.355637
29683.876968	-1287.614000	1924.242188	-0.963341
29683.876968	-1287.614000	1923.263672	71.638130
29683.876968	-1287.614000	1922.285156	92.919769
29683.876968	-1287.614000	1921.306641	38.486553
29683.876968	-1287.614000	1920.328125	-152.669357
29683.876968	-1287.614000	1919.349609	10.277213
29683.876968	-1287.614000	1918.370117	-12.349802
29683.876968	-1287.614000	1917.391602	-22.757069
29683.876968	-1287.614000	1916.412109	135.219955
29683.876968	-1287.614000	1915.431641	-48.412971
29683.876968	-1287.614000	1914.452148	9.517282
29683.876968	-1287.614000	1913.472656	69.872192
29683.876968	-1287.614000	1912.492188	69.254478
29683.876968	-1287.614000	1911.511719	-53.249420
29683.876968	-1287.614000	1910.531250	-2.642136
29683.876968	-1287.614000	1909.550781	-69.021515
29683.876968	-1287.614000	1908.569336	-62.272167
29683.876968	-1287.614000	1907.588867	0.510248
29683.876968	-1287.614000	1906.607422	-119.393997
29683.876968	-1287.614000	1905.625977	57.842129
29683.876968	-1287.614000	1904.644531	-176.446671
29683.876968	-1287.614000	1903.662109	-21.160656
29683.876968	-1287.614000	1902.680664	-50.897087
29683.876968	-1287.614000	1901.698242	53.218071
29683.876968	-1287.614000	1900.715820	57.551311
29683.876968	-1287.614000	1899.733398	115.401146
29683.876968	-1287.614000	1898.750000	-43.211823
29683.876968	-1287.614000	1897.767578	-94.774590
29683.876968	-1287.614000	1896.784180	-27.190968
29683.876968	-1287.614000	1895.800781	50.092968
29683.876968	-1287.614000	1894.817383	-13.597950
29683.876968	-1287.614000	1893.833984	-18.949635
29683.876968	-1287.614000	1892.850586	-189.485901
29683.876968	-1287.614000	1891.866211	94.229332
29683.876968	-1287.614000	1890.881836	54.870537
29683.876968	-1287.614000	1889.897461	-20.890320
29683.876968	-1287.614000	1888.913086	46.596252
29683.876968	-1287.614000	1887.927734	-24.278606
29683.876968	-1287.614000	1886.943359	-70.862869
29683.876968	-1287.614000	1885.958008	-117.429527
29683.876968	-1287.614000	1884.972656	124.668983
29683.876968	-1287.614000	1883.987305	29.577742
29683.876968	-1287.614000	1883.001953	-150.344330
29683.876968	-1287.614000	1882.015625	14.043877
29683.876968	-1287.614000	1881.029297	-78.554924
29683.876968	-1287.614000	1880.042969	93.022385
29683.876968	-1287.614000	1879.056641	-4.409708
29683.876968	-1287.614000	1878.070313	-150.257431
29683.876968	-1287.614000	1877.083984	67.242401
29683.876968	-1287.614000	1876.096680	30.395403
29683.876968	-1287.614000	1875.109375	32.294426
29683.876968	-1287.614000	1874.122070	-52.956024
29683.876968	-1287.614000	1873.134766	212.743668
29683.876968	-1287.614000	1872.146484	-73.357101
29683.876968	-1287.614000	1871.159180	83.365425
29683.876968	-1287.614000	1870.170898	131.176147
29683.876968	-1287.614000	1869.182617	89.480949
29683.876968	-1287.614000	1868.194336	93.732445
29683.876968	-1287.614000	1867.205078	-192.119797
29683.876968	-1287.614000	1866.216797	0.689132
29683.876968	-1287.614000	1865.227539	-24.072027
29683.876968	-1287.614000	1864.238281	52.640316
29683.876968	-1287.614000	1863.249023	6.114730
29683.876968	-1287.614000	1862.259766	138.318481
29683.876968	-1287.614000	1861.269531	-57.942493
29683.876968	-1287.614000	1860.279297	-34.443417
29683.876968	-1287.614000	1859.290039	5.929235
29683.876968	-1287.614000	1858.298828	109.021393
29683.876968	-1287.614000	1857.308594	45.568638
29683.876968	-1287.614000	1856.318359	-66.124588
29683.876968	-1287.614000	1855.327148	-175.378906
29683.876968	-1287.614000	1854.335938	137.414337
29683.876968	-1287.614000	1853.344727	131.807861
29683.876968	-1287.614000	1852.353516	39.402763
29683.876968	-1287.614000	1851.362305	62.704391
29683.876968	-1287.614000	1850.370117	-15.229540
29683.876968	-1287.614000	1849.377930	68.269783
29683.876968	-1287.614000	1848.385742	-79.530060
29683.876968	-1287.614000	1847.393555	-87.607094
29683.876968	-1287.614000	1846.401367	-45.135139
29683.876968	-1287.614000	1845.408203	-19.551197
29683.876968	-1287.614000	1844.415039	107.096848
29683.876968	-1287.614000	1843.421875	137.412521
29683.876968	-1287.614000	1842.428711	81.075050
29683.876968	-1287.614000	1841.435547	-54.651390
29683.876968	-1287.614000	1840.441406	131.949417
29683.876968	-1287.614000	1839.448242	253.527603
29683.876968	-1287.614000	1838.454102	-69.760307
29683.876968	-1287.614000	1837.459961	63.781143
29683.876968	-1287.614000	1836.464844	29.009695
29683.876968	-1287.614000	1835.470703	18.254869
29683.876968	-1287.614000	1834.475586	91.566093
29683.876968	-1287.614000	1833.480469	150.411377
29683.876968	-1287.614000	1832.485352	72.316673
29683.876968	-1287.614000	1831.490234	-3.374722
29683.876968	-1287.614000	1830.495117	-21.448866
29683.876968	-1287.614000	1829.499023	-73.147285
29683.876968	-1287.614000	1828.502930	165.518692
29683.876968	-1287.614000	1827.506836	-109.390800
29683.876968	-1287.614000	1826.510742	28.380672
29683.876968	-1287.614000	1825.513672	144.485046
29683.876968	-1287.614000	1824.517578	-15.251934
29683.876968	-1287.614000	1823.520508	21.637081
29683.876968	-1287.614000	1822.523438	-25.415678
29683.876968	-1287.614000	1821.526367	109.660210
29683.876968	-1287.614000	1820.529297	38.583118
29683.876968	-1287.614000	1819.531250	-8.542537
29683.876968	-1287.614000	1818.533203	-26.939648
29683.876968	-1287.614000	1817.535156	131.852844
29683.876968	-1287.614000	1816.537109	82.242310
29683.876968	-1287.614000	1815.539063	73.313843
29683.876968	-1287.614000	1814.540039	28.452005
29683.876968	-1287.614000	1813.541992	17.074608
29683.876968	-1287.614000	1812.542969	48.732830
29683.876968	-1287.614000	1811.543945	142.538025
29683.876968	-1287.614000	1810.543945	71.248184
29683.876968	-1287.614000	1809.544922	42.990875
29683.876968	-1287.614000	1808.544922	-35.497906
29683.876968	-1287.614000	1807.544922	27.033493
29683.876968	-1287.614000	1806.544922	94.283997
29683.876968	-1287.614000	1805.544922	116.073631
29683.876968	-1287.614000	1804.544922	128.261490
29683.876968	-1287.614000	1803.543945	44.867069
29683.876968	-1287.614000	1802.542969	64.151016
29683.876968	-1287.614000	1801.541992	-136.267776
29683.876968	-1287.614000	1800.541016	-33.484303
29683.876968	-1287.614000	1799.539063	-31.020197
29683.876968	-1287.614000	1798.538086	114.578178
29683.876968	-1287.614000	1797.536133	14.346388
29683.876968	-1287.614000	1796.534180	131.177170
29683.876968	-1287.614000	1795.532227	26.130369
29683.876968	-1287.614000	1794.529297	-16.923235
29683.876968	-1287.614000	1793.527344	59.198929
29683.876968	-1287.614000	1792.524414	182.920258
29683.876968	-1287.614000	1791.521484	61.098072
29683.876968	-1287.614000	1790.518555	103.681412
29683.876968	-1287.614000	1789.514648	22.333376
29683.876968	-1287.614000	1788.511719	83.878571
29683.876968	-1287.614000	1787.507813	7.243926
29683.876968	-1287.614000	1786.503906	49.637108
29683.876968	-1287.614000	1785.500000	-57.990372
29683.876968	-1287.614000	1784.496094	-13.305647
29683.876968	-1287.614000	1783.491211	40.836121
29683.876968	-1287.614000	1782.486328	194.832718
29683.876968	-1287.614000	1781.481445	146.550720
29683.876968	-1287.614000	1780.476563	41.170200
29683.876968	-1287.614000	1779.471680	9.493295
29683.876968	-1287.614000	1778.465820	84.757446
29683.876968	-1287.614000	1777.460938	-37.318218
29683.876968	-1287.614000	1776.455078	21.205124
29683.876968	-1287.614000	1775.449219	55.904797
29683.876968	-1287.614000	1774.442383	121.425827
29683.876968	-1287.614000	1773.436523	63.382706
29683.876968	-1287.614000	1772.429688	183.402939
29683.876968	-1287.614000	1771.422852	68.303284
29683.876968	-1287.614000	1770.416016	12.543193
29683.876968	-1287.614000	1769.409180	13.715397
29683.876968	-1287.614000	1768.402344	29.079641
29683.876968	-1287.614000	1767.394531	79.975044
29683.876968	-1287.614000	1766.386719	-23.359491
29683.876968	-1287.614000	1765.378906	8.467137
29683.876968	-1287.614000	1764.371094	7.045271
29683.876968	-1287.614000	1763.362305	-174.576141
29683.876968	-1287.614000	1762.354492	122.567017
29683.876968	-1287.614000	1761.345703	111.510590
29683.876968	-1287.614000	1760.336914	154.902954
29683.876968	-1287.614000	1759.328125	150.862289
29683.876968	-1287.614000	1758.318359	-45.046970
29683.876968	-1287.614000	1757.308594	-136.746155
29683.876968	-1287.614000	1756.299805	24.847994
29683.876968	-1287.614000	1755.290039	-95.319954
29683.876968	-1287.614000	1754.279297	-99.535698
29683.876968	-1287.614000	1753.269531	7.406923
29683.876968	-1287.614000	1752.258789	78.779877
29683.876968	-1287.614000	1751.249023	-152.639221
29683.876968	-1287.614000	1750.238281	3.774479
29683.876968	-1287.614000	1749.226563	-31.413107
29683.876968	-1287.614000	1748.215820	30.282930
29683.876968	-1287.614000	1747.204102	-130.234940
29683.876968	-1287.614000	1746.193359	-33.189167
29683.876968	-1287.614000	1745.181641	111.019844
29683.876968	-1287.614000	1744.168945	-18.850555
29683.876968	-1287.614000	1743.157227	-68.422928
29683.876968	-1287.614000	1742.144531	7.109121
29683.876968	-1287.614000	1741.132813	-18.930021
29683.876968	-1287.614000	1740.120117	-82.766335
29683.876968	-1287.614000	1739.106445	-127.747406
29683.876968	-1287.614000	1738.093750	-35.918224
29683.876968	-1287.614000	1737.080078	39.318748
29683.876968	-1287.614000	1736.067383	-154.354736
29683.876968	-1287.614000	1735.053711	-46.198212
29683.876968	-1287.614000	1734.040039	2.940845
29683.876968	-1287.614000	1733.025391	77.942413
29683.876968	-1287.614000	1732.011719	159.946594
29683.876968	-1287.614000	1730.997070	-71.476372
29683.876968	-1287.614000	1729.982422	-95.561455
29683.876968	-1287.614000	1728.967773	-4.277159
29683.876968	-1287.614000	1727.952148	20.997061
29683.876968	-1287.614000	1726.937500	-66.777489
29683.876968	-1287.614000	1725.921875	-58.057758
29683.876968	-1287.614000	1724.906250	105.938095
29683.876968	-1287.614000	1723.890625	152.187897
29683.876968	-1287.614000	1722.875000	7.834981
29683.876968	-1287.614000	1721.858398	-11.851834
29683.876968	-1287.614000	1720.841797	88.358185
29683.876968	-1287.614000	1719.825195	167.331070
29683.876968	-1287.614000	1718.808594	69.939178
29683.876968	-1287.614000	1717.791992	52.452877
29683.876968	-1287.614000	1716.774414	192.362000
29683.876968	-1287.614000	1715.756836	386.213898
29683.876968	-1287.614000	1714.739258	302.793549
29683.876968	-1287.614000	1713.721680	108.994400
29683.876968	-1287.614000	1712.704102	60.804562
29683.876968	-1287.614000	1711.685547	151.093628
29683.876968	-1287.614000	1710.667969	133.353424
29683.876968	-1287.614000	1709.649414	108.540535
29683.876968	-1287.614000	1708.630859	-38.295959
29683.876968	-1287.614000	1707.611328	89.327698
29683.876968	-1287.614000	1706.592773	118.373306
29683.876968	-1287.614000	1705.573242	161.438354
29683.876968	-1287.614000	1704.553711	12.218081
29683.876968	-1287.614000	1703.534180	137.254852
29683.876968	-1287.614000	1702.513672	44.268135
29683.876968	-1287.614000	1701.494141	-48.711575
29683.876968	-1287.614000	1700.473633	-19.880522
29683.876968	-1287.614000	1699.453125	-54.328953
29683.876968	-1287.614000	1698.432617	-37.279594
29683.876968	-1287.614000	1697.412109	-205.220306
29683.876968	-1287.614000	1696.390625	-66.497696
29683.876968	-1287.614000	1695.369141	-152.524612
29683.876968	-1287.614000	1694.347656	11.813157
29683.876968	-1287.614000	1693.326172	40.374428
29683.876968	-1287.614000	1692.304688	-90.151382
29683.876968	-1287.614000	1691.282227	-63.982559
29683.876968	-1287.614000	1690.260742	135.167404
29683.876968	-1287.614000	1689.238281	20.972345
29683.876968	-1287.614000	1688.214844	77.399422
29683.876968	-1287.614000	1687.192383	37.978973
29683.876968	-1287.614000	1686.168945	-34.164642
29683.876968	-1287.614000	1685.146484	-122.652367
29683.876968	-1287.614000	1684.123047	-7.962446
29683.876968	-1287.614000	1683.099609	146.351486
29683.876968	-1287.614000	1682.075195	-112.618477
29683.876968	-1287.614000	1681.051758	113.961021
29683.876968	-1287.614000	1680.027344	214.413315
29683.876968	-1287.614000	1679.002930	109.492516
29683.876968	-1287.614000	1677.978516	39.578979
29683.876968	-1287.614000	1676.953125	139.914642
29683.876968	-1287.614000	1675.928711	-76.920853
29683.876968	-1287.614000	1674.903320	-16.276197
29683.876968	-1287.614000	1673.877930	-30.262918
29683.876968	-1287.614000	1672.852539	-16.299446
29683.876968	-1287.614000	1671.826172	-11.685921
29683.876968	-1287.614000	1670.800781	48.819115
29683.876968	-1287.614000	1669.774414	-128.284561
29683.876968	-1287.614000	1668.748047	2.035196
29683.876968	-1287.614000	1667.721680	162.552826
29683.876968	-1287.614000	1666.694336	80.906616
29683.876968	-1287.614000	1665.667969	334.403137
29683.876968	-1287.614000	1664.640625	192.225586
29683.876968	-1287.614000	1663.613281	159.424805
29683.876968	-1287.614000	1662.585938	268.501282
29683.876968	-1287.614000	1661.557617	75.208504
29683.876968	-1287.614000	1660.530273	179.580704
29683.876968	-1287.614000	1659.501953	232.753647
29683.876968	-1287.614000	1658.473633	246.384140
29683.876968	-1287.614000	1657.444336	264.638214
29683.876968	-1287.614000	1656.416016	57.528244
29683.876968	-1287.614000	1655.386719	312.708954
29683.876968	-1287.614000	1654.358398	354.133148
29683.876968	-1287.614000	1653.328125	311.934509
29683.876968	-1287.614000	1652.298828	339.389679
29683.876968	-1287.614000	1651.269531	311.122650
29683.876968	-1287.614000	1650.239258	208.596329
29683.876968	-1287.614000	1649.208984	171.062790
29683.876968	-1287.614000	1648.178711	367.815613
29683.876968	-1287.614000	1647.148438	246.762527
29683.876968	-1287.614000	1646.117188	334.426971
29683.876968	-1287.614000	1645.086914	489.287292
29683.876968	-1287.614000	1644.055664	618.580139
29683.876968	-1287.614000	1643.024414	479.004883
29683.876968	-1287.614000	1641.992188	554.947327
29683.876968	-1287.614000	1640.960938	487.241180
29683.876968	-1287.614000	1639.928711	690.526489
29683.876968	-1287.614000	1638.896484	585.759460
29683.876968	-1287.614000	1637.864258	527.334290
29683.876968	-1287.614000	1636.832031	566.147034
29683.876968	-1287.614000	1635.798828	584.109741
29683.876968	-1287.614000	1634.766602	618.268188
29683.876968	-1287.614000	1633.733398	589.947876
29683.876968	-1287.614000	1632.699219	524.627930
29683.876968	-1287.614000	1631.666016	628.148010
29683.876968	-1287.614000	1630.632813	646.086182
29683.876968	-1287.614000	1629.598633	599.293091
29683.876968	-1287.614000	1628.564453	543.276672
29683.876968	-1287.614000	1627.530273	679.067810
29683.876968	-1287.614000	1626.495117	715.467285
29683.876968	-1287.614000	1625.460938	816.535461
29683.876968	-1287.614000	1624.425781	723.586121
29683.876968	-1287.614000	1623.390625	674.546326
29683.876968	-1287.614000	1622.355469	773.268127
29683.876968	-1287.614000	1621.319336	689.627563
29683.876968	-1287.614000	1620.284180	749.096985
29683.876968	-1287.614000	1619.248047	746.255981
29683.876968	-1287.614000	1618.211914	752.651550
29683.876968	-1287.614000	1617.174805	666.804382
29683.876968	-1287.614000	1616.138672	719.346741
29683.876968	-1287.614000	1615.101563	776.484375
29683.876968	-1287.614000	1614.065430	656.148438
29683.876968	-1287.614000	1613.027344	851.554993
29683.876968	-1287.614000	1611.990234	715.142456
29683.876968	-1287.614000	1610.953125	809.141418
29683.876968	-1287.614000	1609.915039	882.385071
29683.876968	-1287.614000	1608.876953	778.317749
29683.876968	-1287.614000	1607.838867	837.755432
29683.876968	-1287.614000	1606.800781	832.739685
29683.876968	-1287.614000	1605.761719	747.193665
29683.876968	-1287.614000	1604.723633	682.410461
29683.876968	-1287.614000	1603.684570	767.183105
29683.876968	-1287.614000	1602.644531	782.940918
29683.876968	-1287.614000	1601.605469	934.380188
29683.876968	-1287.614000	1600.566406	791.512939
29683.876968	-1287.614000	1599.526367	788.924622
29683.876968	-1287.614000	1598.486328	770.271118
29683.876968	-1287.614000	1597.446289	696.503235
29683.876968	-1287.614000	1596.405273	836.415405
29683.876968	-1287.614000	1595.365234	976.300354
29683.876968	-1287.614000	1594.324219	909.483582
29683.876968	-1287.614000	1593.283203	927.661133
29683.876968	-1287.614000	1592.242188	851.744568
29683.876968	-1287.614000	1591.200195	1032.908325
29683.876968	-1287.614000	1590.159180	872.153992
29683.876968	-1287.614000	1589.117188	837.653931
29683.876968	-1287.614000	1588.075195	922.458435
29683.876968	-1287.614000	1587.032227	949.923706
29683.876968	-1287.614000	1585.990234	766.482544
29683.876968	-1287.614000	1584.947266	796.313599
29683.876968	-1287.614000	1583.904297	949.916199
29683.876968	-1287.614000	1582.861328	1037.038940
29683.876968	-1287.614000	1581.818359	879.031006
29683.876968	-1287.614000	1580.775391	918.092102
29683.876968	-1287.614000	1579.731445	986.932922
29683.876968	-1287.614000	1578.687500	858.876099
29683.876968	-1287.614000	1577.643555	863.669128
29683.876968	-1287.614000	1576.598633	728.878418
29683.876968	-1287.614000	1575.554688	708.587524
29683.876968	-1287.614000	1574.509766	738.663208
29683.876968	-1287.614000	1573.464844	725.300659
29683.876968	-1287.614000	1572.419922	794.304260
29683.876968	-1287.614000	1571.374023	751.275513
29683.876968	-1287.614000	1570.329102	733.449158
29683.876968	-1287.614000	1569.283203	818.507568
29683.876968	-1287.614000	1568.237305	736.759216
29683.876968	-1287.614000	1567.191406	687.062988
29683.876968	-1287.614000	1566.144531	781.321350
29683.876968	-1287.614000	1565.098633	715.723877
29683.876968	-1287.614000	1564.051758	841.979492
29683.876968	-1287.614000	1563.004883	653.194397
29683.876968	-1287.614000	1561.957031	421.154083
29683.876968	-1287.614000	1560.910156	704.960754
29683.876968	-1287.614000	1559.862305	803.892151
29683.876968	-1287.614000	1558.814453	804.740662
29683.876968	-1287.614000	1557.766602	650.549744
29683.876968	-1287.614000	1556.718750	624.146973
29683.876968	-1287.614000	1555.669922	686.699951
29683.876968	-1287.614000	1554.621094	471.205139
29683.876968	-1287.614000	1553.573242	652.347168
29683.876968	-1287.614000	1552.523438	648.908569
29683.876968	-1287.614000	1551.474609	604.516785
29683.876968	-1287.614000	1550.424805	434.923004
29683.876968	-1287.614000	1549.375000	497.691711
29683.876968	-1287.614000	1548.325195	376.081116
29683.876968	-1287.614000	1547.275391	338.779144
29683.876968	-1287.614000	1546.225586	504.068359
29683.876968	-1287.614000	1545.174805	346.257385
29683.876968	-1287.614000	1544.124023	572.986755
29683.876968	-1287.614000	1543.073242	504.014587
29683.876968	-1287.614000	1542.022461	457.854950
29683.876968	-1287.614000	1540.970703	429.944550
29683.876968	-1287.614000	1539.919922	497.559570
29683.876968	-1287.614000	1538.868164	417.481262
29683.876968	-1287.614000	1537.815430	301.126160
29683.876968	-1287.614000	1536.763672	425.658813
29683.876968	-1287.614000	1535.710938	279.921295
29683.876968	-1287.614000	1534.659180	418.132660
29683.876968	-1287.614000	1533.606445	208.985764
29683.876968	-1287.614000	1532.552734	406.267212
29683.876968	-1287.614000	1531.500000	428.781677
29683.876968	-1287.614000	1530.446289	228.982071
29683.876968	-1287.614000	1529.393555	265.236328
29683.876968	-1287.614000	1528.338867	151.832901
29683.876968	-1287.614000	1527.285156	31.726139
29683.876968	-1287.614000	1526.231445	97.624702
29683.876968	-1287.614000	1525.176758	136.346802
29683.876968	-1287.614000	1524.122070	73.125679
29683.876968	-1287.614000	1523.067383	141.399124
29683.876968	-1287.614000	1522.012695	96.433060
29683.876968	-1287.614000	1520.957031	-34.530312
29683.876968	-1287.614000	1519.901367	147.106308
29683.876968	-1287.614000	1518.845703	220.054123
29683.876968	-1287.614000	1517.790039	179.850510
29683.876968	-1287.614000	1516.734375	146.507416
29683.876968	-1287.614000	1515.677734	92.866943
29683.876968	-1287.614000	1514.621094	82.285843
29683.876968	-1287.614000	1513.564453	141.879593
29683.876968	-1287.614000	1512.507813	43.214832
29683.876968	-1287.614000	1511.450195	107.425819
29683.876968	-1287.614000	1510.393555	83.514313
29683.876968	-1287.614000	1509.335938	46.107025
29683.876968	-1287.614000	1508.278320	74.298668
29683.876968	-1287.614000	1507.219727	91.240295
29683.876968	-1287.614000	1506.162109	78.872650
29683.876968	-1287.614000	1505.103516	-50.857784
29683.876968	-1287.614000	1504.044922	72.386620
29683.876968	-1287.614000	1502.986328	114.378502
29683.876968	-1287.614000	1501.926758	-35.419304
29683.876968	-1287.614000	1500.868164	155.616959
29683.876968	-1287.614000	1499.808594	-131.622330
29683.876968	-1287.614000	1498.749023	57.219677
29683.876968	-1287.614000	1497.688477	-76.425247
29683.876968	-1287.614000	1496.628906	-29.589077
29683.876968	-1287.614000	1495.568359	84.912926
29683.876968	-1287.614000	1494.507813	-77.775520
29683.876968	-1287.614000	1493.447266	-84.864243
29683.876968	-1287.614000	1492.386719	-80.624588
29683.876968	-1287.614000	1491.325195	-1.999466
29683.876968	-1287.614000	1490.263672	-26.932331
29683.876968	-1287.614000	1489.202148	-101.325409
29683.876968	-1287.614000	1488.140625	-63.077995
29683.876968	-1287.614000	1487.079102	-83.297417
29683.876968	-1287.614000	1486.016602	-186.702682
29683.876968	-1287.614000	1484.954102	-58.288342
29683.876968	-1287.614000	1483.891602	49.892963
29683.876968	-1287.614000	1482.829102	-167.977036
29683.876968	-1287.614000	1481.765625	-138.380844
29683.876968	-1287.614000	1480.702148	-57.027096
29683.876968	-1287.614000	1479.638672	132.207306
29683.876968	-1287.614000	1478.575195	-74.002754
29683.876968	-1287.614000	1477.511719	-149.768570
29683.876968	-1287.614000	1476.447266	-288.311615
29683.876968	-1287.614000	1475.382813	-58.516624
29683.876968	-1287.614000	1474.318359	83.716026
29683.876968	-1287.614000	1473.253906	297.666656
29683.876968	-1287.614000	1472.189453	125.800110
29683.876968	-1287.614000	1471.124023	84.166702
29683.876968	-1287.614000	1470.058594	22.386209
29683.876968	-1287.614000	1468.993164	222.943024
29683.876968	-1287.614000	1467.927734	100.988533
29683.876968	-1287.614000	1466.861328	48.281212
29683.876968	-1287.614000	1465.794922	253.353699
29683.876968	-1287.614000	1464.728516	167.200134
29683.876968	-1287.614000	1463.662109	276.309753
29683.876968	-1287.614000	1462.594727	282.065277
29683.876968	-1287.614000	1461.528320	135.950287
29683.876968	-1287.614000	1460.460938	452.868958
29683.876968	-1287.614000	1459.393555	409.604492
29683.876968	-1287.614000	1458.326172	431.067078
29683.876968	-1287.614000	1457.257813	350.607422
29683.876968	-1287.614000	1456.189453	196.116959
29683.876968	-1287.614000	1455.121094	237.978485
29683.876968	-1287.614000	1454.052734	492.028809
29683.876968	-1287.614000	1452.984375	311.564758
29683.876968	-1287.614000	1451.915039	331.055511
29683.876968	-1287.614000	1450.845703	449.124603
29683.876968	-1287.614000	1449.776367	432.569855
29683.876968	-1287.614000	1448.707031	206.061020
29683.876968	-1287.614000	1447.636719	139.629074
29683.876968	-1287.614000	1446.567383	398.711914
29683.876968	-1287.614000	1445.497070	411.013153
29683.876968	-1287.614000	1444.425781	231.884384
29683.876968	-1287.614000	1443.355469	340.871582
29683.876968	-1287.614000	1442.285156	225.476440
29683.876968	-1287.614000	1441.213867	403.254639
29683.876968	-1287.614000	1440.142578	372.901337
29683.876968	-1287.614000	1439.070313	233.282852
29683.876968	-1287.614000	1437.999023	388.035339
29683.876968	-1287.614000	1436.926758	244.719727
29683.876968	-1287.614000	1435.854492	303.561218
29683.876968	-1287.614000	1434.782227	269.671936
29683.876968	-1287.614000	1433.709961	247.990234
29683.876968	-1287.614000	1432.636719	186.184464
29683.876968	-1287.614000	1431.563477	392.880951
29683.876968	-1287.614000	1430.490234	145.933014
29683.876968	-1287.614000	1429.416992	201.871735
29683.876968	-1287.614000	1428.343750	261.677399
29683.876968	-1287.614000	1427.269531	198.384827
29683.876968	-1287.614000	1426.195313	186.600525
29683.876968	-1287.614000	1425.121094	98.778374
29683.876968	-1287.614000	1424.046875	60.263878
29683.876968	-1287.614000	1422.971680	153.855743
29683.876968	-1287.614000	1421.896484	50.377026
29683.876968	-1287.614000	1420.821289	201.146820
29683.876968	-1287.614000	1419.746094	350.492035
29683.876968	-1287.614000	1418.669922	85.962608
29683.876968	-1287.614000	1417.594727	15.194396
29683.876968	-1287.614000	1416.518555	54.436893
29683.876968	-1287.614000	1415.442383	12.560621
29683.876968	-1287.614000	1414.365234	1.754345
29683.876968	-1287.614000	1413.289063	138.043167
29683.876968	-1287.614000	1412.211914	-41.467571
29683.876968	-1287.614000	1411.134766	190.649078
29683.876968	-1287.614000	1410.057617	250.502228
29683.876968	-1287.614000	1408.979492	204.086517
29683.876968	-1287.614000	1407.902344	62.091568
29683.876968	-1287.614000	1406.824219	216.473801
29683.876968	-1287.614000	1405.746094	351.631561
29683.876968	-1287.614000	1404.666992	258.741333
29683.876968	-1287.614000	1403.588867	355.033295
29683.876968	-1287.614000	1402.509766	291.884216
29683.876968	-1287.614000	1401.430664	409.324982
29683.876968	-1287.614000	1400.351563	375.061371
29683.876968	-1287.614000	1399.271484	490.652954
29683.876968	-1287.614000	1398.192383	446.286346
29683.876968	-1287.614000	1397.112305	417.580017
29683.876968	-1287.614000	1396.031250	324.201782
29683.876968	-1287.614000	1394.951172	441.671967
29683.876968	-1287.614000	1393.871094	412.562927
29683.876968	-1287.614000	1392.790039	458.598480
29683.876968	-1287.614000	1391.708984	266.715363
29683.876968	-1287.614000	1390.626953	406.283997
29683.876968	-1287.614000	1389.545898	405.746094
29683.876968	-1287.614000	1388.463867	287.514832
29683.876968	-1287.614000	1387.381836	249.838165
29683.876968	-1287.614000	1386.299805	319.470642
29683.876968	-1287.614000	1385.217773	343.697083
29683.876968	-1287.614000	1384.134766	519.531738
29683.876968	-1287.614000	1383.051758	524.005554
29683.876968	-1287.614000	1381.968750	486.616272
29683.876968	-1287.614000	1380.885742	377.546112
29683.876968	-1287.614000	1379.802734	395.196075
29683.876968	-1287.614000	1378.718750	280.417480
29683.876968	-1287.614000	1377.634766	535.230408
29683.876968	-1287.614000	1376.550781	312.530975
29683.876968	-1287.614000	1375.465820	341.106171
29683.876968	-1287.614000	1374.381836	283.978424
29683.876968	-1287.614000	1373.296875	488.515259
29683.876968	-1287.614000	1372.211914	345.749146
29683.876968	-1287.614000	1371.126953	353.359344
29683.876968	-1287.614000	1370.041016	162.031555
29683.876968	-1287.614000	1368.955078	301.915283
29683.876968	-1287.614000	1367.869141	308.692780
29683.876968	-1287.614000	1366.783203	327.085236
29683.876968	-1287.614000	1365.697266	262.370605
29683.876968	-1287.614000	1364.610352	275.256226
29683.876968	-1287.614000	1363.523438	249.079895
29683.876968	-1287.614000	1362.436523	245.781601
29683.876968	-1287.614000	1361.349609	188.025955
29683.876968	-1287.614000	1360.261719	448.883728
29683.876968	-1287.614000	1359.174805	428.233612
29683.876968	-1287.614000	1358.086914	258.673645
29683.876968	-1287.614000	1356.998047	325.500397
29683.876968	-1287.614000	1355.910156	381.891144
29683.876968	-1287.614000	1354.821289	488.035919
29683.876968	-1287.614000	1353.732422	325.364990
29683.876968	-1287.614000	1352.643555	406.927673
29683.876968	-1287.614000	1351.554688	403.716675
29683.876968	-1287.614000	1350.464844	424.099945
29683.876968	-1287.614000	1349.375000	382.904999
29683.876968	-1287.614000	1348.285156	399.539551
29683.876968	-1287.614000	1347.195313	500.153595
29683.876968	-1287.614000	1346.105469	328.240753
29683.876968	-1287.614000	1345.014648	325.425964
29683.876968	-1287.614000	1343.923828	375.778778
29683.876968	-1287.614000	1342.833008	333.252808
29683.876968	-1287.614000	1341.741211	363.389099
29683.876968	-1287.614000	1340.650391	161.221359
29683.876968	-1287.614000	1339.558594	329.440582
29683.876968	-1287.614000	1338.466797	161.140549
29683.876968	-1287.614000	1337.374023	178.785217
29683.876968	-1287.614000	1336.282227	156.465729
29683.876968	-1287.614000	1335.189453	113.924057
29683.876968	-1287.614000	1334.096680	236.367111
29683.876968	-1287.614000	1333.003906	185.610809
29683.876968	-1287.614000	1331.910156	318.103668
29683.876968	-1287.614000	1330.817383	146.420898
29683.876968	-1287.614000	1329.723633	189.984406
29683.876968	-1287.614000	1328.629883	235.983414
29683.876968	-1287.614000	1327.535156	84.400696
29683.876968	-1287.614000	1326.441406	83.035835
29683.876968	-1287.614000	1325.346680	28.769968
29683.876968	-1287.614000	1324.251953	144.375183
29683.876968	-1287.614000	1323.156250	-31.733028
29683.876968	-1287.614000	1322.061523	66.294052
29683.876968	-1287.614000	1320.965820	98.086258
29683.876968	-1287.614000	1319.870117	193.920959
29683.876968	-1287.614000	1318.774414	115.071587
29683.876968	-1287.614000	1317.678711	29.356981
29683.876968	-1287.614000	1316.582031	277.966217
29683.876968	-1287.614000	1315.485352	174.492447
29683.876968	-1287.614000	1314.388672	100.005524
29683.876968	-1287.614000	1313.291016	308.941620
29683.876968	-1287.614000	1312.194336	231.254044
29683.876968	-1287.614000	1311.096680	140.683838
29683.876968	-1287.614000	1309.999023	199.918823
29683.876968	-1287.614000	1308.901367	98.288086
29683.876968	-1287.614000	1307.802734	129.748413
29683.876968	-1287.614000	1306.705078	223.125977
29683.876968	-1287.614000	1305.606445	161.128784
29683.876968	-1287.614000	1304.506836	180.090393
29683.876968	-1287.614000	1303.408203	65.227951
29683.876968	-1287.614000	1302.308594	232.813568
29683.876968	-1287.614000	1301.208984	403.513916
29683.876968	-1287.614000	1300.109375	328.452545
29683.876968	-1287.614000	1299.009766	307.384766
29683.876968	-1287.614000	1297.909180	351.587830
29683.876968	-1287.614000	1296.808594	357.671234
29683.876968	-1287.614000	1295.708008	410.782928
29683.876968	-1287.614000	1294.607422	258.624023
29683.876968	-1287.614000	1293.506836	232.573471
29683.876968	-1287.614000	1292.405273	227.598984
29683.876968	-1287.614000	1291.303711	157.226974
29683.876968	-1287.614000	1290.202148	351.728912
29683.876968	-1287.614000	1289.099609	65.123360
29683.876968	-1287.614000	1287.998047	181.285782
29683.876968	-1287.614000	1286.895508	180.975967
29683.876968	-1287.614000	1285.792969	77.894096
29683.876968	-1287.614000	1284.689453	70.152023
29683.876968	-1287.614000	1283.586914	130.359528
29683.876968	-1287.614000	1282.483398	44.923447
29683.876968	-1287.614000	1281.379883	100.620087
29683.876968	-1287.614000	1280.276367	168.734131
29683.876968	-1287.614000	1279.171875	-10.115706
29683.876968	-1287.614000	1278.067383	57.670616
29683.876968	-1287.614000	1276.962891	113.884109
29683.876968	-1287.614000	1275.858398	-8.484979
29683.876968	-1287.614000	1274.753906	128.327026
29683.876968	-1287.614000	1273.648438	128.867569
29683.876968	-1287.614000	1272.542969	129.979858
29683.876968	-1287.614000	1271.437500	75.977364
29683.876968	-1287.614000	1270.331055	-74.702789
29683.876968	-1287.614000	1269.225586	-24.050539
29683.876968	-1287.614000	1268.119141	5.735120
29683.876968	-1287.614000	1267.012695	9.685345
29683.876968	-1287.614000	1265.906250	64.374855
29683.876968	-1287.614000	1264.798828	-117.448166
29683.876968	-1287.614000	1263.691406	-122.285767
29683.876968	-1287.614000	1262.583984	-1.835195
29683.876968	-1287.614000	1261.476563	92.214607
29683.876968	-1287.614000	1260.368164	-59.069817
29683.876968	-1287.614000	1259.260742	52.503231
29683.876968	-1287.614000	1258.152344	29.958899
29683.876968	-1287.614000	1257.043945	136.176010
29683.876968	-1287.614000	1255.934570	-110.023514
29683.876968	-1287.614000	1254.825195	-24.433214
29683.876968	-1287.614000	1253.716797	-32.867603
29683.876968	-1287.614000	1252.606445	70.011055
29683.876968	-1287.614000	1251.497070	-85.149063
29683.876968	-1287.614000	1250.387695	-124.856598
29683.876968	-1287.614000	1249.277344	-52.814552
29683.876968	-1287.614000	1248.166992	-5.660662
29683.876968	-1287.614000	1247.055664	-125.262489
29683.876968	-1287.614000	1245.945313	0.851560
29683.876968	-1287.614000	1244.833984	14.304224
29683.876968	-1287.614000	1243.722656	-127.724823
29683.876968	-1287.614000	1242.611328	-72.944496
29683.876968	-1287.614000	1241.499023	-5.792210
29683.876968	-1287.614000	1240.387695	55.419037
29683.876968	-1287.614000	1239.275391	17.920822
29683.876968	-1287.614000	1238.162109	-116.034370
29683.876968	-1287.614000	1237.049805	-19.631071
29683.876968	-1287.614000	1235.936523	107.194283
29683.876968	-1287.614000	1234.823242	22.015007
29683.876968	-1287.614000	1233.709961	-21.808960
29683.876968	-1287.614000	1232.596680	-89.593452
29683.876968	-1287.614000	1231.482422	42.523872
29683.876968	-1287.614000	1230.369141	4.135963
29683.876968	-1287.614000	1229.253906	1.628473
29683.876968	-1287.614000	1228.139648	-32.309353
29683.876968	-1287.614000	1227.025391	69.027107
29683.876968	-1287.614000	1225.910156	117.553375
29683.876968	-1287.614000	1224.794922	31.256950
29683.876968	-1287.614000	1223.679688	78.610588
29683.876968	-1287.614000	1222.563477	26.075190
29683.876968	-1287.614000	1221.447266	-87.106331
29683.876968	-1287.614000	1220.331055	-38.010033
29683.876968	-1287.614000	1219.214844	-6.379443
29683.876968	-1287.614000	1218.098633	21.850012
29683.876968	-1287.614000	1216.981445	-0.606432
29683.876968	-1287.614000	1215.864258	-164.754303
29683.876968	-1287.614000	1214.747070	-54.802471
29683.876968	-1287.614000	1213.629883	-34.711720
29683.876968	-1287.614000	1212.511719	-14.926048
29683.876968	-1287.614000	1211.393555	61.655041
29683.876968	-1287.614000	1210.275391	-44.836472
29683.876968	-1287.614000	1209.157227	-77.524452
29683.876968	-1287.614000	1208.038086	-26.184015
29683.876968	-1287.614000	1206.918945	-66.107643
29683.876968	-1287.614000	1205.799805	-150.180908
29683.876968	-1287.614000	1204.680664	-72.200539
29683.876968	-1287.614000	1203.560547	4.392300
29683.876968	-1287.614000	1202.441406	30.159164
29683.876968	-1287.614000	1201.321289	-6.329843
29683.876968	-1287.614000	1200.200195	-9.661028
29683.876968	-1287.614000	1199.080078	-53.281006
29683.876968	-1287.614000	1197.958984	3.999360
29683.876968	-1287.614000	1196.837891	-88.886147
29683.876968	-1287.614000	1195.716797	6.432787
29683.876968	-1287.614000	1194.594727	-82.693642
29683.876968	-1287.614000	1193.473633	-107.306068
29683.876968	-1287.614000	1192.351563	90.804970
29683.876968	-1287.614000	1191.229492	-3.784532
29683.876968	-1287.614000	1190.106445	46.624184
29683.876968	-1287.614000	1188.984375	123.411079
29683.876968	-1287.614000	1187.861328	98.506165
29683.876968	-1287.614000	1186.738281	38.019714
29683.876968	-1287.614000	1185.614258	32.273949
29683.876968	-1287.614000	1184.491211	28.388775
29683.876968	-1287.614000	1183.367188	-8.180579
29683.876968	-1287.614000	1182.243164	14.462404
29683.876968	-1287.614000	1181.119141	89.975197
29683.876968	-1287.614000	1179.994141	-89.009521
29683.876968	-1287.614000	1178.869141	-53.516548
29683.876968	-1287.614000	1177.744141	-106.830780
29683.876968	-1287.614000	1176.619141	-143.234665
29683.876968	-1287.614000	1175.493164	-103.201073
29683.876968	-1287.614000	1174.368164	-174.106720
29683.876968	-1287.614000	1173.242188	-46.255539
29683.876968	-1287.614000	1172.115234	-143.252319
29683.876968	-1287.614000	1170.989258	-50.616169
29683.876968	-1287.614000	1169.862305	27.639343
29683.876968	-1287.614000	1168.735352	-78.528374
29683.876968	-1287.614000	1167.608398	-52.092659
29683.876968	-1287.614000	1166.481445	-98.649399
29683.876968	-1287.614000	1165.353516	-138.719025
29683.876968	-1287.614000	1164.225586	-59.746357
29683.876968	-1287.614000	1163.097656	-99.921997
29683.876968	-1287.614000	1161.968750	-48.792824
29683.876968	-1287.614000	1160.840820	-133.258774
29683.876968	-1287.614000	1159.711914	-78.670776
29683.876968	-1287.614000	1158.583008	-1.649264
29683.876968	-1287.614000	1157.453125	-30.210930
29683.876968	-1287.614000	1156.324219	-28.193480
29683.876968	-1287.614000	1155.194336	-7.652616
29683.876968	-1287.614000	1154.064453	-29.776529
29683.876968	-1287.614000	1152.933594	-1.280242
29683.876968	-1287.614000	1151.803711	-46.663822
29683.876968	-1287.614000	1150.672852	22.420147
29683.876968	-1287.614000	1149.541992	-21.862394
29683.876968	-1287.614000	1148.411133	-46.000824
29683.876968	-1287.614000	1147.279297	121.659355
29683.876968	-1287.614000	1146.147461	65.642570
29683.876968	-1287.614000	1145.015625	28.201654
29683.876968	-1287.614000	1143.883789	209.215408
29683.876968	-1287.614000	1142.750977	226.027206
29683.876968	-1287.614000	1141.619141	173.310364
29683.876968	-1287.614000	1140.486328	202.782440
29683.876968	-1287.614000	1139.352539	176.104874
29683.876968	-1287.614000	1138.219727	210.369659
29683.876968	-1287.614000	1137.085938	88.173576
29683.876968	-1287.614000	1135.952148	78.892426
29683.876968	-1287.614000	1134.818359	134.837662
29683.876968	-1287.614000	1133.683594	144.037521
29683.876968	-1287.614000	1132.549805	197.991028
29683.876968	-1287.614000	1131.415039	375.681396
29683.876968	-1287.614000	1130.279297	392.459595
29683.876968	-1287.614000	1129.144531	489.038208
29683.876968	-1287.614000	1128.008789	490.592651
29683.876968	-1287.614000	1126.873047	307.935089
29683.876968	-1287.614000	1125.737305	365.428284
29683.876968	-1287.614000	1124.601563	295.314362
29683.876968	-1287.614000	1123.464844	386.167694
29683.876968	-1287.614000	1122.328125	326.252258
29683.876968	-1287.614000	1121.191406	168.401474
29683.876968	-1287.614000	1120.054688	161.642212
29683.876968	-1287.614000	1118.916992	193.086838
29683.876968	-1287.614000	1117.779297	300.957886
29683.876968	-1287.614000	1116.641602	149.928711
29683.876968	-1287.614000	1115.503906	78.229294
29683.876968	-1287.614000	1114.365234	107.598366
29683.876968	-1287.614000	1113.226563	-41.343945
29683.876968	-1287.614000	1112.087891	78.190964
29683.876968	-1287.614000	1110.949219	63.012203
29683.876968	-1287.614000	1109.809570	114.965324
29683.876968	-1287.614000	1108.669922	-2.667285
29683.876968	-1287.614000	1107.530273	150.497711
29683.876968	-1287.614000	1106.390625	150.818268
29683.876968	-1287.614000	1105.250000	35.947941
29683.876968	-1287.614000	1104.109375	206.895813
29683.876968	-1287.614000	1102.968750	120.623856
29683.876968	-1287.614000	1101.828125	260.125275
29683.876968	-1287.614000	1100.686523	200.637558
29683.876968	-1287.614000	1099.544922	249.947220
29683.876968	-1287.614000	1098.403320	74.280899
29683.876968	-1287.614000	1097.261719	266.612793
29683.876968	-1287.614000	1096.120117	32.300434
29683.876968	-1287.614000	1094.977539	273.791565
29683.876968	-1287.614000	1093.834961	133.978836
29683.876968	-1287.614000	1092.691406	127.984802
29683.876968	-1287.614000	1091.548828	136.853729
29683.876968	-1287.614000	1090.405273	192.219223
29683.876968	-1287.614000	1089.261719	148.466751
29683.876968	-1287.614000	1088.118164	-12.406510
29683.876968	-1287.614000	1086.973633	20.295095
29683.876968	-1287.614000	1085.829102	152.217392
29683.876968	-1287.614000	1084.684570	38.534328
29683.876968	-1287.614000	1083.540039	109.026787
29683.876968	-1287.614000	1082.395508	-35.069275
29683.876968	-1287.614000	1081.250000	116.152603
29683.876968	-1287.614000	1080.104492	205.327667
29683.876968	-1287.614000	1078.958984	229.212418
29683.876968	-1287.614000	1077.812500	231.806473
29683.876968	-1287.614000	1076.666016	211.706619
29683.876968	-1287.614000	1075.519531	74.642982
29683.876968	-1287.614000	1074.373047	63.486801
29683.876968	-1287.614000	1073.226563	61.776310
29683.876968	-1287.614000	1072.079102	211.673630
29683.876968	-1287.614000	1070.931641	194.251770
29683.876968	-1287.614000	1069.784180	243.057755
29683.876968	-1287.614000	1068.635742	-4.840098
29683.876968	-1287.614000	1067.487305	178.975037
29683.876968	-1287.614000	1066.338867	151.014557
29683.876968	-1287.614000	1065.190430	223.514984
29683.876968	-1287.614000	1064.041992	181.518463
29683.876968	-1287.614000	1062.892578	255.710388
29683.876968	-1287.614000	1061.743164	387.278229
29683.876968	-1287.614000	1060.593750	173.126022
29683.876968	-1287.614000	1059.443359	197.040100
29683.876968	-1287.614000	1058.292969	251.794983
29683.876968	-1287.614000	1057.142578	104.050537
29683.876968	-1287.614000	1055.992188	213.785950
29683.876968	-1287.614000	1054.841797	93.889603
29683.876968	-1287.614000	1053.690430	148.536942
29683.876968	-1287.614000	1052.539063	65.603653
29683.876968	-1287.614000	1051.387695	156.976196
29683.876968	-1287.614000	1050.235352	70.339691
29683.876968	-1287.614000	1049.083984	-3.406481
29683.876968	-1287.614000	1047.931641	72.873352
29683.876968	-1287.614000	1046.778320	15.798959
29683.876968	-1287.614000	1045.625977	169.120468
29683.876968	-1287.614000	1044.472656	115.852783
29683.876968	-1287.614000	1043.319336	35.708755
29683.876968	-1287.614000	1042.166016	10.959110
29683.876968	-1287.614000	1041.012695	166.829666
29683.876968	-1287.614000	1039.858398	43.886711
29683.876968	-1287.614000	1038.704102	125.589272
29683.876968	-1287.614000	1037.549805	124.776947
29683.876968	-1287.614000	1036.394531	-84.805817
29683.876968	-1287.614000	1035.239258	22.208288
29683.876968	-1287.614000	1034.083984	110.796547
29683.876968	-1287.614000	1032.928711	289.931885
29683.876968	-1287.614000	1031.773438	78.862541
29683.876968	-1287.614000	1030.617188	125.655670
29683.876968	-1287.614000	1029.460938	158.220184
29683.876968	-1287.614000	1028.304688	18.427422
29683.876968	-1287.614000	1027.147461	-35.689735
29683.876968	-1287.614000	1025.991211	63.727032
29683.876968	-1287.614000	1024.833984	166.038620
29683.876968	-1287.614000	1023.675781	15.187116
29683.876968	-1287.614000	1022.518555	-94.048134
29683.876968	-1287.614000	1021.360352	104.132607
29683.876968	-1287.614000	1020.202148	15.004173
29683.876968	-1287.614000	1019.043945	40.219162
29683.876968	-1287.614000	1017.884766	38.936771
29683.876968	-1287.614000	1016.726563	-79.860825
29683.876968	-1287.614000	1015.567383	25.172329
29683.876968	-1287.614000	1014.407227	10.576966
29683.876968	-1287.614000	1013.248047	15.360767
29683.876968	-1287.614000	1012.087891	89.799751
29683.876968	-1287.614000	1010.927734	97.063431
29683.876968	-1287.614000	1009.767578	34.141335
29683.876968	-1287.614000	1008.606445	-111.994980
29683.876968	-1287.614000	1007.446289	112.866455
29683.876968	-1287.614000	1006.285156	-2.918931
29683.876968	-1287.614000	1005.123047	61.663746
29683.876968	-1287.614000	1003.961914	-81.700813
29683.876968	-1287.614000	1002.799805	26.740704
29683.876968	-1287.614000	1001.637695	23.530493
29683.876968	-1287.614000	1000.475586	142.317276
29683.876968	-1287.614000	999.312500	64.685272
29683.876968	-1287.614000	998.149414	26.632809
29683.876968	-1287.614000	996.986328	48.451656
29683.876968	-1287.614000	995.823242	86.150879
29683.876968	-1287.614000	994.659180	26.711140
29683.876968	-1287.614000	993.496094	-14.290975
29683.876968	-1287.614000	992.332031	65.675888
29683.876968	-1287.614000	991.166992	-78.846527
29683.876968	-1287.614000	990.002930	-70.307434
29683.876968	-1287.614000	988.837891	91.100311
29683.876968	-1287.614000	987.672852	97.357086
29683.876968	-1287.614000	986.506836	37.661240
29683.876968	-1287.614000	985.341797	81.060730
29683.876968	-1287.614000	984.175781	5.908504
29683.876968	-1287.614000	983.009766	105.688408
29683.876968	-1287.614000	981.843750	251.488586
29683.876968	-1287.614000	980.676758	103.982933
29683.876968	-1287.614000	979.509766	184.476593
29683.876968	-1287.614000	978.342773	145.650009
29683.876968	-1287.614000	977.175781	0.584526
29683.876968	-1287.614000	976.007813	78.965660
29683.876968	-1287.614000	974.839844	46.340332
29683.876968	-1287.614000	973.671875	-150.012878
29683.876968	-1287.614000	972.503906	10.781777
29683.876968	-1287.614000	971.334961	18.608536
29683.876968	-1287.614000	970.166016	-113.479805
29683.876968	-1287.614000	968.997070	-14.395588
29683.876968	-1287.614000	967.828125	-25.478390
29683.876968	-1287.614000	966.658203	-16.918730
29683.876968	-1287.614000	965.488281	-51.358112
29683.876968	-1287.614000	964.318359	100.194931
29683.876968	-1287.614000	963.148438	133.132248
29683.876968	-1287.614000	961.977539	13.860468
29683.876968	-1287.614000	960.806641	-69.318542
29683.876968	-1287.614000	959.635742	57.976334
29683.876968	-1287.614000	958.463867	-126.500664
29683.876968	-1287.614000	957.292969	46.684612
29683.876968	-1287.614000	956.121094	29.885599
29683.876968	-1287.614000	954.948242	-92.760269
29683.876968	-1287.614000	953.776367	-15.273898
29683.876968	-1287.614000	952.603516	59.821651
29683.876968	-1287.614000	951.430664	-3.300604
29683.876968	-1287.614000	950.257813	119.436722
29683.876968	-1287.614000	949.084961	15.445965
29683.876968	-1287.614000	947.911133	58.817238
29683.876968	-1287.614000	946.737305	188.248962
29683.876968	-1287.614000	945.563477	65.628578
29683.876968	-1287.614000	944.388672	156.573013
29683.876968	-1287.614000	943.213867	210.915482
29683.876968	-1287.614000	942.039063	279.154236
29683.876968	-1287.614000	940.864258	72.047821
29683.876968	-1287.614000	939.688477	198.478256
29683.876968	-1287.614000	938.513672	219.853958
29683.876968	-1287.614000	937.337891	158.088226
29683.876968	-1287.614000	936.161133	219.527939
29683.876968	-1287.614000	934.985352	202.611771
29683.876968	-1287.614000	933.808594	358.167053
29683.876968	-1287.614000	932.631836	222.598816
29683.876968	-1287.614000	931.454102	373.666931
29683.876968	-1287.614000	930.277344	251.532822
29683.876968	-1287.614000	929.099609	189.833328
29683.876968	-1287.614000	927.921875	307.245392
29683.876968	-1287.614000	926.743164	250.055832
29683.876968	-1287.614000	925.565430	166.070999
29683.876968	-1287.614000	924.386719	245.374039
29683.876968	-1287.614000	923.208008	257.560822
29683.876968	-1287.614000	922.028320	198.197937
29683.876968	-1287.614000	920.849609	196.982376
29683.876968	-1287.614000	919.669922	199.283356
29683.876968	-1287.614000	919.474609	24.032461
29683.876968	-1287.614000	918.309570	141.270584
29683.876968	-1287.614000	917.143555	198.133530
29683.876968	-1287.614000	915.977539	183.486725
29683.876968	-1287.614000	914.810547	108.543648
29683.876968	-1287.614000	913.644531	160.910019
29683.876968	-1287.614000	912.477539	275.767487
29683.876968	-1287.614000	911.310547	310.222717
29683.876968	-1287.614000	910.143555	59.012608
29683.876968	-1287.614000	908.975586	93.499084
29683.876968	-1287.614000	907.807617	96.740898
29683.876968	-1287.614000	906.639648	77.679085
29683.876968	-1287.614000	905.471680	-23.879101
29683.876968	-1287.614000	904.303711	-103.101524
29683.876968	-1287.614000	903.134766	-17.349461
29683.876968	-1287.614000	901.965820	12.657031
29683.876968	-1287.614000	900.796875	82.755455
29683.876968	-1287.614000	899.626953	-47.652294
29683.876968	-1287.614000	898.457031	-6.518707
29683.876968	-1287.614000	897.287109	-67.827095
29683.876968	-1287.614000	896.117188	-4.443088
29683.876968	-1287.614000	894.947266	85.625572
29683.876968	-1287.614000	893.776367	57.720215
29683.876968	-1287.614000	892.605469	-154.833832
29683.876968	-1287.614000	891.434570	-26.970102
29683.876968	-1287.614000	890.262695	-77.068947
29683.876968	-1287.614000	889.091797	-15.974450
29683.876968	-1287.614000	887.919922	16.199089
29683.876968	-1287.614000	886.748047	-93.883194
29683.876968	-1287.614000	885.575195	-119.477150
29683.876968	-1287.614000	884.403320	-111.735481
29683.876968	-1287.614000	883.230469	-70.675819
29683.876968	-1287.614000	882.057617	-31.851793
29683.876968	-1287.614000	880.883789	26.942146
29683.876968	-1287.614000	879.710938	-43.038513
29683.876968	-1287.614000	878.537109	-155.155655
29683.876968	-1287.614000	877.362305	-27.578213
29683.876968	-1287.614000	876.188477	-2.102956
29683.876968	-1287.614000	875.013672	-187.347153
29683.876968	-1287.614000	873.839844	22.212236
29683.876968	-1287.614000	872.664063	63.190319
29683.876968	-1287.614000	871.489258	144.051559
29683.876968	-1287.614000	870.313477	43.153801
29683.876968	-1287.614000	869.138672	75.242683
29683.876968	-1287.614000	867.962891	-87.624741
29683.876968	-1287.614000	866.786133	-144.108658
29683.876968	-1287.614000	865.610352	-5.703157
29683.876968	-1287.614000	864.433594	-0.187160
29683.876968	-1287.614000	863.256836	-103.132935
29683.876968	-1287.614000	862.079102	-126.363785
29683.876968	-1287.614000	860.902344	-191.624344
29683.876968	-1287.614000	859.724609	-33.430332
29683.876968	-1287.614000	858.546875	-41.174850
29683.876968	-1287.614000	857.368164	-6.899975
29683.876968	-1287.614000	856.190430	-105.285408
29683.876968	-1287.614000	855.011719	-115.215553
29683.876968	-1287.614000	853.833008	-78.732933
29683.876968	-1287.614000	852.654297	-135.059311
29683.876968	-1287.614000	851.474609	-69.867149
29683.876968	-1287.614000	850.294922	-31.202915
29683.876968	-1287.614000	849.115234	-153.741501
29683.876968	-1287.614000	847.935547	24.003820
29683.876968	-1287.614000	846.754883	-98.491989
29683.876968	-1287.614000	845.575195	-66.471184
29683.876968	-1287.614000	844.393555	-14.603363
29683.876968	-1287.614000	843.212891	-121.574135
29683.876968	-1287.614000	842.032227	-7.969085
29683.876968	-1287.614000	840.850586	-108.280556
29683.876968	-1287.614000	839.668945	-29.993519
29683.876968	-1287.614000	838.486328	-26.671610
29683.876968	-1287.614000	837.304688	18.513208
29683.876968	-1287.614000	836.122070	-79.517387
29683.876968	-1287.614000	834.939453	3.104636
29683.876968	-1287.614000	833.756836	-55.245865
29683.876968	-1287.614000	832.573242	22.933844
29683.876968	-1287.614000	831.389648	26.238358
29683.876968	-1287.614000	830.206055	-34.283176
29683.876968	-1287.614000	829.022461	-2.367260
29683.876968	-1287.614000	827.838867	25.134371
29683.876968	-1287.614000	826.654297	81.217094
29683.876968	-1287.614000	825.469727	-58.434170
29683.876968	-1287.614000	824.284180	-74.910973
29683.876968	-1287.614000	823.099609	-82.592812
29683.876968	-1287.614000	821.914063	-125.434570
29683.876968	-1287.614000	820.728516	-126.515030
29683.876968	-1287.614000	819.542969	-17.762602
29683.876968	-1287.614000	818.356445	-34.243484
29683.876968	-1287.614000	817.169922	26.132488
29683.876968	-1287.614000	815.983398	-3.529432
29683.876968	-1287.614000	814.796875	-182.436508
29683.876968	-1287.614000	813.609375	-86.965981
29683.876968	-1287.614000	812.422852	-22.257597
29683.876968	-1287.614000	811.235352	68.743919
29683.876968	-1287.614000	810.046875	-17.934835
29683.876968	-1287.614000	808.859375	-111.162582
29683.876968	-1287.614000	807.670898	-180.242004
29683.876968	-1287.614000	806.482422	7.133874
29683.876968	-1287.614000	805.293945	54.184998
29683.876968	-1287.614000	804.104492	0.434439
29683.876968	-1287.614000	802.915039	-2.922171
29683.876968	-1287.614000	801.725586	-25.993010
29683.876968	-1287.614000	800.536133	62.601048
29683.876968	-1287.614000	799.345703	32.946495
29683.876968	-1287.614000	798.155273	60.198944
29683.876968	-1287.614000	796.964844	15.225296
29683.876968	-1287.614000	795.774414	22.765497
29683.876968	-1287.614000	794.583008	-72.502686
29683.876968	-1287.614000	793.392578	57.493042
29683.876968	-1287.614000	792.200195	108.722565
29683.876968	-1287.614000	791.008789	111.831612
29683.876968	-1287.614000	789.816406	7.847335
29683.876968	-1287.614000	788.625000	-58.961632
29683.876968	-1287.614000	787.432617	42.453320
29683.876968	-1287.614000	786.239258	-120.449173
29683.876968	-1287.614000	785.046875	-27.819874
29683.876968	-1287.614000	783.853516	123.706169
29683.876968	-1287.614000	782.660156	111.457474
29683.876968	-1287.614000	781.465820	103.568207
29683.876968	-1287.614000	780.272461	43.306133
29683.876968	-1287.614000	779.078125	-6.035666
29683.876968	-1287.614000	777.883789	31.864511
29683.876968	-1287.614000	776.688477	198.380539
29683.876968	-1287.614000	775.494141	74.878868
29683.876968	-1287.614000	774.298828	36.416656
29683.876968	-1287.614000	773.103516	39.357632
29683.876968	-1287.614000	771.907227	-49.216396
29683.876968	-1287.614000	770.711914	134.496674
29683.876968	-1287.614000	769.515625	109.061707
29683.876968	-1287.614000	768.318359	151.117447
29683.876968	-1287.614000	767.122070	16.818604
29683.876968	-1287.614000	765.924805	37.079559
29683.876968	-1287.614000	764.727539	94.305122
29683.876968	-1287.614000	763.530273	112.331848
29683.876968	-1287.614000	762.333008	82.484085
29683.876968	-1287.614000	761.134766	-69.140884
29683.876968	-1287.614000	759.936523	27.122066
29683.876968	-1287.614000	758.738281	110.284286
29683.876968	-1287.614000	757.540039	145.583206
29683.876968	-1287.614000	756.340820	87.422676
29683.876968	-1287.614000	755.141602	209.563095
29683.876968	-1287.614000	753.942383	34.095898
29683.876968	-1287.614000	752.742188	49.760815
29683.876968	-1287.614000	751.541992	119.670341
29683.876968	-1287.614000	750.341797	5.041389
29683.876968	-1287.614000	749.141602	122.626984
29683.876968	-1287.614000	747.941406	305.227539
29683.876968	-1287.614000	746.740234	79.942078
29683.876968	-1287.614000	745.539063	69.422234
29683.876968	-1287.614000	744.337891	89.237450
29683.876968	-1287.614000	743.135742	35.318722
29683.876968	-1287.614000	741.933594	70.256714
29683.876968	-1287.614000	740.731445	-83.358635
29683.876968	-1287.614000	739.529297	137.846817
29683.876968	-1287.614000	738.326172	226.814713
29683.876968	-1287.614000	737.124023	81.847580
29683.876968	-1287.614000	735.919922	302.804291
29683.876968	-1287.614000	734.716797	333.159210
29683.876968	-1287.614000	733.513672	36.693787
29683.876968	-1287.614000	732.309570	246.621567
29683.876968	-1287.614000	731.105469	201.174973
29683.876968	-1287.614000	729.900391	151.394150
29683.876968	-1287.614000	728.696289	-30.295488
29683.876968	-1287.614000	727.491211	131.795563
29683.876968	-1287.614000	726.286133	-90.938553
29683.876968	-1287.614000	725.080078	-15.399167
29683.876968	-1287.614000	723.874023	176.744919
29683.876968	-1287.614000	722.668945	57.731297
29683.876968	-1287.614000	721.461914	126.621613
29683.876968	-1287.614000	720.255859	98.289497
29683.876968	-1287.614000	719.048828	61.303528
29683.876968	-1287.614000	717.841797	-3.756895
29683.876968	-1287.614000	716.634766	-19.193897
29683.876968	-1287.614000	715.427734	71.051239
29683.876968	-1287.614000	714.219727	-9.167698
29683.876968	-1287.614000	713.011719	87.439743
29683.876968	-1287.614000	711.803711	108.513336
29683.876968	-1287.614000	710.594727	67.033745
29683.876968	-1287.614000	709.385742	10.450695
29683.876968	-1287.614000	708.176758	29.267246
29683.876968	-1287.614000	706.967773	9.264791
29683.876968	-1287.614000	705.758789	21.540148
29683.876968	-1287.614000	704.548828	-9.290895
29683.876968	-1287.614000	703.338867	11.520855
29683.876968	-1287.614000	702.127930	-4.302914
29683.876968	-1287.614000	700.917969	57.309982
29683.876968	-1287.614000	699.707031	-61.862782
29683.876968	-1287.614000	698.496094	180.344131
29683.876968	-1287.614000	697.285156	78.322502
29683.876968	-1287.614000	696.073242	152.612717
29683.876968	-1287.614000	694.861328	127.948578
29683.876968	-1287.614000	693.649414	219.310730
29683.876968	-1287.614000	692.436523	188.115967
29683.876968	-1287.614000	691.224609	167.635223
29683.876968	-1287.614000	690.011719	224.444534
29683.876968	-1287.614000	688.798828	203.882385
29683.876968	-1287.614000	687.584961	93.115936
29683.876968	-1287.614000	686.372070	132.608292
29683.876968	-1287.614000	685.158203	15.381065
29683.876968	-1287.614000	683.943359	93.407982
29683.876968	-1287.614000	682.729492	72.683640
29683.876968	-1287.614000	681.514648	137.711868
29683.876968	-1287.614000	680.299805	314.169281
29683.876968	-1287.614000	679.084961	201.098114
29683.876968	-1287.614000	677.869141	160.903564
29683.876968	-1287.614000	676.653320	294.254578
29683.876968	-1287.614000	675.437500	127.564980
29683.876968	-1287.614000	674.221680	162.246628
29683.876968	-1287.614000	673.004883	254.688507
29683.876968	-1287.614000	671.789063	135.080704
29683.876968	-1287.614000	670.571289	205.991852
29683.876968	-1287.614000	669.354492	184.800644
29683.876968	-1287.614000	668.136719	298.372986
29683.876968	-1287.614000	666.919922	330.559937
29683.876968	-1287.614000	665.701172	159.498077
29683.876968	-1287.614000	664.483398	210.852188
29683.876968	-1287.614000	663.264648	270.688110
29683.876968	-1287.614000	662.045898	206.478516
29683.876968	-1287.614000	660.827148	199.947830
29683.876968	-1287.614000	659.608398	300.200409
29683.876968	-1287.614000	658.388672	257.242523
29683.876968	-1287.614000	657.168945	128.828262
29683.876968	-1287.614000	655.949219	258.779755
29683.876968	-1287.614000	654.728516	318.179871
29683.876968	-1287.614000	653.507813	247.314056
29683.876968	-1287.614000	652.287109	172.161697
29683.876968	-1287.614000	651.066406	182.328171
29683.876968	-1287.614000	649.844727	207.371277
29683.876968	-1287.614000	648.623047	228.088913
29683.876968	-1287.614000	647.401367	67.524422
29683.876968	-1287.614000	646.179688	203.270996
29683.876968	-1287.614000	644.957031	191.859497
29683.876968	-1287.614000	643.734375	142.051346
29683.876968	-1287.614000	642.511719	264.763977
29683.876968	-1287.614000	641.289063	234.029556
29683.876968	-1287.614000	640.065430	190.481369
29683.876968	-1287.614000	638.841797	229.927887
29683.876968	-1287.614000	637.618164	145.858368
29683.876968	-1287.614000	636.393555	225.627655
29683.876968	-1287.614000	635.168945	332.971649
29683.876968	-1287.614000	633.944336	212.620773
29683.876968	-1287.614000	632.719727	236.882721
29683.876968	-1287.614000	631.494141	271.713257
29683.876968	-1287.614000	630.269531	100.283852
29683.876968	-1287.614000	629.042969	132.901199
29683.876968	-1287.614000	627.817383	142.082916
29683.876968	-1287.614000	626.590820	104.472351
29683.876968	-1287.614000	625.365234	-1.136633
29683.876968	-1287.614000	624.137695	111.964584
29683.876968	-1287.614000	622.911133	123.063652
29683.876968	-1287.614000	621.683594	10.996017
29683.876968	-1287.614000	620.456055	159.948822
29683.876968	-1287.614000	619.228516	-34.924480
29683.876968	-1287.614000	618.000977	-53.702396
29683.876968	-1287.614000	616.772461	48.361050
29683.876968	-1287.614000	615.543945	160.932678
29683.876968	-1287.614000	614.314453	80.495720
29683.876968	-1287.614000	613.085938	125.091965
29683.876968	-1287.614000	611.856445	12.813166
29683.876968	-1287.614000	610.626953	110.267754
29683.876968	-1287.614000	609.397461	-21.120756
29683.876968	-1287.614000	608.166992	16.905624
29683.876968	-1287.614000	606.936523	35.812874
29683.876968	-1287.614000	605.706055	63.130505
29683.876968	-1287.614000	604.474609	124.246300
29683.876968	-1287.614000	603.244141	39.297935
29683.876968	-1287.614000	602.012695	22.027531
29683.876968	-1287.614000	600.780273	148.529953
29683.876968	-1287.614000	599.548828	-4.178450
29683.876968	-1287.614000	598.316406	43.961628
29683.876968	-1287.614000	597.083984	185.031769
29683.876968	-1287.614000	595.851563	34.382835
29683.876968	-1287.614000	594.618164	8.397035
29683.876968	-1287.614000	593.384766	3.498360
29683.876968	-1287.614000	592.151367	-43.680061
29683.876968	-1287.614000	590.917969	-88.772186
29683.876968	-1287.614000	589.683594	-38.903736
29683.876968	-1287.614000	588.449219	-41.862457
29683.876968	-1287.614000	587.214844	-74.404343
29683.876968	-1287.614000	585.979492	127.178780
29683.876968	-1287.614000	584.745117	-95.292076
29683.876968	-1287.614000	583.509766	-43.591850
29683.876968	-1287.614000	582.273438	-2.501010
29683.876968	-1287.614000	581.038086	-56.315533
29683.876968	-1287.614000	579.801758	-30.076624
29683.876968	-1287.614000	578.565430	-50.241127
29683.876968	-1287.614000	577.329102	197.072220
29683.876968	-1287.614000	576.091797	134.661758
29683.876968	-1287.614000	574.854492	95.397385
29683.876968	-1287.614000	573.617188	-4.937726
29683.876968	-1287.614000	572.378906	157.800858
29683.876968	-1287.614000	571.141602	-62.521156
29683.876968	-1287.614000	569.903320	32.762112
29683.876968	-1287.614000	568.664063	8.077300
29683.876968	-1287.614000	567.425781	96.918243
29683.876968	-1287.614000	566.186523	19.594217
29683.876968	-1287.614000	564.947266	-120.791649
29683.876968	-1287.614000	563.708008	89.787483
29683.876968	-1287.614000	562.467773	-157.782913
29683.876968	-1287.614000	561.227539	151.363083
29683.876968	-1287.614000	559.987305	-77.286247
29683.876968	-1287.614000	558.747070	0.676827
29683.876968	-1287.614000	557.505859	26.086893
29683.876968	-1287.614000	556.264648	-198.300354
29683.876968	-1287.614000	555.023438	-9.258807
29683.876968	-1287.614000	553.781250	-34.317722
29683.876968	-1287.614000	552.539063	-103.444939
29683.876968	-1287.614000	551.296875	-59.339169
29683.876968	-1287.614000	550.054688	-50.925194
29683.876968	-1287.614000	548.811523	-19.494053
29683.876968	-1287.614000	547.569336	57.999760
29683.876968	-1287.614000	546.325195	-44.762295
29683.876968	-1287.614000	545.082031	97.574997
29683.876968	-1287.614000	543.837891	-11.494898
29683.876968	-1287.614000	542.593750	32.302074
29683.876968	-1287.614000	541.349609	-13.964242
29683.876968	-1287.614000	540.105469	17.199341
29683.876968	-1287.614000	538.860352	-142.097992
29683.876968	-1287.614000	537.615234	54.290916
29683.876968	-1287.614000	536.369141	14.215938
29683.876968	-1287.614000	535.124023	-40.502605
29683.876968	-1287.614000	533.877930	11.397465
29683.876968	-1287.614000	532.631836	-11.998629
29683.876968	-1287.614000	531.384766	-43.773239
29683.876968	-1287.614000	530.138672	64.431190
29683.876968	-1287.614000	528.891602	-76.016869
29683.876968	-1287.614000	527.643555	-124.541809
29683.876968	-1287.614000	526.396484	-310.871918
29683.876968	-1287.614000	525.148438	-6.575363
29683.876968	-1287.614000	523.900391	-119.852020
29683.876968	-1287.614000	522.652344	25.643288
29683.876968	-1287.614000	521.403320	-118.932236
29683.876968	-1287.614000	520.154297	-138.321396
29683.876968	-1287.614000	518.905273	65.405426
29683.876968	-1287.614000	517.656250	-45.789963
29683.876968	-1287.614000	516.406250	145.278366
29683.876968	-1287.614000	515.156250	38.237747
29683.876968	-1287.614000	513.906250	12.481098
29683.876968	-1287.614000	512.655273	-71.613838
29683.876968	-1287.614000	511.404297	-24.485653
29683.876968	-1287.614000	510.153320	-12.793221
29683.876968	-1287.614000	508.902344	-65.657326
29683.876968	-1287.614000	507.650391	131.232758
29683.876968	-1287.614000	506.398438	-121.439026
29683.876968	-1287.614000	505.146484	-95.247627
29683.876968	-1287.614000	503.893555	-29.570389
29683.876968	-1287.614000	502.641602	-74.146599
29683.876968	-1287.614000	501.388672	30.966532
29683.876968	-1287.614000	500.134766	-19.881752
29683.876968	-1287.614000	498.881836	31.109798
29683.876968	-1287.614000	497.627930	-57.147423
29683.876968	-1287.614000	496.374023	141.278000
29683.876968	-1287.614000	495.119141	32.230152
29683.876968	-1287.614000	493.865234	93.479019
29683.876968	-1287.614000	492.610352	-50.834705
29683.876968	-1287.614000	491.355469	132.821884
29683.876968	-1287.614000	490.099609	63.225842
29683.876968	-1287.614000	488.843750	138.863632
29683.876968	-1287.614000	487.587891	139.783981
29683.876968	-1287.614000	486.332031	47.371506
29683.876968	-1287.614000	485.075195	27.541264
29683.876968	-1287.614000	483.818359	42.939297
29683.876968	-1287.614000	482.561523	-97.111885
29683.876968	-1287.614000	481.304688	-44.433865
29683.876968	-1287.614000	480.046875	120.056671
29683.876968	-1287.614000	478.789063	100.138977
29683.876968	-1287.614000	477.531250	98.846306
29683.876968	-1287.614000	476.272461	49.918091
29683.876968	-1287.614000	475.013672	48.592926
29683.876968	-1287.614000	473.754883	-4.481774
29683.876968	-1287.614000	472.496094	124.496613
29683.876968	-1287.614000	471.236328	183.070480
29683.876968	-1287.614000	469.976563	30.673611
29683.876968	-1287.614000	468.716797	165.691986
29683.876968	-1287.614000	467.456055	-3.222852
29683.876968	-1287.614000	466.196289	247.422363
29683.876968	-1287.614000	464.935547	134.296646
29683.876968	-1287.614000	463.673828	-30.452589
29683.876968	-1287.614000	462.413086	347.993530
29683.876968	-1287.614000	461.151367	166.694839
29683.876968	-1287.614000	459.889648	208.389984
29683.876968	-1287.614000	458.626953	322.265625
29683.876968	-1287.614000	457.364258	299.874268
29683.876968	-1287.614000	456.101563	42.279999
29683.876968	-1287.614000	454.838867	236.455032
29683.876968	-1287.614000	453.575195	298.530945
29683.876968	-1287.614000	452.312500	205.924103
29683.876968	-1287.614000	451.047852	4.064738
29683.876968	-1287.614000	449.784180	109.305878
29683.876968	-1287.614000	448.519531	-43.083839
29683.876968	-1287.614000	447.254883	226.815857
29683.876968	-1287.614000	445.990234	109.383385
29683.876968	-1287.614000	444.725586	103.135757
29683.876968	-1287.614000	443.459961	275.924377
29683.876968	-1287.614000	442.194336	104.887100
29683.876968	-1287.614000	440.927734	281.600647
29683.876968	-1287.614000	439.662109	1.490445
29683.876968	-1287.614000	438.395508	103.986946
29683.876968	-1287.614000	437.127930	335.916046
29683.876968	-1287.614000	435.861328	123.621101
29683.876968	-1287.614000	434.593750	178.545181
29683.876968	-1287.614000	433.326172	159.394562
29683.876968	-1287.614000	432.058594	179.212173
29683.876968	-1287.614000	430.790039	92.125275
29683.876968	-1287.614000	429.521484	234.999664
29683.876968	-1287.614000	428.252930	270.961426
29683.876968	-1287.614000	426.984375	105.651634
29683.876968	-1287.614000	425.714844	207.111893
29683.876968	-1287.614000	424.445313	158.647232
29683.876968	-1287.614000	423.174805	206.513199
29683.876968	-1287.614000	421.905273	194.782272
29683.876968	-1287.614000	420.634766	258.810852
29683.876968	-1287.614000	419.364258	185.345123
29683.876968	-1287.614000	418.092773	142.531906
29683.876968	-1287.614000	416.822266	179.539505
29683.876968	-1287.614000	415.550781	304.493561
29683.876968	-1287.614000	414.278320	171.171799
29683.876968	-1287.614000	413.006836	158.601028
29683.876968	-1287.614000	411.734375	147.934708
29683.876968	-1287.614000	410.461914	169.877655
29683.876968	-1287.614000	409.188477	218.256073
29683.876968	-1287.614000	407.916016	237.818253
29683.876968	-1287.614000	406.642578	271.520325
29683.876968	-1287.614000	405.368164	239.585068
29683.876968	-1287.614000	404.094727	293.374298
29683.876968	-1287.614000	402.820313	271.312164
29683.876968	-1287.614000	401.545898	216.369202
29683.876968	-1287.614000	400.270508	77.467667
29683.876968	-1287.614000	398.996094	169.286194
29683.876968	-1287.614000	397.720703	64.766533
29683.876968	-1287.614000	396.444336	184.694626
29683.876968	-1287.614000	395.168945	167.566818
29683.876968	-1287.614000	393.892578	199.194443
29683.876968	-1287.614000	392.616211	228.528305
29683.876968	-1287.614000	391.339844	329.012665
29683.876968	-1287.614000	390.062500	296.597626
29683.876968	-1287.614000	388.785156	192.553207
29683.876968	-1287.614000	387.507813	302.372375
29683.876968	-1287.614000	386.229492	226.346725
29683.876968	-1287.614000	384.951172	121.530388
29683.876968	-1287.614000	383.672852	100.001602
29683.876968	-1287.614000	382.394531	186.143585
29683.876968	-1287.614000	381.115234	135.455048
29683.876968	-1287.614000	379.835938	94.639999
29683.876968	-1287.614000	378.556641	128.829437
29683.876968	-1287.614000	377.277344	-20.534328
29683.876968	-1287.614000	375.997070	244.927246
29683.876968	-1287.614000	374.716797	202.686691
29683.876968	-1287.614000	373.435547	19.714727
29683.876968	-1287.614000	372.155273	-78.147537
29683.876968	-1287.614000	370.874023	22.865545
29683.876968	-1287.614000	369.591797	94.941826
29683.876968	-1287.614000	368.310547	30.401941
29683.876968	-1287.614000	367.028320	18.259308
29683.876968	-1287.614000	365.746094	109.265877
29683.876968	-1287.614000	364.463867	-45.989342
29683.876968	-1287.614000	363.180664	82.598602
29683.876968	-1287.614000	361.897461	44.161179
29683.876968	-1287.614000	360.614258	-21.159321
29683.876968	-1287.614000	359.330078	18.522186
29683.876968	-1287.614000	358.045898	-88.430733
29683.876968	-1287.614000	356.761719	47.503613
29683.876968	-1287.614000	355.477539	67.213799
29683.876968	-1287.614000	354.192383	-102.248192
29683.876968	-1287.614000	352.907227	-10.759212
29683.876968	-1287.614000	351.622070	-65.848709
29683.876968	-1287.614000	350.336914	143.867584
29683.876968	-1287.614000	349.050781	113.781609
29683.876968	-1287.614000	347.764648	-131.644196
29683.876968	-1287.614000	346.477539	45.503750
29683.876968	-1287.614000	345.191406	80.175797
29683.876968	-1287.614000	343.904297	-9.381141
29683.876968	-1287.614000	342.616211	27.804138
29683.876968	-1287.614000	341.329102	74.338371
29683.876968	-1287.614000	340.041016	-59.975513
29683.876968	-1287.614000	338.752930	90.078804
29683.876968	-1287.614000	337.463867	37.036510
29683.876968	-1287.614000	336.175781	-162.346008
29683.876968	-1287.614000	334.886719	-21.024817
29683.876968	-1287.614000	333.596680	50.612579
29683.876968	-1287.614000	332.307617	4.164557
29683.876968	-1287.614000	331.017578	-73.531479
29683.876968	-1287.614000	329.727539	-129.955093
29683.876968	-1287.614000	328.436523	-23.871016
29683.876968	-1287.614000	327.146484	-122.660385
29683.876968	-1287.614000	325.855469	-210.376801
29683.876968	-1287.614000	324.563477	-186.190125
29683.876968	-1287.614000	323.272461	-163.080338
29683.876968	-1287.614000	321.980469	-68.547218
29683.876968	-1287.614000	320.688477	-7.463925
29683.876968	-1287.614000	319.395508	-76.617592
29683.876968	-1287.614000	318.103516	-161.020538
29683.876968	-1287.614000	316.810547	-121.750366
29683.876968	-1287.614000	315.516602	75.318855
29683.876968	-1287.614000	314.223633	85.774902
29683.876968	-1287.614000	312.929688	-66.208313
29683.876968	-1287.614000	311.635742	26.088858
29683.876968	-1287.614000	310.340820	195.398468
29683.876968	-1287.614000	309.045898	168.041534
29683.876968	-1287.614000	307.750977	235.795761
29683.876968	-1287.614000	306.456055	344.264404
29683.876968	-1287.614000	305.160156	270.149353
29683.876968	-1287.614000	303.865234	182.492889
29683.876968	-1287.614000	302.568359	406.714844
29683.876968	-1287.614000	301.272461	325.838837
29683.876968	-1287.614000	299.975586	484.350861
29683.876968	-1287.614000	298.678711	592.882507
