#X		#Y		#Wave		#Intensity
29479.743298	-1360.054667	1999.980469	-96.176819
29479.743298	-1360.054667	1999.016602	91.642036
29479.743298	-1360.054667	1998.052734	114.121239
29479.743298	-1360.054667	1997.087891	97.095901
29479.743298	-1360.054667	1996.123047	-13.920993
29479.743298	-1360.054667	1995.158203	68.472710
29479.743298	-1360.054667	1994.193359	-151.184921
29479.743298	-1360.054667	1993.228516	141.966568
29479.743298	-1360.054667	1992.262695	4.339997
29479.743298	-1360.054667	1991.297852	173.841370
29479.743298	-1360.054667	1990.332031	-55.065887
29479.743298	-1360.054667	1989.366211	126.985718
29479.743298	-1360.054667	1988.399414	44.359253
29479.743298	-1360.054667	1987.433594	-119.754509
29479.743298	-1360.054667	1986.466797	250.473587
29479.743298	-1360.054667	1985.500977	34.655045
29479.743298	-1360.054667	1984.534180	-106.831474
29479.743298	-1360.054667	1983.567383	-62.800964
29479.743298	-1360.054667	1982.599609	-55.774754
29479.743298	-1360.054667	1981.632813	-31.373007
29479.743298	-1360.054667	1980.665039	-36.551823
29479.743298	-1360.054667	1979.697266	-155.271591
29479.743298	-1360.054667	1978.729492	44.673923
29479.743298	-1360.054667	1977.761719	-39.318539
29479.743298	-1360.054667	1976.792969	-7.203770
29479.743298	-1360.054667	1975.825195	-71.293526
29479.743298	-1360.054667	1974.856445	-9.462362
29479.743298	-1360.054667	1973.887695	72.134262
29479.743298	-1360.054667	1972.918945	60.014713
29479.743298	-1360.054667	1971.949219	18.348000
29479.743298	-1360.054667	1970.980469	213.452209
29479.743298	-1360.054667	1970.010742	-30.299158
29479.743298	-1360.054667	1969.041016	-69.343582
29479.743298	-1360.054667	1968.071289	167.669800
29479.743298	-1360.054667	1967.101563	126.205185
29479.743298	-1360.054667	1966.130859	-33.464123
29479.743298	-1360.054667	1965.161133	33.550327
29479.743298	-1360.054667	1964.190430	16.834879
29479.743298	-1360.054667	1963.219727	39.541191
29479.743298	-1360.054667	1962.249023	5.641697
29479.743298	-1360.054667	1961.277344	-11.001947
29479.743298	-1360.054667	1960.306641	9.289882
29479.743298	-1360.054667	1959.334961	24.663668
29479.743298	-1360.054667	1958.363281	35.124828
29479.743298	-1360.054667	1957.391602	80.022118
29479.743298	-1360.054667	1956.419922	9.343991
29479.743298	-1360.054667	1955.447266	105.868591
29479.743298	-1360.054667	1954.474609	91.753883
29479.743298	-1360.054667	1953.501953	114.509995
29479.743298	-1360.054667	1952.529297	139.717407
29479.743298	-1360.054667	1951.556641	54.367794
29479.743298	-1360.054667	1950.583984	-3.933814
29479.743298	-1360.054667	1949.610352	72.843994
29479.743298	-1360.054667	1948.636719	-64.014549
29479.743298	-1360.054667	1947.663086	258.212921
29479.743298	-1360.054667	1946.689453	-180.520767
29479.743298	-1360.054667	1945.715820	126.871109
29479.743298	-1360.054667	1944.741211	-7.473370
29479.743298	-1360.054667	1943.767578	-53.469494
29479.743298	-1360.054667	1942.792969	106.546806
29479.743298	-1360.054667	1941.818359	104.657944
29479.743298	-1360.054667	1940.842773	191.009933
29479.743298	-1360.054667	1939.868164	132.703339
29479.743298	-1360.054667	1938.892578	67.048790
29479.743298	-1360.054667	1937.916992	70.008759
29479.743298	-1360.054667	1936.941406	-323.907837
29479.743298	-1360.054667	1935.965820	-24.546516
29479.743298	-1360.054667	1934.990234	10.211050
29479.743298	-1360.054667	1934.013672	-163.177490
29479.743298	-1360.054667	1933.037109	-23.188881
29479.743298	-1360.054667	1932.060547	150.992584
29479.743298	-1360.054667	1931.083984	117.092789
29479.743298	-1360.054667	1930.107422	-220.188721
29479.743298	-1360.054667	1929.129883	-43.691166
29479.743298	-1360.054667	1928.153320	-111.842499
29479.743298	-1360.054667	1927.175781	84.084778
29479.743298	-1360.054667	1926.198242	81.891563
29479.743298	-1360.054667	1925.219727	-20.543575
29479.743298	-1360.054667	1924.242188	-61.868080
29479.743298	-1360.054667	1923.263672	106.922791
29479.743298	-1360.054667	1922.285156	4.462127
29479.743298	-1360.054667	1921.306641	-144.393127
29479.743298	-1360.054667	1920.328125	-110.072159
29479.743298	-1360.054667	1919.349609	-9.869364
29479.743298	-1360.054667	1918.370117	-80.612312
29479.743298	-1360.054667	1917.391602	-39.084709
29479.743298	-1360.054667	1916.412109	85.359520
29479.743298	-1360.054667	1915.431641	34.066566
29479.743298	-1360.054667	1914.452148	82.774406
29479.743298	-1360.054667	1913.472656	46.075386
29479.743298	-1360.054667	1912.492188	-78.424591
29479.743298	-1360.054667	1911.511719	1.873804
29479.743298	-1360.054667	1910.531250	16.299297
29479.743298	-1360.054667	1909.550781	-59.481483
29479.743298	-1360.054667	1908.569336	-30.499456
29479.743298	-1360.054667	1907.588867	59.345158
29479.743298	-1360.054667	1906.607422	-23.809908
29479.743298	-1360.054667	1905.625977	73.233505
29479.743298	-1360.054667	1904.644531	-22.134317
29479.743298	-1360.054667	1903.662109	121.052628
29479.743298	-1360.054667	1902.680664	49.979408
29479.743298	-1360.054667	1901.698242	105.428947
29479.743298	-1360.054667	1900.715820	151.089813
29479.743298	-1360.054667	1899.733398	-66.005127
29479.743298	-1360.054667	1898.750000	-30.132240
29479.743298	-1360.054667	1897.767578	-13.759437
29479.743298	-1360.054667	1896.784180	-118.985977
29479.743298	-1360.054667	1895.800781	-109.971756
29479.743298	-1360.054667	1894.817383	197.909805
29479.743298	-1360.054667	1893.833984	78.010902
29479.743298	-1360.054667	1892.850586	120.877052
29479.743298	-1360.054667	1891.866211	-28.189253
29479.743298	-1360.054667	1890.881836	-94.676865
29479.743298	-1360.054667	1889.897461	103.460724
29479.743298	-1360.054667	1888.913086	73.305138
29479.743298	-1360.054667	1887.927734	77.094254
29479.743298	-1360.054667	1886.943359	-6.511169
29479.743298	-1360.054667	1885.958008	-94.982346
29479.743298	-1360.054667	1884.972656	143.995773
29479.743298	-1360.054667	1883.987305	45.744072
29479.743298	-1360.054667	1883.001953	-231.941010
29479.743298	-1360.054667	1882.015625	94.068733
29479.743298	-1360.054667	1881.029297	0.594344
29479.743298	-1360.054667	1880.042969	45.242790
29479.743298	-1360.054667	1879.056641	-154.883835
29479.743298	-1360.054667	1878.070313	-81.244019
29479.743298	-1360.054667	1877.083984	72.246735
29479.743298	-1360.054667	1876.096680	5.271006
29479.743298	-1360.054667	1875.109375	25.431288
29479.743298	-1360.054667	1874.122070	241.607941
29479.743298	-1360.054667	1873.134766	-130.446640
29479.743298	-1360.054667	1872.146484	-8.792242
29479.743298	-1360.054667	1871.159180	69.225273
29479.743298	-1360.054667	1870.170898	35.894928
29479.743298	-1360.054667	1869.182617	104.096756
29479.743298	-1360.054667	1868.194336	44.073360
29479.743298	-1360.054667	1867.205078	80.713852
29479.743298	-1360.054667	1866.216797	-85.733429
29479.743298	-1360.054667	1865.227539	-85.435089
29479.743298	-1360.054667	1864.238281	-12.707191
29479.743298	-1360.054667	1863.249023	-7.698779
29479.743298	-1360.054667	1862.259766	93.861008
29479.743298	-1360.054667	1861.269531	188.076721
29479.743298	-1360.054667	1860.279297	-34.067734
29479.743298	-1360.054667	1859.290039	64.858032
29479.743298	-1360.054667	1858.298828	255.385422
29479.743298	-1360.054667	1857.308594	98.329330
29479.743298	-1360.054667	1856.318359	-63.551529
29479.743298	-1360.054667	1855.327148	90.536469
29479.743298	-1360.054667	1854.335938	75.697578
29479.743298	-1360.054667	1853.344727	-100.740776
29479.743298	-1360.054667	1852.353516	284.505829
29479.743298	-1360.054667	1851.362305	117.610451
29479.743298	-1360.054667	1850.370117	-73.388496
29479.743298	-1360.054667	1849.377930	-57.181423
29479.743298	-1360.054667	1848.385742	-16.957592
29479.743298	-1360.054667	1847.393555	35.227528
29479.743298	-1360.054667	1846.401367	-13.807520
29479.743298	-1360.054667	1845.408203	23.772161
29479.743298	-1360.054667	1844.415039	-49.455036
29479.743298	-1360.054667	1843.421875	142.000290
29479.743298	-1360.054667	1842.428711	-54.073616
29479.743298	-1360.054667	1841.435547	235.800903
29479.743298	-1360.054667	1840.441406	119.006218
29479.743298	-1360.054667	1839.448242	93.569870
29479.743298	-1360.054667	1838.454102	0.741736
29479.743298	-1360.054667	1837.459961	102.586937
29479.743298	-1360.054667	1836.464844	14.441607
29479.743298	-1360.054667	1835.470703	200.195160
29479.743298	-1360.054667	1834.475586	-106.716629
29479.743298	-1360.054667	1833.480469	-120.542847
29479.743298	-1360.054667	1832.485352	240.204834
29479.743298	-1360.054667	1831.490234	288.587982
29479.743298	-1360.054667	1830.495117	-52.040829
29479.743298	-1360.054667	1829.499023	87.415665
29479.743298	-1360.054667	1828.502930	39.553440
29479.743298	-1360.054667	1827.506836	1.222101
29479.743298	-1360.054667	1826.510742	61.172630
29479.743298	-1360.054667	1825.513672	27.467772
29479.743298	-1360.054667	1824.517578	101.603020
29479.743298	-1360.054667	1823.520508	50.944000
29479.743298	-1360.054667	1822.523438	153.625198
29479.743298	-1360.054667	1821.526367	-50.589737
29479.743298	-1360.054667	1820.529297	44.700508
29479.743298	-1360.054667	1819.531250	-42.221172
29479.743298	-1360.054667	1818.533203	160.622787
29479.743298	-1360.054667	1817.535156	111.839767
29479.743298	-1360.054667	1816.537109	199.456055
29479.743298	-1360.054667	1815.539063	85.853409
29479.743298	-1360.054667	1814.540039	-1.485553
29479.743298	-1360.054667	1813.541992	143.238281
29479.743298	-1360.054667	1812.542969	-135.683731
29479.743298	-1360.054667	1811.543945	-89.277344
29479.743298	-1360.054667	1810.543945	181.813675
29479.743298	-1360.054667	1809.544922	-97.268997
29479.743298	-1360.054667	1808.544922	34.848190
29479.743298	-1360.054667	1807.544922	245.687729
29479.743298	-1360.054667	1806.544922	203.016098
29479.743298	-1360.054667	1805.544922	100.515823
29479.743298	-1360.054667	1804.544922	100.669212
29479.743298	-1360.054667	1803.543945	67.262413
29479.743298	-1360.054667	1802.542969	-37.885704
29479.743298	-1360.054667	1801.541992	-128.783066
29479.743298	-1360.054667	1800.541016	-66.984474
29479.743298	-1360.054667	1799.539063	-10.108518
29479.743298	-1360.054667	1798.538086	32.320755
29479.743298	-1360.054667	1797.536133	112.777122
29479.743298	-1360.054667	1796.534180	16.569359
29479.743298	-1360.054667	1795.532227	65.753975
29479.743298	-1360.054667	1794.529297	-42.584076
29479.743298	-1360.054667	1793.527344	25.418999
29479.743298	-1360.054667	1792.524414	-18.764153
29479.743298	-1360.054667	1791.521484	58.479511
29479.743298	-1360.054667	1790.518555	35.497532
29479.743298	-1360.054667	1789.514648	-32.875729
29479.743298	-1360.054667	1788.511719	-225.191315
29479.743298	-1360.054667	1787.507813	30.101360
29479.743298	-1360.054667	1786.503906	-136.237595
29479.743298	-1360.054667	1785.500000	47.265350
29479.743298	-1360.054667	1784.496094	-162.119400
29479.743298	-1360.054667	1783.491211	-126.487900
29479.743298	-1360.054667	1782.486328	308.665619
29479.743298	-1360.054667	1781.481445	-46.162884
29479.743298	-1360.054667	1780.476563	3.281418
29479.743298	-1360.054667	1779.471680	119.141006
29479.743298	-1360.054667	1778.465820	-78.987450
29479.743298	-1360.054667	1777.460938	141.136902
29479.743298	-1360.054667	1776.455078	-16.809227
29479.743298	-1360.054667	1775.449219	-18.033995
29479.743298	-1360.054667	1774.442383	101.727707
29479.743298	-1360.054667	1773.436523	40.813515
29479.743298	-1360.054667	1772.429688	-112.843102
29479.743298	-1360.054667	1771.422852	49.156715
29479.743298	-1360.054667	1770.416016	-137.974182
29479.743298	-1360.054667	1769.409180	16.547379
29479.743298	-1360.054667	1768.402344	21.378611
29479.743298	-1360.054667	1767.394531	-66.477058
29479.743298	-1360.054667	1766.386719	-52.467701
29479.743298	-1360.054667	1765.378906	94.175247
29479.743298	-1360.054667	1764.371094	-93.689796
29479.743298	-1360.054667	1763.362305	-182.097076
29479.743298	-1360.054667	1762.354492	-147.375641
29479.743298	-1360.054667	1761.345703	79.089470
29479.743298	-1360.054667	1760.336914	28.123577
29479.743298	-1360.054667	1759.328125	95.447449
29479.743298	-1360.054667	1758.318359	-31.624235
29479.743298	-1360.054667	1757.308594	113.477478
29479.743298	-1360.054667	1756.299805	-39.903408
29479.743298	-1360.054667	1755.290039	78.777969
29479.743298	-1360.054667	1754.279297	7.920682
29479.743298	-1360.054667	1753.269531	121.479729
29479.743298	-1360.054667	1752.258789	-155.493103
29479.743298	-1360.054667	1751.249023	-70.665222
29479.743298	-1360.054667	1750.238281	-106.651443
29479.743298	-1360.054667	1749.226563	-97.893478
29479.743298	-1360.054667	1748.215820	35.979370
29479.743298	-1360.054667	1747.204102	-64.348846
29479.743298	-1360.054667	1746.193359	59.667084
29479.743298	-1360.054667	1745.181641	-45.702499
29479.743298	-1360.054667	1744.168945	42.448410
29479.743298	-1360.054667	1743.157227	52.477551
29479.743298	-1360.054667	1742.144531	85.917030
29479.743298	-1360.054667	1741.132813	17.680943
29479.743298	-1360.054667	1740.120117	95.596657
29479.743298	-1360.054667	1739.106445	29.346619
29479.743298	-1360.054667	1738.093750	-4.012453
29479.743298	-1360.054667	1737.080078	11.972823
29479.743298	-1360.054667	1736.067383	122.119644
29479.743298	-1360.054667	1735.053711	281.536011
29479.743298	-1360.054667	1734.040039	162.537109
29479.743298	-1360.054667	1733.025391	165.938721
29479.743298	-1360.054667	1732.011719	39.566341
29479.743298	-1360.054667	1730.997070	-6.858099
29479.743298	-1360.054667	1729.982422	196.238129
29479.743298	-1360.054667	1728.967773	-1.301705
29479.743298	-1360.054667	1727.952148	17.654827
29479.743298	-1360.054667	1726.937500	-93.046455
29479.743298	-1360.054667	1725.921875	238.593079
29479.743298	-1360.054667	1724.906250	-178.439804
29479.743298	-1360.054667	1723.890625	6.830081
29479.743298	-1360.054667	1722.875000	121.265610
29479.743298	-1360.054667	1721.858398	-187.909897
29479.743298	-1360.054667	1720.841797	10.768620
29479.743298	-1360.054667	1719.825195	136.294983
29479.743298	-1360.054667	1718.808594	89.985260
29479.743298	-1360.054667	1717.791992	76.401672
29479.743298	-1360.054667	1716.774414	93.153465
29479.743298	-1360.054667	1715.756836	-73.538445
29479.743298	-1360.054667	1714.739258	278.728058
29479.743298	-1360.054667	1713.721680	64.706673
29479.743298	-1360.054667	1712.704102	54.840542
29479.743298	-1360.054667	1711.685547	44.759617
29479.743298	-1360.054667	1710.667969	-59.370876
29479.743298	-1360.054667	1709.649414	-1.768569
29479.743298	-1360.054667	1708.630859	-160.227753
29479.743298	-1360.054667	1707.611328	84.608429
29479.743298	-1360.054667	1706.592773	-20.260283
29479.743298	-1360.054667	1705.573242	310.817261
29479.743298	-1360.054667	1704.553711	41.423523
29479.743298	-1360.054667	1703.534180	55.543884
29479.743298	-1360.054667	1702.513672	-0.866988
29479.743298	-1360.054667	1701.494141	3.489441
29479.743298	-1360.054667	1700.473633	-22.833080
29479.743298	-1360.054667	1699.453125	70.102463
29479.743298	-1360.054667	1698.432617	-19.841528
29479.743298	-1360.054667	1697.412109	56.273560
29479.743298	-1360.054667	1696.390625	134.475693
29479.743298	-1360.054667	1695.369141	100.116730
29479.743298	-1360.054667	1694.347656	180.224243
29479.743298	-1360.054667	1693.326172	313.908783
29479.743298	-1360.054667	1692.304688	332.736969
29479.743298	-1360.054667	1691.282227	168.931351
29479.743298	-1360.054667	1690.260742	287.919586
29479.743298	-1360.054667	1689.238281	238.331879
29479.743298	-1360.054667	1688.214844	284.361328
29479.743298	-1360.054667	1687.192383	225.052063
29479.743298	-1360.054667	1686.168945	228.619156
29479.743298	-1360.054667	1685.146484	-43.605473
29479.743298	-1360.054667	1684.123047	323.930511
29479.743298	-1360.054667	1683.099609	296.534546
29479.743298	-1360.054667	1682.075195	303.941437
29479.743298	-1360.054667	1681.051758	418.541199
29479.743298	-1360.054667	1680.027344	563.209106
29479.743298	-1360.054667	1679.002930	747.289551
29479.743298	-1360.054667	1677.978516	609.200989
29479.743298	-1360.054667	1676.953125	764.797668
29479.743298	-1360.054667	1675.928711	561.082764
29479.743298	-1360.054667	1674.903320	634.647766
29479.743298	-1360.054667	1673.877930	680.021484
29479.743298	-1360.054667	1672.852539	629.641235
29479.743298	-1360.054667	1671.826172	800.402405
29479.743298	-1360.054667	1670.800781	665.773987
29479.743298	-1360.054667	1669.774414	691.680664
29479.743298	-1360.054667	1668.748047	826.832153
29479.743298	-1360.054667	1667.721680	1033.914673
29479.743298	-1360.054667	1666.694336	1298.891479
29479.743298	-1360.054667	1665.667969	1165.651001
29479.743298	-1360.054667	1664.640625	1458.046387
29479.743298	-1360.054667	1663.613281	1256.959106
29479.743298	-1360.054667	1662.585938	1413.951538
29479.743298	-1360.054667	1661.557617	1635.779907
29479.743298	-1360.054667	1660.530273	1515.597412
29479.743298	-1360.054667	1659.501953	1669.542725
29479.743298	-1360.054667	1658.473633	1939.451294
29479.743298	-1360.054667	1657.444336	2250.868896
29479.743298	-1360.054667	1656.416016	2239.093506
29479.743298	-1360.054667	1655.386719	2338.603516
29479.743298	-1360.054667	1654.358398	2403.093994
29479.743298	-1360.054667	1653.328125	2028.488403
29479.743298	-1360.054667	1652.298828	2466.375244
29479.743298	-1360.054667	1651.269531	2643.970215
29479.743298	-1360.054667	1650.239258	2684.380615
29479.743298	-1360.054667	1649.208984	2689.801025
29479.743298	-1360.054667	1648.178711	3080.104004
29479.743298	-1360.054667	1647.148438	2987.698486
29479.743298	-1360.054667	1646.117188	3572.189209
29479.743298	-1360.054667	1645.086914	3514.162354
29479.743298	-1360.054667	1644.055664	3710.916748
29479.743298	-1360.054667	1643.024414	3877.302002
29479.743298	-1360.054667	1641.992188	4068.911865
29479.743298	-1360.054667	1640.960938	4081.949951
29479.743298	-1360.054667	1639.928711	4194.375488
29479.743298	-1360.054667	1638.896484	4415.427246
29479.743298	-1360.054667	1637.864258	4413.984863
29479.743298	-1360.054667	1636.832031	4646.167480
29479.743298	-1360.054667	1635.798828	4806.327148
29479.743298	-1360.054667	1634.766602	4586.846191
29479.743298	-1360.054667	1633.733398	4862.313965
29479.743298	-1360.054667	1632.699219	5179.117188
29479.743298	-1360.054667	1631.666016	5306.064941
29479.743298	-1360.054667	1630.632813	5643.204102
29479.743298	-1360.054667	1629.598633	5360.541016
29479.743298	-1360.054667	1628.564453	5979.161133
29479.743298	-1360.054667	1627.530273	6012.808105
29479.743298	-1360.054667	1626.495117	6062.435059
29479.743298	-1360.054667	1625.460938	6135.034668
29479.743298	-1360.054667	1624.425781	6574.606445
29479.743298	-1360.054667	1623.390625	6716.031738
29479.743298	-1360.054667	1622.355469	7018.851563
29479.743298	-1360.054667	1621.319336	7115.978516
29479.743298	-1360.054667	1620.284180	7164.513672
29479.743298	-1360.054667	1619.248047	7508.163574
29479.743298	-1360.054667	1618.211914	7381.008301
29479.743298	-1360.054667	1617.174805	7599.657227
29479.743298	-1360.054667	1616.138672	7954.169434
29479.743298	-1360.054667	1615.101563	7981.040039
29479.743298	-1360.054667	1614.065430	8365.058594
29479.743298	-1360.054667	1613.027344	8723.384766
29479.743298	-1360.054667	1611.990234	8602.283203
29479.743298	-1360.054667	1610.953125	8838.146484
29479.743298	-1360.054667	1609.915039	8677.651367
29479.743298	-1360.054667	1608.876953	9129.583984
29479.743298	-1360.054667	1607.838867	8842.257813
29479.743298	-1360.054667	1606.800781	9305.274414
29479.743298	-1360.054667	1605.761719	9517.136719
29479.743298	-1360.054667	1604.723633	9257.195313
29479.743298	-1360.054667	1603.684570	9477.981445
29479.743298	-1360.054667	1602.644531	9627.247070
29479.743298	-1360.054667	1601.605469	9679.821289
29479.743298	-1360.054667	1600.566406	9796.650391
29479.743298	-1360.054667	1599.526367	9959.273438
29479.743298	-1360.054667	1598.486328	9898.830078
29479.743298	-1360.054667	1597.446289	10086.464844
29479.743298	-1360.054667	1596.405273	10067.157227
29479.743298	-1360.054667	1595.365234	9799.766602
29479.743298	-1360.054667	1594.324219	9991.613281
29479.743298	-1360.054667	1593.283203	9877.960938
29479.743298	-1360.054667	1592.242188	10101.698242
29479.743298	-1360.054667	1591.200195	9960.340820
29479.743298	-1360.054667	1590.159180	9722.637695
29479.743298	-1360.054667	1589.117188	10092.833984
29479.743298	-1360.054667	1588.075195	9708.232422
29479.743298	-1360.054667	1587.032227	9724.973633
29479.743298	-1360.054667	1585.990234	9517.003906
29479.743298	-1360.054667	1584.947266	9827.059570
29479.743298	-1360.054667	1583.904297	10065.890625
29479.743298	-1360.054667	1582.861328	9862.345703
29479.743298	-1360.054667	1581.818359	9736.717773
29479.743298	-1360.054667	1580.775391	9858.457031
29479.743298	-1360.054667	1579.731445	9744.191406
29479.743298	-1360.054667	1578.687500	9751.269531
29479.743298	-1360.054667	1577.643555	9545.418945
29479.743298	-1360.054667	1576.598633	10005.562500
29479.743298	-1360.054667	1575.554688	9918.651367
29479.743298	-1360.054667	1574.509766	9987.264648
29479.743298	-1360.054667	1573.464844	10186.195313
29479.743298	-1360.054667	1572.419922	10135.752930
29479.743298	-1360.054667	1571.374023	10089.833008
29479.743298	-1360.054667	1570.329102	9742.204102
29479.743298	-1360.054667	1569.283203	9714.618164
29479.743298	-1360.054667	1568.237305	10084.624023
29479.743298	-1360.054667	1567.191406	9926.725586
29479.743298	-1360.054667	1566.144531	9924.155273
29479.743298	-1360.054667	1565.098633	10099.745117
29479.743298	-1360.054667	1564.051758	9932.728516
29479.743298	-1360.054667	1563.004883	9804.580078
29479.743298	-1360.054667	1561.957031	9815.663086
29479.743298	-1360.054667	1560.910156	9714.967773
29479.743298	-1360.054667	1559.862305	9420.350586
29479.743298	-1360.054667	1558.814453	8961.619141
29479.743298	-1360.054667	1557.766602	9032.170898
29479.743298	-1360.054667	1556.718750	8762.964844
29479.743298	-1360.054667	1555.669922	8933.817383
29479.743298	-1360.054667	1554.621094	8847.067383
29479.743298	-1360.054667	1553.573242	8919.923828
29479.743298	-1360.054667	1552.523438	9035.982422
29479.743298	-1360.054667	1551.474609	8746.596680
29479.743298	-1360.054667	1550.424805	8616.734375
29479.743298	-1360.054667	1549.375000	8605.355469
29479.743298	-1360.054667	1548.325195	8675.971680
29479.743298	-1360.054667	1547.275391	8350.555664
29479.743298	-1360.054667	1546.225586	8002.551758
29479.743298	-1360.054667	1545.174805	7866.280273
29479.743298	-1360.054667	1544.124023	7711.907715
29479.743298	-1360.054667	1543.073242	7787.350098
29479.743298	-1360.054667	1542.022461	7508.092285
29479.743298	-1360.054667	1540.970703	7278.972656
29479.743298	-1360.054667	1539.919922	6856.838379
29479.743298	-1360.054667	1538.868164	6832.581055
29479.743298	-1360.054667	1537.815430	6831.076172
29479.743298	-1360.054667	1536.763672	7011.405273
29479.743298	-1360.054667	1535.710938	6705.663086
29479.743298	-1360.054667	1534.659180	6613.599609
29479.743298	-1360.054667	1533.606445	6287.769531
29479.743298	-1360.054667	1532.552734	6490.975098
29479.743298	-1360.054667	1531.500000	6392.391113
29479.743298	-1360.054667	1530.446289	6107.840820
29479.743298	-1360.054667	1529.393555	6079.862305
29479.743298	-1360.054667	1528.338867	6235.619629
29479.743298	-1360.054667	1527.285156	6155.614258
29479.743298	-1360.054667	1526.231445	6148.286133
29479.743298	-1360.054667	1525.176758	5984.617676
29479.743298	-1360.054667	1524.122070	5877.770996
29479.743298	-1360.054667	1523.067383	5823.182617
29479.743298	-1360.054667	1522.012695	6038.297852
29479.743298	-1360.054667	1520.957031	5800.421387
29479.743298	-1360.054667	1519.901367	5805.047852
29479.743298	-1360.054667	1518.845703	5952.418457
29479.743298	-1360.054667	1517.790039	5780.688965
29479.743298	-1360.054667	1516.734375	5588.779297
29479.743298	-1360.054667	1515.677734	5295.214844
29479.743298	-1360.054667	1514.621094	5449.808594
29479.743298	-1360.054667	1513.564453	5292.348633
29479.743298	-1360.054667	1512.507813	5162.220215
29479.743298	-1360.054667	1511.450195	5115.894531
29479.743298	-1360.054667	1510.393555	5203.125488
29479.743298	-1360.054667	1509.335938	4854.255371
29479.743298	-1360.054667	1508.278320	5156.407715
29479.743298	-1360.054667	1507.219727	4999.962402
29479.743298	-1360.054667	1506.162109	4904.745605
29479.743298	-1360.054667	1505.103516	4823.235352
29479.743298	-1360.054667	1504.044922	4671.921875
29479.743298	-1360.054667	1502.986328	4611.120117
29479.743298	-1360.054667	1501.926758	4588.835449
29479.743298	-1360.054667	1500.868164	4453.938477
29479.743298	-1360.054667	1499.808594	4307.948730
29479.743298	-1360.054667	1498.749023	4590.730469
29479.743298	-1360.054667	1497.688477	4602.933105
29479.743298	-1360.054667	1496.628906	4579.269043
29479.743298	-1360.054667	1495.568359	4089.150879
29479.743298	-1360.054667	1494.507813	4514.408691
29479.743298	-1360.054667	1493.447266	4342.572266
29479.743298	-1360.054667	1492.386719	4544.957031
29479.743298	-1360.054667	1491.325195	4396.050293
29479.743298	-1360.054667	1490.263672	3990.678711
29479.743298	-1360.054667	1489.202148	3434.817871
29479.743298	-1360.054667	1488.140625	3782.028564
29479.743298	-1360.054667	1487.079102	3755.712158
29479.743298	-1360.054667	1486.016602	3459.562012
29479.743298	-1360.054667	1484.954102	3669.911621
29479.743298	-1360.054667	1483.891602	3502.519775
29479.743298	-1360.054667	1482.829102	3371.392334
29479.743298	-1360.054667	1481.765625	3170.815674
29479.743298	-1360.054667	1480.702148	2752.513184
29479.743298	-1360.054667	1479.638672	2871.731201
29479.743298	-1360.054667	1478.575195	2827.123047
29479.743298	-1360.054667	1477.511719	2904.108887
29479.743298	-1360.054667	1476.447266	2581.464111
29479.743298	-1360.054667	1475.382813	2771.137451
29479.743298	-1360.054667	1474.318359	2491.775879
29479.743298	-1360.054667	1473.253906	2681.772461
29479.743298	-1360.054667	1472.189453	2477.067139
29479.743298	-1360.054667	1471.124023	2324.330811
29479.743298	-1360.054667	1470.058594	2151.712158
29479.743298	-1360.054667	1468.993164	2304.420410
29479.743298	-1360.054667	1467.927734	2269.063721
29479.743298	-1360.054667	1466.861328	2249.848633
29479.743298	-1360.054667	1465.794922	2112.239746
29479.743298	-1360.054667	1464.728516	1851.940063
29479.743298	-1360.054667	1463.662109	1965.639648
29479.743298	-1360.054667	1462.594727	1906.306030
29479.743298	-1360.054667	1461.528320	1578.020630
29479.743298	-1360.054667	1460.460938	1891.433594
29479.743298	-1360.054667	1459.393555	1594.987793
29479.743298	-1360.054667	1458.326172	2058.351563
29479.743298	-1360.054667	1457.257813	1545.347046
29479.743298	-1360.054667	1456.189453	1203.901001
29479.743298	-1360.054667	1455.121094	1309.718506
29479.743298	-1360.054667	1454.052734	1541.784302
29479.743298	-1360.054667	1452.984375	1357.713501
29479.743298	-1360.054667	1451.915039	1241.970215
29479.743298	-1360.054667	1450.845703	1389.565918
29479.743298	-1360.054667	1449.776367	1018.502197
29479.743298	-1360.054667	1448.707031	1151.312500
29479.743298	-1360.054667	1447.636719	1265.883911
29479.743298	-1360.054667	1446.567383	1097.022461
29479.743298	-1360.054667	1445.497070	905.651123
29479.743298	-1360.054667	1444.425781	1045.268555
29479.743298	-1360.054667	1443.355469	971.812195
29479.743298	-1360.054667	1442.285156	1109.968262
29479.743298	-1360.054667	1441.213867	1109.951538
29479.743298	-1360.054667	1440.142578	928.494751
29479.743298	-1360.054667	1439.070313	1212.979370
29479.743298	-1360.054667	1437.999023	796.290649
29479.743298	-1360.054667	1436.926758	950.521912
29479.743298	-1360.054667	1435.854492	835.953491
29479.743298	-1360.054667	1434.782227	605.975647
29479.743298	-1360.054667	1433.709961	530.896729
29479.743298	-1360.054667	1432.636719	217.691498
29479.743298	-1360.054667	1431.563477	738.265930
29479.743298	-1360.054667	1430.490234	220.869583
29479.743298	-1360.054667	1429.416992	170.648575
29479.743298	-1360.054667	1428.343750	57.555569
29479.743298	-1360.054667	1427.269531	123.043358
29479.743298	-1360.054667	1426.195313	358.104126
29479.743298	-1360.054667	1425.121094	73.883804
29479.743298	-1360.054667	1424.046875	-112.756790
29479.743298	-1360.054667	1422.971680	82.567909
29479.743298	-1360.054667	1421.896484	-211.885651
29479.743298	-1360.054667	1420.821289	460.948303
29479.743298	-1360.054667	1419.746094	179.481247
29479.743298	-1360.054667	1418.669922	27.508106
29479.743298	-1360.054667	1417.594727	308.548553
29479.743298	-1360.054667	1416.518555	560.535217
29479.743298	-1360.054667	1415.442383	317.138550
29479.743298	-1360.054667	1414.365234	481.185883
29479.743298	-1360.054667	1413.289063	444.161011
29479.743298	-1360.054667	1412.211914	374.213867
29479.743298	-1360.054667	1411.134766	603.193176
29479.743298	-1360.054667	1410.057617	960.531555
29479.743298	-1360.054667	1408.979492	912.264954
29479.743298	-1360.054667	1407.902344	570.485046
29479.743298	-1360.054667	1406.824219	881.132080
29479.743298	-1360.054667	1405.746094	803.058777
29479.743298	-1360.054667	1404.666992	1009.673340
29479.743298	-1360.054667	1403.588867	1395.051025
29479.743298	-1360.054667	1402.509766	1051.615112
29479.743298	-1360.054667	1401.430664	772.203064
29479.743298	-1360.054667	1400.351563	1227.800171
29479.743298	-1360.054667	1399.271484	1242.583740
29479.743298	-1360.054667	1398.192383	1113.109863
29479.743298	-1360.054667	1397.112305	1220.812744
29479.743298	-1360.054667	1396.031250	1164.063354
29479.743298	-1360.054667	1394.951172	999.901794
29479.743298	-1360.054667	1393.871094	1123.775513
29479.743298	-1360.054667	1392.790039	1143.941895
29479.743298	-1360.054667	1391.708984	1096.237183
29479.743298	-1360.054667	1390.626953	1095.005249
29479.743298	-1360.054667	1389.545898	1070.380371
29479.743298	-1360.054667	1388.463867	1170.665527
29479.743298	-1360.054667	1387.381836	1144.488159
29479.743298	-1360.054667	1386.299805	1207.034424
29479.743298	-1360.054667	1385.217773	1080.074097
29479.743298	-1360.054667	1384.134766	960.304565
29479.743298	-1360.054667	1383.051758	1014.719238
29479.743298	-1360.054667	1381.968750	926.986267
29479.743298	-1360.054667	1380.885742	887.871521
29479.743298	-1360.054667	1379.802734	624.861572
29479.743298	-1360.054667	1378.718750	478.668915
29479.743298	-1360.054667	1377.634766	623.591736
29479.743298	-1360.054667	1376.550781	296.995453
29479.743298	-1360.054667	1375.465820	445.782928
29479.743298	-1360.054667	1374.381836	-28.069988
29479.743298	-1360.054667	1373.296875	-48.817688
29479.743298	-1360.054667	1372.211914	-66.577950
29479.743298	-1360.054667	1371.126953	-55.833275
29479.743298	-1360.054667	1370.041016	-121.862701
29479.743298	-1360.054667	1368.955078	-49.789066
29479.743298	-1360.054667	1367.869141	-10.067608
29479.743298	-1360.054667	1366.783203	247.946014
29479.743298	-1360.054667	1365.697266	215.964462
29479.743298	-1360.054667	1364.610352	370.886017
29479.743298	-1360.054667	1363.523438	476.148499
29479.743298	-1360.054667	1362.436523	520.722290
29479.743298	-1360.054667	1361.349609	431.646027
29479.743298	-1360.054667	1360.261719	753.842773
29479.743298	-1360.054667	1359.174805	907.711731
29479.743298	-1360.054667	1358.086914	1162.048828
29479.743298	-1360.054667	1356.998047	1299.977661
29479.743298	-1360.054667	1355.910156	1200.223511
29479.743298	-1360.054667	1354.821289	1249.261719
29479.743298	-1360.054667	1353.732422	1181.104980
29479.743298	-1360.054667	1352.643555	1337.633545
29479.743298	-1360.054667	1351.554688	1369.446411
29479.743298	-1360.054667	1350.464844	1499.912598
29479.743298	-1360.054667	1349.375000	1562.080200
29479.743298	-1360.054667	1348.285156	1505.534546
29479.743298	-1360.054667	1347.195313	2026.339355
29479.743298	-1360.054667	1346.105469	1666.206543
29479.743298	-1360.054667	1345.014648	1760.731567
29479.743298	-1360.054667	1343.923828	1855.312134
29479.743298	-1360.054667	1342.833008	2175.291260
29479.743298	-1360.054667	1341.741211	1910.462158
29479.743298	-1360.054667	1340.650391	1977.448486
29479.743298	-1360.054667	1339.558594	1905.646851
29479.743298	-1360.054667	1338.466797	2227.488525
29479.743298	-1360.054667	1337.374023	1491.119873
29479.743298	-1360.054667	1336.282227	1433.387695
29479.743298	-1360.054667	1335.189453	1573.291260
29479.743298	-1360.054667	1334.096680	1371.404663
29479.743298	-1360.054667	1333.003906	1200.781372
29479.743298	-1360.054667	1331.910156	1346.209839
29479.743298	-1360.054667	1330.817383	1412.246582
29479.743298	-1360.054667	1329.723633	1439.653442
29479.743298	-1360.054667	1328.629883	1552.668945
29479.743298	-1360.054667	1327.535156	1189.818970
29479.743298	-1360.054667	1326.441406	1310.630005
29479.743298	-1360.054667	1325.346680	1538.003052
29479.743298	-1360.054667	1324.251953	1242.313721
29479.743298	-1360.054667	1323.156250	1356.110718
29479.743298	-1360.054667	1322.061523	1277.679443
29479.743298	-1360.054667	1320.965820	1133.566162
29479.743298	-1360.054667	1319.870117	1207.789429
29479.743298	-1360.054667	1318.774414	1036.211060
29479.743298	-1360.054667	1317.678711	1225.942749
29479.743298	-1360.054667	1316.582031	909.147949
29479.743298	-1360.054667	1315.485352	875.168335
29479.743298	-1360.054667	1314.388672	761.838196
29479.743298	-1360.054667	1313.291016	993.442932
29479.743298	-1360.054667	1312.194336	605.795471
29479.743298	-1360.054667	1311.096680	551.980347
29479.743298	-1360.054667	1309.999023	562.370789
29479.743298	-1360.054667	1308.901367	469.484375
29479.743298	-1360.054667	1307.802734	544.932251
29479.743298	-1360.054667	1306.705078	633.600281
29479.743298	-1360.054667	1305.606445	366.849365
29479.743298	-1360.054667	1304.506836	542.932373
29479.743298	-1360.054667	1303.408203	458.100494
29479.743298	-1360.054667	1302.308594	730.202698
29479.743298	-1360.054667	1301.208984	731.853577
29479.743298	-1360.054667	1300.109375	566.537476
29479.743298	-1360.054667	1299.009766	634.217102
29479.743298	-1360.054667	1297.909180	556.972717
29479.743298	-1360.054667	1296.808594	691.929382
29479.743298	-1360.054667	1295.708008	664.473694
29479.743298	-1360.054667	1294.607422	662.115173
29479.743298	-1360.054667	1293.506836	497.654266
29479.743298	-1360.054667	1292.405273	606.279968
29479.743298	-1360.054667	1291.303711	389.859985
29479.743298	-1360.054667	1290.202148	422.860748
29479.743298	-1360.054667	1289.099609	428.397675
29479.743298	-1360.054667	1287.998047	194.129791
29479.743298	-1360.054667	1286.895508	302.481842
29479.743298	-1360.054667	1285.792969	81.505577
29479.743298	-1360.054667	1284.689453	48.633812
29479.743298	-1360.054667	1283.586914	169.275269
29479.743298	-1360.054667	1282.483398	279.419189
29479.743298	-1360.054667	1281.379883	40.497097
29479.743298	-1360.054667	1280.276367	85.147102
29479.743298	-1360.054667	1279.171875	156.853928
29479.743298	-1360.054667	1278.067383	248.782608
29479.743298	-1360.054667	1276.962891	281.811432
29479.743298	-1360.054667	1275.858398	41.947601
29479.743298	-1360.054667	1274.753906	278.471710
29479.743298	-1360.054667	1273.648438	289.971130
29479.743298	-1360.054667	1272.542969	156.351730
29479.743298	-1360.054667	1271.437500	209.634323
29479.743298	-1360.054667	1270.331055	-39.766941
29479.743298	-1360.054667	1269.225586	-3.311308
29479.743298	-1360.054667	1268.119141	213.420349
29479.743298	-1360.054667	1267.012695	341.242798
29479.743298	-1360.054667	1265.906250	265.864197
29479.743298	-1360.054667	1264.798828	68.436096
29479.743298	-1360.054667	1263.691406	174.514694
29479.743298	-1360.054667	1262.583984	218.851089
29479.743298	-1360.054667	1261.476563	361.430695
29479.743298	-1360.054667	1260.368164	508.913666
29479.743298	-1360.054667	1259.260742	527.438171
29479.743298	-1360.054667	1258.152344	196.409500
29479.743298	-1360.054667	1257.043945	593.011353
29479.743298	-1360.054667	1255.934570	669.635132
29479.743298	-1360.054667	1254.825195	544.348816
29479.743298	-1360.054667	1253.716797	549.622009
29479.743298	-1360.054667	1252.606445	510.635681
29479.743298	-1360.054667	1251.497070	607.595459
29479.743298	-1360.054667	1250.387695	360.932037
29479.743298	-1360.054667	1249.277344	747.856201
29479.743298	-1360.054667	1248.166992	911.260864
29479.743298	-1360.054667	1247.055664	683.829773
29479.743298	-1360.054667	1245.945313	844.362244
29479.743298	-1360.054667	1244.833984	929.045349
29479.743298	-1360.054667	1243.722656	924.193176
29479.743298	-1360.054667	1242.611328	595.140381
29479.743298	-1360.054667	1241.499023	774.878235
29479.743298	-1360.054667	1240.387695	617.536316
29479.743298	-1360.054667	1239.275391	635.941956
29479.743298	-1360.054667	1238.162109	481.610046
29479.743298	-1360.054667	1237.049805	448.239502
29479.743298	-1360.054667	1235.936523	491.754272
29479.743298	-1360.054667	1234.823242	614.154480
29479.743298	-1360.054667	1233.709961	520.880371
29479.743298	-1360.054667	1232.596680	103.600449
29479.743298	-1360.054667	1231.482422	336.813080
29479.743298	-1360.054667	1230.369141	357.105988
29479.743298	-1360.054667	1229.253906	217.558853
29479.743298	-1360.054667	1228.139648	317.114777
29479.743298	-1360.054667	1227.025391	648.174500
29479.743298	-1360.054667	1225.910156	332.748535
29479.743298	-1360.054667	1224.794922	451.103302
29479.743298	-1360.054667	1223.679688	569.448364
29479.743298	-1360.054667	1222.563477	374.007568
29479.743298	-1360.054667	1221.447266	322.236298
29479.743298	-1360.054667	1220.331055	344.781616
29479.743298	-1360.054667	1219.214844	335.345337
29479.743298	-1360.054667	1218.098633	278.539368
29479.743298	-1360.054667	1216.981445	342.828278
29479.743298	-1360.054667	1215.864258	314.573090
29479.743298	-1360.054667	1214.747070	330.520508
29479.743298	-1360.054667	1213.629883	500.395691
29479.743298	-1360.054667	1212.511719	618.589417
29479.743298	-1360.054667	1211.393555	500.257141
29479.743298	-1360.054667	1210.275391	654.118225
29479.743298	-1360.054667	1209.157227	689.938843
29479.743298	-1360.054667	1208.038086	620.701782
29479.743298	-1360.054667	1206.918945	422.609222
29479.743298	-1360.054667	1205.799805	499.040497
29479.743298	-1360.054667	1204.680664	305.996216
29479.743298	-1360.054667	1203.560547	316.680176
29479.743298	-1360.054667	1202.441406	498.758759
29479.743298	-1360.054667	1201.321289	498.978973
29479.743298	-1360.054667	1200.200195	540.447021
29479.743298	-1360.054667	1199.080078	631.670593
29479.743298	-1360.054667	1197.958984	478.922577
29479.743298	-1360.054667	1196.837891	728.206970
29479.743298	-1360.054667	1195.716797	653.667053
29479.743298	-1360.054667	1194.594727	776.608521
29479.743298	-1360.054667	1193.473633	684.001587
29479.743298	-1360.054667	1192.351563	803.139038
29479.743298	-1360.054667	1191.229492	807.001282
29479.743298	-1360.054667	1190.106445	860.710815
29479.743298	-1360.054667	1188.984375	960.395569
29479.743298	-1360.054667	1187.861328	909.979553
29479.743298	-1360.054667	1186.738281	997.187195
29479.743298	-1360.054667	1185.614258	992.697754
29479.743298	-1360.054667	1184.491211	838.888916
29479.743298	-1360.054667	1183.367188	1125.141968
29479.743298	-1360.054667	1182.243164	1000.443054
29479.743298	-1360.054667	1181.119141	1119.648193
29479.743298	-1360.054667	1179.994141	959.557678
29479.743298	-1360.054667	1178.869141	1019.841248
29479.743298	-1360.054667	1177.744141	1018.230042
29479.743298	-1360.054667	1176.619141	1077.876953
29479.743298	-1360.054667	1175.493164	1307.683838
29479.743298	-1360.054667	1174.368164	1075.348999
29479.743298	-1360.054667	1173.242188	1154.900146
29479.743298	-1360.054667	1172.115234	1276.396484
29479.743298	-1360.054667	1170.989258	1196.272461
29479.743298	-1360.054667	1169.862305	1200.054199
29479.743298	-1360.054667	1168.735352	1323.495117
29479.743298	-1360.054667	1167.608398	1326.490601
29479.743298	-1360.054667	1166.481445	1564.490479
29479.743298	-1360.054667	1165.353516	1437.170288
29479.743298	-1360.054667	1164.225586	1429.184082
29479.743298	-1360.054667	1163.097656	1302.177246
29479.743298	-1360.054667	1161.968750	1313.846313
29479.743298	-1360.054667	1160.840820	1290.648071
29479.743298	-1360.054667	1159.711914	1281.406616
29479.743298	-1360.054667	1158.583008	998.440552
29479.743298	-1360.054667	1157.453125	964.536316
29479.743298	-1360.054667	1156.324219	864.619507
29479.743298	-1360.054667	1155.194336	832.838379
29479.743298	-1360.054667	1154.064453	779.068298
29479.743298	-1360.054667	1152.933594	724.845642
29479.743298	-1360.054667	1151.803711	817.990967
29479.743298	-1360.054667	1150.672852	871.197021
29479.743298	-1360.054667	1149.541992	834.825867
29479.743298	-1360.054667	1148.411133	758.282715
29479.743298	-1360.054667	1147.279297	931.154419
29479.743298	-1360.054667	1146.147461	778.818787
29479.743298	-1360.054667	1145.015625	1010.608887
29479.743298	-1360.054667	1143.883789	884.971008
29479.743298	-1360.054667	1142.750977	1001.148071
29479.743298	-1360.054667	1141.619141	864.854614
29479.743298	-1360.054667	1140.486328	957.221741
29479.743298	-1360.054667	1139.352539	823.246338
29479.743298	-1360.054667	1138.219727	763.098755
29479.743298	-1360.054667	1137.085938	761.325500
29479.743298	-1360.054667	1135.952148	584.059387
29479.743298	-1360.054667	1134.818359	601.760376
29479.743298	-1360.054667	1133.683594	745.889648
29479.743298	-1360.054667	1132.549805	515.915283
29479.743298	-1360.054667	1131.415039	808.822510
29479.743298	-1360.054667	1130.279297	785.399353
29479.743298	-1360.054667	1129.144531	847.140137
29479.743298	-1360.054667	1128.008789	697.166199
29479.743298	-1360.054667	1126.873047	731.433411
29479.743298	-1360.054667	1125.737305	833.880554
29479.743298	-1360.054667	1124.601563	854.843079
29479.743298	-1360.054667	1123.464844	722.011597
29479.743298	-1360.054667	1122.328125	730.059326
29479.743298	-1360.054667	1121.191406	712.095093
29479.743298	-1360.054667	1120.054688	787.772766
29479.743298	-1360.054667	1118.916992	1073.065674
29479.743298	-1360.054667	1117.779297	1029.372437
29479.743298	-1360.054667	1116.641602	793.614258
29479.743298	-1360.054667	1115.503906	730.063416
29479.743298	-1360.054667	1114.365234	469.775818
29479.743298	-1360.054667	1113.226563	356.526520
29479.743298	-1360.054667	1112.087891	428.598358
29479.743298	-1360.054667	1110.949219	247.067276
29479.743298	-1360.054667	1109.809570	153.845215
29479.743298	-1360.054667	1108.669922	359.608276
29479.743298	-1360.054667	1107.530273	105.595482
29479.743298	-1360.054667	1106.390625	58.841820
29479.743298	-1360.054667	1105.250000	75.165024
29479.743298	-1360.054667	1104.109375	206.376648
29479.743298	-1360.054667	1102.968750	95.106445
29479.743298	-1360.054667	1101.828125	91.516472
29479.743298	-1360.054667	1100.686523	83.667114
29479.743298	-1360.054667	1099.544922	161.447784
29479.743298	-1360.054667	1098.403320	274.920013
29479.743298	-1360.054667	1097.261719	153.871918
29479.743298	-1360.054667	1096.120117	4.187366
29479.743298	-1360.054667	1094.977539	61.199512
29479.743298	-1360.054667	1093.834961	35.869038
29479.743298	-1360.054667	1092.691406	73.362793
29479.743298	-1360.054667	1091.548828	68.087631
29479.743298	-1360.054667	1090.405273	-59.869102
29479.743298	-1360.054667	1089.261719	-79.945335
29479.743298	-1360.054667	1088.118164	38.863102
29479.743298	-1360.054667	1086.973633	-107.060860
29479.743298	-1360.054667	1085.829102	46.609138
29479.743298	-1360.054667	1084.684570	-176.607010
29479.743298	-1360.054667	1083.540039	-92.042885
29479.743298	-1360.054667	1082.395508	-45.619934
29479.743298	-1360.054667	1081.250000	58.964916
29479.743298	-1360.054667	1080.104492	109.461929
29479.743298	-1360.054667	1078.958984	-122.489700
29479.743298	-1360.054667	1077.812500	-133.932098
29479.743298	-1360.054667	1076.666016	176.360260
29479.743298	-1360.054667	1075.519531	-191.510437
29479.743298	-1360.054667	1074.373047	-107.607994
29479.743298	-1360.054667	1073.226563	37.295837
29479.743298	-1360.054667	1072.079102	-5.606536
29479.743298	-1360.054667	1070.931641	30.221104
29479.743298	-1360.054667	1069.784180	-141.205811
29479.743298	-1360.054667	1068.635742	9.147436
29479.743298	-1360.054667	1067.487305	127.106789
29479.743298	-1360.054667	1066.338867	-26.908888
29479.743298	-1360.054667	1065.190430	79.965584
29479.743298	-1360.054667	1064.041992	273.515350
29479.743298	-1360.054667	1062.892578	60.122902
29479.743298	-1360.054667	1061.743164	-9.021359
29479.743298	-1360.054667	1060.593750	12.179336
29479.743298	-1360.054667	1059.443359	8.663607
29479.743298	-1360.054667	1058.292969	33.534679
29479.743298	-1360.054667	1057.142578	53.309345
29479.743298	-1360.054667	1055.992188	17.051298
29479.743298	-1360.054667	1054.841797	-165.927689
29479.743298	-1360.054667	1053.690430	84.751556
29479.743298	-1360.054667	1052.539063	-19.182526
29479.743298	-1360.054667	1051.387695	21.830002
29479.743298	-1360.054667	1050.235352	-187.301956
29479.743298	-1360.054667	1049.083984	-208.281937
29479.743298	-1360.054667	1047.931641	-187.207687
29479.743298	-1360.054667	1046.778320	45.826897
29479.743298	-1360.054667	1045.625977	186.646988
29479.743298	-1360.054667	1044.472656	-84.995743
29479.743298	-1360.054667	1043.319336	17.480680
29479.743298	-1360.054667	1042.166016	33.100323
29479.743298	-1360.054667	1041.012695	-10.354895
29479.743298	-1360.054667	1039.858398	182.125854
29479.743298	-1360.054667	1038.704102	0.569867
29479.743298	-1360.054667	1037.549805	-82.567009
29479.743298	-1360.054667	1036.394531	47.919861
29479.743298	-1360.054667	1035.239258	162.284088
29479.743298	-1360.054667	1034.083984	228.787308
29479.743298	-1360.054667	1032.928711	182.843506
29479.743298	-1360.054667	1031.773438	90.482925
29479.743298	-1360.054667	1030.617188	236.887817
29479.743298	-1360.054667	1029.460938	185.868698
29479.743298	-1360.054667	1028.304688	-27.080198
29479.743298	-1360.054667	1027.147461	214.938644
29479.743298	-1360.054667	1025.991211	119.175224
29479.743298	-1360.054667	1024.833984	332.788635
29479.743298	-1360.054667	1023.675781	109.725647
29479.743298	-1360.054667	1022.518555	303.643982
29479.743298	-1360.054667	1021.360352	395.721954
29479.743298	-1360.054667	1020.202148	320.836578
29479.743298	-1360.054667	1019.043945	316.881744
29479.743298	-1360.054667	1017.884766	-38.040386
29479.743298	-1360.054667	1016.726563	184.909805
29479.743298	-1360.054667	1015.567383	281.818878
29479.743298	-1360.054667	1014.407227	87.179878
29479.743298	-1360.054667	1013.248047	71.605278
29479.743298	-1360.054667	1012.087891	-0.507011
29479.743298	-1360.054667	1010.927734	45.767853
29479.743298	-1360.054667	1009.767578	31.017399
29479.743298	-1360.054667	1008.606445	-46.372501
29479.743298	-1360.054667	1007.446289	40.224648
29479.743298	-1360.054667	1006.285156	165.809296
29479.743298	-1360.054667	1005.123047	-69.052032
29479.743298	-1360.054667	1003.961914	141.820267
29479.743298	-1360.054667	1002.799805	179.006546
29479.743298	-1360.054667	1001.637695	211.252930
29479.743298	-1360.054667	1000.475586	185.138412
29479.743298	-1360.054667	999.312500	253.723236
29479.743298	-1360.054667	998.149414	-79.116844
29479.743298	-1360.054667	996.986328	160.631836
29479.743298	-1360.054667	995.823242	-65.542435
29479.743298	-1360.054667	994.659180	-22.132822
29479.743298	-1360.054667	993.496094	7.887033
29479.743298	-1360.054667	992.332031	-67.118813
29479.743298	-1360.054667	991.166992	-154.048279
29479.743298	-1360.054667	990.002930	-43.781914
29479.743298	-1360.054667	988.837891	-102.116928
29479.743298	-1360.054667	987.672852	-35.955761
29479.743298	-1360.054667	986.506836	75.922096
29479.743298	-1360.054667	985.341797	19.306713
29479.743298	-1360.054667	984.175781	24.981482
29479.743298	-1360.054667	983.009766	151.206970
29479.743298	-1360.054667	981.843750	215.524567
29479.743298	-1360.054667	980.676758	72.339500
29479.743298	-1360.054667	979.509766	172.524338
29479.743298	-1360.054667	978.342773	160.708450
29479.743298	-1360.054667	977.175781	210.746796
29479.743298	-1360.054667	976.007813	315.789093
29479.743298	-1360.054667	974.839844	348.265442
29479.743298	-1360.054667	973.671875	394.473236
29479.743298	-1360.054667	972.503906	440.720703
29479.743298	-1360.054667	971.334961	256.360046
29479.743298	-1360.054667	970.166016	335.111267
29479.743298	-1360.054667	968.997070	458.773834
29479.743298	-1360.054667	967.828125	302.965637
29479.743298	-1360.054667	966.658203	235.590027
29479.743298	-1360.054667	965.488281	129.030884
29479.743298	-1360.054667	964.318359	156.974518
29479.743298	-1360.054667	963.148438	180.981308
29479.743298	-1360.054667	961.977539	495.686432
29479.743298	-1360.054667	960.806641	342.730377
29479.743298	-1360.054667	959.635742	340.685364
29479.743298	-1360.054667	958.463867	402.332611
29479.743298	-1360.054667	957.292969	270.410889
29479.743298	-1360.054667	956.121094	387.541351
29479.743298	-1360.054667	954.948242	345.163849
29479.743298	-1360.054667	953.776367	422.471405
29479.743298	-1360.054667	952.603516	248.272629
29479.743298	-1360.054667	951.430664	169.032806
29479.743298	-1360.054667	950.257813	336.635773
29479.743298	-1360.054667	949.084961	159.777863
29479.743298	-1360.054667	947.911133	391.986176
29479.743298	-1360.054667	946.737305	442.053833
29479.743298	-1360.054667	945.563477	418.814941
29479.743298	-1360.054667	944.388672	345.712219
29479.743298	-1360.054667	943.213867	407.426941
29479.743298	-1360.054667	942.039063	449.379211
29479.743298	-1360.054667	940.864258	698.480408
29479.743298	-1360.054667	939.688477	468.770355
29479.743298	-1360.054667	938.513672	593.295715
29479.743298	-1360.054667	937.337891	551.359680
29479.743298	-1360.054667	936.161133	661.603699
29479.743298	-1360.054667	934.985352	550.089844
29479.743298	-1360.054667	933.808594	685.938965
29479.743298	-1360.054667	932.631836	722.568054
29479.743298	-1360.054667	931.454102	1108.995605
29479.743298	-1360.054667	930.277344	917.846619
29479.743298	-1360.054667	929.099609	1068.630249
29479.743298	-1360.054667	927.921875	1043.501587
29479.743298	-1360.054667	926.743164	1077.406494
29479.743298	-1360.054667	925.565430	1079.586914
29479.743298	-1360.054667	924.386719	1217.950806
29479.743298	-1360.054667	923.208008	929.564758
29479.743298	-1360.054667	922.028320	870.219849
29479.743298	-1360.054667	920.849609	779.204041
29479.743298	-1360.054667	919.669922	783.439026
29479.743298	-1360.054667	919.474609	787.499634
29479.743298	-1360.054667	918.309570	753.471863
29479.743298	-1360.054667	917.143555	464.814880
29479.743298	-1360.054667	915.977539	266.899689
29479.743298	-1360.054667	914.810547	364.793091
29479.743298	-1360.054667	913.644531	359.993195
29479.743298	-1360.054667	912.477539	244.684097
29479.743298	-1360.054667	911.310547	121.428566
29479.743298	-1360.054667	910.143555	287.805084
29479.743298	-1360.054667	908.975586	272.747253
29479.743298	-1360.054667	907.807617	330.478333
29479.743298	-1360.054667	906.639648	169.475235
29479.743298	-1360.054667	905.471680	284.108459
29479.743298	-1360.054667	904.303711	369.069824
29479.743298	-1360.054667	903.134766	225.587433
29479.743298	-1360.054667	901.965820	621.265869
29479.743298	-1360.054667	900.796875	520.894470
29479.743298	-1360.054667	899.626953	406.710052
29479.743298	-1360.054667	898.457031	416.387634
29479.743298	-1360.054667	897.287109	331.599457
29479.743298	-1360.054667	896.117188	402.067596
29479.743298	-1360.054667	894.947266	468.499512
29479.743298	-1360.054667	893.776367	424.787781
29479.743298	-1360.054667	892.605469	436.031647
29479.743298	-1360.054667	891.434570	451.127960
29479.743298	-1360.054667	890.262695	458.296326
29479.743298	-1360.054667	889.091797	504.664001
29479.743298	-1360.054667	887.919922	460.649292
29479.743298	-1360.054667	886.748047	314.533295
29479.743298	-1360.054667	885.575195	225.324463
29479.743298	-1360.054667	884.403320	363.668030
29479.743298	-1360.054667	883.230469	7.616621
29479.743298	-1360.054667	882.057617	316.453461
29479.743298	-1360.054667	880.883789	340.820648
29479.743298	-1360.054667	879.710938	141.661514
29479.743298	-1360.054667	878.537109	299.230499
29479.743298	-1360.054667	877.362305	243.112747
29479.743298	-1360.054667	876.188477	322.149323
29479.743298	-1360.054667	875.013672	111.236954
29479.743298	-1360.054667	873.839844	272.438507
29479.743298	-1360.054667	872.664063	380.678772
29479.743298	-1360.054667	871.489258	156.077408
29479.743298	-1360.054667	870.313477	191.823822
29479.743298	-1360.054667	869.138672	258.832611
29479.743298	-1360.054667	867.962891	286.664185
29479.743298	-1360.054667	866.786133	412.252228
29479.743298	-1360.054667	865.610352	287.470459
29479.743298	-1360.054667	864.433594	260.472809
29479.743298	-1360.054667	863.256836	245.196213
29479.743298	-1360.054667	862.079102	360.843628
29479.743298	-1360.054667	860.902344	329.892273
29479.743298	-1360.054667	859.724609	363.406158
29479.743298	-1360.054667	858.546875	49.256729
29479.743298	-1360.054667	857.368164	141.376343
29479.743298	-1360.054667	856.190430	190.502991
29479.743298	-1360.054667	855.011719	255.221024
29479.743298	-1360.054667	853.833008	288.688965
29479.743298	-1360.054667	852.654297	158.255447
29479.743298	-1360.054667	851.474609	23.977722
29479.743298	-1360.054667	850.294922	334.411743
29479.743298	-1360.054667	849.115234	184.564270
29479.743298	-1360.054667	847.935547	56.230137
29479.743298	-1360.054667	846.754883	9.818110
29479.743298	-1360.054667	845.575195	164.144073
29479.743298	-1360.054667	844.393555	33.980484
29479.743298	-1360.054667	843.212891	332.407074
29479.743298	-1360.054667	842.032227	422.353058
29479.743298	-1360.054667	840.850586	346.784790
29479.743298	-1360.054667	839.668945	259.587036
29479.743298	-1360.054667	838.486328	193.856964
29479.743298	-1360.054667	837.304688	196.281204
29479.743298	-1360.054667	836.122070	245.419632
29479.743298	-1360.054667	834.939453	286.785736
29479.743298	-1360.054667	833.756836	357.332245
29479.743298	-1360.054667	832.573242	342.335083
29479.743298	-1360.054667	831.389648	105.779274
29479.743298	-1360.054667	830.206055	118.112587
29479.743298	-1360.054667	829.022461	79.957596
29479.743298	-1360.054667	827.838867	63.222942
29479.743298	-1360.054667	826.654297	5.746053
29479.743298	-1360.054667	825.469727	-90.502960
29479.743298	-1360.054667	824.284180	-318.688629
29479.743298	-1360.054667	823.099609	163.674500
29479.743298	-1360.054667	821.914063	30.705198
29479.743298	-1360.054667	820.728516	35.592094
29479.743298	-1360.054667	819.542969	-17.672384
29479.743298	-1360.054667	818.356445	51.315632
29479.743298	-1360.054667	817.169922	100.934006
29479.743298	-1360.054667	815.983398	133.133072
29479.743298	-1360.054667	814.796875	-47.834099
29479.743298	-1360.054667	813.609375	-0.011864
29479.743298	-1360.054667	812.422852	30.405521
29479.743298	-1360.054667	811.235352	-47.608227
29479.743298	-1360.054667	810.046875	73.938225
29479.743298	-1360.054667	808.859375	77.378563
29479.743298	-1360.054667	807.670898	44.095863
29479.743298	-1360.054667	806.482422	84.429207
29479.743298	-1360.054667	805.293945	155.765167
29479.743298	-1360.054667	804.104492	53.016533
29479.743298	-1360.054667	802.915039	16.134455
29479.743298	-1360.054667	801.725586	43.144070
29479.743298	-1360.054667	800.536133	130.138824
29479.743298	-1360.054667	799.345703	226.827469
29479.743298	-1360.054667	798.155273	-16.601870
29479.743298	-1360.054667	796.964844	97.592575
29479.743298	-1360.054667	795.774414	117.145714
29479.743298	-1360.054667	794.583008	123.237068
29479.743298	-1360.054667	793.392578	21.251297
29479.743298	-1360.054667	792.200195	4.324667
29479.743298	-1360.054667	791.008789	246.118591
29479.743298	-1360.054667	789.816406	277.530792
29479.743298	-1360.054667	788.625000	33.087906
29479.743298	-1360.054667	787.432617	8.722961
29479.743298	-1360.054667	786.239258	-125.492371
29479.743298	-1360.054667	785.046875	41.213257
29479.743298	-1360.054667	783.853516	65.263290
29479.743298	-1360.054667	782.660156	-86.024490
29479.743298	-1360.054667	781.465820	-15.570972
29479.743298	-1360.054667	780.272461	-99.211861
29479.743298	-1360.054667	779.078125	-57.541985
29479.743298	-1360.054667	777.883789	-29.301544
29479.743298	-1360.054667	776.688477	-104.974846
29479.743298	-1360.054667	775.494141	11.950422
29479.743298	-1360.054667	774.298828	175.088715
29479.743298	-1360.054667	773.103516	-154.372818
29479.743298	-1360.054667	771.907227	33.880405
29479.743298	-1360.054667	770.711914	54.782951
29479.743298	-1360.054667	769.515625	85.361656
29479.743298	-1360.054667	768.318359	-103.179581
29479.743298	-1360.054667	767.122070	-87.825569
29479.743298	-1360.054667	765.924805	39.058144
29479.743298	-1360.054667	764.727539	21.848476
29479.743298	-1360.054667	763.530273	45.051735
29479.743298	-1360.054667	762.333008	-66.132454
29479.743298	-1360.054667	761.134766	97.387955
29479.743298	-1360.054667	759.936523	-13.629655
29479.743298	-1360.054667	758.738281	98.114822
29479.743298	-1360.054667	757.540039	27.567924
29479.743298	-1360.054667	756.340820	-88.931206
29479.743298	-1360.054667	755.141602	-57.618698
29479.743298	-1360.054667	753.942383	50.454800
29479.743298	-1360.054667	752.742188	14.738804
29479.743298	-1360.054667	751.541992	-59.244289
29479.743298	-1360.054667	750.341797	-54.556973
29479.743298	-1360.054667	749.141602	130.309525
29479.743298	-1360.054667	747.941406	46.939098
29479.743298	-1360.054667	746.740234	32.617249
29479.743298	-1360.054667	745.539063	-140.593033
29479.743298	-1360.054667	744.337891	-108.813049
29479.743298	-1360.054667	743.135742	-145.903778
29479.743298	-1360.054667	741.933594	-213.550522
29479.743298	-1360.054667	740.731445	-214.150070
29479.743298	-1360.054667	739.529297	-61.659805
29479.743298	-1360.054667	738.326172	-22.027620
29479.743298	-1360.054667	737.124023	4.242742
29479.743298	-1360.054667	735.919922	15.259495
29479.743298	-1360.054667	734.716797	-161.011322
29479.743298	-1360.054667	733.513672	169.255722
29479.743298	-1360.054667	732.309570	84.820694
29479.743298	-1360.054667	731.105469	-26.285589
29479.743298	-1360.054667	729.900391	78.507492
29479.743298	-1360.054667	728.696289	45.805843
29479.743298	-1360.054667	727.491211	85.699509
29479.743298	-1360.054667	726.286133	91.251282
29479.743298	-1360.054667	725.080078	91.109848
29479.743298	-1360.054667	723.874023	41.392574
29479.743298	-1360.054667	722.668945	60.383705
29479.743298	-1360.054667	721.461914	5.026935
29479.743298	-1360.054667	720.255859	43.134609
29479.743298	-1360.054667	719.048828	86.970650
29479.743298	-1360.054667	717.841797	12.644349
29479.743298	-1360.054667	716.634766	203.221115
29479.743298	-1360.054667	715.427734	-27.281523
29479.743298	-1360.054667	714.219727	-29.113476
29479.743298	-1360.054667	713.011719	-228.976181
29479.743298	-1360.054667	711.803711	-156.497681
29479.743298	-1360.054667	710.594727	-186.824478
29479.743298	-1360.054667	709.385742	115.898537
29479.743298	-1360.054667	708.176758	-76.192131
29479.743298	-1360.054667	706.967773	0.013613
29479.743298	-1360.054667	705.758789	9.619988
29479.743298	-1360.054667	704.548828	-35.920013
29479.743298	-1360.054667	703.338867	34.516155
29479.743298	-1360.054667	702.127930	87.812073
29479.743298	-1360.054667	700.917969	104.964134
29479.743298	-1360.054667	699.707031	310.184143
29479.743298	-1360.054667	698.496094	190.494965
29479.743298	-1360.054667	697.285156	114.514328
29479.743298	-1360.054667	696.073242	161.962524
29479.743298	-1360.054667	694.861328	328.956177
29479.743298	-1360.054667	693.649414	279.497681
29479.743298	-1360.054667	692.436523	450.141235
29479.743298	-1360.054667	691.224609	311.454620
29479.743298	-1360.054667	690.011719	402.293671
29479.743298	-1360.054667	688.798828	604.938110
29479.743298	-1360.054667	687.584961	259.556183
29479.743298	-1360.054667	686.372070	575.791992
29479.743298	-1360.054667	685.158203	518.525513
29479.743298	-1360.054667	683.943359	461.241394
29479.743298	-1360.054667	682.729492	729.741089
29479.743298	-1360.054667	681.514648	751.877014
29479.743298	-1360.054667	680.299805	821.284485
29479.743298	-1360.054667	679.084961	621.788879
29479.743298	-1360.054667	677.869141	713.793457
29479.743298	-1360.054667	676.653320	805.696289
29479.743298	-1360.054667	675.437500	988.304321
29479.743298	-1360.054667	674.221680	890.826721
29479.743298	-1360.054667	673.004883	853.839294
29479.743298	-1360.054667	671.789063	969.933411
29479.743298	-1360.054667	670.571289	651.144226
29479.743298	-1360.054667	669.354492	566.752563
29479.743298	-1360.054667	668.136719	497.433716
29479.743298	-1360.054667	666.919922	786.982727
29479.743298	-1360.054667	665.701172	719.365479
29479.743298	-1360.054667	664.483398	908.491638
29479.743298	-1360.054667	663.264648	840.694092
29479.743298	-1360.054667	662.045898	925.715393
29479.743298	-1360.054667	660.827148	903.038269
29479.743298	-1360.054667	659.608398	1012.337708
29479.743298	-1360.054667	658.388672	893.248169
29479.743298	-1360.054667	657.168945	783.530151
29479.743298	-1360.054667	655.949219	894.353882
29479.743298	-1360.054667	654.728516	1103.045898
29479.743298	-1360.054667	653.507813	870.513367
29479.743298	-1360.054667	652.287109	943.218628
29479.743298	-1360.054667	651.066406	908.390503
29479.743298	-1360.054667	649.844727	811.299561
29479.743298	-1360.054667	648.623047	1028.603394
29479.743298	-1360.054667	647.401367	829.607178
29479.743298	-1360.054667	646.179688	961.851318
29479.743298	-1360.054667	644.957031	1033.686035
29479.743298	-1360.054667	643.734375	1193.786011
29479.743298	-1360.054667	642.511719	1163.685181
29479.743298	-1360.054667	641.289063	1103.363159
29479.743298	-1360.054667	640.065430	1001.556885
29479.743298	-1360.054667	638.841797	1006.803772
29479.743298	-1360.054667	637.618164	1169.779175
29479.743298	-1360.054667	636.393555	1210.391357
29479.743298	-1360.054667	635.168945	1059.199829
29479.743298	-1360.054667	633.944336	1261.045044
29479.743298	-1360.054667	632.719727	1244.802612
29479.743298	-1360.054667	631.494141	989.959595
29479.743298	-1360.054667	630.269531	905.878906
29479.743298	-1360.054667	629.042969	1029.989502
29479.743298	-1360.054667	627.817383	878.053467
29479.743298	-1360.054667	626.590820	1026.165527
29479.743298	-1360.054667	625.365234	830.814026
29479.743298	-1360.054667	624.137695	837.887207
29479.743298	-1360.054667	622.911133	869.151978
29479.743298	-1360.054667	621.683594	772.768494
29479.743298	-1360.054667	620.456055	1062.280762
29479.743298	-1360.054667	619.228516	965.531494
29479.743298	-1360.054667	618.000977	960.423279
29479.743298	-1360.054667	616.772461	872.726990
29479.743298	-1360.054667	615.543945	1020.798828
29479.743298	-1360.054667	614.314453	1009.497314
29479.743298	-1360.054667	613.085938	771.547485
29479.743298	-1360.054667	611.856445	823.536255
29479.743298	-1360.054667	610.626953	910.850952
29479.743298	-1360.054667	609.397461	708.021301
29479.743298	-1360.054667	608.166992	770.616272
29479.743298	-1360.054667	606.936523	761.937866
29479.743298	-1360.054667	605.706055	855.866577
29479.743298	-1360.054667	604.474609	809.390076
29479.743298	-1360.054667	603.244141	910.333008
29479.743298	-1360.054667	602.012695	867.188354
29479.743298	-1360.054667	600.780273	1141.345337
29479.743298	-1360.054667	599.548828	1243.395264
29479.743298	-1360.054667	598.316406	1067.034424
29479.743298	-1360.054667	597.083984	1247.022827
29479.743298	-1360.054667	595.851563	1271.842896
29479.743298	-1360.054667	594.618164	941.968811
29479.743298	-1360.054667	593.384766	1141.744141
29479.743298	-1360.054667	592.151367	1175.250122
29479.743298	-1360.054667	590.917969	1105.983521
29479.743298	-1360.054667	589.683594	1088.718750
29479.743298	-1360.054667	588.449219	1115.972046
29479.743298	-1360.054667	587.214844	1051.698364
29479.743298	-1360.054667	585.979492	1097.137695
29479.743298	-1360.054667	584.745117	1125.583618
29479.743298	-1360.054667	583.509766	954.554382
29479.743298	-1360.054667	582.273438	1196.661865
29479.743298	-1360.054667	581.038086	1148.097412
29479.743298	-1360.054667	579.801758	956.043701
29479.743298	-1360.054667	578.565430	918.272827
29479.743298	-1360.054667	577.329102	1010.503906
29479.743298	-1360.054667	576.091797	1044.822021
29479.743298	-1360.054667	574.854492	892.981445
29479.743298	-1360.054667	573.617188	839.509277
29479.743298	-1360.054667	572.378906	949.381897
29479.743298	-1360.054667	571.141602	867.616150
29479.743298	-1360.054667	569.903320	858.113403
29479.743298	-1360.054667	568.664063	710.954224
29479.743298	-1360.054667	567.425781	667.636169
29479.743298	-1360.054667	566.186523	683.524780
29479.743298	-1360.054667	564.947266	684.346252
29479.743298	-1360.054667	563.708008	653.409363
29479.743298	-1360.054667	562.467773	748.429260
29479.743298	-1360.054667	561.227539	717.067444
29479.743298	-1360.054667	559.987305	774.527649
29479.743298	-1360.054667	558.747070	646.347595
29479.743298	-1360.054667	557.505859	616.256775
29479.743298	-1360.054667	556.264648	867.681396
29479.743298	-1360.054667	555.023438	866.801025
29479.743298	-1360.054667	553.781250	828.662415
29479.743298	-1360.054667	552.539063	764.414185
29479.743298	-1360.054667	551.296875	655.557495
29479.743298	-1360.054667	550.054688	726.134827
29479.743298	-1360.054667	548.811523	579.921997
29479.743298	-1360.054667	547.569336	609.396851
29479.743298	-1360.054667	546.325195	335.228851
29479.743298	-1360.054667	545.082031	654.777222
29479.743298	-1360.054667	543.837891	813.103882
29479.743298	-1360.054667	542.593750	704.935547
29479.743298	-1360.054667	541.349609	629.912842
29479.743298	-1360.054667	540.105469	626.829956
29479.743298	-1360.054667	538.860352	706.719299
29479.743298	-1360.054667	537.615234	633.076050
29479.743298	-1360.054667	536.369141	590.690552
29479.743298	-1360.054667	535.124023	644.198425
29479.743298	-1360.054667	533.877930	549.821350
29479.743298	-1360.054667	532.631836	370.426483
29479.743298	-1360.054667	531.384766	563.720093
29479.743298	-1360.054667	530.138672	531.707214
29479.743298	-1360.054667	528.891602	601.009460
29479.743298	-1360.054667	527.643555	446.983063
29479.743298	-1360.054667	526.396484	622.946533
29479.743298	-1360.054667	525.148438	627.254578
29479.743298	-1360.054667	523.900391	358.669220
29479.743298	-1360.054667	522.652344	458.605072
29479.743298	-1360.054667	521.403320	241.505539
29479.743298	-1360.054667	520.154297	265.669434
29479.743298	-1360.054667	518.905273	291.556427
29479.743298	-1360.054667	517.656250	309.967194
29479.743298	-1360.054667	516.406250	192.051208
29479.743298	-1360.054667	515.156250	333.569855
29479.743298	-1360.054667	513.906250	364.548584
29479.743298	-1360.054667	512.655273	378.863525
29479.743298	-1360.054667	511.404297	415.162262
29479.743298	-1360.054667	510.153320	274.860077
29479.743298	-1360.054667	508.902344	368.013031
29479.743298	-1360.054667	507.650391	234.990494
29479.743298	-1360.054667	506.398438	289.392670
29479.743298	-1360.054667	505.146484	408.018951
29479.743298	-1360.054667	503.893555	219.804260
29479.743298	-1360.054667	502.641602	231.801514
29479.743298	-1360.054667	501.388672	331.870300
29479.743298	-1360.054667	500.134766	426.346283
29479.743298	-1360.054667	498.881836	366.620575
29479.743298	-1360.054667	497.627930	275.700287
29479.743298	-1360.054667	496.374023	16.047607
29479.743298	-1360.054667	495.119141	13.239325
29479.743298	-1360.054667	493.865234	-112.402557
29479.743298	-1360.054667	492.610352	68.137978
29479.743298	-1360.054667	491.355469	252.278366
29479.743298	-1360.054667	490.099609	36.889568
29479.743298	-1360.054667	488.843750	-11.673456
29479.743298	-1360.054667	487.587891	154.107056
29479.743298	-1360.054667	486.332031	162.371918
29479.743298	-1360.054667	485.075195	282.339966
29479.743298	-1360.054667	483.818359	254.041885
29479.743298	-1360.054667	482.561523	84.901741
29479.743298	-1360.054667	481.304688	29.329912
29479.743298	-1360.054667	480.046875	47.003441
29479.743298	-1360.054667	478.789063	300.659882
29479.743298	-1360.054667	477.531250	137.405853
29479.743298	-1360.054667	476.272461	113.224266
29479.743298	-1360.054667	475.013672	56.246929
29479.743298	-1360.054667	473.754883	200.386078
29479.743298	-1360.054667	472.496094	282.454315
29479.743298	-1360.054667	471.236328	123.493279
29479.743298	-1360.054667	469.976563	119.929291
29479.743298	-1360.054667	468.716797	196.817947
29479.743298	-1360.054667	467.456055	224.504776
29479.743298	-1360.054667	466.196289	173.854996
29479.743298	-1360.054667	464.935547	168.966049
29479.743298	-1360.054667	463.673828	142.321304
29479.743298	-1360.054667	462.413086	126.791908
29479.743298	-1360.054667	461.151367	228.103668
29479.743298	-1360.054667	459.889648	287.604248
29479.743298	-1360.054667	458.626953	159.516434
29479.743298	-1360.054667	457.364258	253.952057
29479.743298	-1360.054667	456.101563	-72.294937
29479.743298	-1360.054667	454.838867	-53.989330
29479.743298	-1360.054667	453.575195	113.798706
29479.743298	-1360.054667	452.312500	-75.110687
29479.743298	-1360.054667	451.047852	43.840290
29479.743298	-1360.054667	449.784180	51.944050
29479.743298	-1360.054667	448.519531	-192.654175
29479.743298	-1360.054667	447.254883	-171.370300
29479.743298	-1360.054667	445.990234	-68.050392
29479.743298	-1360.054667	444.725586	-75.469406
29479.743298	-1360.054667	443.459961	8.211518
29479.743298	-1360.054667	442.194336	-156.905518
29479.743298	-1360.054667	440.927734	-47.370438
29479.743298	-1360.054667	439.662109	73.251694
29479.743298	-1360.054667	438.395508	-20.270859
29479.743298	-1360.054667	437.127930	-13.661253
29479.743298	-1360.054667	435.861328	-12.260860
29479.743298	-1360.054667	434.593750	94.637299
29479.743298	-1360.054667	433.326172	147.284515
29479.743298	-1360.054667	432.058594	205.587738
29479.743298	-1360.054667	430.790039	33.735474
29479.743298	-1360.054667	429.521484	311.932526
29479.743298	-1360.054667	428.252930	184.118042
29479.743298	-1360.054667	426.984375	286.804962
29479.743298	-1360.054667	425.714844	322.620483
29479.743298	-1360.054667	424.445313	362.278961
29479.743298	-1360.054667	423.174805	177.520401
29479.743298	-1360.054667	421.905273	192.299164
29479.743298	-1360.054667	420.634766	95.029190
29479.743298	-1360.054667	419.364258	155.522888
29479.743298	-1360.054667	418.092773	167.337570
29479.743298	-1360.054667	416.822266	280.703583
29479.743298	-1360.054667	415.550781	245.878067
29479.743298	-1360.054667	414.278320	102.744995
29479.743298	-1360.054667	413.006836	-41.928825
29479.743298	-1360.054667	411.734375	-90.525543
29479.743298	-1360.054667	410.461914	40.035824
29479.743298	-1360.054667	409.188477	78.552071
29479.743298	-1360.054667	407.916016	102.774765
29479.743298	-1360.054667	406.642578	36.827358
29479.743298	-1360.054667	405.368164	131.795547
29479.743298	-1360.054667	404.094727	185.342239
29479.743298	-1360.054667	402.820313	-143.709229
29479.743298	-1360.054667	401.545898	-28.507040
29479.743298	-1360.054667	400.270508	-90.081558
29479.743298	-1360.054667	398.996094	23.465696
29479.743298	-1360.054667	397.720703	66.701935
29479.743298	-1360.054667	396.444336	185.724152
29479.743298	-1360.054667	395.168945	128.072571
29479.743298	-1360.054667	393.892578	-68.308800
29479.743298	-1360.054667	392.616211	108.449142
29479.743298	-1360.054667	391.339844	-156.280884
29479.743298	-1360.054667	390.062500	79.849167
29479.743298	-1360.054667	388.785156	60.112820
29479.743298	-1360.054667	387.507813	-222.545792
29479.743298	-1360.054667	386.229492	33.076752
29479.743298	-1360.054667	384.951172	-199.240143
29479.743298	-1360.054667	383.672852	-132.887421
29479.743298	-1360.054667	382.394531	-194.437714
29479.743298	-1360.054667	381.115234	-166.211777
29479.743298	-1360.054667	379.835938	70.389046
29479.743298	-1360.054667	378.556641	-24.134092
29479.743298	-1360.054667	377.277344	24.916059
29479.743298	-1360.054667	375.997070	-35.966339
29479.743298	-1360.054667	374.716797	25.024174
29479.743298	-1360.054667	373.435547	40.723423
29479.743298	-1360.054667	372.155273	0.360139
29479.743298	-1360.054667	370.874023	83.468079
29479.743298	-1360.054667	369.591797	47.598125
29479.743298	-1360.054667	368.310547	172.766891
29479.743298	-1360.054667	367.028320	214.795822
29479.743298	-1360.054667	365.746094	259.810028
29479.743298	-1360.054667	364.463867	343.634918
29479.743298	-1360.054667	363.180664	220.537140
29479.743298	-1360.054667	361.897461	138.007645
29479.743298	-1360.054667	360.614258	-13.361322
29479.743298	-1360.054667	359.330078	200.062378
29479.743298	-1360.054667	358.045898	20.180399
29479.743298	-1360.054667	356.761719	-28.000080
29479.743298	-1360.054667	355.477539	39.263699
29479.743298	-1360.054667	354.192383	-129.083679
29479.743298	-1360.054667	352.907227	202.741791
29479.743298	-1360.054667	351.622070	227.254730
29479.743298	-1360.054667	350.336914	302.428894
29479.743298	-1360.054667	349.050781	213.496490
29479.743298	-1360.054667	347.764648	42.779205
29479.743298	-1360.054667	346.477539	108.510902
29479.743298	-1360.054667	345.191406	172.748932
29479.743298	-1360.054667	343.904297	8.403023
29479.743298	-1360.054667	342.616211	244.514969
29479.743298	-1360.054667	341.329102	223.372147
29479.743298	-1360.054667	340.041016	203.999222
29479.743298	-1360.054667	338.752930	277.403717
29479.743298	-1360.054667	337.463867	413.063477
29479.743298	-1360.054667	336.175781	220.012772
29479.743298	-1360.054667	334.886719	306.838318
29479.743298	-1360.054667	333.596680	311.083771
29479.743298	-1360.054667	332.307617	421.848999
29479.743298	-1360.054667	331.017578	260.830994
29479.743298	-1360.054667	329.727539	4.653510
29479.743298	-1360.054667	328.436523	107.790489
29479.743298	-1360.054667	327.146484	99.485687
29479.743298	-1360.054667	325.855469	180.962555
29479.743298	-1360.054667	324.563477	88.399559
29479.743298	-1360.054667	323.272461	338.380554
29479.743298	-1360.054667	321.980469	538.731018
29479.743298	-1360.054667	320.688477	114.397797
29479.743298	-1360.054667	319.395508	186.908020
29479.743298	-1360.054667	318.103516	334.192566
29479.743298	-1360.054667	316.810547	522.152771
29479.743298	-1360.054667	315.516602	371.763977
29479.743298	-1360.054667	314.223633	295.801605
29479.743298	-1360.054667	312.929688	272.607697
29479.743298	-1360.054667	311.635742	255.855011
29479.743298	-1360.054667	310.340820	179.560486
29479.743298	-1360.054667	309.045898	123.637001
29479.743298	-1360.054667	307.750977	82.587318
29479.743298	-1360.054667	306.456055	91.763123
29479.743298	-1360.054667	305.160156	-39.108589
29479.743298	-1360.054667	303.865234	-175.008011
29479.743298	-1360.054667	302.568359	36.791908
29479.743298	-1360.054667	301.272461	-74.543831
29479.743298	-1360.054667	299.975586	-204.058640
29479.743298	-1360.054667	298.678711	-23.702034
