#X		#Y		#Wave		#Intensity
18.551064	5477.486667	1999.946289	64.342232
18.551064	5477.486667	1998.981445	6.874519
18.551064	5477.486667	1998.017578	57.933552
18.551064	5477.486667	1997.052734	-42.205929
18.551064	5477.486667	1996.088867	6.336736
18.551064	5477.486667	1995.124023	15.211482
18.551064	5477.486667	1994.159180	21.591707
18.551064	5477.486667	1993.193359	65.098999
18.551064	5477.486667	1992.228516	-101.868050
18.551064	5477.486667	1991.262695	-23.727459
18.551064	5477.486667	1990.296875	-14.927355
18.551064	5477.486667	1989.331055	-35.837784
18.551064	5477.486667	1988.365234	-71.598320
18.551064	5477.486667	1987.398438	-52.942680
18.551064	5477.486667	1986.432617	10.207618
18.551064	5477.486667	1985.465820	28.813528
18.551064	5477.486667	1984.499023	32.565464
18.551064	5477.486667	1983.532227	132.698364
18.551064	5477.486667	1982.565430	47.438396
18.551064	5477.486667	1981.597656	-25.450178
18.551064	5477.486667	1980.629883	-48.919224
18.551064	5477.486667	1979.662109	-0.767229
18.551064	5477.486667	1978.694336	-4.503629
18.551064	5477.486667	1977.726563	9.030606
18.551064	5477.486667	1976.758789	74.384888
18.551064	5477.486667	1975.790039	21.236010
18.551064	5477.486667	1974.821289	56.926144
18.551064	5477.486667	1973.852539	-33.232109
18.551064	5477.486667	1972.883789	-2.504035
18.551064	5477.486667	1971.915039	23.267452
18.551064	5477.486667	1970.945313	-20.024353
18.551064	5477.486667	1969.975586	15.576068
18.551064	5477.486667	1969.005859	-30.188015
18.551064	5477.486667	1968.036133	32.484039
18.551064	5477.486667	1967.066406	-5.898874
18.551064	5477.486667	1966.096680	66.574974
18.551064	5477.486667	1965.125977	-6.306901
18.551064	5477.486667	1964.155273	-24.998325
18.551064	5477.486667	1963.184570	25.243486
18.551064	5477.486667	1962.213867	77.916206
18.551064	5477.486667	1961.242188	34.572189
18.551064	5477.486667	1960.271484	92.121933
18.551064	5477.486667	1959.299805	-0.436163
18.551064	5477.486667	1958.328125	-6.879090
18.551064	5477.486667	1957.356445	-37.924023
18.551064	5477.486667	1956.384766	31.844685
18.551064	5477.486667	1955.412109	10.614583
18.551064	5477.486667	1954.439453	53.288170
18.551064	5477.486667	1953.467773	-44.140709
18.551064	5477.486667	1952.495117	-28.521698
18.551064	5477.486667	1951.521484	6.732450
18.551064	5477.486667	1950.548828	2.666223
18.551064	5477.486667	1949.575195	13.323966
18.551064	5477.486667	1948.601563	33.788410
18.551064	5477.486667	1947.627930	12.504499
18.551064	5477.486667	1946.654297	-55.413155
18.551064	5477.486667	1945.680664	-88.961746
18.551064	5477.486667	1944.706055	-66.081268
18.551064	5477.486667	1943.732422	-94.729050
18.551064	5477.486667	1942.757813	-39.993198
18.551064	5477.486667	1941.783203	14.712986
18.551064	5477.486667	1940.807617	30.163345
18.551064	5477.486667	1939.833008	62.757313
18.551064	5477.486667	1938.857422	58.569298
18.551064	5477.486667	1937.881836	-9.330799
18.551064	5477.486667	1936.906250	-165.404785
18.551064	5477.486667	1935.930664	48.410210
18.551064	5477.486667	1934.955078	76.027130
18.551064	5477.486667	1933.978516	0.792758
18.551064	5477.486667	1933.001953	52.868828
18.551064	5477.486667	1932.025391	36.388748
18.551064	5477.486667	1931.048828	-19.245508
18.551064	5477.486667	1930.072266	-30.829733
18.551064	5477.486667	1929.094727	-20.404146
18.551064	5477.486667	1928.118164	53.597134
18.551064	5477.486667	1927.140625	-4.477512
18.551064	5477.486667	1926.163086	45.029068
18.551064	5477.486667	1925.184570	40.734573
18.551064	5477.486667	1924.207031	-17.328262
18.551064	5477.486667	1923.228516	122.532639
18.551064	5477.486667	1922.250000	-33.255280
18.551064	5477.486667	1921.271484	8.844453
18.551064	5477.486667	1920.292969	50.921303
18.551064	5477.486667	1919.314453	112.507607
18.551064	5477.486667	1918.334961	-33.427917
18.551064	5477.486667	1917.355469	28.135952
18.551064	5477.486667	1916.375977	-49.418602
18.551064	5477.486667	1915.396484	-53.760185
18.551064	5477.486667	1914.416992	139.471909
18.551064	5477.486667	1913.436523	-1.489469
18.551064	5477.486667	1912.457031	6.334602
18.551064	5477.486667	1911.476563	23.899960
18.551064	5477.486667	1910.496094	-17.045828
18.551064	5477.486667	1909.515625	49.244164
18.551064	5477.486667	1908.534180	59.462231
18.551064	5477.486667	1907.552734	72.106445
18.551064	5477.486667	1906.572266	-46.780670
18.551064	5477.486667	1905.590820	-99.881775
18.551064	5477.486667	1904.608398	46.674553
18.551064	5477.486667	1903.626953	-69.725464
18.551064	5477.486667	1902.644531	18.348778
18.551064	5477.486667	1901.663086	38.253006
18.551064	5477.486667	1900.680664	-0.246030
18.551064	5477.486667	1899.698242	-101.978592
18.551064	5477.486667	1898.714844	-52.897953
18.551064	5477.486667	1897.732422	93.420753
18.551064	5477.486667	1896.749023	-13.151028
18.551064	5477.486667	1895.765625	-0.588569
18.551064	5477.486667	1894.782227	55.707092
18.551064	5477.486667	1893.798828	51.234573
18.551064	5477.486667	1892.814453	54.045460
18.551064	5477.486667	1891.831055	112.714066
18.551064	5477.486667	1890.846680	3.800025
18.551064	5477.486667	1889.862305	-7.962450
18.551064	5477.486667	1888.877930	94.363487
18.551064	5477.486667	1887.892578	75.297180
18.551064	5477.486667	1886.908203	39.249878
18.551064	5477.486667	1885.922852	168.182053
18.551064	5477.486667	1884.937500	27.820374
18.551064	5477.486667	1883.952148	28.165638
18.551064	5477.486667	1882.965820	62.451031
18.551064	5477.486667	1881.980469	11.872997
18.551064	5477.486667	1880.994141	118.854370
18.551064	5477.486667	1880.007813	-40.774178
18.551064	5477.486667	1879.021484	-16.208126
18.551064	5477.486667	1878.035156	37.414402
18.551064	5477.486667	1877.047852	13.508698
18.551064	5477.486667	1876.061523	6.560541
18.551064	5477.486667	1875.074219	45.610397
18.551064	5477.486667	1874.086914	89.483337
18.551064	5477.486667	1873.098633	26.848305
18.551064	5477.486667	1872.111328	22.307795
18.551064	5477.486667	1871.123047	-28.201517
18.551064	5477.486667	1870.135742	-8.548310
18.551064	5477.486667	1869.147461	-92.895531
18.551064	5477.486667	1868.158203	21.050823
18.551064	5477.486667	1867.169922	72.099808
18.551064	5477.486667	1866.180664	108.623375
18.551064	5477.486667	1865.192383	21.889090
18.551064	5477.486667	1864.203125	75.315041
18.551064	5477.486667	1863.213867	5.521971
18.551064	5477.486667	1862.223633	5.790354
18.551064	5477.486667	1861.234375	47.107735
18.551064	5477.486667	1860.244141	-22.650299
18.551064	5477.486667	1859.253906	57.271034
18.551064	5477.486667	1858.263672	-36.601360
18.551064	5477.486667	1857.273438	-17.034775
18.551064	5477.486667	1856.282227	60.419216
18.551064	5477.486667	1855.291992	0.359750
18.551064	5477.486667	1854.300781	121.184357
18.551064	5477.486667	1853.309570	51.485470
18.551064	5477.486667	1852.317383	-54.350754
18.551064	5477.486667	1851.326172	-1.075754
18.551064	5477.486667	1850.333984	100.370094
18.551064	5477.486667	1849.342773	-48.787598
18.551064	5477.486667	1848.350586	-41.319294
18.551064	5477.486667	1847.357422	129.911514
18.551064	5477.486667	1846.365234	101.220787
18.551064	5477.486667	1845.372070	26.795071
18.551064	5477.486667	1844.379883	-11.497675
18.551064	5477.486667	1843.386719	36.856495
18.551064	5477.486667	1842.393555	-78.424492
18.551064	5477.486667	1841.399414	-6.024806
18.551064	5477.486667	1840.406250	-10.618978
18.551064	5477.486667	1839.412109	54.522755
18.551064	5477.486667	1838.417969	-15.002292
18.551064	5477.486667	1837.423828	-65.272209
18.551064	5477.486667	1836.429688	83.956436
18.551064	5477.486667	1835.434570	134.605179
18.551064	5477.486667	1834.440430	96.342743
18.551064	5477.486667	1833.445313	55.689659
18.551064	5477.486667	1832.450195	123.121178
18.551064	5477.486667	1831.454102	27.247286
18.551064	5477.486667	1830.458984	73.049484
18.551064	5477.486667	1829.462891	-3.580144
18.551064	5477.486667	1828.466797	111.798988
18.551064	5477.486667	1827.470703	-46.388790
18.551064	5477.486667	1826.474609	23.373398
18.551064	5477.486667	1825.478516	57.131706
18.551064	5477.486667	1824.481445	18.935574
18.551064	5477.486667	1823.484375	81.447510
18.551064	5477.486667	1822.487305	48.052299
18.551064	5477.486667	1821.490234	-88.385788
18.551064	5477.486667	1820.493164	-95.381622
18.551064	5477.486667	1819.495117	10.219936
18.551064	5477.486667	1818.498047	-90.209473
18.551064	5477.486667	1817.500000	-90.022423
18.551064	5477.486667	1816.500977	46.639252
18.551064	5477.486667	1815.502930	70.736549
18.551064	5477.486667	1814.504883	82.856255
18.551064	5477.486667	1813.505859	-53.396793
18.551064	5477.486667	1812.506836	-22.122292
18.551064	5477.486667	1811.507813	-65.015541
18.551064	5477.486667	1810.508789	-5.053587
18.551064	5477.486667	1809.508789	112.271004
18.551064	5477.486667	1808.508789	66.980354
18.551064	5477.486667	1807.508789	59.949963
18.551064	5477.486667	1806.508789	134.175201
18.551064	5477.486667	1805.508789	-13.841002
18.551064	5477.486667	1804.508789	46.033936
18.551064	5477.486667	1803.507813	93.940971
18.551064	5477.486667	1802.506836	41.531883
18.551064	5477.486667	1801.505859	34.504913
18.551064	5477.486667	1800.504883	127.738235
18.551064	5477.486667	1799.502930	68.187027
18.551064	5477.486667	1798.501953	77.858917
18.551064	5477.486667	1797.500000	125.696236
18.551064	5477.486667	1796.498047	63.790195
18.551064	5477.486667	1795.496094	-12.402901
18.551064	5477.486667	1794.493164	128.410736
18.551064	5477.486667	1793.491211	-52.662373
18.551064	5477.486667	1792.488281	-38.222397
18.551064	5477.486667	1791.485352	42.936382
18.551064	5477.486667	1790.482422	71.645760
18.551064	5477.486667	1789.478516	-37.823193
18.551064	5477.486667	1788.475586	19.468325
18.551064	5477.486667	1787.471680	107.691620
18.551064	5477.486667	1786.467773	62.555840
18.551064	5477.486667	1785.463867	10.294622
18.551064	5477.486667	1784.459961	36.588627
18.551064	5477.486667	1783.455078	3.383497
18.551064	5477.486667	1782.450195	124.824165
18.551064	5477.486667	1781.445313	-27.314478
18.551064	5477.486667	1780.440430	65.546432
18.551064	5477.486667	1779.435547	32.355862
18.551064	5477.486667	1778.429688	68.113647
18.551064	5477.486667	1777.424805	-53.006554
18.551064	5477.486667	1776.418945	-64.774597
18.551064	5477.486667	1775.413086	25.621439
18.551064	5477.486667	1774.406250	-26.542730
18.551064	5477.486667	1773.400391	-38.313171
18.551064	5477.486667	1772.393555	-19.213657
18.551064	5477.486667	1771.386719	-57.099491
18.551064	5477.486667	1770.379883	106.782005
18.551064	5477.486667	1769.373047	47.525791
18.551064	5477.486667	1768.365234	83.196404
18.551064	5477.486667	1767.358398	-32.969021
18.551064	5477.486667	1766.350586	-18.645382
18.551064	5477.486667	1765.342773	24.127203
18.551064	5477.486667	1764.334961	-27.952789
18.551064	5477.486667	1763.326172	33.764374
18.551064	5477.486667	1762.318359	26.728970
18.551064	5477.486667	1761.309570	-20.588396
18.551064	5477.486667	1760.300781	90.838318
18.551064	5477.486667	1759.291016	81.420074
18.551064	5477.486667	1758.282227	29.378635
18.551064	5477.486667	1757.272461	15.237585
18.551064	5477.486667	1756.262695	36.609390
18.551064	5477.486667	1755.252930	57.971584
18.551064	5477.486667	1754.243164	43.828804
18.551064	5477.486667	1753.233398	22.592173
18.551064	5477.486667	1752.222656	27.380651
18.551064	5477.486667	1751.211914	-52.974781
18.551064	5477.486667	1750.201172	-93.103279
18.551064	5477.486667	1749.190430	3.900426
18.551064	5477.486667	1748.179688	51.228954
18.551064	5477.486667	1747.167969	96.173141
18.551064	5477.486667	1746.156250	-5.392826
18.551064	5477.486667	1745.144531	23.005909
18.551064	5477.486667	1744.132813	49.030231
18.551064	5477.486667	1743.121094	-31.220263
18.551064	5477.486667	1742.108398	-116.165184
18.551064	5477.486667	1741.095703	56.216393
18.551064	5477.486667	1740.083008	11.405171
18.551064	5477.486667	1739.070313	37.397736
18.551064	5477.486667	1738.057617	4.399891
18.551064	5477.486667	1737.043945	13.868235
18.551064	5477.486667	1736.030273	-21.475372
18.551064	5477.486667	1735.016602	-45.018143
18.551064	5477.486667	1734.002930	-120.415108
18.551064	5477.486667	1732.989258	-33.158451
18.551064	5477.486667	1731.974609	35.210121
18.551064	5477.486667	1730.959961	75.278938
18.551064	5477.486667	1729.945313	-30.713732
18.551064	5477.486667	1728.930664	87.067810
18.551064	5477.486667	1727.916016	84.715363
18.551064	5477.486667	1726.900391	-32.995644
18.551064	5477.486667	1725.885742	-16.497437
18.551064	5477.486667	1724.870117	110.596558
18.551064	5477.486667	1723.853516	-35.292515
18.551064	5477.486667	1722.837891	30.590612
18.551064	5477.486667	1721.822266	40.000381
18.551064	5477.486667	1720.805664	9.427322
18.551064	5477.486667	1719.789063	28.236864
18.551064	5477.486667	1718.772461	-9.376901
18.551064	5477.486667	1717.754883	32.925674
18.551064	5477.486667	1716.738281	103.408661
18.551064	5477.486667	1715.720703	-58.714966
18.551064	5477.486667	1714.703125	23.497633
18.551064	5477.486667	1713.685547	18.788153
18.551064	5477.486667	1712.667969	-86.880997
18.551064	5477.486667	1711.649414	-30.538589
18.551064	5477.486667	1710.630859	46.903725
18.551064	5477.486667	1709.612305	-30.557716
18.551064	5477.486667	1708.593750	25.736761
18.551064	5477.486667	1707.575195	44.477833
18.551064	5477.486667	1706.555664	-2.457502
18.551064	5477.486667	1705.536133	-117.374214
18.551064	5477.486667	1704.516602	-2.506173
18.551064	5477.486667	1703.497070	-37.690784
18.551064	5477.486667	1702.477539	56.024105
18.551064	5477.486667	1701.457031	2.093381
18.551064	5477.486667	1700.437500	-44.788937
18.551064	5477.486667	1699.416992	37.156776
18.551064	5477.486667	1698.395508	-9.720599
18.551064	5477.486667	1697.375000	-82.332497
18.551064	5477.486667	1696.354492	4.250076
18.551064	5477.486667	1695.333008	-35.577568
18.551064	5477.486667	1694.311523	25.220432
18.551064	5477.486667	1693.290039	29.848680
18.551064	5477.486667	1692.267578	-152.640533
18.551064	5477.486667	1691.246094	20.386515
18.551064	5477.486667	1690.223633	32.021225
18.551064	5477.486667	1689.201172	20.274553
18.551064	5477.486667	1688.178711	-7.828823
18.551064	5477.486667	1687.155273	31.838577
18.551064	5477.486667	1686.132813	80.836037
18.551064	5477.486667	1685.109375	136.818649
18.551064	5477.486667	1684.085938	17.629923
18.551064	5477.486667	1683.062500	50.252033
18.551064	5477.486667	1682.039063	-92.221001
18.551064	5477.486667	1681.014648	-15.249340
18.551064	5477.486667	1679.990234	-15.314445
18.551064	5477.486667	1678.965820	84.940880
18.551064	5477.486667	1677.941406	35.868702
18.551064	5477.486667	1676.916992	19.464649
18.551064	5477.486667	1675.891602	14.722659
18.551064	5477.486667	1674.866211	21.637354
18.551064	5477.486667	1673.840820	-25.060289
18.551064	5477.486667	1672.815430	-41.446423
18.551064	5477.486667	1671.790039	88.957497
18.551064	5477.486667	1670.763672	-13.638784
18.551064	5477.486667	1669.737305	32.860935
18.551064	5477.486667	1668.710938	2.498669
18.551064	5477.486667	1667.684570	9.396996
18.551064	5477.486667	1666.658203	58.189728
18.551064	5477.486667	1665.630859	-39.654095
18.551064	5477.486667	1664.603516	57.987846
18.551064	5477.486667	1663.576172	92.780365
18.551064	5477.486667	1662.548828	-81.770401
18.551064	5477.486667	1661.520508	99.534081
18.551064	5477.486667	1660.493164	25.021664
18.551064	5477.486667	1659.464844	-28.543655
18.551064	5477.486667	1658.436523	10.874016
18.551064	5477.486667	1657.408203	61.893845
18.551064	5477.486667	1656.378906	64.104507
18.551064	5477.486667	1655.350586	75.606323
18.551064	5477.486667	1654.321289	108.001663
18.551064	5477.486667	1653.291992	163.602310
18.551064	5477.486667	1652.261719	105.431023
18.551064	5477.486667	1651.232422	112.269516
18.551064	5477.486667	1650.202148	91.257271
18.551064	5477.486667	1649.171875	95.773216
18.551064	5477.486667	1648.141602	118.843246
18.551064	5477.486667	1647.111328	169.733765
18.551064	5477.486667	1646.080078	213.645996
18.551064	5477.486667	1645.049805	85.992767
18.551064	5477.486667	1644.018555	111.361328
18.551064	5477.486667	1642.987305	183.066376
18.551064	5477.486667	1641.955078	120.361877
18.551064	5477.486667	1640.923828	208.251984
18.551064	5477.486667	1639.891602	164.093948
18.551064	5477.486667	1638.859375	279.725922
18.551064	5477.486667	1637.827148	221.680405
18.551064	5477.486667	1636.794922	198.376877
18.551064	5477.486667	1635.761719	212.107895
18.551064	5477.486667	1634.729492	353.091431
18.551064	5477.486667	1633.696289	258.061737
18.551064	5477.486667	1632.662109	248.642883
18.551064	5477.486667	1631.628906	241.541626
18.551064	5477.486667	1630.594727	287.616455
18.551064	5477.486667	1629.561523	308.248962
18.551064	5477.486667	1628.527344	199.452179
18.551064	5477.486667	1627.493164	243.198547
18.551064	5477.486667	1626.458008	215.311127
18.551064	5477.486667	1625.423828	99.667564
18.551064	5477.486667	1624.388672	205.757019
18.551064	5477.486667	1623.353516	191.747208
18.551064	5477.486667	1622.318359	221.602295
18.551064	5477.486667	1621.282227	186.822861
18.551064	5477.486667	1620.247070	152.058990
18.551064	5477.486667	1619.210938	221.123566
18.551064	5477.486667	1618.174805	147.154312
18.551064	5477.486667	1617.137695	345.335388
18.551064	5477.486667	1616.101563	229.870117
18.551064	5477.486667	1615.064453	158.248154
18.551064	5477.486667	1614.027344	222.636719
18.551064	5477.486667	1612.990234	351.522217
18.551064	5477.486667	1611.953125	339.821655
18.551064	5477.486667	1610.916016	178.403992
18.551064	5477.486667	1609.877930	261.164368
18.551064	5477.486667	1608.839844	254.094727
18.551064	5477.486667	1607.801758	421.987335
18.551064	5477.486667	1606.763672	281.396698
18.551064	5477.486667	1605.724609	265.124451
18.551064	5477.486667	1604.685547	306.378082
18.551064	5477.486667	1603.646484	407.424530
18.551064	5477.486667	1602.607422	310.646851
18.551064	5477.486667	1601.568359	218.506821
18.551064	5477.486667	1600.528320	282.731110
18.551064	5477.486667	1599.489258	349.231720
18.551064	5477.486667	1598.449219	270.929535
18.551064	5477.486667	1597.408203	96.158829
18.551064	5477.486667	1596.368164	238.466125
18.551064	5477.486667	1595.327148	236.025986
18.551064	5477.486667	1594.287109	233.590454
18.551064	5477.486667	1593.246094	107.182495
18.551064	5477.486667	1592.204102	279.220398
18.551064	5477.486667	1591.163086	194.165176
18.551064	5477.486667	1590.121094	269.755890
18.551064	5477.486667	1589.079102	340.730988
18.551064	5477.486667	1588.037109	264.892548
18.551064	5477.486667	1586.995117	289.983093
18.551064	5477.486667	1585.953125	246.286057
18.551064	5477.486667	1584.910156	200.314865
18.551064	5477.486667	1583.867188	406.458344
18.551064	5477.486667	1582.824219	259.660645
18.551064	5477.486667	1581.781250	188.521469
18.551064	5477.486667	1580.737305	181.543167
18.551064	5477.486667	1579.693359	263.879028
18.551064	5477.486667	1578.649414	215.682648
18.551064	5477.486667	1577.605469	307.141602
18.551064	5477.486667	1576.561523	194.879486
18.551064	5477.486667	1575.516602	263.429230
18.551064	5477.486667	1574.472656	217.569855
18.551064	5477.486667	1573.427734	260.933868
18.551064	5477.486667	1572.381836	285.988098
18.551064	5477.486667	1571.336914	249.304581
18.551064	5477.486667	1570.291016	235.496490
18.551064	5477.486667	1569.246094	292.548889
18.551064	5477.486667	1568.200195	370.146271
18.551064	5477.486667	1567.153320	230.678619
18.551064	5477.486667	1566.107422	173.500107
18.551064	5477.486667	1565.060547	230.530609
18.551064	5477.486667	1564.013672	262.426758
18.551064	5477.486667	1562.966797	38.640743
18.551064	5477.486667	1561.919922	145.886993
18.551064	5477.486667	1560.872070	189.200455
18.551064	5477.486667	1559.825195	195.998749
18.551064	5477.486667	1558.777344	225.607300
18.551064	5477.486667	1557.729492	236.963455
18.551064	5477.486667	1556.680664	207.275787
18.551064	5477.486667	1555.632813	161.648148
18.551064	5477.486667	1554.583984	163.904297
18.551064	5477.486667	1553.535156	95.522339
18.551064	5477.486667	1552.486328	229.942032
18.551064	5477.486667	1551.436523	175.248444
18.551064	5477.486667	1550.387695	136.524597
18.551064	5477.486667	1549.337891	109.203697
18.551064	5477.486667	1548.288086	136.535065
18.551064	5477.486667	1547.238281	227.590317
18.551064	5477.486667	1546.187500	161.594864
18.551064	5477.486667	1545.136719	43.300976
18.551064	5477.486667	1544.086914	120.687164
18.551064	5477.486667	1543.035156	61.587872
18.551064	5477.486667	1541.984375	7.066250
18.551064	5477.486667	1540.933594	170.816269
18.551064	5477.486667	1539.881836	59.479893
18.551064	5477.486667	1538.830078	132.264420
18.551064	5477.486667	1537.778320	70.975319
18.551064	5477.486667	1536.725586	130.108856
18.551064	5477.486667	1535.673828	62.041618
18.551064	5477.486667	1534.621094	-10.535955
18.551064	5477.486667	1533.568359	89.459854
18.551064	5477.486667	1532.515625	94.090141
18.551064	5477.486667	1531.461914	198.574585
18.551064	5477.486667	1530.409180	73.865631
18.551064	5477.486667	1529.355469	60.364735
18.551064	5477.486667	1528.301758	26.463186
18.551064	5477.486667	1527.247070	-0.617610
18.551064	5477.486667	1526.193359	-52.618595
18.551064	5477.486667	1525.138672	85.806053
18.551064	5477.486667	1524.083984	72.345451
18.551064	5477.486667	1523.029297	174.450851
18.551064	5477.486667	1521.974609	129.276108
18.551064	5477.486667	1520.918945	18.443312
18.551064	5477.486667	1519.863281	36.733109
18.551064	5477.486667	1518.807617	32.382378
18.551064	5477.486667	1517.751953	48.411942
18.551064	5477.486667	1516.696289	75.757401
18.551064	5477.486667	1515.639648	107.622658
18.551064	5477.486667	1514.583008	110.073967
18.551064	5477.486667	1513.526367	62.772781
18.551064	5477.486667	1512.469727	-38.773525
18.551064	5477.486667	1511.412109	-58.883240
18.551064	5477.486667	1510.355469	70.209328
18.551064	5477.486667	1509.297852	50.100189
18.551064	5477.486667	1508.240234	20.968122
18.551064	5477.486667	1507.181641	27.999010
18.551064	5477.486667	1506.124023	3.415025
18.551064	5477.486667	1505.065430	33.042713
18.551064	5477.486667	1504.006836	6.223656
18.551064	5477.486667	1502.948242	-31.863375
18.551064	5477.486667	1501.888672	-6.738022
18.551064	5477.486667	1500.830078	2.591579
18.551064	5477.486667	1499.770508	20.947905
18.551064	5477.486667	1498.710938	-23.848255
18.551064	5477.486667	1497.650391	30.600965
18.551064	5477.486667	1496.590820	121.111099
18.551064	5477.486667	1495.530273	-2.549759
18.551064	5477.486667	1494.469727	-94.601868
18.551064	5477.486667	1493.409180	-13.110602
18.551064	5477.486667	1492.348633	27.806664
18.551064	5477.486667	1491.287109	-84.444099
18.551064	5477.486667	1490.225586	-30.001884
18.551064	5477.486667	1489.164063	-36.362000
18.551064	5477.486667	1488.102539	-24.702858
18.551064	5477.486667	1487.041016	-58.050766
18.551064	5477.486667	1485.978516	-55.376186
18.551064	5477.486667	1484.916016	100.287567
18.551064	5477.486667	1483.853516	17.472027
18.551064	5477.486667	1482.791016	96.616219
18.551064	5477.486667	1481.727539	-17.616970
18.551064	5477.486667	1480.664063	41.295727
18.551064	5477.486667	1479.600586	8.049926
18.551064	5477.486667	1478.537109	-128.521805
18.551064	5477.486667	1477.473633	-76.325180
18.551064	5477.486667	1476.409180	43.152832
18.551064	5477.486667	1475.344727	39.188381
18.551064	5477.486667	1474.280273	-97.225555
18.551064	5477.486667	1473.215820	-85.445381
18.551064	5477.486667	1472.151367	-33.254242
18.551064	5477.486667	1471.085938	-93.300209
18.551064	5477.486667	1470.020508	-0.753954
18.551064	5477.486667	1468.955078	55.837215
18.551064	5477.486667	1467.888672	94.561584
18.551064	5477.486667	1466.823242	21.147755
18.551064	5477.486667	1465.756836	-7.339063
18.551064	5477.486667	1464.690430	-62.673344
18.551064	5477.486667	1463.624023	-15.043521
18.551064	5477.486667	1462.556641	-21.095881
18.551064	5477.486667	1461.490234	-40.620468
18.551064	5477.486667	1460.422852	4.742445
18.551064	5477.486667	1459.355469	-9.722092
18.551064	5477.486667	1458.287109	124.602608
18.551064	5477.486667	1457.219727	138.404938
18.551064	5477.486667	1456.151367	-43.694557
18.551064	5477.486667	1455.083008	17.655293
18.551064	5477.486667	1454.014648	87.180603
18.551064	5477.486667	1452.945313	20.547907
18.551064	5477.486667	1451.876953	-74.148499
18.551064	5477.486667	1450.807617	-4.134641
18.551064	5477.486667	1449.738281	36.532871
18.551064	5477.486667	1448.668945	97.511307
18.551064	5477.486667	1447.598633	104.967979
18.551064	5477.486667	1446.528320	59.907299
18.551064	5477.486667	1445.458008	93.544380
18.551064	5477.486667	1444.387695	29.976921
18.551064	5477.486667	1443.317383	34.950066
18.551064	5477.486667	1442.246094	131.170258
18.551064	5477.486667	1441.174805	134.507782
18.551064	5477.486667	1440.103516	133.292297
18.551064	5477.486667	1439.032227	182.562134
18.551064	5477.486667	1437.960938	2.304888
18.551064	5477.486667	1436.888672	14.012192
18.551064	5477.486667	1435.816406	170.482285
18.551064	5477.486667	1434.744141	-54.095360
18.551064	5477.486667	1433.670898	115.725761
18.551064	5477.486667	1432.598633	175.131119
18.551064	5477.486667	1431.525391	103.894051
18.551064	5477.486667	1430.452148	9.000978
18.551064	5477.486667	1429.378906	73.837181
18.551064	5477.486667	1428.304688	25.836756
18.551064	5477.486667	1427.231445	57.326408
18.551064	5477.486667	1426.157227	13.136484
18.551064	5477.486667	1425.083008	32.774334
18.551064	5477.486667	1424.007813	35.404076
18.551064	5477.486667	1422.933594	78.310097
18.551064	5477.486667	1421.858398	1.351379
18.551064	5477.486667	1420.783203	121.757156
18.551064	5477.486667	1419.708008	1.965927
18.551064	5477.486667	1418.631836	-3.936024
18.551064	5477.486667	1417.555664	87.395248
18.551064	5477.486667	1416.479492	38.607212
18.551064	5477.486667	1415.403320	26.203064
18.551064	5477.486667	1414.327148	35.252888
18.551064	5477.486667	1413.250000	24.015623
18.551064	5477.486667	1412.173828	124.231735
18.551064	5477.486667	1411.096680	88.149086
18.551064	5477.486667	1410.018555	40.839016
18.551064	5477.486667	1408.941406	122.787758
18.551064	5477.486667	1407.863281	76.288910
18.551064	5477.486667	1406.785156	130.911133
18.551064	5477.486667	1405.707031	97.752602
18.551064	5477.486667	1404.628906	145.467850
18.551064	5477.486667	1403.549805	95.316154
18.551064	5477.486667	1402.470703	260.103210
18.551064	5477.486667	1401.391602	178.132523
18.551064	5477.486667	1400.312500	210.312744
18.551064	5477.486667	1399.233398	231.878021
18.551064	5477.486667	1398.153320	307.326691
18.551064	5477.486667	1397.073242	143.897781
18.551064	5477.486667	1395.993164	231.419617
18.551064	5477.486667	1394.913086	261.556274
18.551064	5477.486667	1393.832031	205.481430
18.551064	5477.486667	1392.750977	341.612244
18.551064	5477.486667	1391.669922	332.843994
18.551064	5477.486667	1390.588867	221.636597
18.551064	5477.486667	1389.506836	179.828629
18.551064	5477.486667	1388.425781	392.653900
18.551064	5477.486667	1387.343750	365.967926
18.551064	5477.486667	1386.261719	432.637512
18.551064	5477.486667	1385.178711	438.335449
18.551064	5477.486667	1384.096680	504.353333
18.551064	5477.486667	1383.013672	421.423279
18.551064	5477.486667	1381.930664	425.814789
18.551064	5477.486667	1380.846680	369.203217
18.551064	5477.486667	1379.763672	391.330231
18.551064	5477.486667	1378.679688	465.034943
18.551064	5477.486667	1377.595703	475.849091
18.551064	5477.486667	1376.511719	398.009949
18.551064	5477.486667	1375.427734	358.419830
18.551064	5477.486667	1374.342773	365.251434
18.551064	5477.486667	1373.257813	359.238037
18.551064	5477.486667	1372.172852	259.758606
18.551064	5477.486667	1371.087891	244.804764
18.551064	5477.486667	1370.001953	235.589523
18.551064	5477.486667	1368.916992	228.358978
18.551064	5477.486667	1367.831055	290.930481
18.551064	5477.486667	1366.744141	313.630676
18.551064	5477.486667	1365.658203	192.771820
18.551064	5477.486667	1364.571289	129.553864
18.551064	5477.486667	1363.484375	175.770828
18.551064	5477.486667	1362.397461	230.881180
18.551064	5477.486667	1361.310547	212.339508
18.551064	5477.486667	1360.222656	130.315155
18.551064	5477.486667	1359.135742	256.250824
18.551064	5477.486667	1358.047852	214.365662
18.551064	5477.486667	1356.958984	76.559303
18.551064	5477.486667	1355.871094	72.002190
18.551064	5477.486667	1354.782227	166.224777
18.551064	5477.486667	1353.693359	255.770508
18.551064	5477.486667	1352.604492	230.131058
18.551064	5477.486667	1351.515625	163.958481
18.551064	5477.486667	1350.425781	160.496933
18.551064	5477.486667	1349.335938	101.643829
18.551064	5477.486667	1348.246094	130.240677
18.551064	5477.486667	1347.156250	20.039143
18.551064	5477.486667	1346.066406	131.400772
18.551064	5477.486667	1344.975586	110.040955
18.551064	5477.486667	1343.884766	82.709816
18.551064	5477.486667	1342.793945	26.493750
18.551064	5477.486667	1341.702148	-49.141582
18.551064	5477.486667	1340.611328	136.437317
18.551064	5477.486667	1339.519531	57.974567
18.551064	5477.486667	1338.427734	175.596466
18.551064	5477.486667	1337.334961	57.903744
18.551064	5477.486667	1336.243164	96.538086
18.551064	5477.486667	1335.150391	51.067448
18.551064	5477.486667	1334.057617	54.421288
18.551064	5477.486667	1332.964844	118.716751
18.551064	5477.486667	1331.871094	91.545570
18.551064	5477.486667	1330.778320	152.816437
18.551064	5477.486667	1329.684570	123.481178
18.551064	5477.486667	1328.590820	164.487274
18.551064	5477.486667	1327.496094	126.223854
18.551064	5477.486667	1326.402344	161.607330
18.551064	5477.486667	1325.307617	99.375763
18.551064	5477.486667	1324.212891	137.006607
18.551064	5477.486667	1323.117188	171.331879
18.551064	5477.486667	1322.022461	216.649796
18.551064	5477.486667	1320.926758	86.835152
18.551064	5477.486667	1319.831055	38.570229
18.551064	5477.486667	1318.735352	117.960190
18.551064	5477.486667	1317.638672	76.326363
18.551064	5477.486667	1316.542969	-36.328568
18.551064	5477.486667	1315.446289	-25.148733
18.551064	5477.486667	1314.349609	0.074933
18.551064	5477.486667	1313.251953	13.294173
18.551064	5477.486667	1312.155273	79.364853
18.551064	5477.486667	1311.057617	98.753273
18.551064	5477.486667	1309.959961	3.528318
18.551064	5477.486667	1308.862305	110.254379
18.551064	5477.486667	1307.763672	103.186470
18.551064	5477.486667	1306.665039	116.791145
18.551064	5477.486667	1305.566406	110.975578
18.551064	5477.486667	1304.467773	106.227737
18.551064	5477.486667	1303.369141	51.100529
18.551064	5477.486667	1302.269531	97.416878
18.551064	5477.486667	1301.169922	214.910400
18.551064	5477.486667	1300.070313	232.699173
18.551064	5477.486667	1298.970703	203.942322
18.551064	5477.486667	1297.870117	217.590729
18.551064	5477.486667	1296.769531	287.185822
18.551064	5477.486667	1295.668945	240.584717
18.551064	5477.486667	1294.568359	227.266083
18.551064	5477.486667	1293.466797	293.923279
18.551064	5477.486667	1292.366211	312.060272
18.551064	5477.486667	1291.264648	164.350723
18.551064	5477.486667	1290.162109	237.664429
18.551064	5477.486667	1289.060547	210.005554
18.551064	5477.486667	1287.958008	154.514343
18.551064	5477.486667	1286.855469	219.838104
18.551064	5477.486667	1285.752930	206.038773
18.551064	5477.486667	1284.650391	159.869202
18.551064	5477.486667	1283.546875	179.040634
18.551064	5477.486667	1282.444336	201.738770
18.551064	5477.486667	1281.339844	83.792053
18.551064	5477.486667	1280.236328	62.044022
18.551064	5477.486667	1279.132813	145.304291
18.551064	5477.486667	1278.028320	130.689896
18.551064	5477.486667	1276.923828	161.187653
18.551064	5477.486667	1275.819336	82.541145
18.551064	5477.486667	1274.713867	83.067871
18.551064	5477.486667	1273.608398	158.499008
18.551064	5477.486667	1272.503906	160.586502
18.551064	5477.486667	1271.397461	133.174332
18.551064	5477.486667	1270.291992	120.876122
18.551064	5477.486667	1269.185547	246.516632
18.551064	5477.486667	1268.080078	169.695007
18.551064	5477.486667	1266.972656	132.599289
18.551064	5477.486667	1265.866211	141.076889
18.551064	5477.486667	1264.759766	51.043972
18.551064	5477.486667	1263.652344	46.974323
18.551064	5477.486667	1262.544922	146.668411
18.551064	5477.486667	1261.436523	168.013123
18.551064	5477.486667	1260.329102	101.649475
18.551064	5477.486667	1259.220703	59.410660
18.551064	5477.486667	1258.112305	92.289505
18.551064	5477.486667	1257.003906	77.699730
18.551064	5477.486667	1255.895508	118.412994
18.551064	5477.486667	1254.786133	90.718315
18.551064	5477.486667	1253.676758	64.583580
18.551064	5477.486667	1252.567383	73.870529
18.551064	5477.486667	1251.458008	23.241673
18.551064	5477.486667	1250.347656	49.281952
18.551064	5477.486667	1249.237305	-0.213615
18.551064	5477.486667	1248.126953	-37.437500
18.551064	5477.486667	1247.016602	-79.097069
18.551064	5477.486667	1245.905273	-43.290939
18.551064	5477.486667	1244.793945	-74.868416
18.551064	5477.486667	1243.682617	-39.270256
18.551064	5477.486667	1242.571289	-70.938690
18.551064	5477.486667	1241.459961	-7.239768
18.551064	5477.486667	1240.347656	38.523556
18.551064	5477.486667	1239.235352	-8.310538
18.551064	5477.486667	1238.123047	-85.275101
18.551064	5477.486667	1237.009766	-45.024380
18.551064	5477.486667	1235.897461	-116.339981
18.551064	5477.486667	1234.784180	-47.115768
18.551064	5477.486667	1233.670898	-16.909092
18.551064	5477.486667	1232.556641	8.371173
18.551064	5477.486667	1231.443359	-69.366676
18.551064	5477.486667	1230.329102	-66.827492
18.551064	5477.486667	1229.214844	-61.290821
18.551064	5477.486667	1228.099609	-26.457760
18.551064	5477.486667	1226.985352	-7.607535
18.551064	5477.486667	1225.870117	-8.457187
18.551064	5477.486667	1224.754883	-19.972548
18.551064	5477.486667	1223.639648	-41.692043
18.551064	5477.486667	1222.523438	-23.084568
18.551064	5477.486667	1221.408203	28.569384
18.551064	5477.486667	1220.291992	-48.038738
18.551064	5477.486667	1219.174805	-18.128502
18.551064	5477.486667	1218.058594	2.537655
18.551064	5477.486667	1216.941406	-58.317314
18.551064	5477.486667	1215.824219	21.087070
18.551064	5477.486667	1214.707031	-82.953873
18.551064	5477.486667	1213.589844	-60.104305
18.551064	5477.486667	1212.471680	105.237465
18.551064	5477.486667	1211.353516	56.163906
18.551064	5477.486667	1210.235352	25.605108
18.551064	5477.486667	1209.117188	2.947941
18.551064	5477.486667	1207.998047	116.108551
18.551064	5477.486667	1206.878906	80.973351
18.551064	5477.486667	1205.759766	16.946295
18.551064	5477.486667	1204.640625	-5.117967
18.551064	5477.486667	1203.520508	28.655220
18.551064	5477.486667	1202.401367	70.702065
18.551064	5477.486667	1201.281250	101.427734
18.551064	5477.486667	1200.160156	67.854607
18.551064	5477.486667	1199.040039	92.399826
18.551064	5477.486667	1197.918945	23.569416
18.551064	5477.486667	1196.797852	48.031250
18.551064	5477.486667	1195.676758	108.519615
18.551064	5477.486667	1194.555664	94.110588
18.551064	5477.486667	1193.433594	125.134415
18.551064	5477.486667	1192.311523	-49.211735
18.551064	5477.486667	1191.189453	69.562286
18.551064	5477.486667	1190.066406	81.780373
18.551064	5477.486667	1188.944336	73.246124
18.551064	5477.486667	1187.821289	-7.309075
18.551064	5477.486667	1186.698242	-22.989820
18.551064	5477.486667	1185.574219	9.607138
18.551064	5477.486667	1184.451172	67.205070
18.551064	5477.486667	1183.327148	-38.112579
18.551064	5477.486667	1182.203125	-19.342503
18.551064	5477.486667	1181.078125	-21.592920
18.551064	5477.486667	1179.954102	-54.527035
18.551064	5477.486667	1178.829102	0.190790
18.551064	5477.486667	1177.704102	-19.355318
18.551064	5477.486667	1176.579102	-27.677895
18.551064	5477.486667	1175.453125	-30.070953
18.551064	5477.486667	1174.327148	51.911449
18.551064	5477.486667	1173.201172	-36.515686
18.551064	5477.486667	1172.075195	13.738624
18.551064	5477.486667	1170.949219	12.822731
18.551064	5477.486667	1169.822266	-29.382570
18.551064	5477.486667	1168.695313	-43.377872
18.551064	5477.486667	1167.568359	-46.183270
18.551064	5477.486667	1166.440430	-59.281258
18.551064	5477.486667	1165.313477	35.478443
18.551064	5477.486667	1164.185547	65.618484
18.551064	5477.486667	1163.057617	14.822860
18.551064	5477.486667	1161.928711	18.996279
18.551064	5477.486667	1160.800781	7.196988
18.551064	5477.486667	1159.671875	51.884403
18.551064	5477.486667	1158.541992	-20.033838
18.551064	5477.486667	1157.413086	145.697037
18.551064	5477.486667	1156.283203	104.404137
18.551064	5477.486667	1155.154297	3.976993
18.551064	5477.486667	1154.023438	-24.994837
18.551064	5477.486667	1152.893555	43.619160
18.551064	5477.486667	1151.763672	13.509587
18.551064	5477.486667	1150.632813	11.582381
18.551064	5477.486667	1149.501953	43.698788
18.551064	5477.486667	1148.370117	-72.140045
18.551064	5477.486667	1147.239258	-66.018921
18.551064	5477.486667	1146.107422	-40.761627
18.551064	5477.486667	1144.975586	59.651527
18.551064	5477.486667	1143.843750	18.347427
18.551064	5477.486667	1142.710938	44.861393
18.551064	5477.486667	1141.578125	72.750481
18.551064	5477.486667	1140.445313	58.198711
18.551064	5477.486667	1139.312500	3.829053
18.551064	5477.486667	1138.178711	18.933664
18.551064	5477.486667	1137.045898	-20.336866
18.551064	5477.486667	1135.912109	-42.305634
18.551064	5477.486667	1134.777344	-25.314020
18.551064	5477.486667	1133.643555	-28.737297
18.551064	5477.486667	1132.508789	-22.865128
18.551064	5477.486667	1131.374023	73.669388
18.551064	5477.486667	1130.239258	36.799049
18.551064	5477.486667	1129.104492	45.088482
18.551064	5477.486667	1127.968750	69.710205
18.551064	5477.486667	1126.833008	105.843857
18.551064	5477.486667	1125.697266	116.111954
18.551064	5477.486667	1124.560547	173.575653
18.551064	5477.486667	1123.424805	62.184456
18.551064	5477.486667	1122.288086	126.869843
18.551064	5477.486667	1121.151367	46.004356
18.551064	5477.486667	1120.013672	56.677731
18.551064	5477.486667	1118.876953	93.438354
18.551064	5477.486667	1117.739258	29.671307
18.551064	5477.486667	1116.601563	150.453247
18.551064	5477.486667	1115.462891	92.449837
18.551064	5477.486667	1114.324219	-13.413157
18.551064	5477.486667	1113.186523	111.666054
18.551064	5477.486667	1112.046875	-8.311097
18.551064	5477.486667	1110.908203	17.761024
18.551064	5477.486667	1109.769531	-35.963161
18.551064	5477.486667	1108.629883	-105.860023
18.551064	5477.486667	1107.490234	45.275803
18.551064	5477.486667	1106.349609	-26.431320
18.551064	5477.486667	1105.209961	-10.239561
18.551064	5477.486667	1104.069336	4.569106
18.551064	5477.486667	1102.928711	-48.684471
18.551064	5477.486667	1101.787109	58.053261
18.551064	5477.486667	1100.646484	60.947506
18.551064	5477.486667	1099.504883	15.347370
18.551064	5477.486667	1098.363281	87.534897
18.551064	5477.486667	1097.221680	174.046417
18.551064	5477.486667	1096.079102	56.851982
18.551064	5477.486667	1094.936523	47.843754
18.551064	5477.486667	1093.793945	59.497036
18.551064	5477.486667	1092.651367	60.259785
18.551064	5477.486667	1091.507813	-13.713152
18.551064	5477.486667	1090.364258	42.217239
18.551064	5477.486667	1089.220703	59.865860
18.551064	5477.486667	1088.077148	2.128913
18.551064	5477.486667	1086.933594	89.303726
18.551064	5477.486667	1085.789063	-19.673370
18.551064	5477.486667	1084.644531	-64.113541
18.551064	5477.486667	1083.499023	56.848488
18.551064	5477.486667	1082.354492	40.918835
18.551064	5477.486667	1081.208984	-1.886520
18.551064	5477.486667	1080.063477	82.772408
18.551064	5477.486667	1078.917969	70.530586
18.551064	5477.486667	1077.771484	51.081902
18.551064	5477.486667	1076.625977	47.595642
18.551064	5477.486667	1075.479492	17.737656
18.551064	5477.486667	1074.332031	119.021324
18.551064	5477.486667	1073.185547	145.020279
18.551064	5477.486667	1072.038086	-55.135555
18.551064	5477.486667	1070.890625	14.627000
18.551064	5477.486667	1069.743164	85.879211
18.551064	5477.486667	1068.594727	61.626450
18.551064	5477.486667	1067.447266	158.820313
18.551064	5477.486667	1066.298828	14.613635
18.551064	5477.486667	1065.149414	46.566452
18.551064	5477.486667	1064.000977	29.570080
18.551064	5477.486667	1062.851563	40.315918
18.551064	5477.486667	1061.702148	134.716293
18.551064	5477.486667	1060.552734	63.283409
18.551064	5477.486667	1059.402344	154.176147
18.551064	5477.486667	1058.252930	-58.098133
18.551064	5477.486667	1057.102539	74.929741
18.551064	5477.486667	1055.951172	44.607155
18.551064	5477.486667	1054.800781	-60.307049
18.551064	5477.486667	1053.649414	174.161407
18.551064	5477.486667	1052.498047	104.348747
18.551064	5477.486667	1051.346680	-84.118599
18.551064	5477.486667	1050.194336	-70.925987
18.551064	5477.486667	1049.042969	4.334397
18.551064	5477.486667	1047.890625	-11.267259
18.551064	5477.486667	1046.738281	21.742241
18.551064	5477.486667	1045.584961	-114.420631
18.551064	5477.486667	1044.431641	-25.137403
18.551064	5477.486667	1043.278320	26.460814
18.551064	5477.486667	1042.125000	-110.449707
18.551064	5477.486667	1040.971680	97.728188
18.551064	5477.486667	1039.817383	94.626251
18.551064	5477.486667	1038.663086	125.969658
18.551064	5477.486667	1037.508789	-67.636848
18.551064	5477.486667	1036.353516	204.844711
18.551064	5477.486667	1035.198242	33.814816
18.551064	5477.486667	1034.042969	21.412891
18.551064	5477.486667	1032.887695	27.402363
18.551064	5477.486667	1031.732422	-31.564423
18.551064	5477.486667	1030.576172	62.504108
18.551064	5477.486667	1029.419922	71.014824
18.551064	5477.486667	1028.263672	37.887413
18.551064	5477.486667	1027.106445	113.826805
18.551064	5477.486667	1025.949219	23.438627
18.551064	5477.486667	1024.792969	14.566060
18.551064	5477.486667	1023.634766	-2.814798
18.551064	5477.486667	1022.477539	24.388826
18.551064	5477.486667	1021.319336	-6.795065
18.551064	5477.486667	1020.161133	158.068756
18.551064	5477.486667	1019.002930	-29.368313
18.551064	5477.486667	1017.843750	90.091782
18.551064	5477.486667	1016.684570	15.403097
18.551064	5477.486667	1015.525391	-10.939477
18.551064	5477.486667	1014.366211	14.217395
18.551064	5477.486667	1013.207031	6.764600
18.551064	5477.486667	1012.046875	26.478559
18.551064	5477.486667	1010.886719	-61.585819
18.551064	5477.486667	1009.726563	-141.361862
18.551064	5477.486667	1008.565430	100.628479
18.551064	5477.486667	1007.404297	90.510956
18.551064	5477.486667	1006.243164	75.429138
18.551064	5477.486667	1005.082031	63.475079
18.551064	5477.486667	1003.920898	52.827763
18.551064	5477.486667	1002.758789	139.725250
18.551064	5477.486667	1001.596680	147.596512
18.551064	5477.486667	1000.433594	137.372238
18.551064	5477.486667	999.271484	145.655975
18.551064	5477.486667	998.108398	96.310516
18.551064	5477.486667	996.945313	110.778290
18.551064	5477.486667	995.782227	42.967037
18.551064	5477.486667	994.618164	154.598923
18.551064	5477.486667	993.454102	50.854904
18.551064	5477.486667	992.290039	40.155182
18.551064	5477.486667	991.125977	92.341095
18.551064	5477.486667	989.960938	44.998070
18.551064	5477.486667	988.796875	105.973412
18.551064	5477.486667	987.630859	65.246475
18.551064	5477.486667	986.465820	6.390455
18.551064	5477.486667	985.300781	-91.446716
18.551064	5477.486667	984.134766	0.567683
18.551064	5477.486667	982.968750	79.634682
18.551064	5477.486667	981.801758	88.568695
18.551064	5477.486667	980.635742	-24.384003
18.551064	5477.486667	979.468750	-2.136618
18.551064	5477.486667	978.301758	72.854912
18.551064	5477.486667	977.133789	69.354439
18.551064	5477.486667	975.966797	-65.825058
18.551064	5477.486667	974.798828	-50.431061
18.551064	5477.486667	973.630859	54.822952
18.551064	5477.486667	972.461914	55.334614
18.551064	5477.486667	971.293945	1.313405
18.551064	5477.486667	970.125000	100.587517
18.551064	5477.486667	968.956055	75.377060
18.551064	5477.486667	967.786133	-0.944007
18.551064	5477.486667	966.617188	-6.381517
18.551064	5477.486667	965.447266	-44.936893
18.551064	5477.486667	964.276367	147.765884
18.551064	5477.486667	963.106445	98.146042
18.551064	5477.486667	961.935547	63.107910
18.551064	5477.486667	960.764648	42.686092
18.551064	5477.486667	959.593750	27.564466
18.551064	5477.486667	958.422852	-18.881435
18.551064	5477.486667	957.250977	36.023087
18.551064	5477.486667	956.079102	62.505272
18.551064	5477.486667	954.907227	42.152325
18.551064	5477.486667	953.734375	74.331558
18.551064	5477.486667	952.562500	53.923717
18.551064	5477.486667	951.389648	208.545212
18.551064	5477.486667	950.215820	54.058887
18.551064	5477.486667	949.042969	30.164576
18.551064	5477.486667	947.869141	15.169360
18.551064	5477.486667	946.695313	17.635471
18.551064	5477.486667	945.521484	128.870331
18.551064	5477.486667	944.346680	-108.171616
18.551064	5477.486667	943.172852	43.936813
18.551064	5477.486667	941.998047	-14.785423
18.551064	5477.486667	940.822266	-35.295315
18.551064	5477.486667	939.647461	17.452248
18.551064	5477.486667	938.471680	46.540421
18.551064	5477.486667	937.295898	96.424278
18.551064	5477.486667	936.119141	43.617836
18.551064	5477.486667	934.943359	-20.783739
18.551064	5477.486667	933.766602	37.658409
18.551064	5477.486667	932.589844	172.169632
18.551064	5477.486667	931.413086	66.784149
18.551064	5477.486667	930.235352	133.984467
18.551064	5477.486667	929.057617	81.303085
18.551064	5477.486667	927.879883	98.772018
18.551064	5477.486667	926.702148	127.937714
18.551064	5477.486667	925.523438	-6.533996
18.551064	5477.486667	924.344727	-21.197523
18.551064	5477.486667	923.166016	-41.694912
18.551064	5477.486667	921.987305	40.020527
18.551064	5477.486667	920.807617	60.391716
18.551064	5477.486667	919.627930	60.993889
18.551064	5477.486667	919.497070	13.680357
18.551064	5477.486667	918.331055	-41.844212
18.551064	5477.486667	917.165039	-36.072208
18.551064	5477.486667	915.999023	54.297684
18.551064	5477.486667	914.833008	-1.207880
18.551064	5477.486667	913.666016	16.210712
18.551064	5477.486667	912.499023	-100.494591
18.551064	5477.486667	911.332031	-18.938002
18.551064	5477.486667	910.165039	-56.905117
18.551064	5477.486667	908.997070	-94.858299
18.551064	5477.486667	907.830078	-30.837528
18.551064	5477.486667	906.661133	-7.619638
18.551064	5477.486667	905.493164	33.058384
18.551064	5477.486667	904.325195	9.667274
18.551064	5477.486667	903.156250	-69.020714
18.551064	5477.486667	901.987305	-138.947418
18.551064	5477.486667	900.818359	-63.366951
18.551064	5477.486667	899.648438	-5.272442
18.551064	5477.486667	898.478516	35.346424
18.551064	5477.486667	897.308594	90.486267
18.551064	5477.486667	896.138672	-25.924877
18.551064	5477.486667	894.968750	-127.756851
18.551064	5477.486667	893.797852	-5.782087
18.551064	5477.486667	892.626953	-40.753212
18.551064	5477.486667	891.456055	52.102772
18.551064	5477.486667	890.284180	20.036366
18.551064	5477.486667	889.113281	208.661194
18.551064	5477.486667	887.941406	16.903505
18.551064	5477.486667	886.768555	-15.139242
18.551064	5477.486667	885.596680	51.494232
18.551064	5477.486667	884.423828	-9.557667
18.551064	5477.486667	883.250977	-108.295113
18.551064	5477.486667	882.078125	158.422806
18.551064	5477.486667	880.905273	19.096138
18.551064	5477.486667	879.731445	24.772966
18.551064	5477.486667	878.557617	44.938480
18.551064	5477.486667	877.383789	44.810486
18.551064	5477.486667	876.209961	64.962029
18.551064	5477.486667	875.035156	24.276882
18.551064	5477.486667	873.860352	-103.271477
18.551064	5477.486667	872.685547	-22.300699
18.551064	5477.486667	871.510742	-57.155228
18.551064	5477.486667	870.334961	122.174950
18.551064	5477.486667	869.159180	-80.524948
18.551064	5477.486667	867.983398	-69.059326
18.551064	5477.486667	866.807617	55.205635
18.551064	5477.486667	865.630859	-31.683926
18.551064	5477.486667	864.454102	5.785001
18.551064	5477.486667	863.277344	40.347313
18.551064	5477.486667	862.100586	-29.146624
18.551064	5477.486667	860.922852	-46.601601
18.551064	5477.486667	859.745117	-90.049774
18.551064	5477.486667	858.567383	39.816013
18.551064	5477.486667	857.389648	2.143007
18.551064	5477.486667	856.210938	7.791786
18.551064	5477.486667	855.032227	-26.972687
18.551064	5477.486667	853.853516	1.766608
18.551064	5477.486667	852.674805	4.526295
18.551064	5477.486667	851.495117	47.671104
18.551064	5477.486667	850.315430	110.986992
18.551064	5477.486667	849.135742	-27.570456
18.551064	5477.486667	847.956055	61.681160
18.551064	5477.486667	846.775391	29.838007
18.551064	5477.486667	845.595703	-13.519482
18.551064	5477.486667	844.415039	46.863018
18.551064	5477.486667	843.233398	-157.791321
18.551064	5477.486667	842.052734	-77.244125
18.551064	5477.486667	840.871094	-25.523045
18.551064	5477.486667	839.689453	69.358559
18.551064	5477.486667	838.506836	43.317150
18.551064	5477.486667	837.325195	14.408506
18.551064	5477.486667	836.142578	48.806625
18.551064	5477.486667	834.959961	-77.888832
18.551064	5477.486667	833.777344	-80.871445
18.551064	5477.486667	832.593750	-14.846088
18.551064	5477.486667	831.410156	-20.714315
18.551064	5477.486667	830.226563	-6.461222
18.551064	5477.486667	829.042969	-118.646370
18.551064	5477.486667	827.858398	90.977036
18.551064	5477.486667	826.673828	96.582382
18.551064	5477.486667	825.489258	-32.783695
18.551064	5477.486667	824.304688	13.040679
18.551064	5477.486667	823.120117	81.810394
18.551064	5477.486667	821.934570	90.284447
18.551064	5477.486667	820.749023	98.755112
18.551064	5477.486667	819.562500	21.161079
18.551064	5477.486667	818.376953	-53.532970
18.551064	5477.486667	817.190430	106.943146
18.551064	5477.486667	816.003906	124.005722
18.551064	5477.486667	814.817383	66.536118
18.551064	5477.486667	813.629883	-45.358788
18.551064	5477.486667	812.442383	-2.487541
18.551064	5477.486667	811.254883	57.553654
18.551064	5477.486667	810.067383	-105.821136
18.551064	5477.486667	808.878906	-54.372711
18.551064	5477.486667	807.690430	-43.024609
18.551064	5477.486667	806.501953	-25.956535
18.551064	5477.486667	805.313477	-3.171910
18.551064	5477.486667	804.124023	45.353142
18.551064	5477.486667	802.934570	-23.419922
18.551064	5477.486667	801.745117	125.184418
18.551064	5477.486667	800.555664	216.542130
18.551064	5477.486667	799.365234	122.049400
18.551064	5477.486667	798.175781	39.027824
18.551064	5477.486667	796.985352	-12.526592
18.551064	5477.486667	795.793945	90.213036
18.551064	5477.486667	794.603516	155.777771
18.551064	5477.486667	793.412109	141.356247
18.551064	5477.486667	792.220703	9.880852
18.551064	5477.486667	791.028320	21.186731
18.551064	5477.486667	789.836914	21.071545
18.551064	5477.486667	788.644531	23.810347
18.551064	5477.486667	787.452148	152.068924
18.551064	5477.486667	786.258789	-10.645224
18.551064	5477.486667	785.066406	106.160881
18.551064	5477.486667	783.873047	14.797677
18.551064	5477.486667	782.679688	34.637253
18.551064	5477.486667	781.485352	80.117035
18.551064	5477.486667	780.291992	42.950459
18.551064	5477.486667	779.097656	20.042685
18.551064	5477.486667	777.903320	125.304855
18.551064	5477.486667	776.708008	42.593594
18.551064	5477.486667	775.512695	73.789513
18.551064	5477.486667	774.318359	-71.495316
18.551064	5477.486667	773.122070	215.819763
18.551064	5477.486667	771.926758	81.945534
18.551064	5477.486667	770.730469	16.394329
18.551064	5477.486667	769.534180	39.030159
18.551064	5477.486667	768.337891	112.835167
18.551064	5477.486667	767.141602	44.474110
18.551064	5477.486667	765.944336	38.667606
18.551064	5477.486667	764.747070	66.960831
18.551064	5477.486667	763.549805	58.310032
18.551064	5477.486667	762.351563	160.435104
18.551064	5477.486667	761.154297	80.773338
18.551064	5477.486667	759.956055	52.248920
18.551064	5477.486667	758.757813	120.246376
18.551064	5477.486667	757.558594	-33.146255
18.551064	5477.486667	756.359375	128.472641
18.551064	5477.486667	755.160156	-22.022970
18.551064	5477.486667	753.960938	111.162529
18.551064	5477.486667	752.761719	102.511024
18.551064	5477.486667	751.561523	136.387634
18.551064	5477.486667	750.361328	73.878807
18.551064	5477.486667	749.160156	28.398005
18.551064	5477.486667	747.959961	-76.563278
18.551064	5477.486667	746.758789	-5.857964
18.551064	5477.486667	745.557617	28.000019
18.551064	5477.486667	744.356445	56.179317
18.551064	5477.486667	743.154297	33.390034
18.551064	5477.486667	741.952148	89.856773
18.551064	5477.486667	740.750000	67.066780
18.551064	5477.486667	739.547852	-20.784687
18.551064	5477.486667	738.344727	-74.658684
18.551064	5477.486667	737.142578	1.571815
18.551064	5477.486667	735.939453	55.150513
18.551064	5477.486667	734.735352	-86.339638
18.551064	5477.486667	733.532227	3.971053
18.551064	5477.486667	732.328125	34.905643
18.551064	5477.486667	731.124023	6.500759
18.551064	5477.486667	729.918945	71.310707
18.551064	5477.486667	728.714844	-33.336548
18.551064	5477.486667	727.509766	-109.709770
18.551064	5477.486667	726.303711	45.400452
18.551064	5477.486667	725.098633	67.808411
18.551064	5477.486667	723.892578	81.740692
18.551064	5477.486667	722.686523	22.322802
18.551064	5477.486667	721.480469	-53.994396
18.551064	5477.486667	720.274414	-56.971218
18.551064	5477.486667	719.067383	-3.568028
18.551064	5477.486667	717.860352	58.265491
18.551064	5477.486667	716.653320	32.715797
18.551064	5477.486667	715.445313	55.068371
18.551064	5477.486667	714.238281	71.774757
18.551064	5477.486667	713.030273	-7.276394
18.551064	5477.486667	711.821289	-117.268013
18.551064	5477.486667	710.613281	20.496813
18.551064	5477.486667	709.404297	-5.030775
18.551064	5477.486667	708.195313	76.371429
18.551064	5477.486667	706.986328	45.209705
18.551064	5477.486667	705.776367	14.057843
18.551064	5477.486667	704.566406	-8.648564
18.551064	5477.486667	703.356445	50.181236
18.551064	5477.486667	702.146484	-11.881534
18.551064	5477.486667	700.935547	-6.476963
18.551064	5477.486667	699.724609	-20.745863
18.551064	5477.486667	698.513672	29.595144
18.551064	5477.486667	697.302734	15.316990
18.551064	5477.486667	696.090820	37.542999
18.551064	5477.486667	694.878906	-21.654982
18.551064	5477.486667	693.666992	112.827965
18.551064	5477.486667	692.455078	5.927067
18.551064	5477.486667	691.242188	44.952900
18.551064	5477.486667	690.029297	64.323273
18.551064	5477.486667	688.816406	103.311310
18.551064	5477.486667	687.602539	13.307649
18.551064	5477.486667	686.389648	60.690239
18.551064	5477.486667	685.175781	60.405460
18.551064	5477.486667	683.960938	82.531845
18.551064	5477.486667	682.747070	45.815041
18.551064	5477.486667	681.532227	48.320061
18.551064	5477.486667	680.317383	-30.386089
18.551064	5477.486667	679.102539	25.316156
18.551064	5477.486667	677.886719	47.402126
18.551064	5477.486667	676.670898	-28.470831
18.551064	5477.486667	675.455078	141.891327
18.551064	5477.486667	674.239258	-12.302497
18.551064	5477.486667	673.022461	-7.027900
18.551064	5477.486667	671.805664	-1.760817
18.551064	5477.486667	670.588867	45.430336
18.551064	5477.486667	669.372070	-2.429598
18.551064	5477.486667	668.154297	134.148346
18.551064	5477.486667	666.936523	119.803261
18.551064	5477.486667	665.718750	46.803146
18.551064	5477.486667	664.500977	116.246582
18.551064	5477.486667	663.282227	57.226288
18.551064	5477.486667	662.063477	59.634533
18.551064	5477.486667	660.844727	120.641685
18.551064	5477.486667	659.625000	159.295761
18.551064	5477.486667	658.405273	164.452667
18.551064	5477.486667	657.185547	52.463940
18.551064	5477.486667	655.965820	32.533375
18.551064	5477.486667	654.745117	34.907467
18.551064	5477.486667	653.525391	112.529121
18.551064	5477.486667	652.303711	103.726517
18.551064	5477.486667	651.083008	33.628170
18.551064	5477.486667	649.861328	-19.734087
18.551064	5477.486667	648.640625	82.872002
18.551064	5477.486667	647.417969	79.625877
18.551064	5477.486667	646.196289	70.806999
18.551064	5477.486667	644.973633	114.864403
18.551064	5477.486667	643.750977	-41.444065
18.551064	5477.486667	642.528320	-78.070587
18.551064	5477.486667	641.305664	-25.685863
18.551064	5477.486667	640.082031	121.215355
18.551064	5477.486667	638.858398	42.855045
18.551064	5477.486667	637.634766	20.112579
18.551064	5477.486667	636.410156	30.720470
18.551064	5477.486667	635.185547	-92.045563
18.551064	5477.486667	633.960938	143.569580
18.551064	5477.486667	632.736328	6.931833
18.551064	5477.486667	631.510742	-82.452606
18.551064	5477.486667	630.285156	-2.467906
18.551064	5477.486667	629.059570	116.331955
18.551064	5477.486667	627.833984	10.310968
18.551064	5477.486667	626.607422	26.395723
18.551064	5477.486667	625.380859	-13.006910
18.551064	5477.486667	624.154297	8.607941
18.551064	5477.486667	622.927734	77.339142
18.551064	5477.486667	621.700195	-28.596949
18.551064	5477.486667	620.472656	51.184116
18.551064	5477.486667	619.245117	33.947952
18.551064	5477.486667	618.016602	-10.989478
18.551064	5477.486667	616.788086	-17.141172
18.551064	5477.486667	615.559570	84.692818
18.551064	5477.486667	614.331055	-10.079536
18.551064	5477.486667	613.101563	25.268099
18.551064	5477.486667	611.872070	-0.285293
18.551064	5477.486667	610.642578	57.163616
18.551064	5477.486667	609.413086	-20.954990
18.551064	5477.486667	608.182617	-21.614733
18.551064	5477.486667	606.952148	118.726387
18.551064	5477.486667	605.721680	-3.605444
18.551064	5477.486667	604.491211	-26.399515
18.551064	5477.486667	603.259766	-65.769836
18.551064	5477.486667	602.028320	19.182541
18.551064	5477.486667	600.796875	-83.719109
18.551064	5477.486667	599.564453	-4.336123
18.551064	5477.486667	598.332031	86.049324
18.551064	5477.486667	597.099609	88.063972
18.551064	5477.486667	595.867188	-17.552643
18.551064	5477.486667	594.633789	114.141350
18.551064	5477.486667	593.400391	99.577187
18.551064	5477.486667	592.166992	49.160915
18.551064	5477.486667	590.933594	-72.928711
18.551064	5477.486667	589.699219	9.017743
18.551064	5477.486667	588.464844	79.898582
18.551064	5477.486667	587.230469	7.458007
18.551064	5477.486667	585.995117	12.178383
18.551064	5477.486667	584.760742	-137.350204
18.551064	5477.486667	583.525391	-63.771938
18.551064	5477.486667	582.289063	-6.750352
18.551064	5477.486667	581.053711	8.952622
18.551064	5477.486667	579.817383	-52.412201
18.551064	5477.486667	578.581055	37.567455
18.551064	5477.486667	577.343750	69.736015
18.551064	5477.486667	576.107422	99.134567
18.551064	5477.486667	574.870117	68.022934
18.551064	5477.486667	573.631836	-7.065627
18.551064	5477.486667	572.394531	-2.423974
18.551064	5477.486667	571.156250	48.922775
18.551064	5477.486667	569.917969	6.835439
18.551064	5477.486667	568.679688	25.186411
18.551064	5477.486667	567.440430	16.063011
18.551064	5477.486667	566.202148	-9.535083
18.551064	5477.486667	564.961914	49.963970
18.551064	5477.486667	563.722656	18.869606
18.551064	5477.486667	562.482422	34.426434
18.551064	5477.486667	561.243164	-21.350443
18.551064	5477.486667	560.001953	35.335873
18.551064	5477.486667	558.761719	157.800003
18.551064	5477.486667	557.520508	170.551407
18.551064	5477.486667	556.279297	76.400955
18.551064	5477.486667	555.038086	122.036705
18.551064	5477.486667	553.795898	41.625313
18.551064	5477.486667	552.554688	131.064026
18.551064	5477.486667	551.311523	-39.693352
18.551064	5477.486667	550.069336	-78.964676
18.551064	5477.486667	548.826172	26.852272
18.551064	5477.486667	547.583984	-75.368919
18.551064	5477.486667	546.339844	117.948830
18.551064	5477.486667	545.096680	141.577545
18.551064	5477.486667	543.852539	44.854515
18.551064	5477.486667	542.608398	43.871403
18.551064	5477.486667	541.364258	-6.322847
18.551064	5477.486667	540.119141	-40.100433
18.551064	5477.486667	538.875000	-60.203682
18.551064	5477.486667	537.628906	4.389991
18.551064	5477.486667	536.383789	0.667274
18.551064	5477.486667	535.137695	7.866319
18.551064	5477.486667	533.892578	-72.308891
18.551064	5477.486667	532.645508	30.434717
18.551064	5477.486667	531.399414	18.510366
18.551064	5477.486667	530.152344	-132.565491
18.551064	5477.486667	528.905273	-59.890114
18.551064	5477.486667	527.658203	-6.339623
18.551064	5477.486667	526.410156	-59.157806
18.551064	5477.486667	525.163086	7.995827
18.551064	5477.486667	523.914063	-28.453859
18.551064	5477.486667	522.666016	-4.939788
18.551064	5477.486667	521.416992	-16.855438
18.551064	5477.486667	520.167969	12.089856
18.551064	5477.486667	518.918945	-51.568871
18.551064	5477.486667	517.669922	-9.018515
18.551064	5477.486667	516.419922	49.844288
18.551064	5477.486667	515.169922	16.150043
18.551064	5477.486667	513.919922	-22.972466
18.551064	5477.486667	512.668945	0.487587
18.551064	5477.486667	511.417969	-114.769226
18.551064	5477.486667	510.166992	14.745252
18.551064	5477.486667	508.916016	8.275260
18.551064	5477.486667	507.664063	1.807451
18.551064	5477.486667	506.412109	11.646155
18.551064	5477.486667	505.160156	21.480194
18.551064	5477.486667	503.907227	44.890694
18.551064	5477.486667	502.655273	41.134640
18.551064	5477.486667	501.402344	-111.947845
18.551064	5477.486667	500.148438	22.768337
18.551064	5477.486667	498.895508	0.022089
18.551064	5477.486667	497.641602	-9.148229
18.551064	5477.486667	496.387695	-23.739824
18.551064	5477.486667	495.132813	29.478306
18.551064	5477.486667	493.878906	4.039247
18.551064	5477.486667	492.624023	-13.255965
18.551064	5477.486667	491.368164	96.844444
18.551064	5477.486667	490.113281	3.663576
18.551064	5477.486667	488.857422	105.586205
18.551064	5477.486667	487.601563	147.876053
18.551064	5477.486667	486.344727	11.416960
18.551064	5477.486667	485.088867	15.805658
18.551064	5477.486667	483.832031	-96.202736
18.551064	5477.486667	482.575195	-59.315933
18.551064	5477.486667	481.317383	66.843979
18.551064	5477.486667	480.059570	52.283627
18.551064	5477.486667	478.801758	53.957596
18.551064	5477.486667	477.543945	-52.526939
18.551064	5477.486667	476.285156	11.348054
18.551064	5477.486667	475.027344	4.923645
18.551064	5477.486667	473.767578	-77.159859
18.551064	5477.486667	472.508789	-97.069450
18.551064	5477.486667	471.249023	-3.525908
18.551064	5477.486667	469.989258	-107.156235
18.551064	5477.486667	468.729492	-2.850393
18.551064	5477.486667	467.469727	-28.155584
18.551064	5477.486667	466.208984	-31.859995
18.551064	5477.486667	464.948242	23.796293
18.551064	5477.486667	463.686523	6.594405
18.551064	5477.486667	462.425781	37.945850
18.551064	5477.486667	461.164063	34.230118
18.551064	5477.486667	459.901367	22.428253
18.551064	5477.486667	458.639648	-24.406912
18.551064	5477.486667	457.376953	-3.856627
18.551064	5477.486667	456.114258	32.848454
18.551064	5477.486667	454.851563	2.199579
18.551064	5477.486667	453.587891	133.135727
18.551064	5477.486667	452.324219	45.936943
18.551064	5477.486667	451.060547	141.811478
18.551064	5477.486667	449.796875	156.908218
18.551064	5477.486667	448.532227	56.301571
18.551064	5477.486667	447.267578	-6.604444
18.551064	5477.486667	446.002930	86.498924
18.551064	5477.486667	444.737305	39.739986
18.551064	5477.486667	443.471680	100.526840
18.551064	5477.486667	442.206055	142.469955
18.551064	5477.486667	440.940430	136.023270
18.551064	5477.486667	439.673828	108.082092
18.551064	5477.486667	438.407227	10.314220
18.551064	5477.486667	437.140625	151.577118
18.551064	5477.486667	435.873047	24.297476
18.551064	5477.486667	434.605469	-33.145271
18.551064	5477.486667	433.337891	67.760796
18.551064	5477.486667	432.070313	77.393303
18.551064	5477.486667	430.801758	44.094120
18.551064	5477.486667	429.533203	110.028481
18.551064	5477.486667	428.264648	124.980675
18.551064	5477.486667	426.996094	86.302330
18.551064	5477.486667	425.726563	90.510979
18.551064	5477.486667	424.457031	161.694138
18.551064	5477.486667	423.186523	45.307720
18.551064	5477.486667	421.916992	60.198368
18.551064	5477.486667	420.646484	80.423866
18.551064	5477.486667	419.375977	47.081646
18.551064	5477.486667	418.104492	27.120640
18.551064	5477.486667	416.833008	76.728325
18.551064	5477.486667	415.561523	-4.800093
18.551064	5477.486667	414.290039	-48.863758
18.551064	5477.486667	413.017578	30.089331
18.551064	5477.486667	411.746094	52.839577
18.551064	5477.486667	410.472656	30.114204
18.551064	5477.486667	409.200195	-0.641379
18.551064	5477.486667	407.926758	16.687366
18.551064	5477.486667	406.653320	41.997459
18.551064	5477.486667	405.379883	35.220051
18.551064	5477.486667	404.105469	103.184090
18.551064	5477.486667	402.831055	93.669350
18.551064	5477.486667	401.556641	44.091949
18.551064	5477.486667	400.282227	-50.860046
18.551064	5477.486667	399.006836	75.632042
18.551064	5477.486667	397.731445	63.332989
18.551064	5477.486667	396.456055	56.336235
18.551064	5477.486667	395.179688	43.971222
18.551064	5477.486667	393.903320	-16.408962
18.551064	5477.486667	392.626953	5.811439
18.551064	5477.486667	391.350586	43.965412
18.551064	5477.486667	390.073242	39.435287
18.551064	5477.486667	388.795898	138.728119
18.551064	5477.486667	387.518555	80.829582
18.551064	5477.486667	386.240234	124.065071
18.551064	5477.486667	384.961914	36.813168
18.551064	5477.486667	383.683594	-66.421341
18.551064	5477.486667	382.405273	29.860636
18.551064	5477.486667	381.125977	149.978745
18.551064	5477.486667	379.846680	113.088326
18.551064	5477.486667	378.567383	15.001060
18.551064	5477.486667	377.287109	-8.685446
18.551064	5477.486667	376.006836	188.141632
18.551064	5477.486667	374.726563	36.755661
18.551064	5477.486667	373.446289	-3.072225
18.551064	5477.486667	372.165039	49.990200
18.551064	5477.486667	370.883789	-8.567361
18.551064	5477.486667	369.602539	-30.017460
18.551064	5477.486667	368.320313	-22.351023
18.551064	5477.486667	367.039063	-33.348549
18.551064	5477.486667	365.755859	-100.146660
18.551064	5477.486667	364.473633	18.652020
18.551064	5477.486667	363.190430	126.692352
18.551064	5477.486667	361.907227	-1.366632
18.551064	5477.486667	360.624023	11.005199
18.551064	5477.486667	359.340820	36.513664
18.551064	5477.486667	358.056641	19.506678
18.551064	5477.486667	356.772461	-39.989571
18.551064	5477.486667	355.487305	-28.078695
18.551064	5477.486667	354.202148	23.419044
18.551064	5477.486667	352.916992	19.178503
18.551064	5477.486667	351.631836	-14.302804
18.551064	5477.486667	350.346680	87.038223
18.551064	5477.486667	349.060547	103.541328
18.551064	5477.486667	347.774414	-17.635721
18.551064	5477.486667	346.487305	6.520470
18.551064	5477.486667	345.200195	-14.428771
18.551064	5477.486667	343.913086	27.907263
18.551064	5477.486667	342.625977	-46.206799
18.551064	5477.486667	341.338867	-75.543304
18.551064	5477.486667	340.050781	-91.836098
18.551064	5477.486667	338.762695	84.475708
18.551064	5477.486667	337.473633	-40.456020
18.551064	5477.486667	336.184570	-15.064516
18.551064	5477.486667	334.895508	-111.272369
18.551064	5477.486667	333.606445	-57.246174
18.551064	5477.486667	332.317383	28.206480
18.551064	5477.486667	331.027344	21.100864
18.551064	5477.486667	329.736328	-33.684582
18.551064	5477.486667	328.446289	-99.208603
18.551064	5477.486667	327.155273	-33.160221
18.551064	5477.486667	325.864258	56.338535
18.551064	5477.486667	324.573242	13.835252
18.551064	5477.486667	323.281250	-15.735281
18.551064	5477.486667	321.989258	-56.081902
18.551064	5477.486667	320.697266	-88.775871
18.551064	5477.486667	319.405273	107.268890
18.551064	5477.486667	318.112305	39.789745
18.551064	5477.486667	316.819336	-30.576029
18.551064	5477.486667	315.526367	59.250351
18.551064	5477.486667	314.232422	22.498775
18.551064	5477.486667	312.938477	87.995155
18.551064	5477.486667	311.644531	3.312178
18.551064	5477.486667	310.349609	54.994446
18.551064	5477.486667	309.054688	40.632458
18.551064	5477.486667	307.759766	41.696339
18.551064	5477.486667	306.464844	113.321091
18.551064	5477.486667	305.168945	21.746119
18.551064	5477.486667	303.873047	76.854462
18.551064	5477.486667	302.577148	215.548889
18.551064	5477.486667	301.281250	212.094528
18.551064	5477.486667	299.984375	90.176422
