#X		#Y		#Wave		#Intensity
29468.656809	-1336.305833	1999.980469	-103.609512
29468.656809	-1336.305833	1999.016602	-187.341995
29468.656809	-1336.305833	1998.052734	-9.640503
29468.656809	-1336.305833	1997.087891	-45.716694
29468.656809	-1336.305833	1996.123047	162.924683
29468.656809	-1336.305833	1995.158203	105.855225
29468.656809	-1336.305833	1994.193359	-60.720959
29468.656809	-1336.305833	1993.228516	14.901834
29468.656809	-1336.305833	1992.262695	57.796619
29468.656809	-1336.305833	1991.297852	15.999122
29468.656809	-1336.305833	1990.332031	-78.240593
29468.656809	-1336.305833	1989.366211	274.953400
29468.656809	-1336.305833	1988.399414	-8.259182
29468.656809	-1336.305833	1987.433594	235.042923
29468.656809	-1336.305833	1986.466797	10.413376
29468.656809	-1336.305833	1985.500977	52.483631
29468.656809	-1336.305833	1984.534180	106.496422
29468.656809	-1336.305833	1983.567383	-96.964218
29468.656809	-1336.305833	1982.599609	-9.121713
29468.656809	-1336.305833	1981.632813	389.634094
29468.656809	-1336.305833	1980.665039	-69.317688
29468.656809	-1336.305833	1979.697266	237.214905
29468.656809	-1336.305833	1978.729492	209.927399
29468.656809	-1336.305833	1977.761719	214.425156
29468.656809	-1336.305833	1976.792969	263.041718
29468.656809	-1336.305833	1975.825195	-34.184456
29468.656809	-1336.305833	1974.856445	-92.235268
29468.656809	-1336.305833	1973.887695	273.798523
29468.656809	-1336.305833	1972.918945	146.097229
29468.656809	-1336.305833	1971.949219	247.536652
29468.656809	-1336.305833	1970.980469	116.912712
29468.656809	-1336.305833	1970.010742	-13.906878
29468.656809	-1336.305833	1969.041016	343.127930
29468.656809	-1336.305833	1968.071289	-251.438507
29468.656809	-1336.305833	1967.101563	114.928215
29468.656809	-1336.305833	1966.130859	301.118744
29468.656809	-1336.305833	1965.161133	213.654968
29468.656809	-1336.305833	1964.190430	-29.107174
29468.656809	-1336.305833	1963.219727	213.069855
29468.656809	-1336.305833	1962.249023	38.971310
29468.656809	-1336.305833	1961.277344	-71.238693
29468.656809	-1336.305833	1960.306641	37.439030
29468.656809	-1336.305833	1959.334961	261.554932
29468.656809	-1336.305833	1958.363281	77.119843
29468.656809	-1336.305833	1957.391602	160.683640
29468.656809	-1336.305833	1956.419922	354.735443
29468.656809	-1336.305833	1955.447266	39.695179
29468.656809	-1336.305833	1954.474609	71.227798
29468.656809	-1336.305833	1953.501953	9.251558
29468.656809	-1336.305833	1952.529297	367.350555
29468.656809	-1336.305833	1951.556641	216.700455
29468.656809	-1336.305833	1950.583984	58.644798
29468.656809	-1336.305833	1949.610352	205.058853
29468.656809	-1336.305833	1948.636719	34.613018
29468.656809	-1336.305833	1947.663086	-69.572395
29468.656809	-1336.305833	1946.689453	120.726303
29468.656809	-1336.305833	1945.715820	63.047077
29468.656809	-1336.305833	1944.741211	248.205460
29468.656809	-1336.305833	1943.767578	278.705048
29468.656809	-1336.305833	1942.792969	24.644608
29468.656809	-1336.305833	1941.818359	10.926332
29468.656809	-1336.305833	1940.842773	19.224318
29468.656809	-1336.305833	1939.868164	-102.428726
29468.656809	-1336.305833	1938.892578	-145.659622
29468.656809	-1336.305833	1937.916992	-34.549000
29468.656809	-1336.305833	1936.941406	316.560852
29468.656809	-1336.305833	1935.965820	292.768921
29468.656809	-1336.305833	1934.990234	38.771679
29468.656809	-1336.305833	1934.013672	78.642426
29468.656809	-1336.305833	1933.037109	306.967987
29468.656809	-1336.305833	1932.060547	128.911285
29468.656809	-1336.305833	1931.083984	158.900681
29468.656809	-1336.305833	1930.107422	-23.985167
29468.656809	-1336.305833	1929.129883	123.404495
29468.656809	-1336.305833	1928.153320	-52.088139
29468.656809	-1336.305833	1927.175781	-80.814583
29468.656809	-1336.305833	1926.198242	-168.210266
29468.656809	-1336.305833	1925.219727	-91.816315
29468.656809	-1336.305833	1924.242188	131.185577
29468.656809	-1336.305833	1923.263672	-24.622959
29468.656809	-1336.305833	1922.285156	117.664017
29468.656809	-1336.305833	1921.306641	157.317490
29468.656809	-1336.305833	1920.328125	18.698195
29468.656809	-1336.305833	1919.349609	97.432396
29468.656809	-1336.305833	1918.370117	193.228256
29468.656809	-1336.305833	1917.391602	179.174774
29468.656809	-1336.305833	1916.412109	82.163513
29468.656809	-1336.305833	1915.431641	-48.960857
29468.656809	-1336.305833	1914.452148	-162.945648
29468.656809	-1336.305833	1913.472656	-157.374130
29468.656809	-1336.305833	1912.492188	-68.894073
29468.656809	-1336.305833	1911.511719	-7.249153
29468.656809	-1336.305833	1910.531250	-143.046341
29468.656809	-1336.305833	1909.550781	35.591640
29468.656809	-1336.305833	1908.569336	340.870300
29468.656809	-1336.305833	1907.588867	100.375488
29468.656809	-1336.305833	1906.607422	135.205276
29468.656809	-1336.305833	1905.625977	89.674026
29468.656809	-1336.305833	1904.644531	114.783646
29468.656809	-1336.305833	1903.662109	210.485413
29468.656809	-1336.305833	1902.680664	-151.383377
29468.656809	-1336.305833	1901.698242	-38.605701
29468.656809	-1336.305833	1900.715820	-13.439925
29468.656809	-1336.305833	1899.733398	-7.728221
29468.656809	-1336.305833	1898.750000	66.082016
29468.656809	-1336.305833	1897.767578	137.452560
29468.656809	-1336.305833	1896.784180	-136.409470
29468.656809	-1336.305833	1895.800781	-237.583160
29468.656809	-1336.305833	1894.817383	59.837090
29468.656809	-1336.305833	1893.833984	233.241150
29468.656809	-1336.305833	1892.850586	-28.244818
29468.656809	-1336.305833	1891.866211	-299.345856
29468.656809	-1336.305833	1890.881836	-118.666763
29468.656809	-1336.305833	1889.897461	-192.976059
29468.656809	-1336.305833	1888.913086	-99.759102
29468.656809	-1336.305833	1887.927734	-244.422760
29468.656809	-1336.305833	1886.943359	-0.779531
29468.656809	-1336.305833	1885.958008	-99.304268
29468.656809	-1336.305833	1884.972656	8.384227
29468.656809	-1336.305833	1883.987305	82.081619
29468.656809	-1336.305833	1883.001953	58.761253
29468.656809	-1336.305833	1882.015625	57.260193
29468.656809	-1336.305833	1881.029297	-99.368660
29468.656809	-1336.305833	1880.042969	-64.497780
29468.656809	-1336.305833	1879.056641	4.273791
29468.656809	-1336.305833	1878.070313	-57.801487
29468.656809	-1336.305833	1877.083984	313.673370
29468.656809	-1336.305833	1876.096680	140.146484
29468.656809	-1336.305833	1875.109375	-76.905579
29468.656809	-1336.305833	1874.122070	112.773422
29468.656809	-1336.305833	1873.134766	-63.079800
29468.656809	-1336.305833	1872.146484	70.832336
29468.656809	-1336.305833	1871.159180	-32.404686
29468.656809	-1336.305833	1870.170898	-43.715611
29468.656809	-1336.305833	1869.182617	-202.565384
29468.656809	-1336.305833	1868.194336	122.202469
29468.656809	-1336.305833	1867.205078	-2.829500
29468.656809	-1336.305833	1866.216797	-91.581581
29468.656809	-1336.305833	1865.227539	298.140289
29468.656809	-1336.305833	1864.238281	-107.208900
29468.656809	-1336.305833	1863.249023	-48.636818
29468.656809	-1336.305833	1862.259766	-161.598404
29468.656809	-1336.305833	1861.269531	-57.236015
29468.656809	-1336.305833	1860.279297	175.004990
29468.656809	-1336.305833	1859.290039	-75.638992
29468.656809	-1336.305833	1858.298828	115.402504
29468.656809	-1336.305833	1857.308594	16.783787
29468.656809	-1336.305833	1856.318359	-72.192322
29468.656809	-1336.305833	1855.327148	55.890114
29468.656809	-1336.305833	1854.335938	44.003853
29468.656809	-1336.305833	1853.344727	-49.907703
29468.656809	-1336.305833	1852.353516	311.774628
29468.656809	-1336.305833	1851.362305	333.429779
29468.656809	-1336.305833	1850.370117	126.084709
29468.656809	-1336.305833	1849.377930	3.083514
29468.656809	-1336.305833	1848.385742	75.182060
29468.656809	-1336.305833	1847.393555	65.306145
29468.656809	-1336.305833	1846.401367	-9.647727
29468.656809	-1336.305833	1845.408203	30.911566
29468.656809	-1336.305833	1844.415039	191.736557
29468.656809	-1336.305833	1843.421875	20.323383
29468.656809	-1336.305833	1842.428711	152.070480
29468.656809	-1336.305833	1841.435547	40.722027
29468.656809	-1336.305833	1840.441406	143.394180
29468.656809	-1336.305833	1839.448242	272.405426
29468.656809	-1336.305833	1838.454102	-0.238573
29468.656809	-1336.305833	1837.459961	42.041405
29468.656809	-1336.305833	1836.464844	2.497949
29468.656809	-1336.305833	1835.470703	-1.069354
29468.656809	-1336.305833	1834.475586	45.723461
29468.656809	-1336.305833	1833.480469	29.952057
29468.656809	-1336.305833	1832.485352	42.911430
29468.656809	-1336.305833	1831.490234	149.416138
29468.656809	-1336.305833	1830.495117	-61.105999
29468.656809	-1336.305833	1829.499023	16.370510
29468.656809	-1336.305833	1828.502930	-28.671951
29468.656809	-1336.305833	1827.506836	-13.817228
29468.656809	-1336.305833	1826.510742	32.114513
29468.656809	-1336.305833	1825.513672	-13.228547
29468.656809	-1336.305833	1824.517578	56.449440
29468.656809	-1336.305833	1823.520508	315.385986
29468.656809	-1336.305833	1822.523438	-70.701469
29468.656809	-1336.305833	1821.526367	-1.396696
29468.656809	-1336.305833	1820.529297	96.519295
29468.656809	-1336.305833	1819.531250	177.500763
29468.656809	-1336.305833	1818.533203	69.107414
29468.656809	-1336.305833	1817.535156	192.929398
29468.656809	-1336.305833	1816.537109	192.076370
29468.656809	-1336.305833	1815.539063	97.736176
29468.656809	-1336.305833	1814.540039	122.968048
29468.656809	-1336.305833	1813.541992	21.242327
29468.656809	-1336.305833	1812.542969	-44.695988
29468.656809	-1336.305833	1811.543945	-24.624132
29468.656809	-1336.305833	1810.543945	-42.969620
29468.656809	-1336.305833	1809.544922	22.260447
29468.656809	-1336.305833	1808.544922	22.767181
29468.656809	-1336.305833	1807.544922	350.605957
29468.656809	-1336.305833	1806.544922	23.367107
29468.656809	-1336.305833	1805.544922	99.916412
29468.656809	-1336.305833	1804.544922	16.236843
29468.656809	-1336.305833	1803.543945	82.907928
29468.656809	-1336.305833	1802.542969	259.257294
29468.656809	-1336.305833	1801.541992	5.629305
29468.656809	-1336.305833	1800.541016	-30.821095
29468.656809	-1336.305833	1799.539063	104.420715
29468.656809	-1336.305833	1798.538086	-13.467538
29468.656809	-1336.305833	1797.536133	18.827784
29468.656809	-1336.305833	1796.534180	191.693863
29468.656809	-1336.305833	1795.532227	190.240845
29468.656809	-1336.305833	1794.529297	167.162430
29468.656809	-1336.305833	1793.527344	-108.754654
29468.656809	-1336.305833	1792.524414	-108.248878
29468.656809	-1336.305833	1791.521484	111.339279
29468.656809	-1336.305833	1790.518555	121.012665
29468.656809	-1336.305833	1789.514648	16.161634
29468.656809	-1336.305833	1788.511719	27.906576
29468.656809	-1336.305833	1787.507813	-46.257988
29468.656809	-1336.305833	1786.503906	234.181870
29468.656809	-1336.305833	1785.500000	295.356079
29468.656809	-1336.305833	1784.496094	194.505966
29468.656809	-1336.305833	1783.491211	186.310135
29468.656809	-1336.305833	1782.486328	230.285233
29468.656809	-1336.305833	1781.481445	-89.844948
29468.656809	-1336.305833	1780.476563	-79.467911
29468.656809	-1336.305833	1779.471680	-93.045334
29468.656809	-1336.305833	1778.465820	26.319513
29468.656809	-1336.305833	1777.460938	59.916813
29468.656809	-1336.305833	1776.455078	314.308228
29468.656809	-1336.305833	1775.449219	71.874962
29468.656809	-1336.305833	1774.442383	66.880409
29468.656809	-1336.305833	1773.436523	182.850540
29468.656809	-1336.305833	1772.429688	298.582153
29468.656809	-1336.305833	1771.422852	243.162292
29468.656809	-1336.305833	1770.416016	-97.247398
29468.656809	-1336.305833	1769.409180	74.891678
29468.656809	-1336.305833	1768.402344	19.006840
29468.656809	-1336.305833	1767.394531	202.542145
29468.656809	-1336.305833	1766.386719	58.519226
29468.656809	-1336.305833	1765.378906	-5.003654
29468.656809	-1336.305833	1764.371094	-220.421341
29468.656809	-1336.305833	1763.362305	-2.165308
29468.656809	-1336.305833	1762.354492	97.341286
29468.656809	-1336.305833	1761.345703	97.089142
29468.656809	-1336.305833	1760.336914	-104.717262
29468.656809	-1336.305833	1759.328125	200.255890
29468.656809	-1336.305833	1758.318359	88.111572
29468.656809	-1336.305833	1757.308594	16.076338
29468.656809	-1336.305833	1756.299805	483.643066
29468.656809	-1336.305833	1755.290039	316.519348
29468.656809	-1336.305833	1754.279297	-144.176208
29468.656809	-1336.305833	1753.269531	10.279202
29468.656809	-1336.305833	1752.258789	53.293385
29468.656809	-1336.305833	1751.249023	159.982422
29468.656809	-1336.305833	1750.238281	18.146120
29468.656809	-1336.305833	1749.226563	72.381760
29468.656809	-1336.305833	1748.215820	124.068253
29468.656809	-1336.305833	1747.204102	38.461491
29468.656809	-1336.305833	1746.193359	-356.799103
29468.656809	-1336.305833	1745.181641	166.830811
29468.656809	-1336.305833	1744.168945	227.126389
29468.656809	-1336.305833	1743.157227	27.480118
29468.656809	-1336.305833	1742.144531	-212.429825
29468.656809	-1336.305833	1741.132813	81.065163
29468.656809	-1336.305833	1740.120117	-102.492126
29468.656809	-1336.305833	1739.106445	-66.736526
29468.656809	-1336.305833	1738.093750	-142.039352
29468.656809	-1336.305833	1737.080078	-21.741541
29468.656809	-1336.305833	1736.067383	55.899593
29468.656809	-1336.305833	1735.053711	194.610870
29468.656809	-1336.305833	1734.040039	-275.112915
29468.656809	-1336.305833	1733.025391	-214.553146
29468.656809	-1336.305833	1732.011719	74.401512
29468.656809	-1336.305833	1730.997070	-89.310455
29468.656809	-1336.305833	1729.982422	-29.361429
29468.656809	-1336.305833	1728.967773	-216.901093
29468.656809	-1336.305833	1727.952148	-74.914581
29468.656809	-1336.305833	1726.937500	328.179901
29468.656809	-1336.305833	1725.921875	307.243225
29468.656809	-1336.305833	1724.906250	69.631302
29468.656809	-1336.305833	1723.890625	-59.832771
29468.656809	-1336.305833	1722.875000	-50.628551
29468.656809	-1336.305833	1721.858398	-347.380646
29468.656809	-1336.305833	1720.841797	7.177701
29468.656809	-1336.305833	1719.825195	227.418594
29468.656809	-1336.305833	1718.808594	188.833267
29468.656809	-1336.305833	1717.791992	-28.518663
29468.656809	-1336.305833	1716.774414	137.022705
29468.656809	-1336.305833	1715.756836	137.885223
29468.656809	-1336.305833	1714.739258	237.228210
29468.656809	-1336.305833	1713.721680	303.490295
29468.656809	-1336.305833	1712.704102	282.688263
29468.656809	-1336.305833	1711.685547	-38.772484
29468.656809	-1336.305833	1710.667969	212.425674
29468.656809	-1336.305833	1709.649414	287.348114
29468.656809	-1336.305833	1708.630859	146.236389
29468.656809	-1336.305833	1707.611328	155.116531
29468.656809	-1336.305833	1706.592773	229.526184
29468.656809	-1336.305833	1705.573242	364.687866
29468.656809	-1336.305833	1704.553711	248.800873
29468.656809	-1336.305833	1703.534180	55.452499
29468.656809	-1336.305833	1702.513672	290.845917
29468.656809	-1336.305833	1701.494141	219.094528
29468.656809	-1336.305833	1700.473633	423.610962
29468.656809	-1336.305833	1699.453125	107.956665
29468.656809	-1336.305833	1698.432617	131.812790
29468.656809	-1336.305833	1697.412109	340.464081
29468.656809	-1336.305833	1696.390625	417.782990
29468.656809	-1336.305833	1695.369141	228.136200
29468.656809	-1336.305833	1694.347656	424.490173
29468.656809	-1336.305833	1693.326172	236.971481
29468.656809	-1336.305833	1692.304688	40.027092
29468.656809	-1336.305833	1691.282227	338.751587
29468.656809	-1336.305833	1690.260742	588.153931
29468.656809	-1336.305833	1689.238281	369.783020
29468.656809	-1336.305833	1688.214844	663.163574
29468.656809	-1336.305833	1687.192383	498.340485
29468.656809	-1336.305833	1686.168945	590.404907
29468.656809	-1336.305833	1685.146484	472.117188
29468.656809	-1336.305833	1684.123047	657.310120
29468.656809	-1336.305833	1683.099609	625.164673
29468.656809	-1336.305833	1682.075195	835.659424
29468.656809	-1336.305833	1681.051758	770.571106
29468.656809	-1336.305833	1680.027344	885.040466
29468.656809	-1336.305833	1679.002930	1011.014587
29468.656809	-1336.305833	1677.978516	1043.516846
29468.656809	-1336.305833	1676.953125	1050.208862
29468.656809	-1336.305833	1675.928711	802.657776
29468.656809	-1336.305833	1674.903320	914.079529
29468.656809	-1336.305833	1673.877930	885.497803
29468.656809	-1336.305833	1672.852539	1199.389282
29468.656809	-1336.305833	1671.826172	1275.368530
29468.656809	-1336.305833	1670.800781	1020.460388
29468.656809	-1336.305833	1669.774414	1247.630127
29468.656809	-1336.305833	1668.748047	1134.638306
29468.656809	-1336.305833	1667.721680	1117.047729
29468.656809	-1336.305833	1666.694336	1394.954834
29468.656809	-1336.305833	1665.667969	1228.188110
29468.656809	-1336.305833	1664.640625	1370.829468
29468.656809	-1336.305833	1663.613281	1787.833252
29468.656809	-1336.305833	1662.585938	1599.855957
29468.656809	-1336.305833	1661.557617	1544.388306
29468.656809	-1336.305833	1660.530273	1693.488281
29468.656809	-1336.305833	1659.501953	1988.865845
29468.656809	-1336.305833	1658.473633	2012.132202
29468.656809	-1336.305833	1657.444336	1874.947632
29468.656809	-1336.305833	1656.416016	2211.706787
29468.656809	-1336.305833	1655.386719	2264.857422
29468.656809	-1336.305833	1654.358398	2403.874268
29468.656809	-1336.305833	1653.328125	2524.130615
29468.656809	-1336.305833	1652.298828	2609.486084
29468.656809	-1336.305833	1651.269531	2745.806152
29468.656809	-1336.305833	1650.239258	2784.518799
29468.656809	-1336.305833	1649.208984	2837.079590
29468.656809	-1336.305833	1648.178711	3102.965332
29468.656809	-1336.305833	1647.148438	3426.672607
29468.656809	-1336.305833	1646.117188	3522.937256
29468.656809	-1336.305833	1645.086914	3806.925049
29468.656809	-1336.305833	1644.055664	4067.545166
29468.656809	-1336.305833	1643.024414	4098.601563
29468.656809	-1336.305833	1641.992188	3907.146484
29468.656809	-1336.305833	1640.960938	4051.644531
29468.656809	-1336.305833	1639.928711	4355.819336
29468.656809	-1336.305833	1638.896484	4544.062500
29468.656809	-1336.305833	1637.864258	4854.899902
29468.656809	-1336.305833	1636.832031	4779.037109
29468.656809	-1336.305833	1635.798828	4816.538574
29468.656809	-1336.305833	1634.766602	4888.735352
29468.656809	-1336.305833	1633.733398	5599.324707
29468.656809	-1336.305833	1632.699219	5446.884766
29468.656809	-1336.305833	1631.666016	5701.500977
29468.656809	-1336.305833	1630.632813	5891.267578
29468.656809	-1336.305833	1629.598633	6418.394531
29468.656809	-1336.305833	1628.564453	6157.227539
29468.656809	-1336.305833	1627.530273	6078.691895
29468.656809	-1336.305833	1626.495117	6801.778320
29468.656809	-1336.305833	1625.460938	7185.080566
29468.656809	-1336.305833	1624.425781	7124.815918
29468.656809	-1336.305833	1623.390625	7246.974121
29468.656809	-1336.305833	1622.355469	7537.596680
29468.656809	-1336.305833	1621.319336	8031.177246
29468.656809	-1336.305833	1620.284180	8040.032715
29468.656809	-1336.305833	1619.248047	8434.136719
29468.656809	-1336.305833	1618.211914	8380.620117
29468.656809	-1336.305833	1617.174805	8829.845703
29468.656809	-1336.305833	1616.138672	8755.552734
29468.656809	-1336.305833	1615.101563	8623.645508
29468.656809	-1336.305833	1614.065430	8604.777344
29468.656809	-1336.305833	1613.027344	8445.311523
29468.656809	-1336.305833	1611.990234	8857.332031
29468.656809	-1336.305833	1610.953125	8357.056641
29468.656809	-1336.305833	1609.915039	8481.086914
29468.656809	-1336.305833	1608.876953	8618.919922
29468.656809	-1336.305833	1607.838867	8547.241211
29468.656809	-1336.305833	1606.800781	9083.265625
29468.656809	-1336.305833	1605.761719	8542.128906
29468.656809	-1336.305833	1604.723633	8647.789063
29468.656809	-1336.305833	1603.684570	8815.532227
29468.656809	-1336.305833	1602.644531	8990.126953
29468.656809	-1336.305833	1601.605469	8778.432617
29468.656809	-1336.305833	1600.566406	8980.688477
29468.656809	-1336.305833	1599.526367	9019.695313
29468.656809	-1336.305833	1598.486328	9169.052734
29468.656809	-1336.305833	1597.446289	9012.829102
29468.656809	-1336.305833	1596.405273	9412.614258
29468.656809	-1336.305833	1595.365234	8592.782227
29468.656809	-1336.305833	1594.324219	8682.629883
29468.656809	-1336.305833	1593.283203	9008.980469
29468.656809	-1336.305833	1592.242188	9032.290039
29468.656809	-1336.305833	1591.200195	9168.083984
29468.656809	-1336.305833	1590.159180	9193.803711
29468.656809	-1336.305833	1589.117188	9292.966797
29468.656809	-1336.305833	1588.075195	9096.305664
29468.656809	-1336.305833	1587.032227	8954.807617
29468.656809	-1336.305833	1585.990234	9278.899414
29468.656809	-1336.305833	1584.947266	9566.246094
29468.656809	-1336.305833	1583.904297	9541.894531
29468.656809	-1336.305833	1582.861328	9552.011719
29468.656809	-1336.305833	1581.818359	9608.041016
29468.656809	-1336.305833	1580.775391	10138.270508
29468.656809	-1336.305833	1579.731445	10189.755859
29468.656809	-1336.305833	1578.687500	10216.140625
29468.656809	-1336.305833	1577.643555	10137.322266
29468.656809	-1336.305833	1576.598633	10207.378906
29468.656809	-1336.305833	1575.554688	10687.133789
29468.656809	-1336.305833	1574.509766	10199.066406
29468.656809	-1336.305833	1573.464844	10525.585938
29468.656809	-1336.305833	1572.419922	10456.471680
29468.656809	-1336.305833	1571.374023	10588.675781
29468.656809	-1336.305833	1570.329102	10364.376953
29468.656809	-1336.305833	1569.283203	10553.935547
29468.656809	-1336.305833	1568.237305	10834.948242
29468.656809	-1336.305833	1567.191406	10691.041992
29468.656809	-1336.305833	1566.144531	11136.613281
29468.656809	-1336.305833	1565.098633	10981.551758
29468.656809	-1336.305833	1564.051758	11093.805664
29468.656809	-1336.305833	1563.004883	11247.242188
29468.656809	-1336.305833	1561.957031	11213.580078
29468.656809	-1336.305833	1560.910156	11453.930664
29468.656809	-1336.305833	1559.862305	11507.221680
29468.656809	-1336.305833	1558.814453	11487.650391
29468.656809	-1336.305833	1557.766602	11424.903320
29468.656809	-1336.305833	1556.718750	11572.101563
29468.656809	-1336.305833	1555.669922	11290.793945
29468.656809	-1336.305833	1554.621094	11112.320313
29468.656809	-1336.305833	1553.573242	10970.558594
29468.656809	-1336.305833	1552.523438	11079.576172
29468.656809	-1336.305833	1551.474609	10749.112305
29468.656809	-1336.305833	1550.424805	11042.928711
29468.656809	-1336.305833	1549.375000	11047.621094
29468.656809	-1336.305833	1548.325195	10765.640625
29468.656809	-1336.305833	1547.275391	10527.182617
29468.656809	-1336.305833	1546.225586	10225.274414
29468.656809	-1336.305833	1545.174805	10314.970703
29468.656809	-1336.305833	1544.124023	10759.665039
29468.656809	-1336.305833	1543.073242	10647.165039
29468.656809	-1336.305833	1542.022461	10614.471680
29468.656809	-1336.305833	1540.970703	10265.950195
29468.656809	-1336.305833	1539.919922	10260.986328
29468.656809	-1336.305833	1538.868164	10590.248047
29468.656809	-1336.305833	1537.815430	10231.114258
29468.656809	-1336.305833	1536.763672	10201.713867
29468.656809	-1336.305833	1535.710938	10072.570313
29468.656809	-1336.305833	1534.659180	9934.605469
29468.656809	-1336.305833	1533.606445	10103.357422
29468.656809	-1336.305833	1532.552734	9815.988281
29468.656809	-1336.305833	1531.500000	9340.592773
29468.656809	-1336.305833	1530.446289	9650.615234
29468.656809	-1336.305833	1529.393555	9502.506836
29468.656809	-1336.305833	1528.338867	9363.690430
29468.656809	-1336.305833	1527.285156	9259.172852
29468.656809	-1336.305833	1526.231445	8878.313477
29468.656809	-1336.305833	1525.176758	8373.127930
29468.656809	-1336.305833	1524.122070	8722.725586
29468.656809	-1336.305833	1523.067383	8299.766602
29468.656809	-1336.305833	1522.012695	8171.683105
29468.656809	-1336.305833	1520.957031	8465.121094
29468.656809	-1336.305833	1519.901367	8525.421875
29468.656809	-1336.305833	1518.845703	8610.821289
29468.656809	-1336.305833	1517.790039	8395.361328
29468.656809	-1336.305833	1516.734375	8012.736816
29468.656809	-1336.305833	1515.677734	8329.634766
29468.656809	-1336.305833	1514.621094	8248.485352
29468.656809	-1336.305833	1513.564453	8025.102539
29468.656809	-1336.305833	1512.507813	7363.350586
29468.656809	-1336.305833	1511.450195	7328.327148
29468.656809	-1336.305833	1510.393555	7515.092285
29468.656809	-1336.305833	1509.335938	7448.884766
29468.656809	-1336.305833	1508.278320	6874.548828
29468.656809	-1336.305833	1507.219727	6822.504395
29468.656809	-1336.305833	1506.162109	6655.547363
29468.656809	-1336.305833	1505.103516	7033.099609
29468.656809	-1336.305833	1504.044922	6830.508301
29468.656809	-1336.305833	1502.986328	6655.330078
29468.656809	-1336.305833	1501.926758	6403.716309
29468.656809	-1336.305833	1500.868164	6184.052734
29468.656809	-1336.305833	1499.808594	6503.875977
29468.656809	-1336.305833	1498.749023	6530.609375
29468.656809	-1336.305833	1497.688477	6429.027832
29468.656809	-1336.305833	1496.628906	5969.273926
29468.656809	-1336.305833	1495.568359	6098.271973
29468.656809	-1336.305833	1494.507813	5585.168457
29468.656809	-1336.305833	1493.447266	5852.146973
29468.656809	-1336.305833	1492.386719	5533.545410
29468.656809	-1336.305833	1491.325195	5510.373047
29468.656809	-1336.305833	1490.263672	5726.170410
29468.656809	-1336.305833	1489.202148	5548.135254
29468.656809	-1336.305833	1488.140625	5570.772461
29468.656809	-1336.305833	1487.079102	5064.777832
29468.656809	-1336.305833	1486.016602	5189.268066
29468.656809	-1336.305833	1484.954102	5338.716309
29468.656809	-1336.305833	1483.891602	4964.301270
29468.656809	-1336.305833	1482.829102	4545.317383
29468.656809	-1336.305833	1481.765625	4589.888672
29468.656809	-1336.305833	1480.702148	3998.558350
29468.656809	-1336.305833	1479.638672	4221.241211
29468.656809	-1336.305833	1478.575195	4102.608398
29468.656809	-1336.305833	1477.511719	3977.482666
29468.656809	-1336.305833	1476.447266	3940.260498
29468.656809	-1336.305833	1475.382813	3654.181641
29468.656809	-1336.305833	1474.318359	3693.852295
29468.656809	-1336.305833	1473.253906	3767.356934
29468.656809	-1336.305833	1472.189453	3455.305420
29468.656809	-1336.305833	1471.124023	3327.666016
29468.656809	-1336.305833	1470.058594	3617.042480
29468.656809	-1336.305833	1468.993164	3824.036621
29468.656809	-1336.305833	1467.927734	3412.021729
29468.656809	-1336.305833	1466.861328	3442.512451
29468.656809	-1336.305833	1465.794922	3524.155762
29468.656809	-1336.305833	1464.728516	3521.112305
29468.656809	-1336.305833	1463.662109	3355.601074
29468.656809	-1336.305833	1462.594727	3650.406738
29468.656809	-1336.305833	1461.528320	3727.179932
29468.656809	-1336.305833	1460.460938	3754.786865
29468.656809	-1336.305833	1459.393555	3416.019531
29468.656809	-1336.305833	1458.326172	3749.958252
29468.656809	-1336.305833	1457.257813	3444.154541
29468.656809	-1336.305833	1456.189453	3539.589111
29468.656809	-1336.305833	1455.121094	3673.515869
29468.656809	-1336.305833	1454.052734	4104.048340
29468.656809	-1336.305833	1452.984375	3806.844971
29468.656809	-1336.305833	1451.915039	4026.934814
29468.656809	-1336.305833	1450.845703	3498.783691
29468.656809	-1336.305833	1449.776367	3661.785889
29468.656809	-1336.305833	1448.707031	3813.832031
29468.656809	-1336.305833	1447.636719	3498.521240
29468.656809	-1336.305833	1446.567383	3444.861084
29468.656809	-1336.305833	1445.497070	3264.619629
29468.656809	-1336.305833	1444.425781	3563.670410
29468.656809	-1336.305833	1443.355469	3404.000732
29468.656809	-1336.305833	1442.285156	3472.812500
29468.656809	-1336.305833	1441.213867	3030.923340
29468.656809	-1336.305833	1440.142578	2939.949707
29468.656809	-1336.305833	1439.070313	3112.543213
29468.656809	-1336.305833	1437.999023	3219.871338
29468.656809	-1336.305833	1436.926758	2990.706299
29468.656809	-1336.305833	1435.854492	3065.780762
29468.656809	-1336.305833	1434.782227	2838.166748
29468.656809	-1336.305833	1433.709961	3025.489258
29468.656809	-1336.305833	1432.636719	3262.736572
29468.656809	-1336.305833	1431.563477	3012.729004
29468.656809	-1336.305833	1430.490234	2676.374023
29468.656809	-1336.305833	1429.416992	2860.204590
29468.656809	-1336.305833	1428.343750	2937.509277
29468.656809	-1336.305833	1427.269531	3077.328857
29468.656809	-1336.305833	1426.195313	2898.991455
29468.656809	-1336.305833	1425.121094	3005.930420
29468.656809	-1336.305833	1424.046875	2825.857666
29468.656809	-1336.305833	1422.971680	3428.145508
29468.656809	-1336.305833	1421.896484	2927.993408
29468.656809	-1336.305833	1420.821289	3315.309570
29468.656809	-1336.305833	1419.746094	2962.860596
29468.656809	-1336.305833	1418.669922	2932.419922
29468.656809	-1336.305833	1417.594727	3088.683594
29468.656809	-1336.305833	1416.518555	3269.940918
29468.656809	-1336.305833	1415.442383	3018.712891
29468.656809	-1336.305833	1414.365234	2856.070068
29468.656809	-1336.305833	1413.289063	2602.188965
29468.656809	-1336.305833	1412.211914	2537.284912
29468.656809	-1336.305833	1411.134766	2571.059082
29468.656809	-1336.305833	1410.057617	2318.543701
29468.656809	-1336.305833	1408.979492	2419.975098
29468.656809	-1336.305833	1407.902344	2237.558350
29468.656809	-1336.305833	1406.824219	2238.544189
29468.656809	-1336.305833	1405.746094	2039.099487
29468.656809	-1336.305833	1404.666992	1864.140625
29468.656809	-1336.305833	1403.588867	2050.066162
29468.656809	-1336.305833	1402.509766	1904.607300
29468.656809	-1336.305833	1401.430664	1928.427612
29468.656809	-1336.305833	1400.351563	2130.369629
29468.656809	-1336.305833	1399.271484	1906.857544
29468.656809	-1336.305833	1398.192383	2139.568359
29468.656809	-1336.305833	1397.112305	2439.524414
29468.656809	-1336.305833	1396.031250	2529.461914
29468.656809	-1336.305833	1394.951172	2472.496094
29468.656809	-1336.305833	1393.871094	2440.886719
29468.656809	-1336.305833	1392.790039	2290.489258
29468.656809	-1336.305833	1391.708984	2561.452393
29468.656809	-1336.305833	1390.626953	2553.127930
29468.656809	-1336.305833	1389.545898	2780.844971
29468.656809	-1336.305833	1388.463867	2759.520508
29468.656809	-1336.305833	1387.381836	3120.859863
29468.656809	-1336.305833	1386.299805	3381.462891
29468.656809	-1336.305833	1385.217773	3189.426514
29468.656809	-1336.305833	1384.134766	3365.563965
29468.656809	-1336.305833	1383.051758	3356.569580
29468.656809	-1336.305833	1381.968750	3522.448242
29468.656809	-1336.305833	1380.885742	3498.721924
29468.656809	-1336.305833	1379.802734	3635.332520
29468.656809	-1336.305833	1378.718750	3661.604980
29468.656809	-1336.305833	1377.634766	3787.341064
29468.656809	-1336.305833	1376.550781	3294.524170
29468.656809	-1336.305833	1375.465820	3613.723633
29468.656809	-1336.305833	1374.381836	3664.443359
29468.656809	-1336.305833	1373.296875	3504.194580
29468.656809	-1336.305833	1372.211914	3379.272461
29468.656809	-1336.305833	1371.126953	3279.708984
29468.656809	-1336.305833	1370.041016	3214.118896
29468.656809	-1336.305833	1368.955078	3288.943848
29468.656809	-1336.305833	1367.869141	3313.908691
29468.656809	-1336.305833	1366.783203	3486.162109
29468.656809	-1336.305833	1365.697266	3364.222412
29468.656809	-1336.305833	1364.610352	2916.871582
29468.656809	-1336.305833	1363.523438	3467.797607
29468.656809	-1336.305833	1362.436523	3157.864502
29468.656809	-1336.305833	1361.349609	3124.689453
29468.656809	-1336.305833	1360.261719	3150.397461
29468.656809	-1336.305833	1359.174805	3051.210938
29468.656809	-1336.305833	1358.086914	3192.184082
29468.656809	-1336.305833	1356.998047	3364.157471
29468.656809	-1336.305833	1355.910156	3441.098633
29468.656809	-1336.305833	1354.821289	3080.373291
29468.656809	-1336.305833	1353.732422	2890.272705
29468.656809	-1336.305833	1352.643555	2796.527832
29468.656809	-1336.305833	1351.554688	2962.211182
29468.656809	-1336.305833	1350.464844	2726.988037
29468.656809	-1336.305833	1349.375000	2652.928711
29468.656809	-1336.305833	1348.285156	2540.292725
29468.656809	-1336.305833	1347.195313	2633.828369
29468.656809	-1336.305833	1346.105469	2939.005127
29468.656809	-1336.305833	1345.014648	2801.174561
29468.656809	-1336.305833	1343.923828	2696.364258
29468.656809	-1336.305833	1342.833008	2688.377686
29468.656809	-1336.305833	1341.741211	2879.381104
29468.656809	-1336.305833	1340.650391	2690.100830
29468.656809	-1336.305833	1339.558594	2733.408936
29468.656809	-1336.305833	1338.466797	2507.752441
29468.656809	-1336.305833	1337.374023	2268.556885
29468.656809	-1336.305833	1336.282227	2245.819580
29468.656809	-1336.305833	1335.189453	1922.676392
29468.656809	-1336.305833	1334.096680	2063.616455
29468.656809	-1336.305833	1333.003906	2017.981567
29468.656809	-1336.305833	1331.910156	1519.276001
29468.656809	-1336.305833	1330.817383	1190.140015
29468.656809	-1336.305833	1329.723633	1163.543213
29468.656809	-1336.305833	1328.629883	1181.862427
29468.656809	-1336.305833	1327.535156	1208.760620
29468.656809	-1336.305833	1326.441406	750.562317
29468.656809	-1336.305833	1325.346680	1039.439575
29468.656809	-1336.305833	1324.251953	963.469482
29468.656809	-1336.305833	1323.156250	1060.429199
29468.656809	-1336.305833	1322.061523	928.801941
29468.656809	-1336.305833	1320.965820	834.028503
29468.656809	-1336.305833	1319.870117	901.720703
29468.656809	-1336.305833	1318.774414	845.687012
29468.656809	-1336.305833	1317.678711	1067.745850
29468.656809	-1336.305833	1316.582031	786.171021
29468.656809	-1336.305833	1315.485352	894.032715
29468.656809	-1336.305833	1314.388672	956.914795
29468.656809	-1336.305833	1313.291016	1133.870850
29468.656809	-1336.305833	1312.194336	1415.563354
29468.656809	-1336.305833	1311.096680	1404.732300
29468.656809	-1336.305833	1309.999023	1010.743896
29468.656809	-1336.305833	1308.901367	1312.373657
29468.656809	-1336.305833	1307.802734	1475.283081
29468.656809	-1336.305833	1306.705078	1363.629272
29468.656809	-1336.305833	1305.606445	1516.763062
29468.656809	-1336.305833	1304.506836	1395.184692
29468.656809	-1336.305833	1303.408203	1536.581787
29468.656809	-1336.305833	1302.308594	1313.661255
29468.656809	-1336.305833	1301.208984	1523.042236
29468.656809	-1336.305833	1300.109375	1417.916016
29468.656809	-1336.305833	1299.009766	1636.745361
29468.656809	-1336.305833	1297.909180	1696.392212
29468.656809	-1336.305833	1296.808594	1706.129395
29468.656809	-1336.305833	1295.708008	1519.653931
29468.656809	-1336.305833	1294.607422	1810.508789
29468.656809	-1336.305833	1293.506836	1395.434082
29468.656809	-1336.305833	1292.405273	1645.315552
29468.656809	-1336.305833	1291.303711	1412.667725
29468.656809	-1336.305833	1290.202148	1540.570679
29468.656809	-1336.305833	1289.099609	1567.183716
29468.656809	-1336.305833	1287.998047	1520.980469
29468.656809	-1336.305833	1286.895508	1723.413208
29468.656809	-1336.305833	1285.792969	1438.503662
29468.656809	-1336.305833	1284.689453	1538.147949
29468.656809	-1336.305833	1283.586914	1357.459595
29468.656809	-1336.305833	1282.483398	1426.604248
29468.656809	-1336.305833	1281.379883	1556.837891
29468.656809	-1336.305833	1280.276367	1360.920044
29468.656809	-1336.305833	1279.171875	1293.651611
29468.656809	-1336.305833	1278.067383	1275.573364
29468.656809	-1336.305833	1276.962891	1331.827637
29468.656809	-1336.305833	1275.858398	1262.179932
29468.656809	-1336.305833	1274.753906	1356.878174
29468.656809	-1336.305833	1273.648438	1106.467773
29468.656809	-1336.305833	1272.542969	993.721497
29468.656809	-1336.305833	1271.437500	1013.520020
29468.656809	-1336.305833	1270.331055	598.727356
29468.656809	-1336.305833	1269.225586	759.017456
29468.656809	-1336.305833	1268.119141	715.128357
29468.656809	-1336.305833	1267.012695	763.453491
29468.656809	-1336.305833	1265.906250	476.582550
29468.656809	-1336.305833	1264.798828	454.387695
29468.656809	-1336.305833	1263.691406	578.830566
29468.656809	-1336.305833	1262.583984	365.707977
29468.656809	-1336.305833	1261.476563	333.355621
29468.656809	-1336.305833	1260.368164	308.640045
29468.656809	-1336.305833	1259.260742	93.083710
29468.656809	-1336.305833	1258.152344	46.361256
29468.656809	-1336.305833	1257.043945	205.662537
29468.656809	-1336.305833	1255.934570	-10.067625
29468.656809	-1336.305833	1254.825195	-180.825012
29468.656809	-1336.305833	1253.716797	-164.248123
29468.656809	-1336.305833	1252.606445	61.128872
29468.656809	-1336.305833	1251.497070	-66.191345
29468.656809	-1336.305833	1250.387695	-86.633003
29468.656809	-1336.305833	1249.277344	83.827110
29468.656809	-1336.305833	1248.166992	-293.459351
29468.656809	-1336.305833	1247.055664	-158.621445
29468.656809	-1336.305833	1245.945313	-24.702076
29468.656809	-1336.305833	1244.833984	89.261444
29468.656809	-1336.305833	1243.722656	186.038635
29468.656809	-1336.305833	1242.611328	-5.222126
29468.656809	-1336.305833	1241.499023	-110.083389
29468.656809	-1336.305833	1240.387695	-28.984711
29468.656809	-1336.305833	1239.275391	-203.812790
29468.656809	-1336.305833	1238.162109	-26.069578
29468.656809	-1336.305833	1237.049805	-40.952538
29468.656809	-1336.305833	1235.936523	160.778702
29468.656809	-1336.305833	1234.823242	111.729477
29468.656809	-1336.305833	1233.709961	316.807983
29468.656809	-1336.305833	1232.596680	161.555206
29468.656809	-1336.305833	1231.482422	280.686127
29468.656809	-1336.305833	1230.369141	231.655533
29468.656809	-1336.305833	1229.253906	168.631790
29468.656809	-1336.305833	1228.139648	114.868454
29468.656809	-1336.305833	1227.025391	553.896912
29468.656809	-1336.305833	1225.910156	288.268066
29468.656809	-1336.305833	1224.794922	434.645935
29468.656809	-1336.305833	1223.679688	227.997299
29468.656809	-1336.305833	1222.563477	383.351624
29468.656809	-1336.305833	1221.447266	207.429565
29468.656809	-1336.305833	1220.331055	367.508514
29468.656809	-1336.305833	1219.214844	80.492874
29468.656809	-1336.305833	1218.098633	24.906141
29468.656809	-1336.305833	1216.981445	199.486710
29468.656809	-1336.305833	1215.864258	218.935822
29468.656809	-1336.305833	1214.747070	255.814102
29468.656809	-1336.305833	1213.629883	434.270142
29468.656809	-1336.305833	1212.511719	324.655548
29468.656809	-1336.305833	1211.393555	312.480255
29468.656809	-1336.305833	1210.275391	493.857697
29468.656809	-1336.305833	1209.157227	407.016541
29468.656809	-1336.305833	1208.038086	248.536865
29468.656809	-1336.305833	1206.918945	521.454102
29468.656809	-1336.305833	1205.799805	373.922821
29468.656809	-1336.305833	1204.680664	274.917725
29468.656809	-1336.305833	1203.560547	374.165344
29468.656809	-1336.305833	1202.441406	134.105942
29468.656809	-1336.305833	1201.321289	162.965622
29468.656809	-1336.305833	1200.200195	146.609756
29468.656809	-1336.305833	1199.080078	399.851959
29468.656809	-1336.305833	1197.958984	417.834106
29468.656809	-1336.305833	1196.837891	373.092133
29468.656809	-1336.305833	1195.716797	792.206360
29468.656809	-1336.305833	1194.594727	877.154968
29468.656809	-1336.305833	1193.473633	973.533325
29468.656809	-1336.305833	1192.351563	1104.709473
29468.656809	-1336.305833	1191.229492	1046.168823
29468.656809	-1336.305833	1190.106445	1263.297607
29468.656809	-1336.305833	1188.984375	1280.347778
29468.656809	-1336.305833	1187.861328	1242.825806
29468.656809	-1336.305833	1186.738281	1291.006470
29468.656809	-1336.305833	1185.614258	1228.281372
29468.656809	-1336.305833	1184.491211	1303.817505
29468.656809	-1336.305833	1183.367188	1360.413574
29468.656809	-1336.305833	1182.243164	1519.444092
29468.656809	-1336.305833	1181.119141	1344.439087
29468.656809	-1336.305833	1179.994141	1098.684448
29468.656809	-1336.305833	1178.869141	1320.981079
29468.656809	-1336.305833	1177.744141	1102.395508
29468.656809	-1336.305833	1176.619141	1054.368042
29468.656809	-1336.305833	1175.493164	877.479248
29468.656809	-1336.305833	1174.368164	1165.645264
29468.656809	-1336.305833	1173.242188	1244.062378
29468.656809	-1336.305833	1172.115234	1048.416504
29468.656809	-1336.305833	1170.989258	1036.190430
29468.656809	-1336.305833	1169.862305	930.130798
29468.656809	-1336.305833	1168.735352	1225.847656
29468.656809	-1336.305833	1167.608398	1035.853394
29468.656809	-1336.305833	1166.481445	1132.265625
29468.656809	-1336.305833	1165.353516	1079.680420
29468.656809	-1336.305833	1164.225586	1304.278320
29468.656809	-1336.305833	1163.097656	1326.931152
29468.656809	-1336.305833	1161.968750	1470.670288
29468.656809	-1336.305833	1160.840820	1502.749390
29468.656809	-1336.305833	1159.711914	1432.994141
29468.656809	-1336.305833	1158.583008	1475.069946
29468.656809	-1336.305833	1157.453125	1347.974609
29468.656809	-1336.305833	1156.324219	1591.152222
29468.656809	-1336.305833	1155.194336	1659.837769
29468.656809	-1336.305833	1154.064453	1621.417725
29468.656809	-1336.305833	1152.933594	1812.934692
29468.656809	-1336.305833	1151.803711	2008.995605
29468.656809	-1336.305833	1150.672852	2218.944092
29468.656809	-1336.305833	1149.541992	2164.552002
29468.656809	-1336.305833	1148.411133	2448.867188
29468.656809	-1336.305833	1147.279297	2362.937256
29468.656809	-1336.305833	1146.147461	2539.075195
29468.656809	-1336.305833	1145.015625	2430.526611
29468.656809	-1336.305833	1143.883789	2573.188721
29468.656809	-1336.305833	1142.750977	2451.403564
29468.656809	-1336.305833	1141.619141	2664.536621
29468.656809	-1336.305833	1140.486328	2534.577637
29468.656809	-1336.305833	1139.352539	2668.744629
29468.656809	-1336.305833	1138.219727	2444.279785
29468.656809	-1336.305833	1137.085938	2340.153564
29468.656809	-1336.305833	1135.952148	2177.687744
29468.656809	-1336.305833	1134.818359	2032.721558
29468.656809	-1336.305833	1133.683594	2350.282227
29468.656809	-1336.305833	1132.549805	2156.532959
29468.656809	-1336.305833	1131.415039	2098.937744
29468.656809	-1336.305833	1130.279297	2146.981201
29468.656809	-1336.305833	1129.144531	2400.120850
29468.656809	-1336.305833	1128.008789	2417.553711
29468.656809	-1336.305833	1126.873047	2008.474243
29468.656809	-1336.305833	1125.737305	1925.401001
29468.656809	-1336.305833	1124.601563	1791.260986
29468.656809	-1336.305833	1123.464844	1541.894897
29468.656809	-1336.305833	1122.328125	1399.431152
29468.656809	-1336.305833	1121.191406	1333.847412
29468.656809	-1336.305833	1120.054688	1175.695923
29468.656809	-1336.305833	1118.916992	1158.389160
29468.656809	-1336.305833	1117.779297	857.343201
29468.656809	-1336.305833	1116.641602	1025.807251
29468.656809	-1336.305833	1115.503906	822.952576
29468.656809	-1336.305833	1114.365234	658.851624
29468.656809	-1336.305833	1113.226563	485.891510
29468.656809	-1336.305833	1112.087891	753.599060
29468.656809	-1336.305833	1110.949219	139.124054
29468.656809	-1336.305833	1109.809570	118.704498
29468.656809	-1336.305833	1108.669922	284.950745
29468.656809	-1336.305833	1107.530273	300.520508
29468.656809	-1336.305833	1106.390625	355.393738
29468.656809	-1336.305833	1105.250000	65.923233
29468.656809	-1336.305833	1104.109375	-52.754707
29468.656809	-1336.305833	1102.968750	14.183699
29468.656809	-1336.305833	1101.828125	132.343506
29468.656809	-1336.305833	1100.686523	138.120010
29468.656809	-1336.305833	1099.544922	92.234062
29468.656809	-1336.305833	1098.403320	179.476318
29468.656809	-1336.305833	1097.261719	116.785873
29468.656809	-1336.305833	1096.120117	335.691681
29468.656809	-1336.305833	1094.977539	340.481079
29468.656809	-1336.305833	1093.834961	648.938110
29468.656809	-1336.305833	1092.691406	302.140930
29468.656809	-1336.305833	1091.548828	277.820984
29468.656809	-1336.305833	1090.405273	692.665894
29468.656809	-1336.305833	1089.261719	375.081482
29468.656809	-1336.305833	1088.118164	500.432678
29468.656809	-1336.305833	1086.973633	748.488464
29468.656809	-1336.305833	1085.829102	759.977295
29468.656809	-1336.305833	1084.684570	799.572815
29468.656809	-1336.305833	1083.540039	727.095154
29468.656809	-1336.305833	1082.395508	609.305847
29468.656809	-1336.305833	1081.250000	762.844421
29468.656809	-1336.305833	1080.104492	886.186157
29468.656809	-1336.305833	1078.958984	744.362183
29468.656809	-1336.305833	1077.812500	401.345581
29468.656809	-1336.305833	1076.666016	572.510498
29468.656809	-1336.305833	1075.519531	358.165436
29468.656809	-1336.305833	1074.373047	165.708847
29468.656809	-1336.305833	1073.226563	399.603577
29468.656809	-1336.305833	1072.079102	297.326050
29468.656809	-1336.305833	1070.931641	208.964050
29468.656809	-1336.305833	1069.784180	101.001938
29468.656809	-1336.305833	1068.635742	204.236145
29468.656809	-1336.305833	1067.487305	52.901329
29468.656809	-1336.305833	1066.338867	69.823715
29468.656809	-1336.305833	1065.190430	163.808060
29468.656809	-1336.305833	1064.041992	-85.719742
29468.656809	-1336.305833	1062.892578	19.774422
29468.656809	-1336.305833	1061.743164	-96.579544
29468.656809	-1336.305833	1060.593750	-205.638916
29468.656809	-1336.305833	1059.443359	-89.682426
29468.656809	-1336.305833	1058.292969	111.433937
29468.656809	-1336.305833	1057.142578	-158.863861
29468.656809	-1336.305833	1055.992188	-8.382285
29468.656809	-1336.305833	1054.841797	-255.218781
29468.656809	-1336.305833	1053.690430	-207.398727
29468.656809	-1336.305833	1052.539063	-409.615295
29468.656809	-1336.305833	1051.387695	-218.637787
29468.656809	-1336.305833	1050.235352	-188.724350
29468.656809	-1336.305833	1049.083984	-188.248642
29468.656809	-1336.305833	1047.931641	-60.199974
29468.656809	-1336.305833	1046.778320	-215.908524
29468.656809	-1336.305833	1045.625977	-53.780338
29468.656809	-1336.305833	1044.472656	-207.448044
29468.656809	-1336.305833	1043.319336	7.335756
29468.656809	-1336.305833	1042.166016	66.393692
29468.656809	-1336.305833	1041.012695	-222.959427
29468.656809	-1336.305833	1039.858398	448.911743
29468.656809	-1336.305833	1038.704102	468.112610
29468.656809	-1336.305833	1037.549805	81.965820
29468.656809	-1336.305833	1036.394531	310.858337
29468.656809	-1336.305833	1035.239258	170.585434
29468.656809	-1336.305833	1034.083984	130.897537
29468.656809	-1336.305833	1032.928711	219.048996
29468.656809	-1336.305833	1031.773438	269.751190
29468.656809	-1336.305833	1030.617188	194.867111
29468.656809	-1336.305833	1029.460938	203.952454
29468.656809	-1336.305833	1028.304688	295.374878
29468.656809	-1336.305833	1027.147461	442.807587
29468.656809	-1336.305833	1025.991211	284.847015
29468.656809	-1336.305833	1024.833984	2.602599
29468.656809	-1336.305833	1023.675781	296.484650
29468.656809	-1336.305833	1022.518555	393.123566
29468.656809	-1336.305833	1021.360352	187.389801
29468.656809	-1336.305833	1020.202148	416.855774
29468.656809	-1336.305833	1019.043945	175.299362
29468.656809	-1336.305833	1017.884766	-65.239906
29468.656809	-1336.305833	1016.726563	188.006317
29468.656809	-1336.305833	1015.567383	245.518677
29468.656809	-1336.305833	1014.407227	382.037659
29468.656809	-1336.305833	1013.248047	122.326523
29468.656809	-1336.305833	1012.087891	-155.988297
29468.656809	-1336.305833	1010.927734	254.471313
29468.656809	-1336.305833	1009.767578	-40.180706
29468.656809	-1336.305833	1008.606445	-5.686996
29468.656809	-1336.305833	1007.446289	125.755974
29468.656809	-1336.305833	1006.285156	342.197357
29468.656809	-1336.305833	1005.123047	453.899231
29468.656809	-1336.305833	1003.961914	578.281006
29468.656809	-1336.305833	1002.799805	228.377579
29468.656809	-1336.305833	1001.637695	375.372711
29468.656809	-1336.305833	1000.475586	410.815918
29468.656809	-1336.305833	999.312500	839.071228
29468.656809	-1336.305833	998.149414	684.156677
29468.656809	-1336.305833	996.986328	556.727356
29468.656809	-1336.305833	995.823242	688.041870
29468.656809	-1336.305833	994.659180	496.645325
29468.656809	-1336.305833	993.496094	708.582336
29468.656809	-1336.305833	992.332031	557.667053
29468.656809	-1336.305833	991.166992	621.954651
29468.656809	-1336.305833	990.002930	666.752014
29468.656809	-1336.305833	988.837891	300.265320
29468.656809	-1336.305833	987.672852	762.943420
29468.656809	-1336.305833	986.506836	630.180359
29468.656809	-1336.305833	985.341797	461.832855
29468.656809	-1336.305833	984.175781	545.053467
29468.656809	-1336.305833	983.009766	447.676239
29468.656809	-1336.305833	981.843750	658.334778
29468.656809	-1336.305833	980.676758	398.024353
29468.656809	-1336.305833	979.509766	263.442535
29468.656809	-1336.305833	978.342773	-4.003540
29468.656809	-1336.305833	977.175781	60.388123
29468.656809	-1336.305833	976.007813	272.854523
29468.656809	-1336.305833	974.839844	213.560577
29468.656809	-1336.305833	973.671875	42.612541
29468.656809	-1336.305833	972.503906	41.011303
29468.656809	-1336.305833	971.334961	179.364594
29468.656809	-1336.305833	970.166016	169.093552
29468.656809	-1336.305833	968.997070	306.755676
29468.656809	-1336.305833	967.828125	329.025635
29468.656809	-1336.305833	966.658203	-43.528194
29468.656809	-1336.305833	965.488281	338.236359
29468.656809	-1336.305833	964.318359	147.788956
29468.656809	-1336.305833	963.148438	19.108963
29468.656809	-1336.305833	961.977539	138.176468
29468.656809	-1336.305833	960.806641	45.458298
29468.656809	-1336.305833	959.635742	-82.310303
29468.656809	-1336.305833	958.463867	-20.743256
29468.656809	-1336.305833	957.292969	-246.235138
29468.656809	-1336.305833	956.121094	151.078979
29468.656809	-1336.305833	954.948242	-301.642059
29468.656809	-1336.305833	953.776367	-155.282547
29468.656809	-1336.305833	952.603516	192.412552
29468.656809	-1336.305833	951.430664	-233.389999
29468.656809	-1336.305833	950.257813	26.160273
29468.656809	-1336.305833	949.084961	313.150208
29468.656809	-1336.305833	947.911133	160.637054
29468.656809	-1336.305833	946.737305	158.828857
29468.656809	-1336.305833	945.563477	31.914022
29468.656809	-1336.305833	944.388672	534.094055
29468.656809	-1336.305833	943.213867	303.653473
29468.656809	-1336.305833	942.039063	279.270874
29468.656809	-1336.305833	940.864258	342.214752
29468.656809	-1336.305833	939.688477	600.830811
29468.656809	-1336.305833	938.513672	402.607971
29468.656809	-1336.305833	937.337891	420.150757
29468.656809	-1336.305833	936.161133	585.606323
29468.656809	-1336.305833	934.985352	477.614319
29468.656809	-1336.305833	933.808594	642.837524
29468.656809	-1336.305833	932.631836	642.522034
29468.656809	-1336.305833	931.454102	649.540405
29468.656809	-1336.305833	930.277344	528.620789
29468.656809	-1336.305833	929.099609	826.155762
29468.656809	-1336.305833	927.921875	767.696411
29468.656809	-1336.305833	926.743164	967.177490
29468.656809	-1336.305833	925.565430	1028.812134
29468.656809	-1336.305833	924.386719	957.576294
29468.656809	-1336.305833	923.208008	893.798706
29468.656809	-1336.305833	922.028320	992.691223
29468.656809	-1336.305833	920.849609	928.752563
29468.656809	-1336.305833	919.669922	933.424988
29468.656809	-1336.305833	919.474609	645.299927
29468.656809	-1336.305833	918.309570	591.240051
29468.656809	-1336.305833	917.143555	504.613007
29468.656809	-1336.305833	915.977539	673.058411
29468.656809	-1336.305833	914.810547	588.811096
29468.656809	-1336.305833	913.644531	364.522858
29468.656809	-1336.305833	912.477539	445.201630
29468.656809	-1336.305833	911.310547	93.450027
29468.656809	-1336.305833	910.143555	144.032562
29468.656809	-1336.305833	908.975586	149.568512
29468.656809	-1336.305833	907.807617	284.902924
29468.656809	-1336.305833	906.639648	759.708435
29468.656809	-1336.305833	905.471680	560.206543
29468.656809	-1336.305833	904.303711	682.700745
29468.656809	-1336.305833	903.134766	685.302185
29468.656809	-1336.305833	901.965820	637.942139
29468.656809	-1336.305833	900.796875	523.187744
29468.656809	-1336.305833	899.626953	682.755493
29468.656809	-1336.305833	898.457031	428.287659
29468.656809	-1336.305833	897.287109	315.960815
29468.656809	-1336.305833	896.117188	241.004135
29468.656809	-1336.305833	894.947266	744.143005
29468.656809	-1336.305833	893.776367	626.661926
29468.656809	-1336.305833	892.605469	989.914429
29468.656809	-1336.305833	891.434570	471.366028
29468.656809	-1336.305833	890.262695	505.728851
29468.656809	-1336.305833	889.091797	520.102173
29468.656809	-1336.305833	887.919922	541.885986
29468.656809	-1336.305833	886.748047	235.143051
29468.656809	-1336.305833	885.575195	227.014954
29468.656809	-1336.305833	884.403320	430.259430
29468.656809	-1336.305833	883.230469	160.873871
29468.656809	-1336.305833	882.057617	438.534332
29468.656809	-1336.305833	880.883789	104.524879
29468.656809	-1336.305833	879.710938	118.541008
29468.656809	-1336.305833	878.537109	52.989914
29468.656809	-1336.305833	877.362305	79.336922
29468.656809	-1336.305833	876.188477	391.254364
29468.656809	-1336.305833	875.013672	290.778076
29468.656809	-1336.305833	873.839844	63.670372
29468.656809	-1336.305833	872.664063	27.746061
29468.656809	-1336.305833	871.489258	125.802811
29468.656809	-1336.305833	870.313477	99.712013
29468.656809	-1336.305833	869.138672	48.777294
29468.656809	-1336.305833	867.962891	-136.110580
29468.656809	-1336.305833	866.786133	-192.021515
29468.656809	-1336.305833	865.610352	-198.370407
29468.656809	-1336.305833	864.433594	5.928536
29468.656809	-1336.305833	863.256836	9.368328
29468.656809	-1336.305833	862.079102	220.888489
29468.656809	-1336.305833	860.902344	80.521584
29468.656809	-1336.305833	859.724609	-42.490604
29468.656809	-1336.305833	858.546875	-2.069051
29468.656809	-1336.305833	857.368164	97.711929
29468.656809	-1336.305833	856.190430	162.758194
29468.656809	-1336.305833	855.011719	215.365891
29468.656809	-1336.305833	853.833008	181.317276
29468.656809	-1336.305833	852.654297	322.870605
29468.656809	-1336.305833	851.474609	157.662262
29468.656809	-1336.305833	850.294922	365.847626
29468.656809	-1336.305833	849.115234	156.124405
29468.656809	-1336.305833	847.935547	386.389435
29468.656809	-1336.305833	846.754883	443.550476
29468.656809	-1336.305833	845.575195	419.121246
29468.656809	-1336.305833	844.393555	609.560425
29468.656809	-1336.305833	843.212891	239.296860
29468.656809	-1336.305833	842.032227	511.099457
29468.656809	-1336.305833	840.850586	407.539825
29468.656809	-1336.305833	839.668945	474.279449
29468.656809	-1336.305833	838.486328	555.762817
29468.656809	-1336.305833	837.304688	400.343964
29468.656809	-1336.305833	836.122070	242.489746
29468.656809	-1336.305833	834.939453	407.709320
29468.656809	-1336.305833	833.756836	575.292053
29468.656809	-1336.305833	832.573242	735.379578
29468.656809	-1336.305833	831.389648	427.115845
29468.656809	-1336.305833	830.206055	404.766785
29468.656809	-1336.305833	829.022461	540.053345
29468.656809	-1336.305833	827.838867	635.844788
29468.656809	-1336.305833	826.654297	527.181152
29468.656809	-1336.305833	825.469727	492.388031
29468.656809	-1336.305833	824.284180	543.726074
29468.656809	-1336.305833	823.099609	334.153168
29468.656809	-1336.305833	821.914063	729.895325
29468.656809	-1336.305833	820.728516	685.120056
29468.656809	-1336.305833	819.542969	664.925171
29468.656809	-1336.305833	818.356445	708.639465
29468.656809	-1336.305833	817.169922	545.797668
29468.656809	-1336.305833	815.983398	567.333496
29468.656809	-1336.305833	814.796875	748.557678
29468.656809	-1336.305833	813.609375	553.775330
29468.656809	-1336.305833	812.422852	705.388245
29468.656809	-1336.305833	811.235352	672.719360
29468.656809	-1336.305833	810.046875	644.942505
29468.656809	-1336.305833	808.859375	477.219421
29468.656809	-1336.305833	807.670898	689.956848
29468.656809	-1336.305833	806.482422	792.152649
29468.656809	-1336.305833	805.293945	1132.246338
29468.656809	-1336.305833	804.104492	1126.324097
29468.656809	-1336.305833	802.915039	1081.135620
29468.656809	-1336.305833	801.725586	832.436829
29468.656809	-1336.305833	800.536133	1007.880188
29468.656809	-1336.305833	799.345703	519.061401
29468.656809	-1336.305833	798.155273	302.392456
29468.656809	-1336.305833	796.964844	382.203430
29468.656809	-1336.305833	795.774414	513.382996
29468.656809	-1336.305833	794.583008	426.540405
29468.656809	-1336.305833	793.392578	427.837860
29468.656809	-1336.305833	792.200195	316.509430
29468.656809	-1336.305833	791.008789	263.928375
29468.656809	-1336.305833	789.816406	367.926422
29468.656809	-1336.305833	788.625000	425.372925
29468.656809	-1336.305833	787.432617	311.562408
29468.656809	-1336.305833	786.239258	151.311111
29468.656809	-1336.305833	785.046875	88.881096
29468.656809	-1336.305833	783.853516	165.762024
29468.656809	-1336.305833	782.660156	254.797775
29468.656809	-1336.305833	781.465820	551.433228
29468.656809	-1336.305833	780.272461	620.746948
29468.656809	-1336.305833	779.078125	374.958954
29468.656809	-1336.305833	777.883789	329.458038
29468.656809	-1336.305833	776.688477	208.265137
29468.656809	-1336.305833	775.494141	67.566475
29468.656809	-1336.305833	774.298828	17.175476
29468.656809	-1336.305833	773.103516	471.774048
29468.656809	-1336.305833	771.907227	211.488480
29468.656809	-1336.305833	770.711914	-165.774155
29468.656809	-1336.305833	769.515625	195.828659
29468.656809	-1336.305833	768.318359	106.292732
29468.656809	-1336.305833	767.122070	236.097626
29468.656809	-1336.305833	765.924805	373.122711
29468.656809	-1336.305833	764.727539	483.259094
29468.656809	-1336.305833	763.530273	352.192047
29468.656809	-1336.305833	762.333008	289.327667
29468.656809	-1336.305833	761.134766	94.987228
29468.656809	-1336.305833	759.936523	63.772778
29468.656809	-1336.305833	758.738281	-266.790497
29468.656809	-1336.305833	757.540039	-195.802444
29468.656809	-1336.305833	756.340820	-122.449699
29468.656809	-1336.305833	755.141602	-117.259026
29468.656809	-1336.305833	753.942383	-202.074402
29468.656809	-1336.305833	752.742188	-136.170471
29468.656809	-1336.305833	751.541992	-281.784851
29468.656809	-1336.305833	750.341797	46.470917
29468.656809	-1336.305833	749.141602	134.034058
29468.656809	-1336.305833	747.941406	-65.097633
29468.656809	-1336.305833	746.740234	-254.472382
29468.656809	-1336.305833	745.539063	-290.845245
29468.656809	-1336.305833	744.337891	-94.206741
29468.656809	-1336.305833	743.135742	-70.005562
29468.656809	-1336.305833	741.933594	-9.455679
29468.656809	-1336.305833	740.731445	-33.879612
29468.656809	-1336.305833	739.529297	-63.185825
29468.656809	-1336.305833	738.326172	-60.997013
29468.656809	-1336.305833	737.124023	103.587646
29468.656809	-1336.305833	735.919922	-37.354187
29468.656809	-1336.305833	734.716797	42.251644
29468.656809	-1336.305833	733.513672	-55.088676
29468.656809	-1336.305833	732.309570	72.851601
29468.656809	-1336.305833	731.105469	307.257263
29468.656809	-1336.305833	729.900391	122.622536
29468.656809	-1336.305833	728.696289	124.428810
29468.656809	-1336.305833	727.491211	314.981232
29468.656809	-1336.305833	726.286133	52.894424
29468.656809	-1336.305833	725.080078	69.096092
29468.656809	-1336.305833	723.874023	-57.463169
29468.656809	-1336.305833	722.668945	-92.115807
29468.656809	-1336.305833	721.461914	-39.761929
29468.656809	-1336.305833	720.255859	-59.992165
29468.656809	-1336.305833	719.048828	393.437653
29468.656809	-1336.305833	717.841797	498.679443
29468.656809	-1336.305833	716.634766	693.217407
29468.656809	-1336.305833	715.427734	602.621582
29468.656809	-1336.305833	714.219727	787.301819
29468.656809	-1336.305833	713.011719	1160.173950
29468.656809	-1336.305833	711.803711	1223.876343
29468.656809	-1336.305833	710.594727	1058.242676
29468.656809	-1336.305833	709.385742	694.780579
29468.656809	-1336.305833	708.176758	936.903992
29468.656809	-1336.305833	706.967773	891.878296
29468.656809	-1336.305833	705.758789	743.138855
29468.656809	-1336.305833	704.548828	799.325745
29468.656809	-1336.305833	703.338867	532.464478
29468.656809	-1336.305833	702.127930	535.558289
29468.656809	-1336.305833	700.917969	333.816833
29468.656809	-1336.305833	699.707031	394.659027
29468.656809	-1336.305833	698.496094	344.649536
29468.656809	-1336.305833	697.285156	111.624214
29468.656809	-1336.305833	696.073242	336.013916
29468.656809	-1336.305833	694.861328	-22.163408
29468.656809	-1336.305833	693.649414	324.777710
29468.656809	-1336.305833	692.436523	142.266113
29468.656809	-1336.305833	691.224609	-134.019165
29468.656809	-1336.305833	690.011719	92.336296
29468.656809	-1336.305833	688.798828	188.721817
29468.656809	-1336.305833	687.584961	340.296600
29468.656809	-1336.305833	686.372070	265.861115
29468.656809	-1336.305833	685.158203	583.036560
29468.656809	-1336.305833	683.943359	815.949707
29468.656809	-1336.305833	682.729492	750.913086
29468.656809	-1336.305833	681.514648	937.967529
29468.656809	-1336.305833	680.299805	834.414795
29468.656809	-1336.305833	679.084961	742.854614
29468.656809	-1336.305833	677.869141	773.660645
29468.656809	-1336.305833	676.653320	686.843872
29468.656809	-1336.305833	675.437500	623.998047
29468.656809	-1336.305833	674.221680	1074.324463
29468.656809	-1336.305833	673.004883	939.390076
29468.656809	-1336.305833	671.789063	720.564880
29468.656809	-1336.305833	670.571289	902.004883
29468.656809	-1336.305833	669.354492	630.460571
29468.656809	-1336.305833	668.136719	627.280579
29468.656809	-1336.305833	666.919922	786.919250
29468.656809	-1336.305833	665.701172	489.067352
29468.656809	-1336.305833	664.483398	600.682861
29468.656809	-1336.305833	663.264648	884.530334
29468.656809	-1336.305833	662.045898	787.713013
29468.656809	-1336.305833	660.827148	980.383484
29468.656809	-1336.305833	659.608398	828.467773
29468.656809	-1336.305833	658.388672	580.899780
29468.656809	-1336.305833	657.168945	794.857239
29468.656809	-1336.305833	655.949219	838.946045
29468.656809	-1336.305833	654.728516	969.004211
29468.656809	-1336.305833	653.507813	864.785889
29468.656809	-1336.305833	652.287109	645.887146
29468.656809	-1336.305833	651.066406	830.693054
29468.656809	-1336.305833	649.844727	1008.201782
29468.656809	-1336.305833	648.623047	1264.376831
29468.656809	-1336.305833	647.401367	1050.155762
29468.656809	-1336.305833	646.179688	1143.838135
29468.656809	-1336.305833	644.957031	1008.371155
29468.656809	-1336.305833	643.734375	767.954712
29468.656809	-1336.305833	642.511719	651.612732
29468.656809	-1336.305833	641.289063	537.656189
29468.656809	-1336.305833	640.065430	466.612457
29468.656809	-1336.305833	638.841797	805.509766
29468.656809	-1336.305833	637.618164	353.075226
29468.656809	-1336.305833	636.393555	563.105713
29468.656809	-1336.305833	635.168945	551.484985
29468.656809	-1336.305833	633.944336	499.338684
29468.656809	-1336.305833	632.719727	463.841217
29468.656809	-1336.305833	631.494141	625.887085
29468.656809	-1336.305833	630.269531	1040.103149
29468.656809	-1336.305833	629.042969	1140.005615
29468.656809	-1336.305833	627.817383	1163.706543
29468.656809	-1336.305833	626.590820	1099.351807
29468.656809	-1336.305833	625.365234	1156.263672
29468.656809	-1336.305833	624.137695	1267.784424
29468.656809	-1336.305833	622.911133	1450.534302
29468.656809	-1336.305833	621.683594	1590.387329
29468.656809	-1336.305833	620.456055	1663.622681
29468.656809	-1336.305833	619.228516	1850.809326
29468.656809	-1336.305833	618.000977	2291.996826
29468.656809	-1336.305833	616.772461	2170.226318
29468.656809	-1336.305833	615.543945	2364.204590
29468.656809	-1336.305833	614.314453	2847.614990
29468.656809	-1336.305833	613.085938	2754.183350
29468.656809	-1336.305833	611.856445	2803.101318
29468.656809	-1336.305833	610.626953	2640.869629
29468.656809	-1336.305833	609.397461	2412.281494
29468.656809	-1336.305833	608.166992	1922.964355
29468.656809	-1336.305833	606.936523	1623.456909
29468.656809	-1336.305833	605.706055	1542.076904
29468.656809	-1336.305833	604.474609	1128.993896
29468.656809	-1336.305833	603.244141	1478.838257
29468.656809	-1336.305833	602.012695	1084.847046
29468.656809	-1336.305833	600.780273	1273.484253
29468.656809	-1336.305833	599.548828	1095.089233
29468.656809	-1336.305833	598.316406	1158.164429
29468.656809	-1336.305833	597.083984	1050.817993
29468.656809	-1336.305833	595.851563	593.359375
29468.656809	-1336.305833	594.618164	682.464417
29468.656809	-1336.305833	593.384766	648.545654
29468.656809	-1336.305833	592.151367	574.436279
29468.656809	-1336.305833	590.917969	845.461853
29468.656809	-1336.305833	589.683594	657.876099
29468.656809	-1336.305833	588.449219	354.580078
29468.656809	-1336.305833	587.214844	495.520294
29468.656809	-1336.305833	585.979492	350.610870
29468.656809	-1336.305833	584.745117	111.310654
29468.656809	-1336.305833	583.509766	223.860657
29468.656809	-1336.305833	582.273438	156.973129
29468.656809	-1336.305833	581.038086	-16.072704
29468.656809	-1336.305833	579.801758	6.770840
29468.656809	-1336.305833	578.565430	3.658715
29468.656809	-1336.305833	577.329102	-223.485840
29468.656809	-1336.305833	576.091797	-120.445862
29468.656809	-1336.305833	574.854492	67.417999
29468.656809	-1336.305833	573.617188	94.946983
29468.656809	-1336.305833	572.378906	214.362000
29468.656809	-1336.305833	571.141602	-31.403408
29468.656809	-1336.305833	569.903320	-152.229126
29468.656809	-1336.305833	568.664063	33.122658
29468.656809	-1336.305833	567.425781	55.972134
29468.656809	-1336.305833	566.186523	142.373123
29468.656809	-1336.305833	564.947266	108.738426
29468.656809	-1336.305833	563.708008	199.831192
29468.656809	-1336.305833	562.467773	323.831512
29468.656809	-1336.305833	561.227539	332.564270
29468.656809	-1336.305833	559.987305	487.093384
29468.656809	-1336.305833	558.747070	422.963318
29468.656809	-1336.305833	557.505859	130.906998
29468.656809	-1336.305833	556.264648	198.512863
29468.656809	-1336.305833	555.023438	219.133942
29468.656809	-1336.305833	553.781250	279.700500
29468.656809	-1336.305833	552.539063	537.523560
29468.656809	-1336.305833	551.296875	436.067474
29468.656809	-1336.305833	550.054688	97.620842
29468.656809	-1336.305833	548.811523	238.080795
29468.656809	-1336.305833	547.569336	150.940628
29468.656809	-1336.305833	546.325195	-46.382507
29468.656809	-1336.305833	545.082031	-123.966942
29468.656809	-1336.305833	543.837891	-105.349762
29468.656809	-1336.305833	542.593750	-98.417511
29468.656809	-1336.305833	541.349609	70.272621
29468.656809	-1336.305833	540.105469	-51.619774
29468.656809	-1336.305833	538.860352	318.550720
29468.656809	-1336.305833	537.615234	147.563354
29468.656809	-1336.305833	536.369141	63.339012
29468.656809	-1336.305833	535.124023	86.903290
29468.656809	-1336.305833	533.877930	103.483284
29468.656809	-1336.305833	532.631836	85.008415
29468.656809	-1336.305833	531.384766	253.766830
29468.656809	-1336.305833	530.138672	-10.233911
29468.656809	-1336.305833	528.891602	-14.471498
29468.656809	-1336.305833	527.643555	56.168667
29468.656809	-1336.305833	526.396484	-55.495663
29468.656809	-1336.305833	525.148438	19.921289
29468.656809	-1336.305833	523.900391	-119.604706
29468.656809	-1336.305833	522.652344	121.788719
29468.656809	-1336.305833	521.403320	152.930893
29468.656809	-1336.305833	520.154297	352.260223
29468.656809	-1336.305833	518.905273	556.238525
29468.656809	-1336.305833	517.656250	722.851135
29468.656809	-1336.305833	516.406250	845.118774
29468.656809	-1336.305833	515.156250	1074.731445
29468.656809	-1336.305833	513.906250	870.437927
29468.656809	-1336.305833	512.655273	561.352783
29468.656809	-1336.305833	511.404297	492.636322
29468.656809	-1336.305833	510.153320	377.396637
29468.656809	-1336.305833	508.902344	271.604889
29468.656809	-1336.305833	507.650391	23.789761
29468.656809	-1336.305833	506.398438	498.351349
29468.656809	-1336.305833	505.146484	190.186508
29468.656809	-1336.305833	503.893555	-71.201546
29468.656809	-1336.305833	502.641602	68.046799
29468.656809	-1336.305833	501.388672	-102.271317
29468.656809	-1336.305833	500.134766	23.106085
29468.656809	-1336.305833	498.881836	-109.749107
29468.656809	-1336.305833	497.627930	-181.994675
29468.656809	-1336.305833	496.374023	50.528168
29468.656809	-1336.305833	495.119141	166.767899
29468.656809	-1336.305833	493.865234	403.918610
29468.656809	-1336.305833	492.610352	564.340210
29468.656809	-1336.305833	491.355469	741.034729
29468.656809	-1336.305833	490.099609	583.190674
29468.656809	-1336.305833	488.843750	625.237488
29468.656809	-1336.305833	487.587891	688.238647
29468.656809	-1336.305833	486.332031	725.746155
29468.656809	-1336.305833	485.075195	614.750977
29468.656809	-1336.305833	483.818359	315.902618
29468.656809	-1336.305833	482.561523	362.955627
29468.656809	-1336.305833	481.304688	263.916473
29468.656809	-1336.305833	480.046875	79.174454
29468.656809	-1336.305833	478.789063	242.376312
29468.656809	-1336.305833	477.531250	333.707825
29468.656809	-1336.305833	476.272461	390.294342
29468.656809	-1336.305833	475.013672	400.573090
29468.656809	-1336.305833	473.754883	376.153259
29468.656809	-1336.305833	472.496094	314.741486
29468.656809	-1336.305833	471.236328	329.824158
29468.656809	-1336.305833	469.976563	372.730225
29468.656809	-1336.305833	468.716797	688.794861
29468.656809	-1336.305833	467.456055	502.593903
29468.656809	-1336.305833	466.196289	406.750000
29468.656809	-1336.305833	464.935547	539.985779
29468.656809	-1336.305833	463.673828	471.995148
29468.656809	-1336.305833	462.413086	408.691132
29468.656809	-1336.305833	461.151367	389.360443
29468.656809	-1336.305833	459.889648	457.887024
29468.656809	-1336.305833	458.626953	-28.156263
29468.656809	-1336.305833	457.364258	-19.600731
29468.656809	-1336.305833	456.101563	125.230705
29468.656809	-1336.305833	454.838867	-274.955780
29468.656809	-1336.305833	453.575195	213.864960
29468.656809	-1336.305833	452.312500	-137.700592
29468.656809	-1336.305833	451.047852	-129.132004
29468.656809	-1336.305833	449.784180	-148.265442
29468.656809	-1336.305833	448.519531	-17.482145
29468.656809	-1336.305833	447.254883	11.746149
29468.656809	-1336.305833	445.990234	-360.258789
29468.656809	-1336.305833	444.725586	-100.524986
29468.656809	-1336.305833	443.459961	228.187424
29468.656809	-1336.305833	442.194336	111.997597
29468.656809	-1336.305833	440.927734	-211.538788
29468.656809	-1336.305833	439.662109	301.053894
29468.656809	-1336.305833	438.395508	210.040207
29468.656809	-1336.305833	437.127930	404.450897
29468.656809	-1336.305833	435.861328	198.190720
29468.656809	-1336.305833	434.593750	415.333588
29468.656809	-1336.305833	433.326172	130.719681
29468.656809	-1336.305833	432.058594	322.245850
29468.656809	-1336.305833	430.790039	85.812515
29468.656809	-1336.305833	429.521484	281.589203
29468.656809	-1336.305833	428.252930	72.557739
29468.656809	-1336.305833	426.984375	72.588341
29468.656809	-1336.305833	425.714844	368.847137
29468.656809	-1336.305833	424.445313	255.889511
29468.656809	-1336.305833	423.174805	383.933319
29468.656809	-1336.305833	421.905273	98.397751
29468.656809	-1336.305833	420.634766	145.639542
29468.656809	-1336.305833	419.364258	422.144775
29468.656809	-1336.305833	418.092773	374.722900
29468.656809	-1336.305833	416.822266	402.771454
29468.656809	-1336.305833	415.550781	350.247681
29468.656809	-1336.305833	414.278320	462.562317
29468.656809	-1336.305833	413.006836	496.573883
29468.656809	-1336.305833	411.734375	612.762451
29468.656809	-1336.305833	410.461914	309.177032
29468.656809	-1336.305833	409.188477	213.864655
29468.656809	-1336.305833	407.916016	216.729050
29468.656809	-1336.305833	406.642578	237.519821
29468.656809	-1336.305833	405.368164	97.607216
29468.656809	-1336.305833	404.094727	-44.952316
29468.656809	-1336.305833	402.820313	-82.619507
29468.656809	-1336.305833	401.545898	-56.663048
29468.656809	-1336.305833	400.270508	-26.631416
29468.656809	-1336.305833	398.996094	199.595108
29468.656809	-1336.305833	397.720703	235.388763
29468.656809	-1336.305833	396.444336	-184.352737
29468.656809	-1336.305833	395.168945	275.547699
29468.656809	-1336.305833	393.892578	156.475861
29468.656809	-1336.305833	392.616211	96.245865
29468.656809	-1336.305833	391.339844	206.725113
29468.656809	-1336.305833	390.062500	218.281036
29468.656809	-1336.305833	388.785156	281.659027
29468.656809	-1336.305833	387.507813	353.429810
29468.656809	-1336.305833	386.229492	387.900665
29468.656809	-1336.305833	384.951172	289.246399
29468.656809	-1336.305833	383.672852	182.996735
29468.656809	-1336.305833	382.394531	413.532349
29468.656809	-1336.305833	381.115234	563.290222
29468.656809	-1336.305833	379.835938	684.745789
29468.656809	-1336.305833	378.556641	590.980652
29468.656809	-1336.305833	377.277344	457.577942
29468.656809	-1336.305833	375.997070	380.199585
29468.656809	-1336.305833	374.716797	408.906677
29468.656809	-1336.305833	373.435547	231.582733
29468.656809	-1336.305833	372.155273	62.389355
29468.656809	-1336.305833	370.874023	-244.438873
29468.656809	-1336.305833	369.591797	9.836205
29468.656809	-1336.305833	368.310547	228.710968
29468.656809	-1336.305833	367.028320	-13.271145
29468.656809	-1336.305833	365.746094	-8.498034
29468.656809	-1336.305833	364.463867	101.851822
29468.656809	-1336.305833	363.180664	-114.298950
29468.656809	-1336.305833	361.897461	229.667877
29468.656809	-1336.305833	360.614258	-114.188484
29468.656809	-1336.305833	359.330078	154.025314
29468.656809	-1336.305833	358.045898	-104.072075
29468.656809	-1336.305833	356.761719	-29.783499
29468.656809	-1336.305833	355.477539	38.341209
29468.656809	-1336.305833	354.192383	9.427223
29468.656809	-1336.305833	352.907227	162.662384
29468.656809	-1336.305833	351.622070	69.052605
29468.656809	-1336.305833	350.336914	114.345016
29468.656809	-1336.305833	349.050781	-123.479179
29468.656809	-1336.305833	347.764648	45.054153
29468.656809	-1336.305833	346.477539	7.509108
29468.656809	-1336.305833	345.191406	-25.167013
29468.656809	-1336.305833	343.904297	85.099625
29468.656809	-1336.305833	342.616211	30.058935
29468.656809	-1336.305833	341.329102	317.203247
29468.656809	-1336.305833	340.041016	101.509674
29468.656809	-1336.305833	338.752930	241.341858
29468.656809	-1336.305833	337.463867	-73.972008
29468.656809	-1336.305833	336.175781	167.465820
29468.656809	-1336.305833	334.886719	383.657013
29468.656809	-1336.305833	333.596680	255.606277
29468.656809	-1336.305833	332.307617	226.849625
29468.656809	-1336.305833	331.017578	120.772194
29468.656809	-1336.305833	329.727539	308.144012
29468.656809	-1336.305833	328.436523	-24.971121
29468.656809	-1336.305833	327.146484	91.165276
29468.656809	-1336.305833	325.855469	-177.530487
29468.656809	-1336.305833	324.563477	31.875757
29468.656809	-1336.305833	323.272461	-141.173019
29468.656809	-1336.305833	321.980469	3.186774
29468.656809	-1336.305833	320.688477	141.988495
29468.656809	-1336.305833	319.395508	270.555328
29468.656809	-1336.305833	318.103516	-55.460930
29468.656809	-1336.305833	316.810547	30.123854
29468.656809	-1336.305833	315.516602	21.810907
29468.656809	-1336.305833	314.223633	-1.330609
29468.656809	-1336.305833	312.929688	10.027070
29468.656809	-1336.305833	311.635742	64.877632
29468.656809	-1336.305833	310.340820	-14.995162
29468.656809	-1336.305833	309.045898	-98.843338
29468.656809	-1336.305833	307.750977	-13.342911
29468.656809	-1336.305833	306.456055	-314.855042
29468.656809	-1336.305833	305.160156	-102.880501
29468.656809	-1336.305833	303.865234	399.565216
29468.656809	-1336.305833	302.568359	262.510406
29468.656809	-1336.305833	301.272461	332.511047
29468.656809	-1336.305833	299.975586	332.430084
29468.656809	-1336.305833	298.678711	224.103165
