#X		#Y		#Wave		#Intensity
49.882447	5477.486667	1999.946289	20.388308
49.882447	5477.486667	1998.981445	-36.868111
49.882447	5477.486667	1998.017578	170.398422
49.882447	5477.486667	1997.052734	-147.813751
49.882447	5477.486667	1996.088867	61.792042
49.882447	5477.486667	1995.124023	-75.527039
49.882447	5477.486667	1994.159180	39.793392
49.882447	5477.486667	1993.193359	58.458221
49.882447	5477.486667	1992.228516	64.700882
49.882447	5477.486667	1991.262695	21.398031
49.882447	5477.486667	1990.296875	-59.046734
49.882447	5477.486667	1989.331055	68.357292
49.882447	5477.486667	1988.365234	-44.294449
49.882447	5477.486667	1987.398438	-104.992950
49.882447	5477.486667	1986.432617	-9.896310
49.882447	5477.486667	1985.465820	52.990292
49.882447	5477.486667	1984.499023	31.771467
49.882447	5477.486667	1983.532227	-29.014799
49.882447	5477.486667	1982.565430	33.755390
49.882447	5477.486667	1981.597656	7.527314
49.882447	5477.486667	1980.629883	-21.187620
49.882447	5477.486667	1979.662109	6.889715
49.882447	5477.486667	1978.694336	89.258896
49.882447	5477.486667	1977.726563	161.698288
49.882447	5477.486667	1976.758789	-49.786716
49.882447	5477.486667	1975.790039	74.433998
49.882447	5477.486667	1974.821289	40.663406
49.882447	5477.486667	1973.852539	-47.391472
49.882447	5477.486667	1972.883789	-9.634963
49.882447	5477.486667	1971.915039	171.126740
49.882447	5477.486667	1970.945313	73.174957
49.882447	5477.486667	1969.975586	4.824405
49.882447	5477.486667	1969.005859	49.863338
49.882447	5477.486667	1968.036133	136.762863
49.882447	5477.486667	1967.066406	-74.517181
49.882447	5477.486667	1966.096680	-9.829438
49.882447	5477.486667	1965.125977	-9.219190
49.882447	5477.486667	1964.155273	-6.160992
49.882447	5477.486667	1963.184570	-5.579802
49.882447	5477.486667	1962.213867	31.911907
49.882447	5477.486667	1961.242188	34.919880
49.882447	5477.486667	1960.271484	77.286995
49.882447	5477.486667	1959.299805	16.295450
49.882447	5477.486667	1958.328125	61.086174
49.882447	5477.486667	1957.356445	39.447758
49.882447	5477.486667	1956.384766	59.607994
49.882447	5477.486667	1955.412109	45.332169
49.882447	5477.486667	1954.439453	-64.807396
49.882447	5477.486667	1953.467773	36.430607
49.882447	5477.486667	1952.495117	39.340107
49.882447	5477.486667	1951.521484	37.326317
49.882447	5477.486667	1950.548828	197.410904
49.882447	5477.486667	1949.575195	102.038857
49.882447	5477.486667	1948.601563	23.882105
49.882447	5477.486667	1947.627930	19.390507
49.882447	5477.486667	1946.654297	63.980965
49.882447	5477.486667	1945.680664	-31.319290
49.882447	5477.486667	1944.706055	-52.989288
49.882447	5477.486667	1943.732422	-69.748573
49.882447	5477.486667	1942.757813	117.047188
49.882447	5477.486667	1941.783203	53.664597
49.882447	5477.486667	1940.807617	19.719305
49.882447	5477.486667	1939.833008	-26.470881
49.882447	5477.486667	1938.857422	71.939224
49.882447	5477.486667	1937.881836	57.601963
49.882447	5477.486667	1936.906250	-3.277537
49.882447	5477.486667	1935.930664	95.066162
49.882447	5477.486667	1934.955078	51.340370
49.882447	5477.486667	1933.978516	-9.510725
49.882447	5477.486667	1933.001953	12.888328
49.882447	5477.486667	1932.025391	1.013620
49.882447	5477.486667	1931.048828	20.953539
49.882447	5477.486667	1930.072266	40.885334
49.882447	5477.486667	1929.094727	41.239475
49.882447	5477.486667	1928.118164	19.584194
49.882447	5477.486667	1927.140625	-63.193451
49.882447	5477.486667	1926.163086	81.418175
49.882447	5477.486667	1925.184570	79.319969
49.882447	5477.486667	1924.207031	-8.308287
49.882447	5477.486667	1923.228516	-51.924290
49.882447	5477.486667	1922.250000	-71.093826
49.882447	5477.486667	1921.271484	68.503105
49.882447	5477.486667	1920.292969	41.995346
49.882447	5477.486667	1919.314453	5.732917
49.882447	5477.486667	1918.334961	81.773438
49.882447	5477.486667	1917.355469	35.757359
49.882447	5477.486667	1916.375977	-154.208466
49.882447	5477.486667	1915.396484	60.888557
49.882447	5477.486667	1914.416992	19.787331
49.882447	5477.486667	1913.436523	66.499069
49.882447	5477.486667	1912.457031	40.047649
49.882447	5477.486667	1911.476563	-59.528786
49.882447	5477.486667	1910.496094	-59.130844
49.882447	5477.486667	1909.515625	-70.914909
49.882447	5477.486667	1908.534180	78.117287
49.882447	5477.486667	1907.552734	-87.154388
49.882447	5477.486667	1906.572266	35.041542
49.882447	5477.486667	1905.590820	-81.450615
49.882447	5477.486667	1904.608398	82.092628
49.882447	5477.486667	1903.626953	-36.791546
49.882447	5477.486667	1902.644531	70.712631
49.882447	5477.486667	1901.663086	-40.817646
49.882447	5477.486667	1900.680664	-1.465532
49.882447	5477.486667	1899.698242	-22.934715
49.882447	5477.486667	1898.714844	116.116325
49.882447	5477.486667	1897.732422	-80.427162
49.882447	5477.486667	1896.749023	34.280159
49.882447	5477.486667	1895.765625	83.322884
49.882447	5477.486667	1894.782227	40.005753
49.882447	5477.486667	1893.798828	13.716980
49.882447	5477.486667	1892.814453	-53.855961
49.882447	5477.486667	1891.831055	-55.820827
49.882447	5477.486667	1890.846680	-35.927219
49.882447	5477.486667	1889.862305	39.804440
49.882447	5477.486667	1888.877930	-56.834335
49.882447	5477.486667	1887.892578	-53.928520
49.882447	5477.486667	1886.908203	41.189201
49.882447	5477.486667	1885.922852	-18.992941
49.882447	5477.486667	1884.937500	49.408878
49.882447	5477.486667	1883.952148	28.058725
49.882447	5477.486667	1882.965820	9.144819
49.882447	5477.486667	1881.980469	16.910097
49.882447	5477.486667	1880.994141	-106.208694
49.882447	5477.486667	1880.007813	27.596064
49.882447	5477.486667	1879.021484	-5.823108
49.882447	5477.486667	1878.035156	33.447105
49.882447	5477.486667	1877.047852	60.595917
49.882447	5477.486667	1876.061523	19.937714
49.882447	5477.486667	1875.074219	3.508415
49.882447	5477.486667	1874.086914	-56.481339
49.882447	5477.486667	1873.098633	-14.798868
49.882447	5477.486667	1872.111328	-60.235786
49.882447	5477.486667	1871.123047	-18.559866
49.882447	5477.486667	1870.135742	-18.013668
49.882447	5477.486667	1869.147461	-56.157917
49.882447	5477.486667	1868.158203	-12.077114
49.882447	5477.486667	1867.169922	126.272522
49.882447	5477.486667	1866.180664	51.878868
49.882447	5477.486667	1865.192383	40.347935
49.882447	5477.486667	1864.203125	57.817039
49.882447	5477.486667	1863.213867	31.802412
49.882447	5477.486667	1862.223633	-18.351425
49.882447	5477.486667	1861.234375	18.448063
49.882447	5477.486667	1860.244141	31.093838
49.882447	5477.486667	1859.253906	7.531545
49.882447	5477.486667	1858.263672	75.689110
49.882447	5477.486667	1857.273438	44.895565
49.882447	5477.486667	1856.282227	-87.206444
49.882447	5477.486667	1855.291992	87.068810
49.882447	5477.486667	1854.300781	-13.634934
49.882447	5477.486667	1853.309570	1.435067
49.882447	5477.486667	1852.317383	4.448069
49.882447	5477.486667	1851.326172	33.976250
49.882447	5477.486667	1850.333984	104.460976
49.882447	5477.486667	1849.342773	117.100616
49.882447	5477.486667	1848.350586	-50.924179
49.882447	5477.486667	1847.357422	19.544479
49.882447	5477.486667	1846.365234	27.384880
49.882447	5477.486667	1845.372070	73.743492
49.882447	5477.486667	1844.379883	9.365787
49.882447	5477.486667	1843.386719	-28.513872
49.882447	5477.486667	1842.393555	-20.660608
49.882447	5477.486667	1841.399414	177.237442
49.882447	5477.486667	1840.406250	-26.603842
49.882447	5477.486667	1839.412109	19.726707
49.882447	5477.486667	1838.417969	94.893631
49.882447	5477.486667	1837.423828	105.130486
49.882447	5477.486667	1836.429688	24.037046
49.882447	5477.486667	1835.434570	7.854146
49.882447	5477.486667	1834.440430	-10.721896
49.882447	5477.486667	1833.445313	54.780651
49.882447	5477.486667	1832.450195	-4.621634
49.882447	5477.486667	1831.454102	70.462227
49.882447	5477.486667	1830.458984	-12.924047
49.882447	5477.486667	1829.462891	122.141731
49.882447	5477.486667	1828.466797	113.171967
49.882447	5477.486667	1827.470703	-46.950108
49.882447	5477.486667	1826.474609	107.240746
49.882447	5477.486667	1825.478516	-7.247499
49.882447	5477.486667	1824.481445	58.154621
49.882447	5477.486667	1823.484375	75.582802
49.882447	5477.486667	1822.487305	64.240814
49.882447	5477.486667	1821.490234	28.937653
49.882447	5477.486667	1820.493164	-51.878029
49.882447	5477.486667	1819.495117	44.618114
49.882447	5477.486667	1818.498047	105.150917
49.882447	5477.486667	1817.500000	-1.975573
49.882447	5477.486667	1816.500977	-49.203320
49.882447	5477.486667	1815.502930	35.252060
49.882447	5477.486667	1814.504883	28.724936
49.882447	5477.486667	1813.505859	-23.266979
49.882447	5477.486667	1812.506836	118.556046
49.882447	5477.486667	1811.507813	35.469795
49.882447	5477.486667	1810.508789	-42.801926
49.882447	5477.486667	1809.508789	-27.789248
49.882447	5477.486667	1808.508789	87.628128
49.882447	5477.486667	1807.508789	102.610023
49.882447	5477.486667	1806.508789	88.908081
49.882447	5477.486667	1805.508789	113.440666
49.882447	5477.486667	1804.508789	11.350530
49.882447	5477.486667	1803.507813	12.001827
49.882447	5477.486667	1802.506836	-54.212437
49.882447	5477.486667	1801.505859	-17.737160
49.882447	5477.486667	1800.504883	33.046230
49.882447	5477.486667	1799.502930	-14.044739
49.882447	5477.486667	1798.501953	-11.007416
49.882447	5477.486667	1797.500000	25.427126
49.882447	5477.486667	1796.498047	216.892136
49.882447	5477.486667	1795.496094	91.097000
49.882447	5477.486667	1794.493164	63.108040
49.882447	5477.486667	1793.491211	-62.612865
49.882447	5477.486667	1792.488281	90.581390
49.882447	5477.486667	1791.485352	38.773510
49.882447	5477.486667	1790.482422	15.574760
49.882447	5477.486667	1789.478516	-86.228828
49.882447	5477.486667	1788.475586	28.740173
49.882447	5477.486667	1787.471680	31.743845
49.882447	5477.486667	1786.467773	10.936933
49.882447	5477.486667	1785.463867	73.447784
49.882447	5477.486667	1784.459961	50.256565
49.882447	5477.486667	1783.455078	100.834114
49.882447	5477.486667	1782.450195	70.504387
49.882447	5477.486667	1781.445313	25.912811
49.882447	5477.486667	1780.440430	-25.798332
49.882447	5477.486667	1779.435547	-72.737015
49.882447	5477.486667	1778.429688	13.460915
49.882447	5477.486667	1777.424805	25.946115
49.882447	5477.486667	1776.418945	57.433289
49.882447	5477.486667	1775.413086	27.134331
49.882447	5477.486667	1774.406250	79.981262
49.882447	5477.486667	1773.400391	6.935556
49.882447	5477.486667	1772.393555	62.135235
49.882447	5477.486667	1771.386719	-29.878201
49.882447	5477.486667	1770.379883	63.279232
49.882447	5477.486667	1769.373047	108.935852
49.882447	5477.486667	1768.365234	2.719710
49.882447	5477.486667	1767.358398	181.209015
49.882447	5477.486667	1766.350586	6.232201
49.882447	5477.486667	1765.342773	-0.317407
49.882447	5477.486667	1764.334961	-49.543613
49.882447	5477.486667	1763.326172	10.284415
49.882447	5477.486667	1762.318359	-1.011926
49.882447	5477.486667	1761.309570	94.320099
49.882447	5477.486667	1760.300781	66.420898
49.882447	5477.486667	1759.291016	102.480537
49.882447	5477.486667	1758.282227	50.901726
49.882447	5477.486667	1757.272461	58.531181
49.882447	5477.486667	1756.262695	77.990288
49.882447	5477.486667	1755.252930	24.067093
49.882447	5477.486667	1754.243164	17.488371
49.882447	5477.486667	1753.233398	-26.946354
49.882447	5477.486667	1752.222656	61.097256
49.882447	5477.486667	1751.211914	4.837528
49.882447	5477.486667	1750.201172	19.532732
49.882447	5477.486667	1749.190430	-15.428245
49.882447	5477.486667	1748.179688	-19.651875
49.882447	5477.486667	1747.167969	51.744015
49.882447	5477.486667	1746.156250	-153.334229
49.882447	5477.486667	1745.144531	-29.977219
49.882447	5477.486667	1744.132813	-34.211338
49.882447	5477.486667	1743.121094	32.394299
49.882447	5477.486667	1742.108398	25.779720
49.882447	5477.486667	1741.095703	59.292446
49.882447	5477.486667	1740.083008	14.906336
49.882447	5477.486667	1739.070313	-15.309294
49.882447	5477.486667	1738.057617	20.539097
49.882447	5477.486667	1737.043945	-12.034010
49.882447	5477.486667	1736.030273	23.790850
49.882447	5477.486667	1735.016602	-110.164314
49.882447	5477.486667	1734.002930	-8.336764
49.882447	5477.486667	1732.989258	-33.825394
49.882447	5477.486667	1731.974609	-87.586678
49.882447	5477.486667	1730.959961	-9.395613
49.882447	5477.486667	1729.945313	-1.905031
49.882447	5477.486667	1728.930664	12.643847
49.882447	5477.486667	1727.916016	1.281536
49.882447	5477.486667	1726.900391	95.857697
49.882447	5477.486667	1725.885742	-66.164650
49.882447	5477.486667	1724.870117	37.792965
49.882447	5477.486667	1723.853516	-62.993092
49.882447	5477.486667	1722.837891	-36.713593
49.882447	5477.486667	1721.822266	50.702553
49.882447	5477.486667	1720.805664	22.855982
49.882447	5477.486667	1719.789063	-35.548027
49.882447	5477.486667	1718.772461	40.050831
49.882447	5477.486667	1717.754883	-6.592762
49.882447	5477.486667	1716.738281	-90.816757
49.882447	5477.486667	1715.720703	97.499763
49.882447	5477.486667	1714.703125	22.673677
49.882447	5477.486667	1713.685547	-82.656578
49.882447	5477.486667	1712.667969	-82.294708
49.882447	5477.486667	1711.649414	115.247849
49.882447	5477.486667	1710.630859	73.315811
49.882447	5477.486667	1709.612305	-24.921375
49.882447	5477.486667	1708.593750	8.256775
49.882447	5477.486667	1707.575195	-59.445137
49.882447	5477.486667	1706.555664	-35.663322
49.882447	5477.486667	1705.536133	77.205994
49.882447	5477.486667	1704.516602	32.959461
49.882447	5477.486667	1703.497070	0.445255
49.882447	5477.486667	1702.477539	-34.403988
49.882447	5477.486667	1701.457031	5.729607
49.882447	5477.486667	1700.437500	59.900063
49.882447	5477.486667	1699.416992	1.625911
49.882447	5477.486667	1698.395508	74.498726
49.882447	5477.486667	1697.375000	-49.316124
49.882447	5477.486667	1696.354492	72.686981
49.882447	5477.486667	1695.333008	51.882545
49.882447	5477.486667	1694.311523	31.081911
49.882447	5477.486667	1693.290039	-41.180218
49.882447	5477.486667	1692.267578	-1.151663
49.882447	5477.486667	1691.246094	48.212631
49.882447	5477.486667	1690.223633	48.454838
49.882447	5477.486667	1689.201172	-61.172031
49.882447	5477.486667	1688.178711	-74.938934
49.882447	5477.486667	1687.155273	30.464661
49.882447	5477.486667	1686.132813	35.368008
49.882447	5477.486667	1685.109375	61.286648
49.882447	5477.486667	1684.085938	-45.920914
49.882447	5477.486667	1683.062500	3.345217
49.882447	5477.486667	1682.039063	-59.462765
49.882447	5477.486667	1681.014648	-35.894703
49.882447	5477.486667	1679.990234	78.668182
49.882447	5477.486667	1678.965820	25.202982
49.882447	5477.486667	1677.941406	114.044952
49.882447	5477.486667	1676.916992	79.244423
49.882447	5477.486667	1675.891602	182.024277
49.882447	5477.486667	1674.866211	109.916367
49.882447	5477.486667	1673.840820	63.472263
49.882447	5477.486667	1672.815430	28.694708
49.882447	5477.486667	1671.790039	14.897225
49.882447	5477.486667	1670.763672	-38.500305
49.882447	5477.486667	1669.737305	-96.538025
49.882447	5477.486667	1668.710938	45.701370
49.882447	5477.486667	1667.684570	24.914217
49.882447	5477.486667	1666.658203	85.601303
49.882447	5477.486667	1665.630859	11.281870
49.882447	5477.486667	1664.603516	32.386253
49.882447	5477.486667	1663.576172	6.953572
49.882447	5477.486667	1662.548828	69.911865
49.882447	5477.486667	1661.520508	125.865578
49.882447	5477.486667	1660.493164	81.822807
49.882447	5477.486667	1659.464844	14.548029
49.882447	5477.486667	1658.436523	144.843918
49.882447	5477.486667	1657.408203	38.076981
49.882447	5477.486667	1656.378906	-22.188377
49.882447	5477.486667	1655.350586	-52.235790
49.882447	5477.486667	1654.321289	54.740234
49.882447	5477.486667	1653.291992	-5.499381
49.882447	5477.486667	1652.261719	45.707905
49.882447	5477.486667	1651.232422	13.341168
49.882447	5477.486667	1650.202148	110.931229
49.882447	5477.486667	1649.171875	13.598650
49.882447	5477.486667	1648.141602	138.982895
49.882447	5477.486667	1647.111328	127.487846
49.882447	5477.486667	1646.080078	106.719650
49.882447	5477.486667	1645.049805	55.822426
49.882447	5477.486667	1644.018555	67.522552
49.882447	5477.486667	1642.987305	113.977455
49.882447	5477.486667	1641.955078	37.616283
49.882447	5477.486667	1640.923828	49.309723
49.882447	5477.486667	1639.891602	181.428680
49.882447	5477.486667	1638.859375	128.251190
49.882447	5477.486667	1637.827148	223.260254
49.882447	5477.486667	1636.794922	230.274765
49.882447	5477.486667	1635.761719	295.139191
49.882447	5477.486667	1634.729492	204.958313
49.882447	5477.486667	1633.696289	161.076706
49.882447	5477.486667	1632.662109	142.651169
49.882447	5477.486667	1631.628906	142.733322
49.882447	5477.486667	1630.594727	235.292221
49.882447	5477.486667	1629.561523	92.042290
49.882447	5477.486667	1628.527344	82.887924
49.882447	5477.486667	1627.493164	-16.376747
49.882447	5477.486667	1626.458008	2.214305
49.882447	5477.486667	1625.423828	210.195831
49.882447	5477.486667	1624.388672	196.405792
49.882447	5477.486667	1623.353516	205.710129
49.882447	5477.486667	1622.318359	173.459991
49.882447	5477.486667	1621.282227	129.681931
49.882447	5477.486667	1620.247070	277.443176
49.882447	5477.486667	1619.210938	65.250435
49.882447	5477.486667	1618.174805	150.689072
49.882447	5477.486667	1617.137695	157.685593
49.882447	5477.486667	1616.101563	113.956612
49.882447	5477.486667	1615.064453	277.714386
49.882447	5477.486667	1614.027344	254.722534
49.882447	5477.486667	1612.990234	310.088074
49.882447	5477.486667	1611.953125	333.178772
49.882447	5477.486667	1610.916016	360.868713
49.882447	5477.486667	1609.877930	347.093719
49.882447	5477.486667	1608.839844	287.275543
49.882447	5477.486667	1607.801758	199.856705
49.882447	5477.486667	1606.763672	158.506210
49.882447	5477.486667	1605.724609	225.328293
49.882447	5477.486667	1604.685547	381.854645
49.882447	5477.486667	1603.646484	262.286987
49.882447	5477.486667	1602.607422	186.464798
49.882447	5477.486667	1601.568359	267.033142
49.882447	5477.486667	1600.528320	191.242310
49.882447	5477.486667	1599.489258	320.050995
49.882447	5477.486667	1598.449219	372.974274
49.882447	5477.486667	1597.408203	267.344299
49.882447	5477.486667	1596.368164	336.342438
49.882447	5477.486667	1595.327148	407.611206
49.882447	5477.486667	1594.287109	249.231384
49.882447	5477.486667	1593.246094	212.592102
49.882447	5477.486667	1592.204102	398.617767
49.882447	5477.486667	1591.163086	403.277832
49.882447	5477.486667	1590.121094	316.159149
49.882447	5477.486667	1589.079102	268.076111
49.882447	5477.486667	1588.037109	178.730408
49.882447	5477.486667	1586.995117	265.992798
49.882447	5477.486667	1585.953125	238.590836
49.882447	5477.486667	1584.910156	323.520477
49.882447	5477.486667	1583.867188	312.166351
49.882447	5477.486667	1582.824219	248.119827
49.882447	5477.486667	1581.781250	358.207672
49.882447	5477.486667	1580.737305	291.893097
49.882447	5477.486667	1579.693359	241.637863
49.882447	5477.486667	1578.649414	305.882477
49.882447	5477.486667	1577.605469	260.230072
49.882447	5477.486667	1576.561523	255.794968
49.882447	5477.486667	1575.516602	265.094116
49.882447	5477.486667	1574.472656	221.776505
49.882447	5477.486667	1573.427734	86.988228
49.882447	5477.486667	1572.381836	59.737209
49.882447	5477.486667	1571.336914	101.093788
49.882447	5477.486667	1570.291016	190.442871
49.882447	5477.486667	1569.246094	275.191223
49.882447	5477.486667	1568.200195	204.527466
49.882447	5477.486667	1567.153320	181.871613
49.882447	5477.486667	1566.107422	257.448761
49.882447	5477.486667	1565.060547	159.439255
49.882447	5477.486667	1564.013672	102.571899
49.882447	5477.486667	1562.966797	214.659271
49.882447	5477.486667	1561.919922	233.131134
49.882447	5477.486667	1560.872070	174.015732
49.882447	5477.486667	1559.825195	363.608368
49.882447	5477.486667	1558.777344	220.104172
49.882447	5477.486667	1557.729492	197.531647
49.882447	5477.486667	1556.680664	202.333649
49.882447	5477.486667	1555.632813	273.250732
49.882447	5477.486667	1554.583984	86.593765
49.882447	5477.486667	1553.535156	228.158356
49.882447	5477.486667	1552.486328	210.191177
49.882447	5477.486667	1551.436523	210.458801
49.882447	5477.486667	1550.387695	176.572357
49.882447	5477.486667	1549.337891	10.640101
49.882447	5477.486667	1548.288086	177.151978
49.882447	5477.486667	1547.238281	193.383438
49.882447	5477.486667	1546.187500	157.274933
49.882447	5477.486667	1545.136719	128.012634
49.882447	5477.486667	1544.086914	185.209473
49.882447	5477.486667	1543.035156	90.011345
49.882447	5477.486667	1541.984375	210.873093
49.882447	5477.486667	1540.933594	195.290817
49.882447	5477.486667	1539.881836	86.529701
49.882447	5477.486667	1538.830078	123.258308
49.882447	5477.486667	1537.778320	57.737942
49.882447	5477.486667	1536.725586	30.866129
49.882447	5477.486667	1535.673828	106.215218
49.882447	5477.486667	1534.621094	217.872192
49.882447	5477.486667	1533.568359	145.601776
49.882447	5477.486667	1532.515625	91.526108
49.882447	5477.486667	1531.461914	39.747818
49.882447	5477.486667	1530.409180	151.359695
49.882447	5477.486667	1529.355469	104.142143
49.882447	5477.486667	1528.301758	109.115227
49.882447	5477.486667	1527.247070	30.193615
49.882447	5477.486667	1526.193359	26.126768
49.882447	5477.486667	1525.138672	-2.864900
49.882447	5477.486667	1524.083984	-47.700092
49.882447	5477.486667	1523.029297	-10.941978
49.882447	5477.486667	1521.974609	123.218826
49.882447	5477.486667	1520.918945	-46.159389
49.882447	5477.486667	1519.863281	-7.135023
49.882447	5477.486667	1518.807617	181.304932
49.882447	5477.486667	1517.751953	-24.175650
49.882447	5477.486667	1516.696289	159.684036
49.882447	5477.486667	1515.639648	19.922281
49.882447	5477.486667	1514.583008	129.064407
49.882447	5477.486667	1513.526367	100.206642
49.882447	5477.486667	1512.469727	132.423279
49.882447	5477.486667	1511.412109	117.157921
49.882447	5477.486667	1510.355469	142.595306
49.882447	5477.486667	1509.297852	0.794949
49.882447	5477.486667	1508.240234	55.636120
49.882447	5477.486667	1507.181641	-7.006880
49.882447	5477.486667	1506.124023	4.918775
49.882447	5477.486667	1505.065430	113.949242
49.882447	5477.486667	1504.006836	-113.453247
49.882447	5477.486667	1502.948242	6.862236
49.882447	5477.486667	1501.888672	-44.379383
49.882447	5477.486667	1500.830078	-82.051888
49.882447	5477.486667	1499.770508	-22.696409
49.882447	5477.486667	1498.710938	-44.551708
49.882447	5477.486667	1497.650391	-66.389648
49.882447	5477.486667	1496.590820	-58.899021
49.882447	5477.486667	1495.530273	-62.672909
49.882447	5477.486667	1494.469727	-21.361961
49.882447	5477.486667	1493.409180	-18.362625
49.882447	5477.486667	1492.348633	-1.837698
49.882447	5477.486667	1491.287109	84.512054
49.882447	5477.486667	1490.225586	-20.572458
49.882447	5477.486667	1489.164063	-62.565323
49.882447	5477.486667	1488.102539	77.799126
49.882447	5477.486667	1487.041016	40.324635
49.882447	5477.486667	1485.978516	70.377876
49.882447	5477.486667	1484.916016	-68.288834
49.882447	5477.486667	1483.853516	-170.913742
49.882447	5477.486667	1482.791016	9.861117
49.882447	5477.486667	1481.727539	-29.761150
49.882447	5477.486667	1480.664063	40.782291
49.882447	5477.486667	1479.600586	-23.527567
49.882447	5477.486667	1478.537109	-85.538109
49.882447	5477.486667	1477.473633	-21.719265
49.882447	5477.486667	1476.409180	57.763233
49.882447	5477.486667	1475.344727	-62.539066
49.882447	5477.486667	1474.280273	115.756676
49.882447	5477.486667	1473.215820	49.290138
49.882447	5477.486667	1472.151367	101.744934
49.882447	5477.486667	1471.085938	60.121174
49.882447	5477.486667	1470.020508	-77.957886
49.882447	5477.486667	1468.955078	1.430390
49.882447	5477.486667	1467.888672	18.196037
49.882447	5477.486667	1466.823242	-27.782942
49.882447	5477.486667	1465.756836	-123.109337
49.882447	5477.486667	1464.690430	66.010719
49.882447	5477.486667	1463.624023	192.214447
49.882447	5477.486667	1462.556641	18.989826
49.882447	5477.486667	1461.490234	-85.119247
49.882447	5477.486667	1460.422852	-3.688358
49.882447	5477.486667	1459.355469	-134.316040
49.882447	5477.486667	1458.287109	-32.797226
49.882447	5477.486667	1457.219727	-11.308575
49.882447	5477.486667	1456.151367	125.815872
49.882447	5477.486667	1455.083008	98.109612
49.882447	5477.486667	1454.014648	170.452057
49.882447	5477.486667	1452.945313	53.404999
49.882447	5477.486667	1451.876953	56.593441
49.882447	5477.486667	1450.807617	42.208824
49.882447	5477.486667	1449.738281	-39.154854
49.882447	5477.486667	1448.668945	15.773895
49.882447	5477.486667	1447.598633	-31.827856
49.882447	5477.486667	1446.528320	35.873600
49.882447	5477.486667	1445.458008	43.537941
49.882447	5477.486667	1444.387695	30.552374
49.882447	5477.486667	1443.317383	109.901772
49.882447	5477.486667	1442.246094	49.227600
49.882447	5477.486667	1441.174805	-74.432625
49.882447	5477.486667	1440.103516	-8.458059
49.882447	5477.486667	1439.032227	-59.585754
49.882447	5477.486667	1437.960938	6.068316
49.882447	5477.486667	1436.888672	54.538742
49.882447	5477.486667	1435.816406	30.202579
49.882447	5477.486667	1434.744141	11.578374
49.882447	5477.486667	1433.670898	-30.228941
49.882447	5477.486667	1432.598633	42.546848
49.882447	5477.486667	1431.525391	-39.418079
49.882447	5477.486667	1430.452148	11.582372
49.882447	5477.486667	1429.378906	34.521343
49.882447	5477.486667	1428.304688	-8.328712
49.882447	5477.486667	1427.231445	28.717749
49.882447	5477.486667	1426.157227	-34.384674
49.882447	5477.486667	1425.083008	-46.031994
49.882447	5477.486667	1424.007813	-13.955130
49.882447	5477.486667	1422.933594	65.827751
49.882447	5477.486667	1421.858398	21.706890
49.882447	5477.486667	1420.783203	15.115321
49.882447	5477.486667	1419.708008	31.800100
49.882447	5477.486667	1418.631836	3.353603
49.882447	5477.486667	1417.555664	16.434422
49.882447	5477.486667	1416.479492	49.914120
49.882447	5477.486667	1415.403320	113.940636
49.882447	5477.486667	1414.327148	-3.020240
49.882447	5477.486667	1413.250000	11.100972
49.882447	5477.486667	1412.173828	1.457270
49.882447	5477.486667	1411.096680	172.620239
49.882447	5477.486667	1410.018555	-38.828556
49.882447	5477.486667	1408.941406	49.035778
49.882447	5477.486667	1407.863281	85.591049
49.882447	5477.486667	1406.785156	62.349251
49.882447	5477.486667	1405.707031	76.542786
49.882447	5477.486667	1404.628906	162.868393
49.882447	5477.486667	1403.549805	122.543106
49.882447	5477.486667	1402.470703	215.762466
49.882447	5477.486667	1401.391602	51.524479
49.882447	5477.486667	1400.312500	154.597687
49.882447	5477.486667	1399.233398	123.476189
49.882447	5477.486667	1398.153320	222.353622
49.882447	5477.486667	1397.073242	207.477722
49.882447	5477.486667	1395.993164	113.116516
49.882447	5477.486667	1394.913086	197.625443
49.882447	5477.486667	1393.832031	102.803635
49.882447	5477.486667	1392.750977	89.124863
49.882447	5477.486667	1391.669922	96.763901
49.882447	5477.486667	1390.588867	106.944328
49.882447	5477.486667	1389.506836	221.026367
49.882447	5477.486667	1388.425781	101.170853
49.882447	5477.486667	1387.343750	110.875084
49.882447	5477.486667	1386.261719	189.682602
49.882447	5477.486667	1385.178711	131.819366
49.882447	5477.486667	1384.096680	102.996414
49.882447	5477.486667	1383.013672	90.325401
49.882447	5477.486667	1381.930664	132.375687
49.882447	5477.486667	1380.846680	55.170647
49.882447	5477.486667	1379.763672	92.426598
49.882447	5477.486667	1378.679688	126.450096
49.882447	5477.486667	1377.595703	66.542885
49.882447	5477.486667	1376.511719	100.363121
49.882447	5477.486667	1375.427734	61.699329
49.882447	5477.486667	1374.342773	53.192120
49.882447	5477.486667	1373.257813	44.393188
49.882447	5477.486667	1372.172852	9.802980
49.882447	5477.486667	1371.087891	53.444881
49.882447	5477.486667	1370.001953	131.189026
49.882447	5477.486667	1368.916992	13.064538
49.882447	5477.486667	1367.831055	16.666233
49.882447	5477.486667	1366.744141	58.902782
49.882447	5477.486667	1365.658203	-17.232399
49.882447	5477.486667	1364.571289	82.312599
49.882447	5477.486667	1363.484375	134.052750
49.882447	5477.486667	1362.397461	7.520736
49.882447	5477.486667	1361.310547	27.419125
49.882447	5477.486667	1360.222656	139.631805
49.882447	5477.486667	1359.135742	115.513893
49.882447	5477.486667	1358.047852	-54.232212
49.882447	5477.486667	1356.958984	83.675697
49.882447	5477.486667	1355.871094	93.790916
49.882447	5477.486667	1354.782227	-2.839368
49.882447	5477.486667	1353.693359	-24.110901
49.882447	5477.486667	1352.604492	114.604675
49.882447	5477.486667	1351.515625	89.502121
49.882447	5477.486667	1350.425781	129.702698
49.882447	5477.486667	1349.335938	62.744228
49.882447	5477.486667	1348.246094	159.945007
49.882447	5477.486667	1347.156250	101.145775
49.882447	5477.486667	1346.066406	163.482712
49.882447	5477.486667	1344.975586	104.356911
49.882447	5477.486667	1343.884766	169.771957
49.882447	5477.486667	1342.793945	147.710678
49.882447	5477.486667	1341.702148	247.968246
49.882447	5477.486667	1340.611328	157.186096
49.882447	5477.486667	1339.519531	128.054214
49.882447	5477.486667	1338.427734	100.397919
49.882447	5477.486667	1337.334961	199.957214
49.882447	5477.486667	1336.243164	125.188423
49.882447	5477.486667	1335.150391	77.317726
49.882447	5477.486667	1334.057617	62.777828
49.882447	5477.486667	1332.964844	102.165825
49.882447	5477.486667	1331.871094	19.121180
49.882447	5477.486667	1330.778320	85.189484
49.882447	5477.486667	1329.684570	-61.220394
49.882447	5477.486667	1328.590820	51.671871
49.882447	5477.486667	1327.496094	31.080959
49.882447	5477.486667	1326.402344	22.419594
49.882447	5477.486667	1325.307617	34.018570
49.882447	5477.486667	1324.212891	9.684067
49.882447	5477.486667	1323.117188	54.889572
49.882447	5477.486667	1322.022461	118.092194
49.882447	5477.486667	1320.926758	124.059784
49.882447	5477.486667	1319.831055	19.770861
49.882447	5477.486667	1318.735352	-8.602289
49.882447	5477.486667	1317.638672	45.554482
49.882447	5477.486667	1316.542969	-12.286171
49.882447	5477.486667	1315.446289	116.586555
49.882447	5477.486667	1314.349609	107.930428
49.882447	5477.486667	1313.251953	-7.627688
49.882447	5477.486667	1312.155273	100.769096
49.882447	5477.486667	1311.057617	-12.338056
49.882447	5477.486667	1309.959961	24.125744
49.882447	5477.486667	1308.862305	42.960464
49.882447	5477.486667	1307.763672	-2.012420
49.882447	5477.486667	1306.665039	7.596166
49.882447	5477.486667	1305.566406	31.311533
49.882447	5477.486667	1304.467773	-4.951359
49.882447	5477.486667	1303.369141	9.929481
49.882447	5477.486667	1302.269531	18.152756
49.882447	5477.486667	1301.169922	112.872643
49.882447	5477.486667	1300.070313	-38.477104
49.882447	5477.486667	1298.970703	-3.974200
49.882447	5477.486667	1297.870117	3.632571
49.882447	5477.486667	1296.769531	128.132370
49.882447	5477.486667	1295.668945	38.908417
49.882447	5477.486667	1294.568359	38.819275
49.882447	5477.486667	1293.466797	69.077843
49.882447	5477.486667	1292.366211	51.903587
49.882447	5477.486667	1291.264648	82.810776
49.882447	5477.486667	1290.162109	116.143097
49.882447	5477.486667	1289.060547	129.828476
49.882447	5477.486667	1287.958008	3.240573
49.882447	5477.486667	1286.855469	53.929508
49.882447	5477.486667	1285.752930	41.347343
49.882447	5477.486667	1284.650391	-15.908840
49.882447	5477.486667	1283.546875	-87.765503
49.882447	5477.486667	1282.444336	-11.820160
49.882447	5477.486667	1281.339844	25.175083
49.882447	5477.486667	1280.236328	1.839593
49.882447	5477.486667	1279.132813	13.774013
49.882447	5477.486667	1278.028320	67.951317
49.882447	5477.486667	1276.923828	-30.612858
49.882447	5477.486667	1275.819336	-114.317032
49.882447	5477.486667	1274.713867	9.690682
49.882447	5477.486667	1273.608398	3.378550
49.882447	5477.486667	1272.503906	43.912563
49.882447	5477.486667	1271.397461	-11.729527
49.882447	5477.486667	1270.291992	-36.271488
49.882447	5477.486667	1269.185547	39.796726
49.882447	5477.486667	1268.080078	-77.102486
49.882447	5477.486667	1266.972656	-55.663708
49.882447	5477.486667	1265.866211	-40.045551
49.882447	5477.486667	1264.759766	-52.632923
49.882447	5477.486667	1263.652344	20.210041
49.882447	5477.486667	1262.544922	-59.815041
49.882447	5477.486667	1261.436523	-0.611357
49.882447	5477.486667	1260.329102	-16.603733
49.882447	5477.486667	1259.220703	5.504317
49.882447	5477.486667	1258.112305	43.079197
49.882447	5477.486667	1257.003906	110.571747
49.882447	5477.486667	1255.895508	32.175732
49.882447	5477.486667	1254.786133	13.606872
49.882447	5477.486667	1253.676758	104.295036
49.882447	5477.486667	1252.567383	20.979153
49.882447	5477.486667	1251.458008	8.357867
49.882447	5477.486667	1250.347656	117.919861
49.882447	5477.486667	1249.237305	89.126968
49.882447	5477.486667	1248.126953	59.645134
49.882447	5477.486667	1247.016602	76.454239
49.882447	5477.486667	1245.905273	107.412369
49.882447	5477.486667	1244.793945	133.079742
49.882447	5477.486667	1243.682617	139.876190
49.882447	5477.486667	1242.571289	140.210312
49.882447	5477.486667	1241.459961	151.516617
49.882447	5477.486667	1240.347656	192.123886
49.882447	5477.486667	1239.235352	188.145538
49.882447	5477.486667	1238.123047	266.772430
49.882447	5477.486667	1237.009766	142.422684
49.882447	5477.486667	1235.897461	176.373550
49.882447	5477.486667	1234.784180	114.842751
49.882447	5477.486667	1233.670898	198.065277
49.882447	5477.486667	1232.556641	92.286942
49.882447	5477.486667	1231.443359	127.880653
49.882447	5477.486667	1230.329102	52.703064
49.882447	5477.486667	1229.214844	16.486496
49.882447	5477.486667	1228.099609	-20.699284
49.882447	5477.486667	1226.985352	-11.027010
49.882447	5477.486667	1225.870117	41.349964
49.882447	5477.486667	1224.754883	23.604139
49.882447	5477.486667	1223.639648	17.380215
49.882447	5477.486667	1222.523438	9.936680
49.882447	5477.486667	1221.408203	-78.568398
49.882447	5477.486667	1220.291992	-51.742214
49.882447	5477.486667	1219.174805	-8.333876
49.882447	5477.486667	1218.058594	-69.085953
49.882447	5477.486667	1216.941406	-65.420578
49.882447	5477.486667	1215.824219	-64.958954
49.882447	5477.486667	1214.707031	17.749027
49.882447	5477.486667	1213.589844	50.734791
49.882447	5477.486667	1212.471680	-41.738285
49.882447	5477.486667	1211.353516	-20.701315
49.882447	5477.486667	1210.235352	-79.916336
49.882447	5477.486667	1209.117188	-32.816532
49.882447	5477.486667	1207.998047	-23.577003
49.882447	5477.486667	1206.878906	28.944973
49.882447	5477.486667	1205.759766	-125.592232
49.882447	5477.486667	1204.640625	5.725610
49.882447	5477.486667	1203.520508	-76.329819
49.882447	5477.486667	1202.401367	-38.728619
49.882447	5477.486667	1201.281250	26.968401
49.882447	5477.486667	1200.160156	-43.311108
49.882447	5477.486667	1199.040039	-1.199098
49.882447	5477.486667	1197.918945	35.160114
49.882447	5477.486667	1196.797852	7.829912
49.882447	5477.486667	1195.676758	-23.120932
49.882447	5477.486667	1194.555664	-19.313091
49.882447	5477.486667	1193.433594	71.073929
49.882447	5477.486667	1192.311523	-7.247552
49.882447	5477.486667	1191.189453	26.803448
49.882447	5477.486667	1190.066406	31.158020
49.882447	5477.486667	1188.944336	-25.475430
49.882447	5477.486667	1187.821289	33.874485
49.882447	5477.486667	1186.698242	22.965494
49.882447	5477.486667	1185.574219	41.506031
49.882447	5477.486667	1184.451172	91.890549
49.882447	5477.486667	1183.327148	-24.027981
49.882447	5477.486667	1182.203125	24.117308
49.882447	5477.486667	1181.078125	-2.812083
49.882447	5477.486667	1179.954102	-27.694386
49.882447	5477.486667	1178.829102	-29.825329
49.882447	5477.486667	1177.704102	-37.161030
49.882447	5477.486667	1176.579102	30.216169
49.882447	5477.486667	1175.453125	-54.219685
49.882447	5477.486667	1174.327148	-74.018211
49.882447	5477.486667	1173.201172	19.423807
49.882447	5477.486667	1172.075195	-11.560451
49.882447	5477.486667	1170.949219	34.113918
49.882447	5477.486667	1169.822266	-40.875435
49.882447	5477.486667	1168.695313	-1.577387
49.882447	5477.486667	1167.568359	-71.616501
49.882447	5477.486667	1166.440430	-28.696251
49.882447	5477.486667	1165.313477	-10.455295
49.882447	5477.486667	1164.185547	-18.452602
49.882447	5477.486667	1163.057617	-77.713829
49.882447	5477.486667	1161.928711	-91.194168
49.882447	5477.486667	1160.800781	15.922101
49.882447	5477.486667	1159.671875	-32.803413
49.882447	5477.486667	1158.541992	-67.887871
49.882447	5477.486667	1157.413086	-9.357089
49.882447	5477.486667	1156.283203	-16.742493
49.882447	5477.486667	1155.154297	40.232101
49.882447	5477.486667	1154.023438	9.749566
49.882447	5477.486667	1152.893555	-18.961702
49.882447	5477.486667	1151.763672	-43.821491
49.882447	5477.486667	1150.632813	-44.272312
49.882447	5477.486667	1149.501953	-12.820744
49.882447	5477.486667	1148.370117	11.443730
49.882447	5477.486667	1147.239258	-46.719994
49.882447	5477.486667	1146.107422	11.689089
49.882447	5477.486667	1144.975586	-82.281868
49.882447	5477.486667	1143.843750	-61.070667
49.882447	5477.486667	1142.710938	-16.870314
49.882447	5477.486667	1141.578125	22.424454
49.882447	5477.486667	1140.445313	28.439077
49.882447	5477.486667	1139.312500	43.527027
49.882447	5477.486667	1138.178711	-48.381195
49.882447	5477.486667	1137.045898	57.548580
49.882447	5477.486667	1135.912109	-21.311859
49.882447	5477.486667	1134.777344	-18.017008
49.882447	5477.486667	1133.643555	-55.869644
49.882447	5477.486667	1132.508789	-13.566594
49.882447	5477.486667	1131.374023	103.487679
49.882447	5477.486667	1130.239258	39.437916
49.882447	5477.486667	1129.104492	-10.551625
49.882447	5477.486667	1127.968750	170.781326
49.882447	5477.486667	1126.833008	-108.726471
49.882447	5477.486667	1125.697266	21.179106
49.882447	5477.486667	1124.560547	97.099663
49.882447	5477.486667	1123.424805	88.530594
49.882447	5477.486667	1122.288086	74.820900
49.882447	5477.486667	1121.151367	40.917000
49.882447	5477.486667	1120.013672	-3.785819
49.882447	5477.486667	1118.876953	-12.691284
49.882447	5477.486667	1117.739258	133.775406
49.882447	5477.486667	1116.601563	0.152706
49.882447	5477.486667	1115.462891	104.699440
49.882447	5477.486667	1114.324219	85.926994
49.882447	5477.486667	1113.186523	-15.844647
49.882447	5477.486667	1112.046875	23.800381
49.882447	5477.486667	1110.908203	-35.876106
49.882447	5477.486667	1109.769531	14.490892
49.882447	5477.486667	1108.629883	27.130857
49.882447	5477.486667	1107.490234	60.281036
49.882447	5477.486667	1106.349609	24.093510
49.882447	5477.486667	1105.209961	85.149284
49.882447	5477.486667	1104.069336	92.972755
49.882447	5477.486667	1102.928711	52.899593
49.882447	5477.486667	1101.787109	160.016418
49.882447	5477.486667	1100.646484	78.483147
49.882447	5477.486667	1099.504883	20.825602
49.882447	5477.486667	1098.363281	64.538887
49.882447	5477.486667	1097.221680	240.457703
49.882447	5477.486667	1096.079102	197.003860
49.882447	5477.486667	1094.936523	172.035507
49.882447	5477.486667	1093.793945	116.836586
49.882447	5477.486667	1092.651367	172.359207
49.882447	5477.486667	1091.507813	44.386997
49.882447	5477.486667	1090.364258	75.376518
49.882447	5477.486667	1089.220703	58.095085
49.882447	5477.486667	1088.077148	82.965538
49.882447	5477.486667	1086.933594	35.447815
49.882447	5477.486667	1085.789063	16.618244
49.882447	5477.486667	1084.644531	56.420967
49.882447	5477.486667	1083.499023	39.742115
49.882447	5477.486667	1082.354492	68.322075
49.882447	5477.486667	1081.208984	-15.236809
49.882447	5477.486667	1080.063477	65.810661
49.882447	5477.486667	1078.917969	22.012564
49.882447	5477.486667	1077.771484	9.787724
49.882447	5477.486667	1076.625977	-27.380983
49.882447	5477.486667	1075.479492	45.130955
49.882447	5477.486667	1074.332031	-15.266814
49.882447	5477.486667	1073.185547	67.384445
49.882447	5477.486667	1072.038086	-15.947764
49.882447	5477.486667	1070.890625	-118.382462
49.882447	5477.486667	1069.743164	-80.590057
49.882447	5477.486667	1068.594727	49.314045
49.882447	5477.486667	1067.447266	54.436104
49.882447	5477.486667	1066.298828	80.990402
49.882447	5477.486667	1065.149414	67.237175
49.882447	5477.486667	1064.000977	90.548569
49.882447	5477.486667	1062.851563	73.998222
49.882447	5477.486667	1061.702148	66.912231
49.882447	5477.486667	1060.552734	146.743469
49.882447	5477.486667	1059.402344	77.161903
49.882447	5477.486667	1058.252930	30.412312
49.882447	5477.486667	1057.102539	21.064362
49.882447	5477.486667	1055.951172	103.969604
49.882447	5477.486667	1054.800781	40.310093
49.882447	5477.486667	1053.649414	39.106647
49.882447	5477.486667	1052.498047	88.782089
49.882447	5477.486667	1051.346680	133.946762
49.882447	5477.486667	1050.194336	147.077988
49.882447	5477.486667	1049.042969	129.794891
49.882447	5477.486667	1047.890625	172.435852
49.882447	5477.486667	1046.738281	114.955719
49.882447	5477.486667	1045.584961	42.686264
49.882447	5477.486667	1044.431641	68.389214
49.882447	5477.486667	1043.278320	86.798706
49.882447	5477.486667	1042.125000	251.464066
49.882447	5477.486667	1040.971680	175.468079
49.882447	5477.486667	1039.817383	233.718658
49.882447	5477.486667	1038.663086	236.024429
49.882447	5477.486667	1037.508789	181.536057
49.882447	5477.486667	1036.353516	160.227371
49.882447	5477.486667	1035.198242	229.369904
49.882447	5477.486667	1034.042969	104.286919
49.882447	5477.486667	1032.887695	169.652496
49.882447	5477.486667	1031.732422	72.856049
49.882447	5477.486667	1030.576172	46.389702
49.882447	5477.486667	1029.419922	71.691772
49.882447	5477.486667	1028.263672	54.278633
49.882447	5477.486667	1027.106445	93.390442
49.882447	5477.486667	1025.949219	46.724312
49.882447	5477.486667	1024.792969	59.802101
49.882447	5477.486667	1023.634766	143.289764
49.882447	5477.486667	1022.477539	-16.947117
49.882447	5477.486667	1021.319336	49.739674
49.882447	5477.486667	1020.161133	36.025562
49.882447	5477.486667	1019.002930	14.744306
49.882447	5477.486667	1017.843750	15.787639
49.882447	5477.486667	1016.684570	17.656191
49.882447	5477.486667	1015.525391	-24.818226
49.882447	5477.486667	1014.366211	137.802155
49.882447	5477.486667	1013.207031	-54.916496
49.882447	5477.486667	1012.046875	-47.418884
49.882447	5477.486667	1010.886719	-5.050051
49.882447	5477.486667	1009.726563	51.255939
49.882447	5477.486667	1008.565430	-33.856289
49.882447	5477.486667	1007.404297	31.934748
49.882447	5477.486667	1006.243164	-49.765465
49.882447	5477.486667	1005.082031	-5.913195
49.882447	5477.486667	1003.920898	5.098025
49.882447	5477.486667	1002.758789	-75.853806
49.882447	5477.486667	1001.596680	79.117279
49.882447	5477.486667	1000.433594	-40.060688
49.882447	5477.486667	999.271484	75.380554
49.882447	5477.486667	998.108398	-30.897514
49.882447	5477.486667	996.945313	-67.445938
49.882447	5477.486667	995.782227	-52.644073
49.882447	5477.486667	994.618164	-23.896669
49.882447	5477.486667	993.454102	19.587784
49.882447	5477.486667	992.290039	-33.570076
49.882447	5477.486667	991.125977	-24.689068
49.882447	5477.486667	989.960938	-35.899044
49.882447	5477.486667	988.796875	86.216034
49.882447	5477.486667	987.630859	-79.942688
49.882447	5477.486667	986.465820	-91.892014
49.882447	5477.486667	985.300781	108.178627
49.882447	5477.486667	984.134766	125.842499
49.882447	5477.486667	982.968750	-3.853493
49.882447	5477.486667	981.801758	88.365807
49.882447	5477.486667	980.635742	-78.318352
49.882447	5477.486667	979.468750	32.067623
49.882447	5477.486667	978.301758	65.146355
49.882447	5477.486667	977.133789	-59.176407
49.882447	5477.486667	975.966797	112.285988
49.882447	5477.486667	974.798828	16.812286
49.882447	5477.486667	973.630859	44.787819
49.882447	5477.486667	972.461914	-84.760834
49.882447	5477.486667	971.293945	65.166260
49.882447	5477.486667	970.125000	206.815811
49.882447	5477.486667	968.956055	7.919127
49.882447	5477.486667	967.786133	73.348236
49.882447	5477.486667	966.617188	51.481754
49.882447	5477.486667	965.447266	6.790492
49.882447	5477.486667	964.276367	68.460030
49.882447	5477.486667	963.106445	-13.022608
49.882447	5477.486667	961.935547	62.379303
49.882447	5477.486667	960.764648	159.965210
49.882447	5477.486667	959.593750	62.387241
49.882447	5477.486667	958.422852	17.677914
49.882447	5477.486667	957.250977	-30.287363
49.882447	5477.486667	956.079102	6.194926
49.882447	5477.486667	954.907227	47.373844
49.882447	5477.486667	953.734375	-58.628380
49.882447	5477.486667	952.562500	31.791813
49.882447	5477.486667	951.389648	-24.921459
49.882447	5477.486667	950.215820	13.991600
49.882447	5477.486667	949.042969	-96.624458
49.882447	5477.486667	947.869141	116.345108
49.882447	5477.486667	946.695313	10.706152
49.882447	5477.486667	945.521484	100.694794
49.882447	5477.486667	944.346680	-49.117058
49.882447	5477.486667	943.172852	-61.526665
49.882447	5477.486667	941.998047	-37.473022
49.882447	5477.486667	940.822266	11.195518
49.882447	5477.486667	939.647461	-30.934013
49.882447	5477.486667	938.471680	44.705971
49.882447	5477.486667	937.295898	100.669624
49.882447	5477.486667	936.119141	46.321072
49.882447	5477.486667	934.943359	141.556702
49.882447	5477.486667	933.766602	65.228989
49.882447	5477.486667	932.589844	-33.327393
49.882447	5477.486667	931.413086	61.848553
49.882447	5477.486667	930.235352	-56.160080
49.882447	5477.486667	929.057617	14.465785
49.882447	5477.486667	927.879883	33.651970
49.882447	5477.486667	926.702148	60.146809
49.882447	5477.486667	925.523438	62.179878
49.882447	5477.486667	924.344727	42.158890
49.882447	5477.486667	923.166016	68.650284
49.882447	5477.486667	921.987305	11.933404
49.882447	5477.486667	920.807617	87.347679
49.882447	5477.486667	919.627930	87.679001
49.882447	5477.486667	919.497070	99.167038
49.882447	5477.486667	918.331055	-65.148979
49.882447	5477.486667	917.165039	76.242981
49.882447	5477.486667	915.999023	53.782413
49.882447	5477.486667	914.833008	-34.664429
49.882447	5477.486667	913.666016	-81.535728
49.882447	5477.486667	912.499023	91.493980
49.882447	5477.486667	911.332031	142.317062
49.882447	5477.486667	910.165039	-9.584005
49.882447	5477.486667	908.997070	31.466593
49.882447	5477.486667	907.830078	113.997452
49.882447	5477.486667	906.661133	3.678784
49.882447	5477.486667	905.493164	52.013798
49.882447	5477.486667	904.325195	71.050140
49.882447	5477.486667	903.156250	9.583256
49.882447	5477.486667	901.987305	106.653717
49.882447	5477.486667	900.818359	42.761070
49.882447	5477.486667	899.648438	161.719559
49.882447	5477.486667	898.478516	114.897141
49.882447	5477.486667	897.308594	-90.294273
49.882447	5477.486667	896.138672	67.590416
49.882447	5477.486667	894.968750	106.058586
49.882447	5477.486667	893.797852	117.721573
49.882447	5477.486667	892.626953	100.160728
49.882447	5477.486667	891.456055	60.696655
49.882447	5477.486667	890.284180	74.788834
49.882447	5477.486667	889.113281	149.703232
49.882447	5477.486667	887.941406	-28.418831
49.882447	5477.486667	886.768555	19.727877
49.882447	5477.486667	885.596680	58.125374
49.882447	5477.486667	884.423828	137.836624
49.882447	5477.486667	883.250977	98.406624
49.882447	5477.486667	882.078125	-43.079391
49.882447	5477.486667	880.905273	155.655228
49.882447	5477.486667	879.731445	79.801399
49.882447	5477.486667	878.557617	118.127991
49.882447	5477.486667	877.383789	27.739536
49.882447	5477.486667	876.209961	68.485184
49.882447	5477.486667	875.035156	-9.723440
49.882447	5477.486667	873.860352	6.742391
49.882447	5477.486667	872.685547	-13.194431
49.882447	5477.486667	871.510742	-35.550716
49.882447	5477.486667	870.334961	29.411066
49.882447	5477.486667	869.159180	-169.956940
49.882447	5477.486667	867.983398	86.521057
49.882447	5477.486667	866.807617	-42.490337
49.882447	5477.486667	865.630859	-55.132015
49.882447	5477.486667	864.454102	33.987461
49.882447	5477.486667	863.277344	9.220911
49.882447	5477.486667	862.100586	13.524664
49.882447	5477.486667	860.922852	63.830338
49.882447	5477.486667	859.745117	14.860676
49.882447	5477.486667	858.567383	-5.046400
49.882447	5477.486667	857.389648	-66.083725
49.882447	5477.486667	856.210938	32.578251
49.882447	5477.486667	855.032227	179.575134
49.882447	5477.486667	853.853516	79.840767
49.882447	5477.486667	852.674805	16.413778
49.882447	5477.486667	851.495117	1.358333
49.882447	5477.486667	850.315430	29.811243
49.882447	5477.486667	849.135742	22.006182
49.882447	5477.486667	847.956055	98.757874
49.882447	5477.486667	846.775391	93.355347
49.882447	5477.486667	845.595703	-32.788891
49.882447	5477.486667	844.415039	-21.263805
49.882447	5477.486667	843.233398	-9.744178
49.882447	5477.486667	842.052734	-39.257679
49.882447	5477.486667	840.871094	30.167997
49.882447	5477.486667	839.689453	39.254868
49.882447	5477.486667	838.506836	-28.842817
49.882447	5477.486667	837.325195	-128.261368
49.882447	5477.486667	836.142578	95.418793
49.882447	5477.486667	834.959961	20.118153
49.882447	5477.486667	833.777344	-50.332687
49.882447	5477.486667	832.593750	62.359188
49.882447	5477.486667	831.410156	28.061066
49.882447	5477.486667	830.226563	37.127460
49.882447	5477.486667	829.042969	26.926317
49.882447	5477.486667	827.858398	-0.122986
49.882447	5477.486667	826.673828	-82.520592
49.882447	5477.486667	825.489258	-83.066780
49.882447	5477.486667	824.304688	-11.435833
49.882447	5477.486667	823.120117	79.408638
49.882447	5477.486667	821.934570	33.134308
49.882447	5477.486667	820.749023	59.011532
49.882447	5477.486667	819.562500	65.646210
49.882447	5477.486667	818.376953	-31.070366
49.882447	5477.486667	817.190430	-10.003081
49.882447	5477.486667	816.003906	-12.969466
49.882447	5477.486667	814.817383	-3.925313
49.882447	5477.486667	813.629883	132.392258
49.882447	5477.486667	812.442383	66.972359
49.882447	5477.486667	811.254883	11.180963
49.882447	5477.486667	810.067383	-128.586639
49.882447	5477.486667	808.878906	41.235161
49.882447	5477.486667	807.690430	-12.118194
49.882447	5477.486667	806.501953	-31.871050
49.882447	5477.486667	805.313477	46.701458
49.882447	5477.486667	804.124023	0.571684
49.882447	5477.486667	802.934570	11.988736
49.882447	5477.486667	801.745117	68.934074
49.882447	5477.486667	800.555664	-89.784172
49.882447	5477.486667	799.365234	-18.468576
49.882447	5477.486667	798.175781	-38.192932
49.882447	5477.486667	796.985352	-55.514763
49.882447	5477.486667	795.793945	-12.979220
49.882447	5477.486667	794.603516	-27.905962
49.882447	5477.486667	793.412109	7.427032
49.882447	5477.486667	792.220703	-84.058762
49.882447	5477.486667	791.028320	-22.416634
49.882447	5477.486667	789.836914	-85.160095
49.882447	5477.486667	788.644531	-35.498756
49.882447	5477.486667	787.452148	-69.527267
49.882447	5477.486667	786.258789	-120.271820
49.882447	5477.486667	785.066406	110.971855
49.882447	5477.486667	783.873047	29.153065
49.882447	5477.486667	782.679688	4.693530
49.882447	5477.486667	781.485352	142.632721
49.882447	5477.486667	780.291992	25.044304
49.882447	5477.486667	779.097656	-13.721546
49.882447	5477.486667	777.903320	-9.513134
49.882447	5477.486667	776.708008	35.257118
49.882447	5477.486667	775.512695	10.826592
49.882447	5477.486667	774.318359	91.350159
49.882447	5477.486667	773.122070	52.610783
49.882447	5477.486667	771.926758	54.416813
49.882447	5477.486667	770.730469	113.428978
49.882447	5477.486667	769.534180	62.793118
49.882447	5477.486667	768.337891	200.405212
49.882447	5477.486667	767.141602	87.837311
49.882447	5477.486667	765.944336	-15.157269
49.882447	5477.486667	764.747070	58.094654
49.882447	5477.486667	763.549805	-28.186464
49.882447	5477.486667	762.351563	171.185089
49.882447	5477.486667	761.154297	49.221432
49.882447	5477.486667	759.956055	-25.108112
49.882447	5477.486667	758.757813	86.127930
49.882447	5477.486667	757.558594	71.275421
49.882447	5477.486667	756.359375	4.120576
49.882447	5477.486667	755.160156	72.491997
49.882447	5477.486667	753.960938	131.328400
49.882447	5477.486667	752.761719	14.303124
49.882447	5477.486667	751.561523	11.359202
49.882447	5477.486667	750.361328	32.168335
49.882447	5477.486667	749.160156	98.088112
49.882447	5477.486667	747.959961	142.612320
49.882447	5477.486667	746.758789	23.332600
49.882447	5477.486667	745.557617	103.451912
49.882447	5477.486667	744.356445	136.083511
49.882447	5477.486667	743.154297	61.951702
49.882447	5477.486667	741.952148	170.473038
49.882447	5477.486667	740.750000	-10.340272
49.882447	5477.486667	739.547852	29.399450
49.882447	5477.486667	738.344727	163.932114
49.882447	5477.486667	737.142578	-73.641068
49.882447	5477.486667	735.939453	96.395325
49.882447	5477.486667	734.735352	48.435318
49.882447	5477.486667	733.532227	31.282520
49.882447	5477.486667	732.328125	66.227539
49.882447	5477.486667	731.124023	-10.103578
49.882447	5477.486667	729.918945	76.904068
49.882447	5477.486667	728.714844	73.956421
49.882447	5477.486667	727.509766	-96.960350
49.882447	5477.486667	726.303711	-9.989572
49.882447	5477.486667	725.098633	8.365233
49.882447	5477.486667	723.892578	17.255024
49.882447	5477.486667	722.686523	-30.590160
49.882447	5477.486667	721.480469	1.936601
49.882447	5477.486667	720.274414	-10.444006
49.882447	5477.486667	719.067383	-18.095106
49.882447	5477.486667	717.860352	21.493126
49.882447	5477.486667	716.653320	13.838004
49.882447	5477.486667	715.445313	-26.865978
49.882447	5477.486667	714.238281	45.742638
49.882447	5477.486667	713.030273	56.964958
49.882447	5477.486667	711.821289	-23.832584
49.882447	5477.486667	710.613281	1.551561
49.882447	5477.486667	709.404297	-39.109333
49.882447	5477.486667	708.195313	-86.827179
49.882447	5477.486667	706.986328	-75.591484
49.882447	5477.486667	705.776367	13.416245
49.882447	5477.486667	704.566406	74.109406
49.882447	5477.486667	703.356445	52.320496
49.882447	5477.486667	702.146484	112.978691
49.882447	5477.486667	700.935547	114.738686
49.882447	5477.486667	699.724609	74.117874
49.882447	5477.486667	698.513672	122.962173
49.882447	5477.486667	697.302734	-21.194735
49.882447	5477.486667	696.090820	-64.116386
49.882447	5477.486667	694.878906	-102.315407
49.882447	5477.486667	693.666992	-74.645348
49.882447	5477.486667	692.455078	-39.933369
49.882447	5477.486667	691.242188	91.152214
49.882447	5477.486667	690.029297	10.641490
49.882447	5477.486667	688.816406	144.009537
49.882447	5477.486667	687.602539	117.557510
49.882447	5477.486667	686.389648	34.740391
49.882447	5477.486667	685.175781	48.244766
49.882447	5477.486667	683.960938	33.566704
49.882447	5477.486667	682.747070	75.233688
49.882447	5477.486667	681.532227	23.002369
49.882447	5477.486667	680.317383	20.068605
49.882447	5477.486667	679.102539	82.823242
49.882447	5477.486667	677.886719	-65.545097
49.882447	5477.486667	676.670898	-2.801017
49.882447	5477.486667	675.455078	137.284958
49.882447	5477.486667	674.239258	185.893494
49.882447	5477.486667	673.022461	70.433617
49.882447	5477.486667	671.805664	37.027237
49.882447	5477.486667	670.588867	50.484886
49.882447	5477.486667	669.372070	110.776741
49.882447	5477.486667	668.154297	11.816031
49.882447	5477.486667	666.936523	79.111359
49.882447	5477.486667	665.718750	59.775978
49.882447	5477.486667	664.500977	31.086973
49.882447	5477.486667	663.282227	93.652863
49.882447	5477.486667	662.063477	114.087250
49.882447	5477.486667	660.844727	1.211635
49.882447	5477.486667	659.625000	38.021015
49.882447	5477.486667	658.405273	0.010098
49.882447	5477.486667	657.185547	34.464012
49.882447	5477.486667	655.965820	8.150065
49.882447	5477.486667	654.745117	42.584980
49.882447	5477.486667	653.525391	44.304825
49.882447	5477.486667	652.303711	158.109558
49.882447	5477.486667	651.083008	19.722614
49.882447	5477.486667	649.861328	49.451618
49.882447	5477.486667	648.640625	-25.848263
49.882447	5477.486667	647.417969	118.199821
49.882447	5477.486667	646.196289	136.220688
49.882447	5477.486667	644.973633	23.630598
49.882447	5477.486667	643.750977	16.012152
49.882447	5477.486667	642.528320	-24.241362
49.882447	5477.486667	641.305664	161.598068
49.882447	5477.486667	640.082031	-16.154774
49.882447	5477.486667	638.858398	64.763649
49.882447	5477.486667	637.634766	29.185335
49.882447	5477.486667	636.410156	-6.379845
49.882447	5477.486667	635.185547	-0.023837
49.882447	5477.486667	633.960938	-42.554771
49.882447	5477.486667	632.736328	26.638172
49.882447	5477.486667	631.510742	28.324129
49.882447	5477.486667	630.285156	57.922634
49.882447	5477.486667	629.059570	64.248856
49.882447	5477.486667	627.833984	142.653595
49.882447	5477.486667	626.607422	35.041000
49.882447	5477.486667	625.380859	-56.258255
49.882447	5477.486667	624.154297	29.087589
49.882447	5477.486667	622.927734	93.485504
49.882447	5477.486667	621.700195	-16.356676
49.882447	5477.486667	620.472656	45.696915
49.882447	5477.486667	619.245117	133.262222
49.882447	5477.486667	618.016602	-29.915802
49.882447	5477.486667	616.788086	97.078247
49.882447	5477.486667	615.559570	26.786577
49.882447	5477.486667	614.331055	-62.036182
49.882447	5477.486667	613.101563	-113.713699
49.882447	5477.486667	611.872070	-35.515121
49.882447	5477.486667	610.642578	31.056105
49.882447	5477.486667	609.413086	-4.390176
49.882447	5477.486667	608.182617	27.380726
49.882447	5477.486667	606.952148	61.452442
49.882447	5477.486667	605.721680	120.988037
49.882447	5477.486667	604.491211	-41.832092
49.882447	5477.486667	603.259766	10.748715
49.882447	5477.486667	602.028320	-40.866814
49.882447	5477.486667	600.796875	106.578384
49.882447	5477.486667	599.564453	-111.644646
49.882447	5477.486667	598.332031	5.672999
49.882447	5477.486667	597.099609	9.603312
49.882447	5477.486667	595.867188	57.466103
49.882447	5477.486667	594.633789	75.250435
49.882447	5477.486667	593.400391	-115.008873
49.882447	5477.486667	592.166992	-101.822807
49.882447	5477.486667	590.933594	8.395997
49.882447	5477.486667	589.699219	-73.165146
49.882447	5477.486667	588.464844	76.257103
49.882447	5477.486667	587.230469	91.689590
49.882447	5477.486667	585.995117	-24.473364
49.882447	5477.486667	584.760742	-89.812691
49.882447	5477.486667	583.525391	20.246643
49.882447	5477.486667	582.289063	37.974155
49.882447	5477.486667	581.053711	-27.345110
49.882447	5477.486667	579.817383	-11.926655
49.882447	5477.486667	578.581055	-38.018097
49.882447	5477.486667	577.343750	-36.440216
49.882447	5477.486667	576.107422	13.530532
49.882447	5477.486667	574.870117	56.564857
49.882447	5477.486667	573.631836	28.166164
49.882447	5477.486667	572.394531	8.988905
49.882447	5477.486667	571.156250	54.290703
49.882447	5477.486667	569.917969	-15.536889
49.882447	5477.486667	568.679688	108.000748
49.882447	5477.486667	567.440430	116.425102
49.882447	5477.486667	566.202148	101.835968
49.882447	5477.486667	564.961914	9.044430
49.882447	5477.486667	563.722656	91.065063
49.882447	5477.486667	562.482422	51.190617
49.882447	5477.486667	561.243164	34.317036
49.882447	5477.486667	560.001953	-51.498280
49.882447	5477.486667	558.761719	-52.264896
49.882447	5477.486667	557.520508	54.935642
49.882447	5477.486667	556.279297	1.315722
49.882447	5477.486667	555.038086	-45.395672
49.882447	5477.486667	553.795898	50.246273
49.882447	5477.486667	552.554688	47.148041
49.882447	5477.486667	551.311523	80.764198
49.882447	5477.486667	550.069336	43.240250
49.882447	5477.486667	548.826172	47.017330
49.882447	5477.486667	547.583984	50.789536
49.882447	5477.486667	546.339844	91.241631
49.882447	5477.486667	545.096680	-12.742563
49.882447	5477.486667	543.852539	139.998764
49.882447	5477.486667	542.608398	-46.445755
49.882447	5477.486667	541.364258	60.413853
49.882447	5477.486667	540.119141	80.191071
49.882447	5477.486667	538.875000	54.159378
49.882447	5477.486667	537.628906	78.501534
49.882447	5477.486667	536.383789	41.030354
49.882447	5477.486667	535.137695	95.107094
49.882447	5477.486667	533.892578	78.232529
49.882447	5477.486667	532.645508	81.948532
49.882447	5477.486667	531.399414	49.068676
49.882447	5477.486667	530.152344	-54.679596
49.882447	5477.486667	528.905273	1.628539
49.882447	5477.486667	527.658203	48.767239
49.882447	5477.486667	526.410156	50.183212
49.882447	5477.486667	525.163086	28.750326
49.882447	5477.486667	523.914063	-93.171745
49.882447	5477.486667	522.666016	63.539955
49.882447	5477.486667	521.416992	76.352081
49.882447	5477.486667	520.167969	-63.772671
49.882447	5477.486667	518.918945	97.385147
49.882447	5477.486667	517.669922	-8.468415
49.882447	5477.486667	516.419922	166.287140
49.882447	5477.486667	515.169922	53.615253
49.882447	5477.486667	513.919922	89.191666
49.882447	5477.486667	512.668945	79.157646
49.882447	5477.486667	511.417969	87.356506
49.882447	5477.486667	510.166992	116.055550
49.882447	5477.486667	508.916016	28.555531
49.882447	5477.486667	507.664063	-22.469103
49.882447	5477.486667	506.412109	145.127457
49.882447	5477.486667	505.160156	-72.101830
49.882447	5477.486667	503.907227	93.149048
49.882447	5477.486667	502.655273	39.862934
49.882447	5477.486667	501.402344	154.957306
49.882447	5477.486667	500.148438	47.080574
49.882447	5477.486667	498.895508	175.760986
49.882447	5477.486667	497.641602	-68.503418
49.882447	5477.486667	496.387695	1.034750
49.882447	5477.486667	495.132813	-4.460853
49.882447	5477.486667	493.878906	21.852749
49.882447	5477.486667	492.624023	-44.990063
49.882447	5477.486667	491.368164	49.449383
49.882447	5477.486667	490.113281	46.201817
49.882447	5477.486667	488.857422	-63.751625
49.882447	5477.486667	487.601563	-69.252403
49.882447	5477.486667	486.344727	147.634583
49.882447	5477.486667	485.088867	33.179344
49.882447	5477.486667	483.832031	38.988724
49.882447	5477.486667	482.575195	-11.904233
49.882447	5477.486667	481.317383	-26.503159
49.882447	5477.486667	480.059570	1.969632
49.882447	5477.486667	478.801758	5.495033
49.882447	5477.486667	477.543945	-113.342300
49.882447	5477.486667	476.285156	-39.576778
49.882447	5477.486667	475.027344	-135.714722
49.882447	5477.486667	473.767578	30.853868
49.882447	5477.486667	472.508789	-49.420841
49.882447	5477.486667	471.249023	-48.183086
49.882447	5477.486667	469.989258	57.143654
49.882447	5477.486667	468.729492	8.572971
49.882447	5477.486667	467.469727	-69.387398
49.882447	5477.486667	466.208984	74.303757
49.882447	5477.486667	464.948242	102.617256
49.882447	5477.486667	463.686523	94.744682
49.882447	5477.486667	462.425781	39.409519
49.882447	5477.486667	461.164063	-4.610199
49.882447	5477.486667	459.901367	7.858270
49.882447	5477.486667	458.639648	4.505698
49.882447	5477.486667	457.376953	21.470444
49.882447	5477.486667	456.114258	101.633240
49.882447	5477.486667	454.851563	26.016432
49.882447	5477.486667	453.587891	101.616974
49.882447	5477.486667	452.324219	102.726486
49.882447	5477.486667	451.060547	51.949585
49.882447	5477.486667	449.796875	-19.108631
49.882447	5477.486667	448.532227	-6.721757
49.882447	5477.486667	447.267578	-16.889423
49.882447	5477.486667	446.002930	47.310837
49.882447	5477.486667	444.737305	-55.259342
49.882447	5477.486667	443.471680	-151.035141
49.882447	5477.486667	442.206055	7.721089
49.882447	5477.486667	440.940430	83.087311
49.882447	5477.486667	439.673828	77.368233
49.882447	5477.486667	438.407227	28.878923
49.882447	5477.486667	437.140625	65.911697
49.882447	5477.486667	435.873047	147.914536
49.882447	5477.486667	434.605469	72.423454
49.882447	5477.486667	433.337891	5.950970
49.882447	5477.486667	432.070313	42.919983
49.882447	5477.486667	430.801758	-14.545300
49.882447	5477.486667	429.533203	22.392170
49.882447	5477.486667	428.264648	3.132578
49.882447	5477.486667	426.996094	116.406174
49.882447	5477.486667	425.726563	126.309769
49.882447	5477.486667	424.457031	89.045410
49.882447	5477.486667	423.186523	175.254791
49.882447	5477.486667	421.916992	36.975338
49.882447	5477.486667	420.646484	123.136169
49.882447	5477.486667	419.375977	177.839966
49.882447	5477.486667	418.104492	169.704697
49.882447	5477.486667	416.833008	85.317184
49.882447	5477.486667	415.561523	-75.273544
49.882447	5477.486667	414.290039	86.967148
49.882447	5477.486667	413.017578	-35.483715
49.882447	5477.486667	411.746094	54.954590
49.882447	5477.486667	410.472656	-0.262911
49.882447	5477.486667	409.200195	-21.876774
49.882447	5477.486667	407.926758	63.978382
49.882447	5477.486667	406.653320	143.065903
49.882447	5477.486667	405.379883	101.247276
49.882447	5477.486667	404.105469	81.806999
49.882447	5477.486667	402.831055	4.193976
49.882447	5477.486667	401.556641	101.055801
49.882447	5477.486667	400.282227	94.996101
49.882447	5477.486667	399.006836	44.208473
49.882447	5477.486667	397.731445	102.948967
49.882447	5477.486667	396.456055	-39.475689
49.882447	5477.486667	395.179688	52.733742
49.882447	5477.486667	393.903320	28.731026
49.882447	5477.486667	392.626953	111.914894
49.882447	5477.486667	391.350586	219.603271
49.882447	5477.486667	390.073242	52.656094
49.882447	5477.486667	388.795898	175.891678
49.882447	5477.486667	387.518555	109.393044
49.882447	5477.486667	386.240234	161.133835
49.882447	5477.486667	384.961914	210.599594
49.882447	5477.486667	383.683594	130.690948
49.882447	5477.486667	382.405273	119.903725
49.882447	5477.486667	381.125977	-15.719727
49.882447	5477.486667	379.846680	131.696075
49.882447	5477.486667	378.567383	18.359062
49.882447	5477.486667	377.287109	85.465317
49.882447	5477.486667	376.006836	96.843452
49.882447	5477.486667	374.726563	-34.302288
49.882447	5477.486667	373.446289	-9.601178
49.882447	5477.486667	372.165039	28.412987
49.882447	5477.486667	370.883789	86.407227
49.882447	5477.486667	369.602539	57.591339
49.882447	5477.486667	368.320313	-15.723363
49.882447	5477.486667	367.039063	17.694183
49.882447	5477.486667	365.755859	-108.996010
49.882447	5477.486667	364.473633	62.161827
49.882447	5477.486667	363.190430	104.330605
49.882447	5477.486667	361.907227	-22.394156
49.882447	5477.486667	360.624023	126.320297
49.882447	5477.486667	359.340820	26.223917
49.882447	5477.486667	358.056641	17.160168
49.882447	5477.486667	356.772461	121.266609
49.882447	5477.486667	355.487305	-69.862419
49.882447	5477.486667	354.202148	-25.764872
49.882447	5477.486667	352.916992	-137.000931
49.882447	5477.486667	351.631836	117.696594
49.882447	5477.486667	350.346680	52.958397
49.882447	5477.486667	349.060547	136.727951
49.882447	5477.486667	347.774414	140.631912
49.882447	5477.486667	346.487305	13.756448
49.882447	5477.486667	345.200195	-6.773953
49.882447	5477.486667	343.913086	54.607098
49.882447	5477.486667	342.625977	-50.161713
49.882447	5477.486667	341.338867	26.603403
49.882447	5477.486667	340.050781	87.790604
49.882447	5477.486667	338.762695	0.636483
49.882447	5477.486667	337.473633	-53.346889
49.882447	5477.486667	336.184570	1.025110
49.882447	5477.486667	334.895508	50.896366
49.882447	5477.486667	333.606445	16.674166
49.882447	5477.486667	332.317383	8.936188
49.882447	5477.486667	331.027344	34.292072
49.882447	5477.486667	329.736328	15.385482
49.882447	5477.486667	328.446289	-38.915665
49.882447	5477.486667	327.155273	-93.256805
49.882447	5477.486667	325.864258	88.626656
49.882447	5477.486667	324.573242	29.739016
49.882447	5477.486667	323.281250	56.886269
49.882447	5477.486667	321.989258	46.441963
49.882447	5477.486667	320.697266	51.376381
49.882447	5477.486667	319.405273	-3.314109
49.882447	5477.486667	318.112305	-64.670258
49.882447	5477.486667	316.819336	-26.861393
49.882447	5477.486667	315.526367	-28.819687
49.882447	5477.486667	314.232422	44.070839
49.882447	5477.486667	312.938477	81.599434
49.882447	5477.486667	311.644531	101.409996
49.882447	5477.486667	310.349609	169.577972
49.882447	5477.486667	309.054688	-4.566061
49.882447	5477.486667	307.759766	78.836807
49.882447	5477.486667	306.464844	58.676712
49.882447	5477.486667	305.168945	36.233532
49.882447	5477.486667	303.873047	-28.088047
49.882447	5477.486667	302.577148	32.892296
49.882447	5477.486667	301.281250	-106.349754
49.882447	5477.486667	299.984375	2.793423
