#X		#Y		#Wave		#Intensity
442.729787	6131.191667	1999.946289	-35.348392
442.729787	6131.191667	1998.981445	-33.287113
442.729787	6131.191667	1998.017578	-11.109581
442.729787	6131.191667	1997.052734	11.109653
442.729787	6131.191667	1996.088867	-137.582230
442.729787	6131.191667	1995.124023	73.022652
442.729787	6131.191667	1994.159180	-16.083155
442.729787	6131.191667	1993.193359	43.468380
442.729787	6131.191667	1992.228516	-62.828773
442.729787	6131.191667	1991.262695	-40.320072
442.729787	6131.191667	1990.296875	229.720169
442.729787	6131.191667	1989.331055	205.250427
442.729787	6131.191667	1988.365234	27.451763
442.729787	6131.191667	1987.398438	-174.970612
442.729787	6131.191667	1986.432617	117.344749
442.729787	6131.191667	1985.465820	-114.596481
442.729787	6131.191667	1984.499023	-54.691051
442.729787	6131.191667	1983.532227	7.709865
442.729787	6131.191667	1982.565430	-169.576950
442.729787	6131.191667	1981.597656	105.396088
442.729787	6131.191667	1980.629883	103.635338
442.729787	6131.191667	1979.662109	119.209496
442.729787	6131.191667	1978.694336	112.595467
442.729787	6131.191667	1977.726563	145.528931
442.729787	6131.191667	1976.758789	-41.202667
442.729787	6131.191667	1975.790039	73.273277
442.729787	6131.191667	1974.821289	227.227432
442.729787	6131.191667	1973.852539	67.842712
442.729787	6131.191667	1972.883789	204.553986
442.729787	6131.191667	1971.915039	-45.938274
442.729787	6131.191667	1970.945313	48.899849
442.729787	6131.191667	1969.975586	-132.370193
442.729787	6131.191667	1969.005859	98.087769
442.729787	6131.191667	1968.036133	94.381447
442.729787	6131.191667	1967.066406	-12.771151
442.729787	6131.191667	1966.096680	67.370461
442.729787	6131.191667	1965.125977	81.015175
442.729787	6131.191667	1964.155273	289.226135
442.729787	6131.191667	1963.184570	-86.116585
442.729787	6131.191667	1962.213867	6.416962
442.729787	6131.191667	1961.242188	160.474243
442.729787	6131.191667	1960.271484	107.806877
442.729787	6131.191667	1959.299805	52.727207
442.729787	6131.191667	1958.328125	337.145782
442.729787	6131.191667	1957.356445	166.512039
442.729787	6131.191667	1956.384766	116.453094
442.729787	6131.191667	1955.412109	22.186909
442.729787	6131.191667	1954.439453	-153.131958
442.729787	6131.191667	1953.467773	25.519100
442.729787	6131.191667	1952.495117	182.013351
442.729787	6131.191667	1951.521484	63.335407
442.729787	6131.191667	1950.548828	-38.083038
442.729787	6131.191667	1949.575195	44.731987
442.729787	6131.191667	1948.601563	176.640930
442.729787	6131.191667	1947.627930	4.132221
442.729787	6131.191667	1946.654297	170.398422
442.729787	6131.191667	1945.680664	150.130096
442.729787	6131.191667	1944.706055	-46.757309
442.729787	6131.191667	1943.732422	166.083572
442.729787	6131.191667	1942.757813	224.354538
442.729787	6131.191667	1941.783203	-6.716949
442.729787	6131.191667	1940.807617	-34.210537
442.729787	6131.191667	1939.833008	-76.386398
442.729787	6131.191667	1938.857422	187.795273
442.729787	6131.191667	1937.881836	-136.153000
442.729787	6131.191667	1936.906250	-63.114822
442.729787	6131.191667	1935.930664	269.529053
442.729787	6131.191667	1934.955078	207.799316
442.729787	6131.191667	1933.978516	13.889814
442.729787	6131.191667	1933.001953	-8.587358
442.729787	6131.191667	1932.025391	147.614044
442.729787	6131.191667	1931.048828	-210.103516
442.729787	6131.191667	1930.072266	-78.376579
442.729787	6131.191667	1929.094727	204.961395
442.729787	6131.191667	1928.118164	-69.403725
442.729787	6131.191667	1927.140625	13.329788
442.729787	6131.191667	1926.163086	-43.313900
442.729787	6131.191667	1925.184570	2.722401
442.729787	6131.191667	1924.207031	-39.233852
442.729787	6131.191667	1923.228516	143.610291
442.729787	6131.191667	1922.250000	140.727234
442.729787	6131.191667	1921.271484	59.683529
442.729787	6131.191667	1920.292969	-155.640793
442.729787	6131.191667	1919.314453	-121.853973
442.729787	6131.191667	1918.334961	163.344330
442.729787	6131.191667	1917.355469	-5.522675
442.729787	6131.191667	1916.375977	-20.603279
442.729787	6131.191667	1915.396484	-72.280136
442.729787	6131.191667	1914.416992	-16.620457
442.729787	6131.191667	1913.436523	-41.470402
442.729787	6131.191667	1912.457031	-117.525848
442.729787	6131.191667	1911.476563	77.041245
442.729787	6131.191667	1910.496094	-11.216589
442.729787	6131.191667	1909.515625	-16.597994
442.729787	6131.191667	1908.534180	104.709038
442.729787	6131.191667	1907.552734	-56.626701
442.729787	6131.191667	1906.572266	118.197433
442.729787	6131.191667	1905.590820	37.249577
442.729787	6131.191667	1904.608398	31.790627
442.729787	6131.191667	1903.626953	62.831978
442.729787	6131.191667	1902.644531	-120.330765
442.729787	6131.191667	1901.663086	-21.176359
442.729787	6131.191667	1900.680664	-245.651459
442.729787	6131.191667	1899.698242	-85.740440
442.729787	6131.191667	1898.714844	-159.380447
442.729787	6131.191667	1897.732422	-133.320587
442.729787	6131.191667	1896.749023	19.120296
442.729787	6131.191667	1895.765625	1.339736
442.729787	6131.191667	1894.782227	80.747147
442.729787	6131.191667	1893.798828	-150.900391
442.729787	6131.191667	1892.814453	23.195215
442.729787	6131.191667	1891.831055	-31.105469
442.729787	6131.191667	1890.846680	169.561066
442.729787	6131.191667	1889.862305	103.058365
442.729787	6131.191667	1888.877930	-164.923859
442.729787	6131.191667	1887.892578	81.680916
442.729787	6131.191667	1886.908203	22.424002
442.729787	6131.191667	1885.922852	99.016312
442.729787	6131.191667	1884.937500	-117.947998
442.729787	6131.191667	1883.952148	-157.828979
442.729787	6131.191667	1882.965820	83.536461
442.729787	6131.191667	1881.980469	-77.644791
442.729787	6131.191667	1880.994141	42.358421
442.729787	6131.191667	1880.007813	19.304497
442.729787	6131.191667	1879.021484	102.830475
442.729787	6131.191667	1878.035156	4.607577
442.729787	6131.191667	1877.047852	-103.304787
442.729787	6131.191667	1876.061523	86.633728
442.729787	6131.191667	1875.074219	90.039635
442.729787	6131.191667	1874.086914	11.104196
442.729787	6131.191667	1873.098633	234.676743
442.729787	6131.191667	1872.111328	-95.985275
442.729787	6131.191667	1871.123047	8.899429
442.729787	6131.191667	1870.135742	-21.747459
442.729787	6131.191667	1869.147461	-91.119408
442.729787	6131.191667	1868.158203	93.366844
442.729787	6131.191667	1867.169922	35.999470
442.729787	6131.191667	1866.180664	116.376762
442.729787	6131.191667	1865.192383	-11.140683
442.729787	6131.191667	1864.203125	88.452515
442.729787	6131.191667	1863.213867	-116.403839
442.729787	6131.191667	1862.223633	142.479050
442.729787	6131.191667	1861.234375	164.578384
442.729787	6131.191667	1860.244141	-86.190651
442.729787	6131.191667	1859.253906	44.466469
442.729787	6131.191667	1858.263672	1.266014
442.729787	6131.191667	1857.273438	151.063919
442.729787	6131.191667	1856.282227	218.730392
442.729787	6131.191667	1855.291992	127.131889
442.729787	6131.191667	1854.300781	216.380356
442.729787	6131.191667	1853.309570	206.689575
442.729787	6131.191667	1852.317383	-24.830193
442.729787	6131.191667	1851.326172	105.214317
442.729787	6131.191667	1850.333984	-3.408094
442.729787	6131.191667	1849.342773	121.658936
442.729787	6131.191667	1848.350586	68.370560
442.729787	6131.191667	1847.357422	241.431259
442.729787	6131.191667	1846.365234	-47.944839
442.729787	6131.191667	1845.372070	-9.854645
442.729787	6131.191667	1844.379883	112.413254
442.729787	6131.191667	1843.386719	-68.649361
442.729787	6131.191667	1842.393555	-110.146423
442.729787	6131.191667	1841.399414	149.018173
442.729787	6131.191667	1840.406250	-36.930042
442.729787	6131.191667	1839.412109	70.509109
442.729787	6131.191667	1838.417969	35.997566
442.729787	6131.191667	1837.423828	-128.368347
442.729787	6131.191667	1836.429688	132.669830
442.729787	6131.191667	1835.434570	143.641479
442.729787	6131.191667	1834.440430	-261.077698
442.729787	6131.191667	1833.445313	381.578247
442.729787	6131.191667	1832.450195	89.717896
442.729787	6131.191667	1831.454102	-110.854103
442.729787	6131.191667	1830.458984	204.736435
442.729787	6131.191667	1829.462891	184.111694
442.729787	6131.191667	1828.466797	151.435226
442.729787	6131.191667	1827.470703	-183.605728
442.729787	6131.191667	1826.474609	-60.399120
442.729787	6131.191667	1825.478516	26.722757
442.729787	6131.191667	1824.481445	147.315140
442.729787	6131.191667	1823.484375	1.675730
442.729787	6131.191667	1822.487305	57.381435
442.729787	6131.191667	1821.490234	72.259193
442.729787	6131.191667	1820.493164	125.406456
442.729787	6131.191667	1819.495117	144.925079
442.729787	6131.191667	1818.498047	-60.777004
442.729787	6131.191667	1817.500000	128.670105
442.729787	6131.191667	1816.500977	-0.470284
442.729787	6131.191667	1815.502930	37.948452
442.729787	6131.191667	1814.504883	191.173599
442.729787	6131.191667	1813.505859	215.048874
442.729787	6131.191667	1812.506836	320.195953
442.729787	6131.191667	1811.507813	-57.963367
442.729787	6131.191667	1810.508789	-151.441956
442.729787	6131.191667	1809.508789	-127.788841
442.729787	6131.191667	1808.508789	99.001709
442.729787	6131.191667	1807.508789	-133.294022
442.729787	6131.191667	1806.508789	-78.789391
442.729787	6131.191667	1805.508789	95.097549
442.729787	6131.191667	1804.508789	41.902855
442.729787	6131.191667	1803.507813	-137.931641
442.729787	6131.191667	1802.506836	-55.084312
442.729787	6131.191667	1801.505859	158.980911
442.729787	6131.191667	1800.504883	162.832382
442.729787	6131.191667	1799.502930	-62.510201
442.729787	6131.191667	1798.501953	46.239773
442.729787	6131.191667	1797.500000	90.459625
442.729787	6131.191667	1796.498047	-139.714142
442.729787	6131.191667	1795.496094	6.938198
442.729787	6131.191667	1794.493164	72.392174
442.729787	6131.191667	1793.491211	-100.636253
442.729787	6131.191667	1792.488281	-63.923656
442.729787	6131.191667	1791.485352	75.177559
442.729787	6131.191667	1790.482422	209.394012
442.729787	6131.191667	1789.478516	141.002716
442.729787	6131.191667	1788.475586	146.408768
442.729787	6131.191667	1787.471680	85.064522
442.729787	6131.191667	1786.467773	-231.069595
442.729787	6131.191667	1785.463867	-106.787399
442.729787	6131.191667	1784.459961	-87.334908
442.729787	6131.191667	1783.455078	-44.169792
442.729787	6131.191667	1782.450195	48.870819
442.729787	6131.191667	1781.445313	125.158157
442.729787	6131.191667	1780.440430	-124.447289
442.729787	6131.191667	1779.435547	80.103462
442.729787	6131.191667	1778.429688	70.555573
442.729787	6131.191667	1777.424805	-112.550606
442.729787	6131.191667	1776.418945	108.308273
442.729787	6131.191667	1775.413086	77.178391
442.729787	6131.191667	1774.406250	-18.149397
442.729787	6131.191667	1773.400391	-68.375420
442.729787	6131.191667	1772.393555	-30.800047
442.729787	6131.191667	1771.386719	184.747223
442.729787	6131.191667	1770.379883	155.667969
442.729787	6131.191667	1769.373047	-46.703598
442.729787	6131.191667	1768.365234	87.847878
442.729787	6131.191667	1767.358398	139.263474
442.729787	6131.191667	1766.350586	62.511662
442.729787	6131.191667	1765.342773	54.491871
442.729787	6131.191667	1764.334961	27.443630
442.729787	6131.191667	1763.326172	40.630852
442.729787	6131.191667	1762.318359	51.386845
442.729787	6131.191667	1761.309570	-222.275528
442.729787	6131.191667	1760.300781	27.667501
442.729787	6131.191667	1759.291016	90.323410
442.729787	6131.191667	1758.282227	148.163681
442.729787	6131.191667	1757.272461	-35.596111
442.729787	6131.191667	1756.262695	7.908875
442.729787	6131.191667	1755.252930	119.972939
442.729787	6131.191667	1754.243164	35.524151
442.729787	6131.191667	1753.233398	0.730844
442.729787	6131.191667	1752.222656	211.888626
442.729787	6131.191667	1751.211914	120.183952
442.729787	6131.191667	1750.201172	-122.878891
442.729787	6131.191667	1749.190430	-18.385445
442.729787	6131.191667	1748.179688	24.554325
442.729787	6131.191667	1747.167969	-140.553268
442.729787	6131.191667	1746.156250	-74.107399
442.729787	6131.191667	1745.144531	-50.266823
442.729787	6131.191667	1744.132813	79.790169
442.729787	6131.191667	1743.121094	108.198776
442.729787	6131.191667	1742.108398	-215.252686
442.729787	6131.191667	1741.095703	105.780060
442.729787	6131.191667	1740.083008	-163.380249
442.729787	6131.191667	1739.070313	263.589111
442.729787	6131.191667	1738.057617	-22.124893
442.729787	6131.191667	1737.043945	24.782454
442.729787	6131.191667	1736.030273	-237.314972
442.729787	6131.191667	1735.016602	73.580399
442.729787	6131.191667	1734.002930	-80.097366
442.729787	6131.191667	1732.989258	-54.644646
442.729787	6131.191667	1731.974609	46.142475
442.729787	6131.191667	1730.959961	-100.542511
442.729787	6131.191667	1729.945313	106.108536
442.729787	6131.191667	1728.930664	-144.260315
442.729787	6131.191667	1727.916016	-126.155373
442.729787	6131.191667	1726.900391	-44.553577
442.729787	6131.191667	1725.885742	-179.569794
442.729787	6131.191667	1724.870117	-43.963150
442.729787	6131.191667	1723.853516	-75.521332
442.729787	6131.191667	1722.837891	172.830551
442.729787	6131.191667	1721.822266	0.039332
442.729787	6131.191667	1720.805664	198.793839
442.729787	6131.191667	1719.789063	-103.349548
442.729787	6131.191667	1718.772461	-132.754532
442.729787	6131.191667	1717.754883	28.159262
442.729787	6131.191667	1716.738281	-74.191956
442.729787	6131.191667	1715.720703	-141.319962
442.729787	6131.191667	1714.703125	-32.306870
442.729787	6131.191667	1713.685547	22.609671
442.729787	6131.191667	1712.667969	49.285740
442.729787	6131.191667	1711.649414	26.603247
442.729787	6131.191667	1710.630859	100.113098
442.729787	6131.191667	1709.612305	114.890137
442.729787	6131.191667	1708.593750	-46.337460
442.729787	6131.191667	1707.575195	-177.049515
442.729787	6131.191667	1706.555664	116.719719
442.729787	6131.191667	1705.536133	-23.441551
442.729787	6131.191667	1704.516602	9.890191
442.729787	6131.191667	1703.497070	-48.238499
442.729787	6131.191667	1702.477539	83.432808
442.729787	6131.191667	1701.457031	-21.631243
442.729787	6131.191667	1700.437500	25.582474
442.729787	6131.191667	1699.416992	16.523058
442.729787	6131.191667	1698.395508	82.353218
442.729787	6131.191667	1697.375000	199.640961
442.729787	6131.191667	1696.354492	14.897759
442.729787	6131.191667	1695.333008	118.034409
442.729787	6131.191667	1694.311523	69.012558
442.729787	6131.191667	1693.290039	-75.936630
442.729787	6131.191667	1692.267578	17.698164
442.729787	6131.191667	1691.246094	186.109299
442.729787	6131.191667	1690.223633	78.528664
442.729787	6131.191667	1689.201172	188.355530
442.729787	6131.191667	1688.178711	19.995888
442.729787	6131.191667	1687.155273	139.072311
442.729787	6131.191667	1686.132813	166.974655
442.729787	6131.191667	1685.109375	330.304718
442.729787	6131.191667	1684.085938	208.637680
442.729787	6131.191667	1683.062500	30.957701
442.729787	6131.191667	1682.039063	245.503799
442.729787	6131.191667	1681.014648	270.881836
442.729787	6131.191667	1679.990234	401.237396
442.729787	6131.191667	1678.965820	375.205078
442.729787	6131.191667	1677.941406	321.171295
442.729787	6131.191667	1676.916992	213.498199
442.729787	6131.191667	1675.891602	448.599182
442.729787	6131.191667	1674.866211	268.625824
442.729787	6131.191667	1673.840820	384.717560
442.729787	6131.191667	1672.815430	577.650513
442.729787	6131.191667	1671.790039	316.157898
442.729787	6131.191667	1670.763672	280.699005
442.729787	6131.191667	1669.737305	450.193024
442.729787	6131.191667	1668.710938	638.237427
442.729787	6131.191667	1667.684570	537.507813
442.729787	6131.191667	1666.658203	318.093811
442.729787	6131.191667	1665.630859	417.570892
442.729787	6131.191667	1664.603516	530.960876
442.729787	6131.191667	1663.576172	630.338684
442.729787	6131.191667	1662.548828	664.544067
442.729787	6131.191667	1661.520508	694.066589
442.729787	6131.191667	1660.493164	346.934326
442.729787	6131.191667	1659.464844	750.741821
442.729787	6131.191667	1658.436523	921.978699
442.729787	6131.191667	1657.408203	426.262909
442.729787	6131.191667	1656.378906	648.584961
442.729787	6131.191667	1655.350586	803.471191
442.729787	6131.191667	1654.321289	421.835297
442.729787	6131.191667	1653.291992	713.676758
442.729787	6131.191667	1652.261719	687.363037
442.729787	6131.191667	1651.232422	623.935913
442.729787	6131.191667	1650.202148	757.764465
442.729787	6131.191667	1649.171875	838.180969
442.729787	6131.191667	1648.141602	835.063232
442.729787	6131.191667	1647.111328	903.843689
442.729787	6131.191667	1646.080078	912.302917
442.729787	6131.191667	1645.049805	876.728882
442.729787	6131.191667	1644.018555	653.421204
442.729787	6131.191667	1642.987305	946.973938
442.729787	6131.191667	1641.955078	1043.473511
442.729787	6131.191667	1640.923828	889.776978
442.729787	6131.191667	1639.891602	1009.426270
442.729787	6131.191667	1638.859375	883.590698
442.729787	6131.191667	1637.827148	1049.516113
442.729787	6131.191667	1636.794922	993.181885
442.729787	6131.191667	1635.761719	888.272034
442.729787	6131.191667	1634.729492	1137.430786
442.729787	6131.191667	1633.696289	1296.276245
442.729787	6131.191667	1632.662109	1325.544800
442.729787	6131.191667	1631.628906	1253.081421
442.729787	6131.191667	1630.594727	1157.531128
442.729787	6131.191667	1629.561523	1223.852051
442.729787	6131.191667	1628.527344	1151.490112
442.729787	6131.191667	1627.493164	1409.592529
442.729787	6131.191667	1626.458008	1418.105591
442.729787	6131.191667	1625.423828	1415.097534
442.729787	6131.191667	1624.388672	1356.678467
442.729787	6131.191667	1623.353516	1210.567871
442.729787	6131.191667	1622.318359	1403.867432
442.729787	6131.191667	1621.282227	1352.465454
442.729787	6131.191667	1620.247070	1370.342285
442.729787	6131.191667	1619.210938	1330.551514
442.729787	6131.191667	1618.174805	1394.596802
442.729787	6131.191667	1617.137695	1361.776978
442.729787	6131.191667	1616.101563	1386.649292
442.729787	6131.191667	1615.064453	1722.735352
442.729787	6131.191667	1614.027344	1452.563965
442.729787	6131.191667	1612.990234	1735.565796
442.729787	6131.191667	1611.953125	1511.635254
442.729787	6131.191667	1610.916016	1548.110718
442.729787	6131.191667	1609.877930	1547.746582
442.729787	6131.191667	1608.839844	1443.800903
442.729787	6131.191667	1607.801758	1558.629028
442.729787	6131.191667	1606.763672	1556.062988
442.729787	6131.191667	1605.724609	1698.498291
442.729787	6131.191667	1604.685547	1817.907227
442.729787	6131.191667	1603.646484	1829.192749
442.729787	6131.191667	1602.607422	1918.706177
442.729787	6131.191667	1601.568359	1677.112549
442.729787	6131.191667	1600.528320	2088.541992
442.729787	6131.191667	1599.489258	1941.327148
442.729787	6131.191667	1598.449219	1787.306030
442.729787	6131.191667	1597.408203	2005.588013
442.729787	6131.191667	1596.368164	2030.878174
442.729787	6131.191667	1595.327148	1709.389893
442.729787	6131.191667	1594.287109	1893.255981
442.729787	6131.191667	1593.246094	2063.312256
442.729787	6131.191667	1592.204102	2169.065918
442.729787	6131.191667	1591.163086	1836.510376
442.729787	6131.191667	1590.121094	1882.706909
442.729787	6131.191667	1589.079102	1880.757568
442.729787	6131.191667	1588.037109	2092.161133
442.729787	6131.191667	1586.995117	1906.822998
442.729787	6131.191667	1585.953125	1893.557983
442.729787	6131.191667	1584.910156	2173.744385
442.729787	6131.191667	1583.867188	1715.923340
442.729787	6131.191667	1582.824219	1918.234497
442.729787	6131.191667	1581.781250	1740.235107
442.729787	6131.191667	1580.737305	1592.124878
442.729787	6131.191667	1579.693359	1418.939941
442.729787	6131.191667	1578.649414	1472.540405
442.729787	6131.191667	1577.605469	1450.636963
442.729787	6131.191667	1576.561523	1625.622803
442.729787	6131.191667	1575.516602	1484.819092
442.729787	6131.191667	1574.472656	1680.435425
442.729787	6131.191667	1573.427734	1711.340698
442.729787	6131.191667	1572.381836	1607.360962
442.729787	6131.191667	1571.336914	1528.644043
442.729787	6131.191667	1570.291016	1754.039795
442.729787	6131.191667	1569.246094	1540.603760
442.729787	6131.191667	1568.200195	1430.133423
442.729787	6131.191667	1567.153320	1344.892090
442.729787	6131.191667	1566.107422	1385.385376
442.729787	6131.191667	1565.060547	1540.103394
442.729787	6131.191667	1564.013672	1427.687866
442.729787	6131.191667	1562.966797	1139.606079
442.729787	6131.191667	1561.919922	1166.670288
442.729787	6131.191667	1560.872070	1143.581177
442.729787	6131.191667	1559.825195	1312.219482
442.729787	6131.191667	1558.777344	1312.059448
442.729787	6131.191667	1557.729492	1250.393677
442.729787	6131.191667	1556.680664	1070.248291
442.729787	6131.191667	1555.632813	1120.499756
442.729787	6131.191667	1554.583984	1034.042358
442.729787	6131.191667	1553.535156	979.594543
442.729787	6131.191667	1552.486328	1025.486938
442.729787	6131.191667	1551.436523	943.866943
442.729787	6131.191667	1550.387695	778.096558
442.729787	6131.191667	1549.337891	840.156067
442.729787	6131.191667	1548.288086	765.676331
442.729787	6131.191667	1547.238281	743.650940
442.729787	6131.191667	1546.187500	978.850098
442.729787	6131.191667	1545.136719	754.448242
442.729787	6131.191667	1544.086914	962.418518
442.729787	6131.191667	1543.035156	735.983459
442.729787	6131.191667	1541.984375	937.204773
442.729787	6131.191667	1540.933594	881.534241
442.729787	6131.191667	1539.881836	819.140808
442.729787	6131.191667	1538.830078	725.037415
442.729787	6131.191667	1537.778320	708.302612
442.729787	6131.191667	1536.725586	623.503113
442.729787	6131.191667	1535.673828	568.349976
442.729787	6131.191667	1534.621094	683.598022
442.729787	6131.191667	1533.568359	746.669006
442.729787	6131.191667	1532.515625	862.004761
442.729787	6131.191667	1531.461914	693.704468
442.729787	6131.191667	1530.409180	713.881775
442.729787	6131.191667	1529.355469	525.432007
442.729787	6131.191667	1528.301758	745.385681
442.729787	6131.191667	1527.247070	845.152832
442.729787	6131.191667	1526.193359	784.008667
442.729787	6131.191667	1525.138672	892.971008
442.729787	6131.191667	1524.083984	952.121948
442.729787	6131.191667	1523.029297	739.445251
442.729787	6131.191667	1521.974609	791.985352
442.729787	6131.191667	1520.918945	710.962280
442.729787	6131.191667	1519.863281	752.340454
442.729787	6131.191667	1518.807617	519.850891
442.729787	6131.191667	1517.751953	479.945953
442.729787	6131.191667	1516.696289	274.942535
442.729787	6131.191667	1515.639648	359.725159
442.729787	6131.191667	1514.583008	308.835938
442.729787	6131.191667	1513.526367	77.119957
442.729787	6131.191667	1512.469727	327.244568
442.729787	6131.191667	1511.412109	131.974548
442.729787	6131.191667	1510.355469	95.106659
442.729787	6131.191667	1509.297852	178.122299
442.729787	6131.191667	1508.240234	127.889221
442.729787	6131.191667	1507.181641	23.550434
442.729787	6131.191667	1506.124023	-193.577499
442.729787	6131.191667	1505.065430	79.492378
442.729787	6131.191667	1504.006836	-33.516121
442.729787	6131.191667	1502.948242	106.429512
442.729787	6131.191667	1501.888672	56.840874
442.729787	6131.191667	1500.830078	23.168350
442.729787	6131.191667	1499.770508	57.280640
442.729787	6131.191667	1498.710938	-145.346008
442.729787	6131.191667	1497.650391	-174.159637
442.729787	6131.191667	1496.590820	-112.677399
442.729787	6131.191667	1495.530273	-211.165634
442.729787	6131.191667	1494.469727	-131.474686
442.729787	6131.191667	1493.409180	124.037285
442.729787	6131.191667	1492.348633	104.707405
442.729787	6131.191667	1491.287109	26.923140
442.729787	6131.191667	1490.225586	-84.508049
442.729787	6131.191667	1489.164063	72.127914
442.729787	6131.191667	1488.102539	-43.567242
442.729787	6131.191667	1487.041016	27.680111
442.729787	6131.191667	1485.978516	-117.010681
442.729787	6131.191667	1484.916016	273.874390
442.729787	6131.191667	1483.853516	221.614731
442.729787	6131.191667	1482.791016	250.431244
442.729787	6131.191667	1481.727539	110.719971
442.729787	6131.191667	1480.664063	162.238647
442.729787	6131.191667	1479.600586	254.286209
442.729787	6131.191667	1478.537109	207.120621
442.729787	6131.191667	1477.473633	32.037857
442.729787	6131.191667	1476.409180	277.126831
442.729787	6131.191667	1475.344727	365.057861
442.729787	6131.191667	1474.280273	352.101471
442.729787	6131.191667	1473.215820	272.179718
442.729787	6131.191667	1472.151367	824.709595
442.729787	6131.191667	1471.085938	489.052917
442.729787	6131.191667	1470.020508	514.795471
442.729787	6131.191667	1468.955078	766.755737
442.729787	6131.191667	1467.888672	609.082764
442.729787	6131.191667	1466.823242	932.618225
442.729787	6131.191667	1465.756836	866.945557
442.729787	6131.191667	1464.690430	1089.655884
442.729787	6131.191667	1463.624023	1068.485596
442.729787	6131.191667	1462.556641	1117.330444
442.729787	6131.191667	1461.490234	1112.213501
442.729787	6131.191667	1460.422852	1035.713379
442.729787	6131.191667	1459.355469	900.245972
442.729787	6131.191667	1458.287109	924.049072
442.729787	6131.191667	1457.219727	943.213318
442.729787	6131.191667	1456.151367	1063.735229
442.729787	6131.191667	1455.083008	686.122803
442.729787	6131.191667	1454.014648	746.627991
442.729787	6131.191667	1452.945313	969.420837
442.729787	6131.191667	1451.876953	1049.539063
442.729787	6131.191667	1450.807617	822.647278
442.729787	6131.191667	1449.738281	869.368042
442.729787	6131.191667	1448.668945	607.328369
442.729787	6131.191667	1447.598633	855.087341
442.729787	6131.191667	1446.528320	930.392456
442.729787	6131.191667	1445.458008	801.605957
442.729787	6131.191667	1444.387695	519.850708
442.729787	6131.191667	1443.317383	723.462646
442.729787	6131.191667	1442.246094	677.304932
442.729787	6131.191667	1441.174805	674.632385
442.729787	6131.191667	1440.103516	882.855042
442.729787	6131.191667	1439.032227	744.670044
442.729787	6131.191667	1437.960938	730.507874
442.729787	6131.191667	1436.888672	501.993011
442.729787	6131.191667	1435.816406	412.350403
442.729787	6131.191667	1434.744141	548.953918
442.729787	6131.191667	1433.670898	522.438049
442.729787	6131.191667	1432.598633	445.560730
442.729787	6131.191667	1431.525391	446.443665
442.729787	6131.191667	1430.452148	361.630737
442.729787	6131.191667	1429.378906	454.457642
442.729787	6131.191667	1428.304688	217.510483
442.729787	6131.191667	1427.231445	459.589142
442.729787	6131.191667	1426.157227	596.153198
442.729787	6131.191667	1425.083008	258.919861
442.729787	6131.191667	1424.007813	452.870056
442.729787	6131.191667	1422.933594	539.895630
442.729787	6131.191667	1421.858398	313.005829
442.729787	6131.191667	1420.783203	257.222015
442.729787	6131.191667	1419.708008	175.720688
442.729787	6131.191667	1418.631836	248.403168
442.729787	6131.191667	1417.555664	233.292526
442.729787	6131.191667	1416.479492	259.975403
442.729787	6131.191667	1415.403320	196.756165
442.729787	6131.191667	1414.327148	326.210663
442.729787	6131.191667	1413.250000	193.842255
442.729787	6131.191667	1412.173828	207.234177
442.729787	6131.191667	1411.096680	354.646454
442.729787	6131.191667	1410.018555	513.562439
442.729787	6131.191667	1408.941406	435.074524
442.729787	6131.191667	1407.863281	373.265594
442.729787	6131.191667	1406.785156	521.704529
442.729787	6131.191667	1405.707031	507.559998
442.729787	6131.191667	1404.628906	629.029785
442.729787	6131.191667	1403.549805	518.205872
442.729787	6131.191667	1402.470703	417.459595
442.729787	6131.191667	1401.391602	257.864777
442.729787	6131.191667	1400.312500	601.382935
442.729787	6131.191667	1399.233398	328.640594
442.729787	6131.191667	1398.153320	606.769226
442.729787	6131.191667	1397.073242	593.245117
442.729787	6131.191667	1395.993164	403.673370
442.729787	6131.191667	1394.913086	659.889404
442.729787	6131.191667	1393.832031	403.465424
442.729787	6131.191667	1392.750977	386.310028
442.729787	6131.191667	1391.669922	698.076050
442.729787	6131.191667	1390.588867	384.868561
442.729787	6131.191667	1389.506836	621.773682
442.729787	6131.191667	1388.425781	587.246643
442.729787	6131.191667	1387.343750	597.460388
442.729787	6131.191667	1386.261719	579.678406
442.729787	6131.191667	1385.178711	522.146301
442.729787	6131.191667	1384.096680	848.455383
442.729787	6131.191667	1383.013672	574.328979
442.729787	6131.191667	1381.930664	738.218689
442.729787	6131.191667	1380.846680	532.292297
442.729787	6131.191667	1379.763672	626.347595
442.729787	6131.191667	1378.679688	857.369141
442.729787	6131.191667	1377.595703	874.760376
442.729787	6131.191667	1376.511719	876.153564
442.729787	6131.191667	1375.427734	866.404663
442.729787	6131.191667	1374.342773	919.732666
442.729787	6131.191667	1373.257813	961.904968
442.729787	6131.191667	1372.172852	783.887817
442.729787	6131.191667	1371.087891	860.568298
442.729787	6131.191667	1370.001953	1001.473389
442.729787	6131.191667	1368.916992	1034.418701
442.729787	6131.191667	1367.831055	1088.557373
442.729787	6131.191667	1366.744141	1318.372437
442.729787	6131.191667	1365.658203	1441.165283
442.729787	6131.191667	1364.571289	1345.014526
442.729787	6131.191667	1363.484375	1567.699341
442.729787	6131.191667	1362.397461	1843.825439
442.729787	6131.191667	1361.310547	1781.074951
442.729787	6131.191667	1360.222656	1889.415039
442.729787	6131.191667	1359.135742	1782.882324
442.729787	6131.191667	1358.047852	1559.870728
442.729787	6131.191667	1356.958984	1272.686279
442.729787	6131.191667	1355.871094	1314.902710
442.729787	6131.191667	1354.782227	1339.701172
442.729787	6131.191667	1353.693359	1157.036865
442.729787	6131.191667	1352.604492	1262.050049
442.729787	6131.191667	1351.515625	1064.008423
442.729787	6131.191667	1350.425781	1075.280151
442.729787	6131.191667	1349.335938	1300.168823
442.729787	6131.191667	1348.246094	1194.485352
442.729787	6131.191667	1347.156250	1017.787659
442.729787	6131.191667	1346.066406	914.968689
442.729787	6131.191667	1344.975586	1181.052856
442.729787	6131.191667	1343.884766	1195.099609
442.729787	6131.191667	1342.793945	993.021179
442.729787	6131.191667	1341.702148	821.347229
442.729787	6131.191667	1340.611328	711.258789
442.729787	6131.191667	1339.519531	561.526733
442.729787	6131.191667	1338.427734	516.373962
442.729787	6131.191667	1337.334961	510.147736
442.729787	6131.191667	1336.243164	585.924072
442.729787	6131.191667	1335.150391	455.514343
442.729787	6131.191667	1334.057617	758.032898
442.729787	6131.191667	1332.964844	505.549225
442.729787	6131.191667	1331.871094	648.452942
442.729787	6131.191667	1330.778320	516.791016
442.729787	6131.191667	1329.684570	462.083557
442.729787	6131.191667	1328.590820	571.944458
442.729787	6131.191667	1327.496094	466.165741
442.729787	6131.191667	1326.402344	459.932770
442.729787	6131.191667	1325.307617	788.476868
442.729787	6131.191667	1324.212891	552.700806
442.729787	6131.191667	1323.117188	378.189819
442.729787	6131.191667	1322.022461	734.032104
442.729787	6131.191667	1320.926758	728.132263
442.729787	6131.191667	1319.831055	743.610596
442.729787	6131.191667	1318.735352	447.724274
442.729787	6131.191667	1317.638672	537.828247
442.729787	6131.191667	1316.542969	697.343140
442.729787	6131.191667	1315.446289	581.453369
442.729787	6131.191667	1314.349609	477.991974
442.729787	6131.191667	1313.251953	550.725220
442.729787	6131.191667	1312.155273	392.953186
442.729787	6131.191667	1311.057617	412.397858
442.729787	6131.191667	1309.959961	387.147827
442.729787	6131.191667	1308.862305	304.815643
442.729787	6131.191667	1307.763672	360.174622
442.729787	6131.191667	1306.665039	356.480316
442.729787	6131.191667	1305.566406	182.426239
442.729787	6131.191667	1304.467773	443.676697
442.729787	6131.191667	1303.369141	264.341309
442.729787	6131.191667	1302.269531	337.390839
442.729787	6131.191667	1301.169922	199.009293
442.729787	6131.191667	1300.070313	355.481079
442.729787	6131.191667	1298.970703	272.161865
442.729787	6131.191667	1297.870117	439.322418
442.729787	6131.191667	1296.769531	337.747131
442.729787	6131.191667	1295.668945	491.396210
442.729787	6131.191667	1294.568359	504.279602
442.729787	6131.191667	1293.466797	411.757050
442.729787	6131.191667	1292.366211	286.110718
442.729787	6131.191667	1291.264648	404.150696
442.729787	6131.191667	1290.162109	265.292389
442.729787	6131.191667	1289.060547	380.287415
442.729787	6131.191667	1287.958008	487.809387
442.729787	6131.191667	1286.855469	260.328949
442.729787	6131.191667	1285.752930	301.044525
442.729787	6131.191667	1284.650391	301.871399
442.729787	6131.191667	1283.546875	154.116837
442.729787	6131.191667	1282.444336	109.556534
442.729787	6131.191667	1281.339844	112.173569
442.729787	6131.191667	1280.236328	155.648346
442.729787	6131.191667	1279.132813	135.712997
442.729787	6131.191667	1278.028320	234.523575
442.729787	6131.191667	1276.923828	94.791656
442.729787	6131.191667	1275.819336	44.638546
442.729787	6131.191667	1274.713867	18.922510
442.729787	6131.191667	1273.608398	54.036701
442.729787	6131.191667	1272.503906	208.228683
442.729787	6131.191667	1271.397461	288.191132
442.729787	6131.191667	1270.291992	176.072632
442.729787	6131.191667	1269.185547	290.732178
442.729787	6131.191667	1268.080078	400.416595
442.729787	6131.191667	1266.972656	270.799255
442.729787	6131.191667	1265.866211	192.559723
442.729787	6131.191667	1264.759766	86.971428
442.729787	6131.191667	1263.652344	146.819595
442.729787	6131.191667	1262.544922	258.858521
442.729787	6131.191667	1261.436523	-31.871698
442.729787	6131.191667	1260.329102	228.235886
442.729787	6131.191667	1259.220703	135.747650
442.729787	6131.191667	1258.112305	162.506714
442.729787	6131.191667	1257.003906	58.235928
442.729787	6131.191667	1255.895508	136.732391
442.729787	6131.191667	1254.786133	-149.647263
442.729787	6131.191667	1253.676758	-57.511166
442.729787	6131.191667	1252.567383	-78.090530
442.729787	6131.191667	1251.458008	-60.042362
442.729787	6131.191667	1250.347656	-40.862549
442.729787	6131.191667	1249.237305	-43.129929
442.729787	6131.191667	1248.126953	-142.175323
442.729787	6131.191667	1247.016602	-103.811996
442.729787	6131.191667	1245.905273	-192.849258
442.729787	6131.191667	1244.793945	-110.318138
442.729787	6131.191667	1243.682617	-109.528938
442.729787	6131.191667	1242.571289	16.751982
442.729787	6131.191667	1241.459961	212.825638
442.729787	6131.191667	1240.347656	-90.143631
442.729787	6131.191667	1239.235352	-44.207359
442.729787	6131.191667	1238.123047	-93.336006
442.729787	6131.191667	1237.009766	97.623047
442.729787	6131.191667	1235.897461	-0.056550
442.729787	6131.191667	1234.784180	126.525894
442.729787	6131.191667	1233.670898	65.600105
442.729787	6131.191667	1232.556641	83.352882
442.729787	6131.191667	1231.443359	50.314735
442.729787	6131.191667	1230.329102	64.533806
442.729787	6131.191667	1229.214844	214.406830
442.729787	6131.191667	1228.099609	319.045410
442.729787	6131.191667	1226.985352	275.442047
442.729787	6131.191667	1225.870117	324.461212
442.729787	6131.191667	1224.754883	511.676422
442.729787	6131.191667	1223.639648	464.539215
442.729787	6131.191667	1222.523438	498.919861
442.729787	6131.191667	1221.408203	253.680145
442.729787	6131.191667	1220.291992	118.349510
442.729787	6131.191667	1219.174805	188.508316
442.729787	6131.191667	1218.058594	274.542755
442.729787	6131.191667	1216.941406	98.479332
442.729787	6131.191667	1215.824219	59.972729
442.729787	6131.191667	1214.707031	216.809387
442.729787	6131.191667	1213.589844	85.205467
442.729787	6131.191667	1212.471680	71.515617
442.729787	6131.191667	1211.353516	120.903374
442.729787	6131.191667	1210.235352	131.664963
442.729787	6131.191667	1209.117188	170.216736
442.729787	6131.191667	1207.998047	54.253162
442.729787	6131.191667	1206.878906	180.243500
442.729787	6131.191667	1205.759766	49.759396
442.729787	6131.191667	1204.640625	-114.897057
442.729787	6131.191667	1203.520508	66.474426
442.729787	6131.191667	1202.401367	236.387436
442.729787	6131.191667	1201.281250	-16.364309
442.729787	6131.191667	1200.160156	-57.878139
442.729787	6131.191667	1199.040039	37.258095
442.729787	6131.191667	1197.918945	-192.554550
442.729787	6131.191667	1196.797852	-22.184517
442.729787	6131.191667	1195.676758	-91.928276
442.729787	6131.191667	1194.555664	0.486041
442.729787	6131.191667	1193.433594	-230.227768
442.729787	6131.191667	1192.311523	-148.362839
442.729787	6131.191667	1191.189453	-132.193176
442.729787	6131.191667	1190.066406	-90.420074
442.729787	6131.191667	1188.944336	-277.454193
442.729787	6131.191667	1187.821289	-244.731735
442.729787	6131.191667	1186.698242	-161.625793
442.729787	6131.191667	1185.574219	-108.229340
442.729787	6131.191667	1184.451172	-135.740875
442.729787	6131.191667	1183.327148	-269.663239
442.729787	6131.191667	1182.203125	-165.409409
442.729787	6131.191667	1181.078125	-172.418152
442.729787	6131.191667	1179.954102	23.768511
442.729787	6131.191667	1178.829102	-19.413973
442.729787	6131.191667	1177.704102	-55.647007
442.729787	6131.191667	1176.579102	-20.988712
442.729787	6131.191667	1175.453125	-16.267641
442.729787	6131.191667	1174.327148	-113.369194
442.729787	6131.191667	1173.201172	16.415125
442.729787	6131.191667	1172.075195	191.767441
442.729787	6131.191667	1170.949219	-87.650612
442.729787	6131.191667	1169.822266	-77.012444
442.729787	6131.191667	1168.695313	-142.079254
442.729787	6131.191667	1167.568359	-118.359299
442.729787	6131.191667	1166.440430	-33.502663
442.729787	6131.191667	1165.313477	-7.567066
442.729787	6131.191667	1164.185547	-28.665665
442.729787	6131.191667	1163.057617	-22.247936
442.729787	6131.191667	1161.928711	-58.328312
442.729787	6131.191667	1160.800781	23.704721
442.729787	6131.191667	1159.671875	-31.895065
442.729787	6131.191667	1158.541992	161.640366
442.729787	6131.191667	1157.413086	-55.817497
442.729787	6131.191667	1156.283203	-3.721118
442.729787	6131.191667	1155.154297	20.862690
442.729787	6131.191667	1154.023438	102.250259
442.729787	6131.191667	1152.893555	140.599091
442.729787	6131.191667	1151.763672	138.994186
442.729787	6131.191667	1150.632813	83.221573
442.729787	6131.191667	1149.501953	224.032486
442.729787	6131.191667	1148.370117	101.987312
442.729787	6131.191667	1147.239258	26.352825
442.729787	6131.191667	1146.107422	-63.511597
442.729787	6131.191667	1144.975586	17.421824
442.729787	6131.191667	1143.843750	45.449619
442.729787	6131.191667	1142.710938	44.988441
442.729787	6131.191667	1141.578125	-7.362502
442.729787	6131.191667	1140.445313	-22.626976
442.729787	6131.191667	1139.312500	67.113647
442.729787	6131.191667	1138.178711	314.639160
442.729787	6131.191667	1137.045898	148.833359
442.729787	6131.191667	1135.912109	204.990463
442.729787	6131.191667	1134.777344	250.335648
442.729787	6131.191667	1133.643555	111.259804
442.729787	6131.191667	1132.508789	223.524719
442.729787	6131.191667	1131.374023	284.033722
442.729787	6131.191667	1130.239258	376.460388
442.729787	6131.191667	1129.104492	510.198975
442.729787	6131.191667	1127.968750	227.563141
442.729787	6131.191667	1126.833008	376.603851
442.729787	6131.191667	1125.697266	230.712509
442.729787	6131.191667	1124.560547	220.863754
442.729787	6131.191667	1123.424805	476.470795
442.729787	6131.191667	1122.288086	336.764435
442.729787	6131.191667	1121.151367	342.659149
442.729787	6131.191667	1120.013672	326.090454
442.729787	6131.191667	1118.876953	236.500214
442.729787	6131.191667	1117.739258	40.199951
442.729787	6131.191667	1116.601563	351.867096
442.729787	6131.191667	1115.462891	379.697632
442.729787	6131.191667	1114.324219	320.269562
442.729787	6131.191667	1113.186523	185.040863
442.729787	6131.191667	1112.046875	134.829178
442.729787	6131.191667	1110.908203	305.571442
442.729787	6131.191667	1109.769531	363.367889
442.729787	6131.191667	1108.629883	407.892792
442.729787	6131.191667	1107.490234	381.397308
442.729787	6131.191667	1106.349609	345.975494
442.729787	6131.191667	1105.209961	531.419189
442.729787	6131.191667	1104.069336	426.800476
442.729787	6131.191667	1102.928711	348.592407
442.729787	6131.191667	1101.787109	548.111572
442.729787	6131.191667	1100.646484	446.538849
442.729787	6131.191667	1099.504883	304.914703
442.729787	6131.191667	1098.363281	32.502472
442.729787	6131.191667	1097.221680	290.311798
442.729787	6131.191667	1096.079102	143.352448
442.729787	6131.191667	1094.936523	301.358551
442.729787	6131.191667	1093.793945	459.057556
442.729787	6131.191667	1092.651367	292.327393
442.729787	6131.191667	1091.507813	524.056519
442.729787	6131.191667	1090.364258	229.993896
442.729787	6131.191667	1089.220703	270.626862
442.729787	6131.191667	1088.077148	301.735596
442.729787	6131.191667	1086.933594	190.954865
442.729787	6131.191667	1085.789063	48.651443
442.729787	6131.191667	1084.644531	209.164459
442.729787	6131.191667	1083.499023	154.428986
442.729787	6131.191667	1082.354492	362.102142
442.729787	6131.191667	1081.208984	192.930023
442.729787	6131.191667	1080.063477	285.736328
442.729787	6131.191667	1078.917969	349.277924
442.729787	6131.191667	1077.771484	371.253296
442.729787	6131.191667	1076.625977	141.125809
442.729787	6131.191667	1075.479492	49.013119
442.729787	6131.191667	1074.332031	301.016693
442.729787	6131.191667	1073.185547	459.898010
442.729787	6131.191667	1072.038086	354.494171
442.729787	6131.191667	1070.890625	136.534668
442.729787	6131.191667	1069.743164	373.044922
442.729787	6131.191667	1068.594727	273.821716
442.729787	6131.191667	1067.447266	458.612427
442.729787	6131.191667	1066.298828	355.851379
442.729787	6131.191667	1065.149414	308.006287
442.729787	6131.191667	1064.000977	175.331635
442.729787	6131.191667	1062.851563	226.893326
442.729787	6131.191667	1061.702148	544.996399
442.729787	6131.191667	1060.552734	295.979828
442.729787	6131.191667	1059.402344	374.872528
442.729787	6131.191667	1058.252930	375.043732
442.729787	6131.191667	1057.102539	366.857727
442.729787	6131.191667	1055.951172	271.070313
442.729787	6131.191667	1054.800781	140.150681
442.729787	6131.191667	1053.649414	322.989197
442.729787	6131.191667	1052.498047	291.968506
442.729787	6131.191667	1051.346680	392.171753
442.729787	6131.191667	1050.194336	106.837425
442.729787	6131.191667	1049.042969	251.495758
442.729787	6131.191667	1047.890625	220.117722
442.729787	6131.191667	1046.738281	234.050064
442.729787	6131.191667	1045.584961	32.575073
442.729787	6131.191667	1044.431641	221.430237
442.729787	6131.191667	1043.278320	156.730011
442.729787	6131.191667	1042.125000	124.472588
442.729787	6131.191667	1040.971680	248.239227
442.729787	6131.191667	1039.817383	75.535629
442.729787	6131.191667	1038.663086	290.146423
442.729787	6131.191667	1037.508789	125.881348
442.729787	6131.191667	1036.353516	-41.551846
442.729787	6131.191667	1035.198242	264.191193
442.729787	6131.191667	1034.042969	37.582344
442.729787	6131.191667	1032.887695	146.093506
442.729787	6131.191667	1031.732422	373.983673
442.729787	6131.191667	1030.576172	525.202576
442.729787	6131.191667	1029.419922	487.844788
442.729787	6131.191667	1028.263672	350.059998
442.729787	6131.191667	1027.106445	310.485229
442.729787	6131.191667	1025.949219	483.457428
442.729787	6131.191667	1024.792969	102.713150
442.729787	6131.191667	1023.634766	144.377747
442.729787	6131.191667	1022.477539	235.234558
442.729787	6131.191667	1021.319336	390.385345
442.729787	6131.191667	1020.161133	221.115494
442.729787	6131.191667	1019.002930	-39.173317
442.729787	6131.191667	1017.843750	-235.819946
442.729787	6131.191667	1016.684570	89.444572
442.729787	6131.191667	1015.525391	139.773834
442.729787	6131.191667	1014.366211	93.311646
442.729787	6131.191667	1013.207031	217.359085
442.729787	6131.191667	1012.046875	169.285126
442.729787	6131.191667	1010.886719	-99.307045
442.729787	6131.191667	1009.726563	151.945145
442.729787	6131.191667	1008.565430	13.202567
442.729787	6131.191667	1007.404297	86.520668
442.729787	6131.191667	1006.243164	-204.303375
442.729787	6131.191667	1005.082031	99.357674
442.729787	6131.191667	1003.920898	223.012909
442.729787	6131.191667	1002.758789	65.609154
442.729787	6131.191667	1001.596680	226.384674
442.729787	6131.191667	1000.433594	7.284248
442.729787	6131.191667	999.271484	153.293228
442.729787	6131.191667	998.108398	133.508850
442.729787	6131.191667	996.945313	240.333603
442.729787	6131.191667	995.782227	129.112564
442.729787	6131.191667	994.618164	-61.491920
442.729787	6131.191667	993.454102	69.358345
442.729787	6131.191667	992.290039	64.805275
442.729787	6131.191667	991.125977	113.088463
442.729787	6131.191667	989.960938	42.803722
442.729787	6131.191667	988.796875	61.857018
442.729787	6131.191667	987.630859	140.128830
442.729787	6131.191667	986.465820	-33.122005
442.729787	6131.191667	985.300781	-45.540886
442.729787	6131.191667	984.134766	33.265686
442.729787	6131.191667	982.968750	-117.056145
442.729787	6131.191667	981.801758	80.752304
442.729787	6131.191667	980.635742	-24.548016
442.729787	6131.191667	979.468750	-66.054375
442.729787	6131.191667	978.301758	-32.121456
442.729787	6131.191667	977.133789	162.062988
442.729787	6131.191667	975.966797	20.278751
442.729787	6131.191667	974.798828	51.782784
442.729787	6131.191667	973.630859	-208.935715
442.729787	6131.191667	972.461914	-208.671051
442.729787	6131.191667	971.293945	-32.006462
442.729787	6131.191667	970.125000	-48.243851
442.729787	6131.191667	968.956055	-22.389969
442.729787	6131.191667	967.786133	123.080063
442.729787	6131.191667	966.617188	-119.913780
442.729787	6131.191667	965.447266	-154.213699
442.729787	6131.191667	964.276367	-104.515747
442.729787	6131.191667	963.106445	19.461576
442.729787	6131.191667	961.935547	-74.888771
442.729787	6131.191667	960.764648	-190.244232
442.729787	6131.191667	959.593750	-78.123970
442.729787	6131.191667	958.422852	-36.262047
442.729787	6131.191667	957.250977	-165.469788
442.729787	6131.191667	956.079102	-84.210617
442.729787	6131.191667	954.907227	-194.869965
442.729787	6131.191667	953.734375	-125.356888
442.729787	6131.191667	952.562500	2.954384
442.729787	6131.191667	951.389648	-68.453896
442.729787	6131.191667	950.215820	-102.449631
442.729787	6131.191667	949.042969	132.986679
442.729787	6131.191667	947.869141	90.012886
442.729787	6131.191667	946.695313	-6.297108
442.729787	6131.191667	945.521484	167.232819
442.729787	6131.191667	944.346680	36.816387
442.729787	6131.191667	943.172852	5.044661
442.729787	6131.191667	941.998047	119.227577
442.729787	6131.191667	940.822266	42.446438
442.729787	6131.191667	939.647461	221.407669
442.729787	6131.191667	938.471680	74.157394
442.729787	6131.191667	937.295898	-2.508626
442.729787	6131.191667	936.119141	106.034294
442.729787	6131.191667	934.943359	-7.575576
442.729787	6131.191667	933.766602	-123.777687
442.729787	6131.191667	932.589844	18.272657
442.729787	6131.191667	931.413086	109.739822
442.729787	6131.191667	930.235352	55.171207
442.729787	6131.191667	929.057617	81.975052
442.729787	6131.191667	927.879883	-104.515335
442.729787	6131.191667	926.702148	-35.603367
442.729787	6131.191667	925.523438	-118.283737
442.729787	6131.191667	924.344727	68.376289
442.729787	6131.191667	923.166016	-104.081985
442.729787	6131.191667	921.987305	54.412041
442.729787	6131.191667	920.807617	24.976856
442.729787	6131.191667	919.627930	28.560894
442.729787	6131.191667	919.497070	152.909149
442.729787	6131.191667	918.331055	-196.133728
442.729787	6131.191667	917.165039	-88.310532
442.729787	6131.191667	915.999023	41.857536
442.729787	6131.191667	914.833008	-66.135147
442.729787	6131.191667	913.666016	-171.304016
442.729787	6131.191667	912.499023	-80.463242
442.729787	6131.191667	911.332031	-138.045197
442.729787	6131.191667	910.165039	-64.085762
442.729787	6131.191667	908.997070	-62.927631
442.729787	6131.191667	907.830078	10.942418
442.729787	6131.191667	906.661133	-225.702469
442.729787	6131.191667	905.493164	-3.659377
442.729787	6131.191667	904.325195	-16.580616
442.729787	6131.191667	903.156250	-96.602928
442.729787	6131.191667	901.987305	-0.546186
442.729787	6131.191667	900.818359	-248.230499
442.729787	6131.191667	899.648438	-110.316109
442.729787	6131.191667	898.478516	111.311707
442.729787	6131.191667	897.308594	-155.849777
442.729787	6131.191667	896.138672	-99.065010
442.729787	6131.191667	894.968750	41.417175
442.729787	6131.191667	893.797852	162.288971
442.729787	6131.191667	892.626953	110.101685
442.729787	6131.191667	891.456055	300.611359
442.729787	6131.191667	890.284180	161.920273
442.729787	6131.191667	889.113281	90.186676
442.729787	6131.191667	887.941406	174.589539
442.729787	6131.191667	886.768555	155.809647
442.729787	6131.191667	885.596680	301.434998
442.729787	6131.191667	884.423828	176.724548
442.729787	6131.191667	883.250977	54.832237
442.729787	6131.191667	882.078125	22.093174
442.729787	6131.191667	880.905273	75.667648
442.729787	6131.191667	879.731445	26.199753
442.729787	6131.191667	878.557617	-173.565704
442.729787	6131.191667	877.383789	216.680969
442.729787	6131.191667	876.209961	19.704546
442.729787	6131.191667	875.035156	34.197853
442.729787	6131.191667	873.860352	-104.291519
442.729787	6131.191667	872.685547	29.748253
442.729787	6131.191667	871.510742	52.517456
442.729787	6131.191667	870.334961	105.835808
442.729787	6131.191667	869.159180	175.788025
442.729787	6131.191667	867.983398	-162.703903
442.729787	6131.191667	866.807617	101.675484
442.729787	6131.191667	865.630859	127.103271
442.729787	6131.191667	864.454102	152.503082
442.729787	6131.191667	863.277344	69.614250
442.729787	6131.191667	862.100586	-65.990929
442.729787	6131.191667	860.922852	300.685822
442.729787	6131.191667	859.745117	95.702934
442.729787	6131.191667	858.567383	195.889542
442.729787	6131.191667	857.389648	176.775970
442.729787	6131.191667	856.210938	171.517609
442.729787	6131.191667	855.032227	335.335052
442.729787	6131.191667	853.853516	196.985123
442.729787	6131.191667	852.674805	-49.385647
442.729787	6131.191667	851.495117	133.718872
442.729787	6131.191667	850.315430	-7.321530
442.729787	6131.191667	849.135742	272.584930
442.729787	6131.191667	847.956055	-37.341022
442.729787	6131.191667	846.775391	26.521646
442.729787	6131.191667	845.595703	-3.751899
442.729787	6131.191667	844.415039	134.749420
442.729787	6131.191667	843.233398	123.798981
442.729787	6131.191667	842.052734	181.977844
442.729787	6131.191667	840.871094	146.102280
442.729787	6131.191667	839.689453	49.403698
442.729787	6131.191667	838.506836	218.073364
442.729787	6131.191667	837.325195	281.643616
442.729787	6131.191667	836.142578	96.514542
442.729787	6131.191667	834.959961	215.297501
442.729787	6131.191667	833.777344	63.363510
442.729787	6131.191667	832.593750	143.413467
442.729787	6131.191667	831.410156	-41.603374
442.729787	6131.191667	830.226563	46.680080
442.729787	6131.191667	829.042969	-61.012642
442.729787	6131.191667	827.858398	278.261475
442.729787	6131.191667	826.673828	131.913605
442.729787	6131.191667	825.489258	120.737610
442.729787	6131.191667	824.304688	-17.282282
442.729787	6131.191667	823.120117	15.645781
442.729787	6131.191667	821.934570	-42.407368
442.729787	6131.191667	820.749023	-122.499222
442.729787	6131.191667	819.562500	-175.025772
442.729787	6131.191667	818.376953	-4.452351
442.729787	6131.191667	817.190430	91.682098
442.729787	6131.191667	816.003906	55.603325
442.729787	6131.191667	814.817383	203.944946
442.729787	6131.191667	813.629883	-5.561241
442.729787	6131.191667	812.442383	7.870135
442.729787	6131.191667	811.254883	-163.036514
442.729787	6131.191667	810.067383	-135.869293
442.729787	6131.191667	808.878906	-114.231430
442.729787	6131.191667	807.690430	-103.620720
442.729787	6131.191667	806.501953	-126.020798
442.729787	6131.191667	805.313477	76.909920
442.729787	6131.191667	804.124023	15.975332
442.729787	6131.191667	802.934570	45.691349
442.729787	6131.191667	801.745117	89.105583
442.729787	6131.191667	800.555664	36.375023
442.729787	6131.191667	799.365234	-19.100832
442.729787	6131.191667	798.175781	-178.875671
442.729787	6131.191667	796.985352	-110.846550
442.729787	6131.191667	795.793945	154.666870
442.729787	6131.191667	794.603516	27.800446
442.729787	6131.191667	793.412109	-148.400620
442.729787	6131.191667	792.220703	-220.363647
442.729787	6131.191667	791.028320	14.700330
442.729787	6131.191667	789.836914	-62.798252
442.729787	6131.191667	788.644531	4.936588
442.729787	6131.191667	787.452148	124.668999
442.729787	6131.191667	786.258789	14.251327
442.729787	6131.191667	785.066406	40.772865
442.729787	6131.191667	783.873047	-247.595596
442.729787	6131.191667	782.679688	88.228516
442.729787	6131.191667	781.485352	-139.876175
442.729787	6131.191667	780.291992	72.603592
442.729787	6131.191667	779.097656	107.154831
442.729787	6131.191667	777.903320	15.853353
442.729787	6131.191667	776.708008	-138.331528
442.729787	6131.191667	775.512695	-68.303429
442.729787	6131.191667	774.318359	102.795799
442.729787	6131.191667	773.122070	87.970352
442.729787	6131.191667	771.926758	53.993660
442.729787	6131.191667	770.730469	71.902176
442.729787	6131.191667	769.534180	122.543343
442.729787	6131.191667	768.337891	205.897263
442.729787	6131.191667	767.141602	70.792679
442.729787	6131.191667	765.944336	58.532635
442.729787	6131.191667	764.747070	-27.432800
442.729787	6131.191667	763.549805	186.705582
442.729787	6131.191667	762.351563	-19.332285
442.729787	6131.191667	761.154297	-34.424946
442.729787	6131.191667	759.956055	-136.793289
442.729787	6131.191667	758.757813	11.630060
442.729787	6131.191667	757.558594	200.838364
442.729787	6131.191667	756.359375	35.708633
442.729787	6131.191667	755.160156	-4.073983
442.729787	6131.191667	753.960938	-237.256943
442.729787	6131.191667	752.761719	3.438648
442.729787	6131.191667	751.561523	184.100647
442.729787	6131.191667	750.361328	-35.477821
442.729787	6131.191667	749.160156	11.692401
442.729787	6131.191667	747.959961	37.038059
442.729787	6131.191667	746.758789	43.291698
442.729787	6131.191667	745.557617	131.094238
442.729787	6131.191667	744.356445	12.166967
442.729787	6131.191667	743.154297	165.103348
442.729787	6131.191667	741.952148	48.855911
442.729787	6131.191667	740.750000	41.310986
442.729787	6131.191667	739.547852	-17.892191
442.729787	6131.191667	738.344727	80.430534
442.729787	6131.191667	737.142578	-179.803268
442.729787	6131.191667	735.939453	18.886391
442.729787	6131.191667	734.735352	49.146473
442.729787	6131.191667	733.532227	-64.492950
442.729787	6131.191667	732.328125	-113.006180
442.729787	6131.191667	731.124023	-91.009712
442.729787	6131.191667	729.918945	126.217461
442.729787	6131.191667	728.714844	-123.109711
442.729787	6131.191667	727.509766	172.565414
442.729787	6131.191667	726.303711	-155.368973
442.729787	6131.191667	725.098633	4.594246
442.729787	6131.191667	723.892578	-139.018738
442.729787	6131.191667	722.686523	245.617233
442.729787	6131.191667	721.480469	-44.333172
442.729787	6131.191667	720.274414	-6.569568
442.729787	6131.191667	719.067383	58.200027
442.729787	6131.191667	717.860352	-50.332832
442.729787	6131.191667	716.653320	-58.744701
442.729787	6131.191667	715.445313	289.922302
442.729787	6131.191667	714.238281	-21.612028
442.729787	6131.191667	713.030273	94.222710
442.729787	6131.191667	711.821289	-92.869865
442.729787	6131.191667	710.613281	-190.728317
442.729787	6131.191667	709.404297	41.126713
442.729787	6131.191667	708.195313	-167.610916
442.729787	6131.191667	706.986328	-25.115408
442.729787	6131.191667	705.776367	-58.297318
442.729787	6131.191667	704.566406	-59.114037
442.729787	6131.191667	703.356445	-35.686993
442.729787	6131.191667	702.146484	125.338951
442.729787	6131.191667	700.935547	64.946609
442.729787	6131.191667	699.724609	34.203220
442.729787	6131.191667	698.513672	76.252014
442.729787	6131.191667	697.302734	207.227432
442.729787	6131.191667	696.090820	90.017448
442.729787	6131.191667	694.878906	288.216797
442.729787	6131.191667	693.666992	338.033203
442.729787	6131.191667	692.455078	223.392181
442.729787	6131.191667	691.242188	291.944183
442.729787	6131.191667	690.029297	-0.535130
442.729787	6131.191667	688.816406	84.076019
442.729787	6131.191667	687.602539	311.291290
442.729787	6131.191667	686.389648	134.567932
442.729787	6131.191667	685.175781	334.645386
442.729787	6131.191667	683.960938	168.631638
442.729787	6131.191667	682.747070	454.583893
442.729787	6131.191667	681.532227	371.873108
442.729787	6131.191667	680.317383	-9.350562
442.729787	6131.191667	679.102539	144.537628
442.729787	6131.191667	677.886719	244.539322
442.729787	6131.191667	676.670898	51.513733
442.729787	6131.191667	675.455078	242.721451
442.729787	6131.191667	674.239258	347.827332
442.729787	6131.191667	673.022461	106.371910
442.729787	6131.191667	671.805664	436.884552
442.729787	6131.191667	670.588867	200.756775
442.729787	6131.191667	669.372070	254.535263
442.729787	6131.191667	668.154297	42.568043
442.729787	6131.191667	666.936523	77.449173
442.729787	6131.191667	665.718750	120.299660
442.729787	6131.191667	664.500977	125.524689
442.729787	6131.191667	663.282227	259.377350
442.729787	6131.191667	662.063477	25.868996
442.729787	6131.191667	660.844727	231.919449
442.729787	6131.191667	659.625000	207.383286
442.729787	6131.191667	658.405273	236.370636
442.729787	6131.191667	657.185547	26.912716
442.729787	6131.191667	655.965820	385.162842
442.729787	6131.191667	654.745117	325.552582
442.729787	6131.191667	653.525391	244.494217
442.729787	6131.191667	652.303711	254.385757
442.729787	6131.191667	651.083008	296.318512
442.729787	6131.191667	649.861328	260.593872
442.729787	6131.191667	648.640625	476.212433
442.729787	6131.191667	647.417969	223.756287
442.729787	6131.191667	646.196289	383.023407
442.729787	6131.191667	644.973633	301.615601
442.729787	6131.191667	643.750977	375.160400
442.729787	6131.191667	642.528320	237.560226
442.729787	6131.191667	641.305664	652.844543
442.729787	6131.191667	640.082031	517.782410
442.729787	6131.191667	638.858398	452.130432
442.729787	6131.191667	637.634766	268.995239
442.729787	6131.191667	636.410156	272.679962
442.729787	6131.191667	635.185547	238.947235
442.729787	6131.191667	633.960938	186.492630
442.729787	6131.191667	632.736328	230.009781
442.729787	6131.191667	631.510742	206.782120
442.729787	6131.191667	630.285156	183.501266
442.729787	6131.191667	629.059570	232.133377
442.729787	6131.191667	627.833984	142.115265
442.729787	6131.191667	626.607422	254.549606
442.729787	6131.191667	625.380859	105.839218
442.729787	6131.191667	624.154297	106.262787
442.729787	6131.191667	622.927734	197.151749
442.729787	6131.191667	621.700195	431.680908
442.729787	6131.191667	620.472656	-39.209541
442.729787	6131.191667	619.245117	-23.032850
442.729787	6131.191667	618.016602	256.436493
442.729787	6131.191667	616.788086	35.711086
442.729787	6131.191667	615.559570	-60.000538
442.729787	6131.191667	614.331055	1.125348
442.729787	6131.191667	613.101563	-57.444653
442.729787	6131.191667	611.872070	67.315025
442.729787	6131.191667	610.642578	-9.955405
442.729787	6131.191667	609.413086	242.131332
442.729787	6131.191667	608.182617	-18.502203
442.729787	6131.191667	606.952148	-111.804810
442.729787	6131.191667	605.721680	-51.154770
442.729787	6131.191667	604.491211	-62.242863
442.729787	6131.191667	603.259766	136.240097
442.729787	6131.191667	602.028320	239.081879
442.729787	6131.191667	600.796875	328.567352
442.729787	6131.191667	599.564453	97.095467
442.729787	6131.191667	598.332031	313.725647
442.729787	6131.191667	597.099609	140.569962
442.729787	6131.191667	595.867188	237.747314
442.729787	6131.191667	594.633789	231.499405
442.729787	6131.191667	593.400391	246.399490
442.729787	6131.191667	592.166992	165.904465
442.729787	6131.191667	590.933594	135.706528
442.729787	6131.191667	589.699219	31.349070
442.729787	6131.191667	588.464844	-65.068062
442.729787	6131.191667	587.230469	201.032196
442.729787	6131.191667	585.995117	361.149200
442.729787	6131.191667	584.760742	169.377670
442.729787	6131.191667	583.525391	334.640289
442.729787	6131.191667	582.289063	386.100983
442.729787	6131.191667	581.053711	46.297092
442.729787	6131.191667	579.817383	66.008575
442.729787	6131.191667	578.581055	183.435287
442.729787	6131.191667	577.343750	387.944702
442.729787	6131.191667	576.107422	82.613441
442.729787	6131.191667	574.870117	342.438171
442.729787	6131.191667	573.631836	573.075134
442.729787	6131.191667	572.394531	304.747620
442.729787	6131.191667	571.156250	511.482483
442.729787	6131.191667	569.917969	198.365570
442.729787	6131.191667	568.679688	175.499557
442.729787	6131.191667	567.440430	656.297729
442.729787	6131.191667	566.202148	496.188812
442.729787	6131.191667	564.961914	431.008087
442.729787	6131.191667	563.722656	581.940125
442.729787	6131.191667	562.482422	442.945160
442.729787	6131.191667	561.243164	343.508667
442.729787	6131.191667	560.001953	317.826233
442.729787	6131.191667	558.761719	255.276962
442.729787	6131.191667	557.520508	379.645233
442.729787	6131.191667	556.279297	193.362930
442.729787	6131.191667	555.038086	317.658844
442.729787	6131.191667	553.795898	131.433609
442.729787	6131.191667	552.554688	281.965851
442.729787	6131.191667	551.311523	153.651260
442.729787	6131.191667	550.069336	212.062515
442.729787	6131.191667	548.826172	228.374619
442.729787	6131.191667	547.583984	152.694473
442.729787	6131.191667	546.339844	90.165703
442.729787	6131.191667	545.096680	51.306442
442.729787	6131.191667	543.852539	154.279953
442.729787	6131.191667	542.608398	-44.766865
442.729787	6131.191667	541.364258	100.183899
442.729787	6131.191667	540.119141	-224.761032
442.729787	6131.191667	538.875000	-127.067978
442.729787	6131.191667	537.628906	33.539593
442.729787	6131.191667	536.383789	31.459681
442.729787	6131.191667	535.137695	34.624165
442.729787	6131.191667	533.892578	145.299118
442.729787	6131.191667	532.645508	61.940849
442.729787	6131.191667	531.399414	-139.301758
442.729787	6131.191667	530.152344	-172.758469
442.729787	6131.191667	528.905273	3.384562
442.729787	6131.191667	527.658203	-140.066650
442.729787	6131.191667	526.410156	-173.469177
442.729787	6131.191667	525.163086	-47.138134
442.729787	6131.191667	523.914063	-72.666817
442.729787	6131.191667	522.666016	116.422478
442.729787	6131.191667	521.416992	-102.697891
442.729787	6131.191667	520.167969	-143.834335
442.729787	6131.191667	518.918945	-137.856689
442.729787	6131.191667	517.669922	-186.764664
442.729787	6131.191667	516.419922	-10.825371
442.729787	6131.191667	515.169922	-70.149055
442.729787	6131.191667	513.919922	-126.806770
442.729787	6131.191667	512.668945	30.796709
442.729787	6131.191667	511.417969	-12.746824
442.729787	6131.191667	510.166992	-124.133469
442.729787	6131.191667	508.916016	7.353753
442.729787	6131.191667	507.664063	-252.707489
442.729787	6131.191667	506.412109	-37.680656
442.729787	6131.191667	505.160156	49.448029
442.729787	6131.191667	503.907227	154.828537
442.729787	6131.191667	502.655273	228.913132
442.729787	6131.191667	501.402344	123.093468
442.729787	6131.191667	500.148438	74.702637
442.729787	6131.191667	498.895508	-30.956772
442.729787	6131.191667	497.641602	19.802879
442.729787	6131.191667	496.387695	-25.804228
442.729787	6131.191667	495.132813	-73.958160
442.729787	6131.191667	493.878906	28.986980
442.729787	6131.191667	492.624023	-0.844484
442.729787	6131.191667	491.368164	-173.777878
442.729787	6131.191667	490.113281	80.186867
442.729787	6131.191667	488.857422	73.914391
442.729787	6131.191667	487.601563	-93.579887
442.729787	6131.191667	486.344727	-63.311996
442.729787	6131.191667	485.088867	120.397301
442.729787	6131.191667	483.832031	267.680359
442.729787	6131.191667	482.575195	-206.188950
442.729787	6131.191667	481.317383	-66.597801
442.729787	6131.191667	480.059570	-41.319431
442.729787	6131.191667	478.801758	-78.334061
442.729787	6131.191667	477.543945	-104.893456
442.729787	6131.191667	476.285156	29.563395
442.729787	6131.191667	475.027344	-170.806885
442.729787	6131.191667	473.767578	-160.854675
442.729787	6131.191667	472.508789	-215.711121
442.729787	6131.191667	471.249023	-13.702625
442.729787	6131.191667	469.989258	-309.646240
442.729787	6131.191667	468.729492	11.663785
442.729787	6131.191667	467.469727	-81.863754
442.729787	6131.191667	466.208984	34.616100
442.729787	6131.191667	464.948242	-4.367530
442.729787	6131.191667	463.686523	-206.492249
442.729787	6131.191667	462.425781	-51.062992
442.729787	6131.191667	461.164063	-38.074131
442.729787	6131.191667	459.901367	83.683517
442.729787	6131.191667	458.639648	29.435720
442.729787	6131.191667	457.376953	-24.747475
442.729787	6131.191667	456.114258	133.283203
442.729787	6131.191667	454.851563	172.304749
442.729787	6131.191667	453.587891	105.319756
442.729787	6131.191667	452.324219	9.962396
442.729787	6131.191667	451.060547	124.063049
442.729787	6131.191667	449.796875	-167.593918
442.729787	6131.191667	448.532227	-37.934990
442.729787	6131.191667	447.267578	99.450752
442.729787	6131.191667	446.002930	-18.878296
442.729787	6131.191667	444.737305	61.692093
442.729787	6131.191667	443.471680	36.409271
442.729787	6131.191667	442.206055	194.411301
442.729787	6131.191667	440.940430	47.873241
442.729787	6131.191667	439.673828	-93.428101
442.729787	6131.191667	438.407227	131.612350
442.729787	6131.191667	437.140625	137.371353
442.729787	6131.191667	435.873047	264.307922
442.729787	6131.191667	434.605469	138.584198
442.729787	6131.191667	433.337891	262.894806
442.729787	6131.191667	432.070313	358.808258
442.729787	6131.191667	430.801758	176.462540
442.729787	6131.191667	429.533203	182.191010
442.729787	6131.191667	428.264648	360.419037
442.729787	6131.191667	426.996094	275.970215
442.729787	6131.191667	425.726563	1.072634
442.729787	6131.191667	424.457031	-119.343460
442.729787	6131.191667	423.186523	133.287445
442.729787	6131.191667	421.916992	293.178223
442.729787	6131.191667	420.646484	113.509392
442.729787	6131.191667	419.375977	244.954681
442.729787	6131.191667	418.104492	242.620575
442.729787	6131.191667	416.833008	155.419617
442.729787	6131.191667	415.561523	127.280968
442.729787	6131.191667	414.290039	88.802490
442.729787	6131.191667	413.017578	104.186211
442.729787	6131.191667	411.746094	206.775726
442.729787	6131.191667	410.472656	88.446991
442.729787	6131.191667	409.200195	229.285645
442.729787	6131.191667	407.926758	187.762741
442.729787	6131.191667	406.653320	215.402603
442.729787	6131.191667	405.379883	32.582573
442.729787	6131.191667	404.105469	-183.636429
442.729787	6131.191667	402.831055	269.221497
442.729787	6131.191667	401.556641	186.024002
442.729787	6131.191667	400.282227	105.257683
442.729787	6131.191667	399.006836	126.826508
442.729787	6131.191667	397.731445	281.396057
442.729787	6131.191667	396.456055	77.168732
442.729787	6131.191667	395.179688	251.753204
442.729787	6131.191667	393.903320	218.694351
442.729787	6131.191667	392.626953	93.284447
442.729787	6131.191667	391.350586	131.442368
442.729787	6131.191667	390.073242	66.995369
442.729787	6131.191667	388.795898	122.515015
442.729787	6131.191667	387.518555	85.673996
442.729787	6131.191667	386.240234	278.630859
442.729787	6131.191667	384.961914	110.807213
442.729787	6131.191667	383.683594	1.506466
442.729787	6131.191667	382.405273	282.804108
442.729787	6131.191667	381.125977	129.391296
442.729787	6131.191667	379.846680	54.842308
442.729787	6131.191667	378.567383	-55.803722
442.729787	6131.191667	377.287109	37.396122
442.729787	6131.191667	376.006836	165.867264
442.729787	6131.191667	374.726563	-37.847591
442.729787	6131.191667	373.446289	-40.401482
442.729787	6131.191667	372.165039	50.928612
442.729787	6131.191667	370.883789	98.382019
442.729787	6131.191667	369.602539	140.207657
442.729787	6131.191667	368.320313	107.563438
442.729787	6131.191667	367.039063	-88.685570
442.729787	6131.191667	365.755859	45.746834
442.729787	6131.191667	364.473633	169.353973
442.729787	6131.191667	363.190430	52.911999
442.729787	6131.191667	361.907227	91.189774
442.729787	6131.191667	360.624023	-69.747009
442.729787	6131.191667	359.340820	145.342575
442.729787	6131.191667	358.056641	268.026489
442.729787	6131.191667	356.772461	140.642654
442.729787	6131.191667	355.487305	35.433521
442.729787	6131.191667	354.202148	15.939055
442.729787	6131.191667	352.916992	-83.155434
442.729787	6131.191667	351.631836	-244.036316
442.729787	6131.191667	350.346680	77.075287
442.729787	6131.191667	349.060547	-44.890038
442.729787	6131.191667	347.774414	-15.327917
442.729787	6131.191667	346.487305	-118.788979
442.729787	6131.191667	345.200195	144.934662
442.729787	6131.191667	343.913086	278.088318
442.729787	6131.191667	342.625977	-23.790348
442.729787	6131.191667	341.338867	-141.401688
442.729787	6131.191667	340.050781	-100.288979
442.729787	6131.191667	338.762695	-22.292873
442.729787	6131.191667	337.473633	-67.229408
442.729787	6131.191667	336.184570	-82.937126
442.729787	6131.191667	334.895508	47.106533
442.729787	6131.191667	333.606445	-221.986755
442.729787	6131.191667	332.317383	-378.285767
442.729787	6131.191667	331.027344	-105.354408
442.729787	6131.191667	329.736328	16.636164
442.729787	6131.191667	328.446289	-113.454971
442.729787	6131.191667	327.155273	-42.521927
442.729787	6131.191667	325.864258	-56.643105
442.729787	6131.191667	324.573242	-234.234009
442.729787	6131.191667	323.281250	-193.339157
442.729787	6131.191667	321.989258	-138.940506
442.729787	6131.191667	320.697266	-96.375153
442.729787	6131.191667	319.405273	-80.848274
442.729787	6131.191667	318.112305	-51.997150
442.729787	6131.191667	316.819336	25.534441
442.729787	6131.191667	315.526367	149.137131
442.729787	6131.191667	314.232422	192.411621
442.729787	6131.191667	312.938477	-36.490784
442.729787	6131.191667	311.644531	60.832222
442.729787	6131.191667	310.349609	130.726624
442.729787	6131.191667	309.054688	-116.970352
442.729787	6131.191667	307.759766	67.140480
442.729787	6131.191667	306.464844	291.784454
442.729787	6131.191667	305.168945	302.135468
442.729787	6131.191667	303.873047	186.568054
442.729787	6131.191667	302.577148	340.824738
442.729787	6131.191667	301.281250	386.674255
442.729787	6131.191667	299.984375	676.774780
