#X		#Y		#Wave		#Intensity
29489.865745	-1387.965667	1999.980469	-3.791152
29489.865745	-1387.965667	1999.016602	-43.026539
29489.865745	-1387.965667	1998.052734	-409.974579
29489.865745	-1387.965667	1997.087891	10.336827
29489.865745	-1387.965667	1996.123047	243.755020
29489.865745	-1387.965667	1995.158203	22.868565
29489.865745	-1387.965667	1994.193359	-193.841949
29489.865745	-1387.965667	1993.228516	12.140654
29489.865745	-1387.965667	1992.262695	103.369339
29489.865745	-1387.965667	1991.297852	84.845230
29489.865745	-1387.965667	1990.332031	30.941042
29489.865745	-1387.965667	1989.366211	75.299545
29489.865745	-1387.965667	1988.399414	-138.345764
29489.865745	-1387.965667	1987.433594	-293.251404
29489.865745	-1387.965667	1986.466797	-33.271309
29489.865745	-1387.965667	1985.500977	332.279205
29489.865745	-1387.965667	1984.534180	-64.334396
29489.865745	-1387.965667	1983.567383	-38.741367
29489.865745	-1387.965667	1982.599609	233.404251
29489.865745	-1387.965667	1981.632813	42.842911
29489.865745	-1387.965667	1980.665039	-44.420395
29489.865745	-1387.965667	1979.697266	70.362610
29489.865745	-1387.965667	1978.729492	453.768219
29489.865745	-1387.965667	1977.761719	11.924943
29489.865745	-1387.965667	1976.792969	115.333214
29489.865745	-1387.965667	1975.825195	141.738983
29489.865745	-1387.965667	1974.856445	318.244141
29489.865745	-1387.965667	1973.887695	176.015366
29489.865745	-1387.965667	1972.918945	-114.549385
29489.865745	-1387.965667	1971.949219	36.075493
29489.865745	-1387.965667	1970.980469	201.075562
29489.865745	-1387.965667	1970.010742	318.835754
29489.865745	-1387.965667	1969.041016	120.725975
29489.865745	-1387.965667	1968.071289	176.208603
29489.865745	-1387.965667	1967.101563	135.278854
29489.865745	-1387.965667	1966.130859	128.575302
29489.865745	-1387.965667	1965.161133	165.931610
29489.865745	-1387.965667	1964.190430	178.396698
29489.865745	-1387.965667	1963.219727	-70.366905
29489.865745	-1387.965667	1962.249023	401.987732
29489.865745	-1387.965667	1961.277344	81.455612
29489.865745	-1387.965667	1960.306641	139.781250
29489.865745	-1387.965667	1959.334961	129.007568
29489.865745	-1387.965667	1958.363281	88.538788
29489.865745	-1387.965667	1957.391602	534.858826
29489.865745	-1387.965667	1956.419922	316.957214
29489.865745	-1387.965667	1955.447266	47.361023
29489.865745	-1387.965667	1954.474609	43.182953
29489.865745	-1387.965667	1953.501953	-71.709534
29489.865745	-1387.965667	1952.529297	-17.144600
29489.865745	-1387.965667	1951.556641	103.615700
29489.865745	-1387.965667	1950.583984	145.633240
29489.865745	-1387.965667	1949.610352	182.631912
29489.865745	-1387.965667	1948.636719	99.225357
29489.865745	-1387.965667	1947.663086	126.238297
29489.865745	-1387.965667	1946.689453	339.698273
29489.865745	-1387.965667	1945.715820	-89.890854
29489.865745	-1387.965667	1944.741211	-31.146744
29489.865745	-1387.965667	1943.767578	238.479034
29489.865745	-1387.965667	1942.792969	316.674835
29489.865745	-1387.965667	1941.818359	-213.294724
29489.865745	-1387.965667	1940.842773	195.857849
29489.865745	-1387.965667	1939.868164	-174.616608
29489.865745	-1387.965667	1938.892578	-69.538765
29489.865745	-1387.965667	1937.916992	-74.767860
29489.865745	-1387.965667	1936.941406	-364.167511
29489.865745	-1387.965667	1935.965820	34.791039
29489.865745	-1387.965667	1934.990234	-80.644966
29489.865745	-1387.965667	1934.013672	229.990021
29489.865745	-1387.965667	1933.037109	68.081764
29489.865745	-1387.965667	1932.060547	244.001907
29489.865745	-1387.965667	1931.083984	-140.481659
29489.865745	-1387.965667	1930.107422	-135.790695
29489.865745	-1387.965667	1929.129883	208.939835
29489.865745	-1387.965667	1928.153320	-353.752991
29489.865745	-1387.965667	1927.175781	39.870392
29489.865745	-1387.965667	1926.198242	-21.327267
29489.865745	-1387.965667	1925.219727	69.090736
29489.865745	-1387.965667	1924.242188	66.658463
29489.865745	-1387.965667	1923.263672	-18.793104
29489.865745	-1387.965667	1922.285156	-21.097425
29489.865745	-1387.965667	1921.306641	-169.892776
29489.865745	-1387.965667	1920.328125	-59.721901
29489.865745	-1387.965667	1919.349609	-135.084732
29489.865745	-1387.965667	1918.370117	31.310133
29489.865745	-1387.965667	1917.391602	24.424433
29489.865745	-1387.965667	1916.412109	78.612289
29489.865745	-1387.965667	1915.431641	-81.841484
29489.865745	-1387.965667	1914.452148	50.539616
29489.865745	-1387.965667	1913.472656	202.454575
29489.865745	-1387.965667	1912.492188	71.538055
29489.865745	-1387.965667	1911.511719	-234.784103
29489.865745	-1387.965667	1910.531250	-38.806118
29489.865745	-1387.965667	1909.550781	-45.097771
29489.865745	-1387.965667	1908.569336	114.373802
29489.865745	-1387.965667	1907.588867	-150.018402
29489.865745	-1387.965667	1906.607422	141.087601
29489.865745	-1387.965667	1905.625977	30.356688
29489.865745	-1387.965667	1904.644531	109.650124
29489.865745	-1387.965667	1903.662109	-190.749466
29489.865745	-1387.965667	1902.680664	-128.331757
29489.865745	-1387.965667	1901.698242	-238.627167
29489.865745	-1387.965667	1900.715820	-44.694420
29489.865745	-1387.965667	1899.733398	-33.194279
29489.865745	-1387.965667	1898.750000	117.001404
29489.865745	-1387.965667	1897.767578	41.075527
29489.865745	-1387.965667	1896.784180	-80.935699
29489.865745	-1387.965667	1895.800781	18.355408
29489.865745	-1387.965667	1894.817383	66.643059
29489.865745	-1387.965667	1893.833984	46.951450
29489.865745	-1387.965667	1892.850586	-123.281242
29489.865745	-1387.965667	1891.866211	180.233124
29489.865745	-1387.965667	1890.881836	36.885365
29489.865745	-1387.965667	1889.897461	-116.058464
29489.865745	-1387.965667	1888.913086	-200.916382
29489.865745	-1387.965667	1887.927734	44.390713
29489.865745	-1387.965667	1886.943359	282.379272
29489.865745	-1387.965667	1885.958008	71.515724
29489.865745	-1387.965667	1884.972656	-34.913460
29489.865745	-1387.965667	1883.987305	-29.693438
29489.865745	-1387.965667	1883.001953	-12.300828
29489.865745	-1387.965667	1882.015625	-290.621490
29489.865745	-1387.965667	1881.029297	78.363037
29489.865745	-1387.965667	1880.042969	30.437653
29489.865745	-1387.965667	1879.056641	21.336443
29489.865745	-1387.965667	1878.070313	-203.317902
29489.865745	-1387.965667	1877.083984	-108.148819
29489.865745	-1387.965667	1876.096680	-15.397724
29489.865745	-1387.965667	1875.109375	-2.544790
29489.865745	-1387.965667	1874.122070	32.118427
29489.865745	-1387.965667	1873.134766	-5.809046
29489.865745	-1387.965667	1872.146484	-220.330414
29489.865745	-1387.965667	1871.159180	-359.759521
29489.865745	-1387.965667	1870.170898	124.942688
29489.865745	-1387.965667	1869.182617	-183.743393
29489.865745	-1387.965667	1868.194336	56.566200
29489.865745	-1387.965667	1867.205078	171.094727
29489.865745	-1387.965667	1866.216797	-284.829407
29489.865745	-1387.965667	1865.227539	-56.688637
29489.865745	-1387.965667	1864.238281	-108.897377
29489.865745	-1387.965667	1863.249023	-103.110832
29489.865745	-1387.965667	1862.259766	-51.441277
29489.865745	-1387.965667	1861.269531	-115.698830
29489.865745	-1387.965667	1860.279297	119.428566
29489.865745	-1387.965667	1859.290039	93.756897
29489.865745	-1387.965667	1858.298828	-81.536934
29489.865745	-1387.965667	1857.308594	500.866150
29489.865745	-1387.965667	1856.318359	-7.400703
29489.865745	-1387.965667	1855.327148	41.676373
29489.865745	-1387.965667	1854.335938	-131.155029
29489.865745	-1387.965667	1853.344727	-142.405762
29489.865745	-1387.965667	1852.353516	72.913307
29489.865745	-1387.965667	1851.362305	6.123345
29489.865745	-1387.965667	1850.370117	54.991924
29489.865745	-1387.965667	1849.377930	144.758926
29489.865745	-1387.965667	1848.385742	239.263077
29489.865745	-1387.965667	1847.393555	191.587219
29489.865745	-1387.965667	1846.401367	257.052521
29489.865745	-1387.965667	1845.408203	250.217285
29489.865745	-1387.965667	1844.415039	14.659524
29489.865745	-1387.965667	1843.421875	313.387848
29489.865745	-1387.965667	1842.428711	183.651184
29489.865745	-1387.965667	1841.435547	150.122208
29489.865745	-1387.965667	1840.441406	453.271088
29489.865745	-1387.965667	1839.448242	68.464684
29489.865745	-1387.965667	1838.454102	282.404114
29489.865745	-1387.965667	1837.459961	241.374847
29489.865745	-1387.965667	1836.464844	27.235411
29489.865745	-1387.965667	1835.470703	240.814301
29489.865745	-1387.965667	1834.475586	254.819824
29489.865745	-1387.965667	1833.480469	316.768280
29489.865745	-1387.965667	1832.485352	155.250458
29489.865745	-1387.965667	1831.490234	272.228241
29489.865745	-1387.965667	1830.495117	317.038513
29489.865745	-1387.965667	1829.499023	570.552917
29489.865745	-1387.965667	1828.502930	171.124298
29489.865745	-1387.965667	1827.506836	110.040749
29489.865745	-1387.965667	1826.510742	247.975174
29489.865745	-1387.965667	1825.513672	522.455078
29489.865745	-1387.965667	1824.517578	139.662964
29489.865745	-1387.965667	1823.520508	224.414368
29489.865745	-1387.965667	1822.523438	131.625412
29489.865745	-1387.965667	1821.526367	266.422211
29489.865745	-1387.965667	1820.529297	259.665375
29489.865745	-1387.965667	1819.531250	336.629791
29489.865745	-1387.965667	1818.533203	42.163818
29489.865745	-1387.965667	1817.535156	449.348755
29489.865745	-1387.965667	1816.537109	207.369492
29489.865745	-1387.965667	1815.539063	101.787880
29489.865745	-1387.965667	1814.540039	237.841217
29489.865745	-1387.965667	1813.541992	136.783432
29489.865745	-1387.965667	1812.542969	339.468536
29489.865745	-1387.965667	1811.543945	82.640518
29489.865745	-1387.965667	1810.543945	308.864319
29489.865745	-1387.965667	1809.544922	269.418640
29489.865745	-1387.965667	1808.544922	138.980606
29489.865745	-1387.965667	1807.544922	319.164093
29489.865745	-1387.965667	1806.544922	85.667946
29489.865745	-1387.965667	1805.544922	258.288727
29489.865745	-1387.965667	1804.544922	62.776115
29489.865745	-1387.965667	1803.543945	471.448090
29489.865745	-1387.965667	1802.542969	227.856949
29489.865745	-1387.965667	1801.541992	492.734955
29489.865745	-1387.965667	1800.541016	294.226501
29489.865745	-1387.965667	1799.539063	114.703621
29489.865745	-1387.965667	1798.538086	166.529144
29489.865745	-1387.965667	1797.536133	24.896427
29489.865745	-1387.965667	1796.534180	276.706726
29489.865745	-1387.965667	1795.532227	320.747192
29489.865745	-1387.965667	1794.529297	-67.005356
29489.865745	-1387.965667	1793.527344	26.757252
29489.865745	-1387.965667	1792.524414	480.193542
29489.865745	-1387.965667	1791.521484	325.578888
29489.865745	-1387.965667	1790.518555	-29.318838
29489.865745	-1387.965667	1789.514648	75.468559
29489.865745	-1387.965667	1788.511719	139.526794
29489.865745	-1387.965667	1787.507813	181.918884
29489.865745	-1387.965667	1786.503906	183.610870
29489.865745	-1387.965667	1785.500000	101.780930
29489.865745	-1387.965667	1784.496094	229.202988
29489.865745	-1387.965667	1783.491211	1.818902
29489.865745	-1387.965667	1782.486328	233.453125
29489.865745	-1387.965667	1781.481445	169.844543
29489.865745	-1387.965667	1780.476563	106.040680
29489.865745	-1387.965667	1779.471680	151.413330
29489.865745	-1387.965667	1778.465820	379.589081
29489.865745	-1387.965667	1777.460938	341.264069
29489.865745	-1387.965667	1776.455078	243.317566
29489.865745	-1387.965667	1775.449219	21.640209
29489.865745	-1387.965667	1774.442383	201.258301
29489.865745	-1387.965667	1773.436523	285.586639
29489.865745	-1387.965667	1772.429688	136.950241
29489.865745	-1387.965667	1771.422852	-64.089325
29489.865745	-1387.965667	1770.416016	256.908508
29489.865745	-1387.965667	1769.409180	563.313965
29489.865745	-1387.965667	1768.402344	489.741577
29489.865745	-1387.965667	1767.394531	396.976105
29489.865745	-1387.965667	1766.386719	116.643013
29489.865745	-1387.965667	1765.378906	388.702545
29489.865745	-1387.965667	1764.371094	13.169781
29489.865745	-1387.965667	1763.362305	154.291672
29489.865745	-1387.965667	1762.354492	150.562637
29489.865745	-1387.965667	1761.345703	165.543472
29489.865745	-1387.965667	1760.336914	303.474487
29489.865745	-1387.965667	1759.328125	296.626831
29489.865745	-1387.965667	1758.318359	135.600037
29489.865745	-1387.965667	1757.308594	-49.280766
29489.865745	-1387.965667	1756.299805	-295.873108
29489.865745	-1387.965667	1755.290039	212.398911
29489.865745	-1387.965667	1754.279297	194.888031
29489.865745	-1387.965667	1753.269531	-12.119836
29489.865745	-1387.965667	1752.258789	-46.622211
29489.865745	-1387.965667	1751.249023	-322.576263
29489.865745	-1387.965667	1750.238281	-210.884689
29489.865745	-1387.965667	1749.226563	285.862061
29489.865745	-1387.965667	1748.215820	-9.643261
29489.865745	-1387.965667	1747.204102	61.011856
29489.865745	-1387.965667	1746.193359	-121.408524
29489.865745	-1387.965667	1745.181641	336.177185
29489.865745	-1387.965667	1744.168945	65.876022
29489.865745	-1387.965667	1743.157227	-29.804281
29489.865745	-1387.965667	1742.144531	-87.929848
29489.865745	-1387.965667	1741.132813	-214.714584
29489.865745	-1387.965667	1740.120117	-393.627777
29489.865745	-1387.965667	1739.106445	10.097954
29489.865745	-1387.965667	1738.093750	109.111511
29489.865745	-1387.965667	1737.080078	-219.096695
29489.865745	-1387.965667	1736.067383	-257.335754
29489.865745	-1387.965667	1735.053711	293.639801
29489.865745	-1387.965667	1734.040039	33.229591
29489.865745	-1387.965667	1733.025391	-158.981094
29489.865745	-1387.965667	1732.011719	-452.670502
29489.865745	-1387.965667	1730.997070	-371.893646
29489.865745	-1387.965667	1729.982422	306.931854
29489.865745	-1387.965667	1728.967773	-180.523178
29489.865745	-1387.965667	1727.952148	-340.742767
29489.865745	-1387.965667	1726.937500	-218.611755
29489.865745	-1387.965667	1725.921875	-228.589447
29489.865745	-1387.965667	1724.906250	-269.389069
29489.865745	-1387.965667	1723.890625	89.584213
29489.865745	-1387.965667	1722.875000	-161.086441
29489.865745	-1387.965667	1721.858398	-108.505226
29489.865745	-1387.965667	1720.841797	99.027740
29489.865745	-1387.965667	1719.825195	71.148483
29489.865745	-1387.965667	1718.808594	66.557487
29489.865745	-1387.965667	1717.791992	144.000214
29489.865745	-1387.965667	1716.774414	-110.140121
29489.865745	-1387.965667	1715.756836	-42.554951
29489.865745	-1387.965667	1714.739258	-116.147156
29489.865745	-1387.965667	1713.721680	68.389420
29489.865745	-1387.965667	1712.704102	419.339478
29489.865745	-1387.965667	1711.685547	-16.486895
29489.865745	-1387.965667	1710.667969	291.665619
29489.865745	-1387.965667	1709.649414	186.468307
29489.865745	-1387.965667	1708.630859	264.094696
29489.865745	-1387.965667	1707.611328	210.102325
29489.865745	-1387.965667	1706.592773	650.783264
29489.865745	-1387.965667	1705.573242	282.120026
29489.865745	-1387.965667	1704.553711	426.796692
29489.865745	-1387.965667	1703.534180	163.377579
29489.865745	-1387.965667	1702.513672	274.784729
29489.865745	-1387.965667	1701.494141	144.640381
29489.865745	-1387.965667	1700.473633	342.278778
29489.865745	-1387.965667	1699.453125	190.672287
29489.865745	-1387.965667	1698.432617	240.307281
29489.865745	-1387.965667	1697.412109	355.283356
29489.865745	-1387.965667	1696.390625	320.191559
29489.865745	-1387.965667	1695.369141	46.214073
29489.865745	-1387.965667	1694.347656	296.274872
29489.865745	-1387.965667	1693.326172	284.042084
29489.865745	-1387.965667	1692.304688	573.349854
29489.865745	-1387.965667	1691.282227	322.151794
29489.865745	-1387.965667	1690.260742	-127.839714
29489.865745	-1387.965667	1689.238281	130.424820
29489.865745	-1387.965667	1688.214844	154.677612
29489.865745	-1387.965667	1687.192383	340.001251
29489.865745	-1387.965667	1686.168945	172.286179
29489.865745	-1387.965667	1685.146484	282.445679
29489.865745	-1387.965667	1684.123047	385.365723
29489.865745	-1387.965667	1683.099609	72.471024
29489.865745	-1387.965667	1682.075195	-175.127731
29489.865745	-1387.965667	1681.051758	305.433319
29489.865745	-1387.965667	1680.027344	370.257721
29489.865745	-1387.965667	1679.002930	341.577637
29489.865745	-1387.965667	1677.978516	347.743134
29489.865745	-1387.965667	1676.953125	150.829163
29489.865745	-1387.965667	1675.928711	280.308502
29489.865745	-1387.965667	1674.903320	355.945618
29489.865745	-1387.965667	1673.877930	130.733139
29489.865745	-1387.965667	1672.852539	-3.652517
29489.865745	-1387.965667	1671.826172	600.439209
29489.865745	-1387.965667	1670.800781	183.871185
29489.865745	-1387.965667	1669.774414	344.904724
29489.865745	-1387.965667	1668.748047	545.330078
29489.865745	-1387.965667	1667.721680	459.187073
29489.865745	-1387.965667	1666.694336	312.405060
29489.865745	-1387.965667	1665.667969	223.760223
29489.865745	-1387.965667	1664.640625	-88.367966
29489.865745	-1387.965667	1663.613281	316.016479
29489.865745	-1387.965667	1662.585938	564.295227
29489.865745	-1387.965667	1661.557617	389.106232
29489.865745	-1387.965667	1660.530273	741.674011
29489.865745	-1387.965667	1659.501953	454.720947
29489.865745	-1387.965667	1658.473633	686.046265
29489.865745	-1387.965667	1657.444336	612.754395
29489.865745	-1387.965667	1656.416016	581.236755
29489.865745	-1387.965667	1655.386719	1011.832153
29489.865745	-1387.965667	1654.358398	889.488892
29489.865745	-1387.965667	1653.328125	683.457397
29489.865745	-1387.965667	1652.298828	955.655151
29489.865745	-1387.965667	1651.269531	842.381836
29489.865745	-1387.965667	1650.239258	845.067566
29489.865745	-1387.965667	1649.208984	1095.918823
29489.865745	-1387.965667	1648.178711	778.291992
29489.865745	-1387.965667	1647.148438	1063.693970
29489.865745	-1387.965667	1646.117188	1049.773560
29489.865745	-1387.965667	1645.086914	1249.097534
29489.865745	-1387.965667	1644.055664	1302.228149
29489.865745	-1387.965667	1643.024414	1478.096558
29489.865745	-1387.965667	1641.992188	1653.808472
29489.865745	-1387.965667	1640.960938	1736.765259
29489.865745	-1387.965667	1639.928711	1900.667236
29489.865745	-1387.965667	1638.896484	1552.717529
29489.865745	-1387.965667	1637.864258	1783.632080
29489.865745	-1387.965667	1636.832031	1539.906128
29489.865745	-1387.965667	1635.798828	1798.391357
29489.865745	-1387.965667	1634.766602	2098.413086
29489.865745	-1387.965667	1633.733398	1963.349121
29489.865745	-1387.965667	1632.699219	1849.093140
29489.865745	-1387.965667	1631.666016	1838.939697
29489.865745	-1387.965667	1630.632813	1875.001709
29489.865745	-1387.965667	1629.598633	2204.562744
29489.865745	-1387.965667	1628.564453	2069.447021
29489.865745	-1387.965667	1627.530273	1971.339233
29489.865745	-1387.965667	1626.495117	2342.190674
29489.865745	-1387.965667	1625.460938	2232.492920
29489.865745	-1387.965667	1624.425781	2289.067383
29489.865745	-1387.965667	1623.390625	2742.734131
29489.865745	-1387.965667	1622.355469	2459.850342
29489.865745	-1387.965667	1621.319336	2520.929199
29489.865745	-1387.965667	1620.284180	2441.261475
29489.865745	-1387.965667	1619.248047	2276.242432
29489.865745	-1387.965667	1618.211914	2754.835449
29489.865745	-1387.965667	1617.174805	2836.571533
29489.865745	-1387.965667	1616.138672	2371.872070
29489.865745	-1387.965667	1615.101563	2794.863037
29489.865745	-1387.965667	1614.065430	2676.114014
29489.865745	-1387.965667	1613.027344	3004.421875
29489.865745	-1387.965667	1611.990234	2715.214600
29489.865745	-1387.965667	1610.953125	2727.904297
29489.865745	-1387.965667	1609.915039	2756.716064
29489.865745	-1387.965667	1608.876953	2555.300049
29489.865745	-1387.965667	1607.838867	2720.036621
29489.865745	-1387.965667	1606.800781	2845.625488
29489.865745	-1387.965667	1605.761719	2904.448730
29489.865745	-1387.965667	1604.723633	2845.990234
29489.865745	-1387.965667	1603.684570	3036.010498
29489.865745	-1387.965667	1602.644531	3051.197754
29489.865745	-1387.965667	1601.605469	3215.927002
29489.865745	-1387.965667	1600.566406	3185.241699
29489.865745	-1387.965667	1599.526367	3120.129395
29489.865745	-1387.965667	1598.486328	3390.628418
29489.865745	-1387.965667	1597.446289	3203.866455
29489.865745	-1387.965667	1596.405273	3628.272461
29489.865745	-1387.965667	1595.365234	3108.665771
29489.865745	-1387.965667	1594.324219	3314.934082
29489.865745	-1387.965667	1593.283203	2667.162598
29489.865745	-1387.965667	1592.242188	3052.646973
29489.865745	-1387.965667	1591.200195	3155.765869
29489.865745	-1387.965667	1590.159180	2843.665527
29489.865745	-1387.965667	1589.117188	2937.797119
29489.865745	-1387.965667	1588.075195	2965.475830
29489.865745	-1387.965667	1587.032227	2720.338135
29489.865745	-1387.965667	1585.990234	3021.082031
29489.865745	-1387.965667	1584.947266	3253.023438
29489.865745	-1387.965667	1583.904297	3090.796387
29489.865745	-1387.965667	1582.861328	3008.941406
29489.865745	-1387.965667	1581.818359	2533.203125
29489.865745	-1387.965667	1580.775391	2366.978760
29489.865745	-1387.965667	1579.731445	2377.241943
29489.865745	-1387.965667	1578.687500	2689.845215
29489.865745	-1387.965667	1577.643555	3077.994385
29489.865745	-1387.965667	1576.598633	2456.801758
29489.865745	-1387.965667	1575.554688	2433.230713
29489.865745	-1387.965667	1574.509766	2805.558105
29489.865745	-1387.965667	1573.464844	2702.119873
29489.865745	-1387.965667	1572.419922	2731.501221
29489.865745	-1387.965667	1571.374023	2738.125244
29489.865745	-1387.965667	1570.329102	2918.649414
29489.865745	-1387.965667	1569.283203	2738.118896
29489.865745	-1387.965667	1568.237305	3065.092285
29489.865745	-1387.965667	1567.191406	2631.316406
29489.865745	-1387.965667	1566.144531	2716.347900
29489.865745	-1387.965667	1565.098633	2575.443848
29489.865745	-1387.965667	1564.051758	2868.552002
29489.865745	-1387.965667	1563.004883	2689.167236
29489.865745	-1387.965667	1561.957031	2402.727783
29489.865745	-1387.965667	1560.910156	2543.309570
29489.865745	-1387.965667	1559.862305	2430.744141
29489.865745	-1387.965667	1558.814453	2487.194092
29489.865745	-1387.965667	1557.766602	2646.425049
29489.865745	-1387.965667	1556.718750	2069.292725
29489.865745	-1387.965667	1555.669922	2333.748779
29489.865745	-1387.965667	1554.621094	2343.010742
29489.865745	-1387.965667	1553.573242	2213.473633
29489.865745	-1387.965667	1552.523438	2122.866211
29489.865745	-1387.965667	1551.474609	2394.690674
29489.865745	-1387.965667	1550.424805	2322.690186
29489.865745	-1387.965667	1549.375000	2016.384277
29489.865745	-1387.965667	1548.325195	2076.921631
29489.865745	-1387.965667	1547.275391	2321.999756
29489.865745	-1387.965667	1546.225586	2244.044434
29489.865745	-1387.965667	1545.174805	1966.088867
29489.865745	-1387.965667	1544.124023	2104.729492
29489.865745	-1387.965667	1543.073242	2152.554443
29489.865745	-1387.965667	1542.022461	2180.108643
29489.865745	-1387.965667	1540.970703	1803.181763
29489.865745	-1387.965667	1539.919922	1449.368774
29489.865745	-1387.965667	1538.868164	1568.578979
29489.865745	-1387.965667	1537.815430	1308.510376
29489.865745	-1387.965667	1536.763672	1428.145264
29489.865745	-1387.965667	1535.710938	1645.599243
29489.865745	-1387.965667	1534.659180	1799.635132
29489.865745	-1387.965667	1533.606445	1236.416138
29489.865745	-1387.965667	1532.552734	1186.614746
29489.865745	-1387.965667	1531.500000	1336.787231
29489.865745	-1387.965667	1530.446289	1076.445557
29489.865745	-1387.965667	1529.393555	1088.676636
29489.865745	-1387.965667	1528.338867	1028.533447
29489.865745	-1387.965667	1527.285156	871.165527
29489.865745	-1387.965667	1526.231445	1051.905396
29489.865745	-1387.965667	1525.176758	1019.737122
29489.865745	-1387.965667	1524.122070	600.299500
29489.865745	-1387.965667	1523.067383	675.219177
29489.865745	-1387.965667	1522.012695	562.335571
29489.865745	-1387.965667	1520.957031	547.125732
29489.865745	-1387.965667	1519.901367	276.293823
29489.865745	-1387.965667	1518.845703	497.110962
29489.865745	-1387.965667	1517.790039	217.853912
29489.865745	-1387.965667	1516.734375	267.115906
29489.865745	-1387.965667	1515.677734	336.968811
29489.865745	-1387.965667	1514.621094	54.154533
29489.865745	-1387.965667	1513.564453	-280.306000
29489.865745	-1387.965667	1512.507813	158.996719
29489.865745	-1387.965667	1511.450195	134.904907
29489.865745	-1387.965667	1510.393555	149.531158
29489.865745	-1387.965667	1509.335938	80.789314
29489.865745	-1387.965667	1508.278320	475.546661
29489.865745	-1387.965667	1507.219727	-177.798965
29489.865745	-1387.965667	1506.162109	-143.980927
29489.865745	-1387.965667	1505.103516	158.811157
29489.865745	-1387.965667	1504.044922	278.882843
29489.865745	-1387.965667	1502.986328	-151.589035
29489.865745	-1387.965667	1501.926758	9.665655
29489.865745	-1387.965667	1500.868164	168.891251
29489.865745	-1387.965667	1499.808594	30.541218
29489.865745	-1387.965667	1498.749023	91.011482
29489.865745	-1387.965667	1497.688477	77.317230
29489.865745	-1387.965667	1496.628906	-199.865814
29489.865745	-1387.965667	1495.568359	-16.814598
29489.865745	-1387.965667	1494.507813	-108.501572
29489.865745	-1387.965667	1493.447266	-242.675919
29489.865745	-1387.965667	1492.386719	78.557640
29489.865745	-1387.965667	1491.325195	-280.264709
29489.865745	-1387.965667	1490.263672	-305.370514
29489.865745	-1387.965667	1489.202148	221.430405
29489.865745	-1387.965667	1488.140625	41.499969
29489.865745	-1387.965667	1487.079102	125.248993
29489.865745	-1387.965667	1486.016602	285.755890
29489.865745	-1387.965667	1484.954102	311.514282
29489.865745	-1387.965667	1483.891602	492.755127
29489.865745	-1387.965667	1482.829102	474.074677
29489.865745	-1387.965667	1481.765625	595.077759
29489.865745	-1387.965667	1480.702148	77.942230
29489.865745	-1387.965667	1479.638672	381.596313
29489.865745	-1387.965667	1478.575195	379.802063
29489.865745	-1387.965667	1477.511719	398.583344
29489.865745	-1387.965667	1476.447266	11.096953
29489.865745	-1387.965667	1475.382813	378.521240
29489.865745	-1387.965667	1474.318359	193.809616
29489.865745	-1387.965667	1473.253906	-120.670502
29489.865745	-1387.965667	1472.189453	-194.508728
29489.865745	-1387.965667	1471.124023	267.921783
29489.865745	-1387.965667	1470.058594	364.913086
29489.865745	-1387.965667	1468.993164	332.213318
29489.865745	-1387.965667	1467.927734	55.578480
29489.865745	-1387.965667	1466.861328	319.308289
29489.865745	-1387.965667	1465.794922	47.654457
29489.865745	-1387.965667	1464.728516	459.724457
29489.865745	-1387.965667	1463.662109	55.135441
29489.865745	-1387.965667	1462.594727	353.106140
29489.865745	-1387.965667	1461.528320	295.783234
29489.865745	-1387.965667	1460.460938	298.784088
29489.865745	-1387.965667	1459.393555	541.352783
29489.865745	-1387.965667	1458.326172	714.805481
29489.865745	-1387.965667	1457.257813	679.586792
29489.865745	-1387.965667	1456.189453	565.818726
29489.865745	-1387.965667	1455.121094	742.331177
29489.865745	-1387.965667	1454.052734	600.155029
29489.865745	-1387.965667	1452.984375	762.557617
29489.865745	-1387.965667	1451.915039	354.238678
29489.865745	-1387.965667	1450.845703	652.664429
29489.865745	-1387.965667	1449.776367	996.566833
29489.865745	-1387.965667	1448.707031	1017.396667
29489.865745	-1387.965667	1447.636719	869.868408
29489.865745	-1387.965667	1446.567383	1166.466187
29489.865745	-1387.965667	1445.497070	917.639038
29489.865745	-1387.965667	1444.425781	903.272095
29489.865745	-1387.965667	1443.355469	811.587952
29489.865745	-1387.965667	1442.285156	1215.096436
29489.865745	-1387.965667	1441.213867	1090.013428
29489.865745	-1387.965667	1440.142578	1164.415283
29489.865745	-1387.965667	1439.070313	997.659180
29489.865745	-1387.965667	1437.999023	876.333862
29489.865745	-1387.965667	1436.926758	712.314575
29489.865745	-1387.965667	1435.854492	768.090454
29489.865745	-1387.965667	1434.782227	978.701782
29489.865745	-1387.965667	1433.709961	596.091248
29489.865745	-1387.965667	1432.636719	884.818420
29489.865745	-1387.965667	1431.563477	956.635071
29489.865745	-1387.965667	1430.490234	639.727844
29489.865745	-1387.965667	1429.416992	915.086121
29489.865745	-1387.965667	1428.343750	497.298767
29489.865745	-1387.965667	1427.269531	465.477570
29489.865745	-1387.965667	1426.195313	99.138313
29489.865745	-1387.965667	1425.121094	433.590607
29489.865745	-1387.965667	1424.046875	530.267029
29489.865745	-1387.965667	1422.971680	36.772434
29489.865745	-1387.965667	1421.896484	-27.878479
29489.865745	-1387.965667	1420.821289	-16.938753
29489.865745	-1387.965667	1419.746094	350.047546
29489.865745	-1387.965667	1418.669922	418.160858
29489.865745	-1387.965667	1417.594727	11.918786
29489.865745	-1387.965667	1416.518555	290.049988
29489.865745	-1387.965667	1415.442383	279.721680
29489.865745	-1387.965667	1414.365234	-94.474960
29489.865745	-1387.965667	1413.289063	65.963776
29489.865745	-1387.965667	1412.211914	-53.999073
29489.865745	-1387.965667	1411.134766	270.435394
29489.865745	-1387.965667	1410.057617	44.754192
29489.865745	-1387.965667	1408.979492	125.985138
29489.865745	-1387.965667	1407.902344	76.232849
29489.865745	-1387.965667	1406.824219	-48.884903
29489.865745	-1387.965667	1405.746094	173.236084
29489.865745	-1387.965667	1404.666992	338.614777
29489.865745	-1387.965667	1403.588867	36.426010
29489.865745	-1387.965667	1402.509766	358.307007
29489.865745	-1387.965667	1401.430664	405.731964
29489.865745	-1387.965667	1400.351563	41.523636
29489.865745	-1387.965667	1399.271484	-31.960012
29489.865745	-1387.965667	1398.192383	62.105625
29489.865745	-1387.965667	1397.112305	85.834732
29489.865745	-1387.965667	1396.031250	182.781128
29489.865745	-1387.965667	1394.951172	201.527679
29489.865745	-1387.965667	1393.871094	421.989410
29489.865745	-1387.965667	1392.790039	500.814667
29489.865745	-1387.965667	1391.708984	200.209671
29489.865745	-1387.965667	1390.626953	626.741150
29489.865745	-1387.965667	1389.545898	698.194702
29489.865745	-1387.965667	1388.463867	636.824768
29489.865745	-1387.965667	1387.381836	733.043640
29489.865745	-1387.965667	1386.299805	867.476440
29489.865745	-1387.965667	1385.217773	947.301208
29489.865745	-1387.965667	1384.134766	649.654175
29489.865745	-1387.965667	1383.051758	882.979919
29489.865745	-1387.965667	1381.968750	691.665283
29489.865745	-1387.965667	1380.885742	736.100952
29489.865745	-1387.965667	1379.802734	723.820313
29489.865745	-1387.965667	1378.718750	1076.966431
29489.865745	-1387.965667	1377.634766	1222.262085
29489.865745	-1387.965667	1376.550781	1228.861572
29489.865745	-1387.965667	1375.465820	999.674194
29489.865745	-1387.965667	1374.381836	1004.881592
29489.865745	-1387.965667	1373.296875	889.325989
29489.865745	-1387.965667	1372.211914	775.059082
29489.865745	-1387.965667	1371.126953	1163.731201
29489.865745	-1387.965667	1370.041016	937.801514
29489.865745	-1387.965667	1368.955078	859.037659
29489.865745	-1387.965667	1367.869141	1022.888916
29489.865745	-1387.965667	1366.783203	892.683228
29489.865745	-1387.965667	1365.697266	909.561157
29489.865745	-1387.965667	1364.610352	805.861694
29489.865745	-1387.965667	1363.523438	1021.554565
29489.865745	-1387.965667	1362.436523	692.165039
29489.865745	-1387.965667	1361.349609	641.187195
29489.865745	-1387.965667	1360.261719	835.019165
29489.865745	-1387.965667	1359.174805	725.465881
29489.865745	-1387.965667	1358.086914	777.999756
29489.865745	-1387.965667	1356.998047	490.003967
29489.865745	-1387.965667	1355.910156	717.225647
29489.865745	-1387.965667	1354.821289	679.403931
29489.865745	-1387.965667	1353.732422	523.520569
29489.865745	-1387.965667	1352.643555	724.776550
29489.865745	-1387.965667	1351.554688	305.474243
29489.865745	-1387.965667	1350.464844	602.822021
29489.865745	-1387.965667	1349.375000	438.943359
29489.865745	-1387.965667	1348.285156	639.300964
29489.865745	-1387.965667	1347.195313	359.791016
29489.865745	-1387.965667	1346.105469	762.518677
29489.865745	-1387.965667	1345.014648	401.179260
29489.865745	-1387.965667	1343.923828	347.067413
29489.865745	-1387.965667	1342.833008	548.409363
29489.865745	-1387.965667	1341.741211	504.912567
29489.865745	-1387.965667	1340.650391	730.401550
29489.865745	-1387.965667	1339.558594	775.283752
29489.865745	-1387.965667	1338.466797	497.704712
29489.865745	-1387.965667	1337.374023	371.800079
29489.865745	-1387.965667	1336.282227	481.088501
29489.865745	-1387.965667	1335.189453	640.636780
29489.865745	-1387.965667	1334.096680	561.195251
29489.865745	-1387.965667	1333.003906	574.855347
29489.865745	-1387.965667	1331.910156	594.872498
29489.865745	-1387.965667	1330.817383	644.435852
29489.865745	-1387.965667	1329.723633	838.359680
29489.865745	-1387.965667	1328.629883	655.366211
29489.865745	-1387.965667	1327.535156	328.566925
29489.865745	-1387.965667	1326.441406	555.358826
29489.865745	-1387.965667	1325.346680	1059.108032
29489.865745	-1387.965667	1324.251953	734.577148
29489.865745	-1387.965667	1323.156250	704.370361
29489.865745	-1387.965667	1322.061523	785.323181
29489.865745	-1387.965667	1320.965820	1044.337646
29489.865745	-1387.965667	1319.870117	1031.308960
29489.865745	-1387.965667	1318.774414	1002.344055
29489.865745	-1387.965667	1317.678711	1019.764709
29489.865745	-1387.965667	1316.582031	1319.492065
29489.865745	-1387.965667	1315.485352	1206.582886
29489.865745	-1387.965667	1314.388672	1243.605103
29489.865745	-1387.965667	1313.291016	1371.608887
29489.865745	-1387.965667	1312.194336	1353.224976
29489.865745	-1387.965667	1311.096680	1522.693115
29489.865745	-1387.965667	1309.999023	1226.801880
29489.865745	-1387.965667	1308.901367	1108.836182
29489.865745	-1387.965667	1307.802734	1389.139526
29489.865745	-1387.965667	1306.705078	1349.035156
29489.865745	-1387.965667	1305.606445	1155.195313
29489.865745	-1387.965667	1304.506836	1238.949707
29489.865745	-1387.965667	1303.408203	1224.652466
29489.865745	-1387.965667	1302.308594	1248.853149
29489.865745	-1387.965667	1301.208984	1417.853394
29489.865745	-1387.965667	1300.109375	1417.902832
29489.865745	-1387.965667	1299.009766	1843.878052
29489.865745	-1387.965667	1297.909180	1303.689697
29489.865745	-1387.965667	1296.808594	1879.975098
29489.865745	-1387.965667	1295.708008	1772.622559
29489.865745	-1387.965667	1294.607422	1563.803467
29489.865745	-1387.965667	1293.506836	1732.126831
29489.865745	-1387.965667	1292.405273	1299.386597
29489.865745	-1387.965667	1291.303711	1187.540039
29489.865745	-1387.965667	1290.202148	1074.684448
29489.865745	-1387.965667	1289.099609	917.832581
29489.865745	-1387.965667	1287.998047	1171.434204
29489.865745	-1387.965667	1286.895508	1210.113159
29489.865745	-1387.965667	1285.792969	1076.117432
29489.865745	-1387.965667	1284.689453	772.745300
29489.865745	-1387.965667	1283.586914	901.280090
29489.865745	-1387.965667	1282.483398	926.908447
29489.865745	-1387.965667	1281.379883	704.282654
29489.865745	-1387.965667	1280.276367	771.556641
29489.865745	-1387.965667	1279.171875	812.337280
29489.865745	-1387.965667	1278.067383	720.964355
29489.865745	-1387.965667	1276.962891	583.099487
29489.865745	-1387.965667	1275.858398	512.215149
29489.865745	-1387.965667	1274.753906	451.922302
29489.865745	-1387.965667	1273.648438	254.466660
29489.865745	-1387.965667	1272.542969	258.092133
29489.865745	-1387.965667	1271.437500	468.493744
29489.865745	-1387.965667	1270.331055	321.518860
29489.865745	-1387.965667	1269.225586	451.471832
29489.865745	-1387.965667	1268.119141	450.996979
29489.865745	-1387.965667	1267.012695	437.631134
29489.865745	-1387.965667	1265.906250	338.243164
29489.865745	-1387.965667	1264.798828	66.239143
29489.865745	-1387.965667	1263.691406	75.923439
29489.865745	-1387.965667	1262.583984	373.557526
29489.865745	-1387.965667	1261.476563	114.594345
29489.865745	-1387.965667	1260.368164	213.818878
29489.865745	-1387.965667	1259.260742	115.250290
29489.865745	-1387.965667	1258.152344	35.275284
29489.865745	-1387.965667	1257.043945	34.295925
29489.865745	-1387.965667	1255.934570	58.515221
29489.865745	-1387.965667	1254.825195	-192.248703
29489.865745	-1387.965667	1253.716797	9.209050
29489.865745	-1387.965667	1252.606445	37.447002
29489.865745	-1387.965667	1251.497070	-119.863152
29489.865745	-1387.965667	1250.387695	-1.416823
29489.865745	-1387.965667	1249.277344	158.992859
29489.865745	-1387.965667	1248.166992	-1.790433
29489.865745	-1387.965667	1247.055664	194.867874
29489.865745	-1387.965667	1245.945313	-21.121914
29489.865745	-1387.965667	1244.833984	76.474251
29489.865745	-1387.965667	1243.722656	59.814655
29489.865745	-1387.965667	1242.611328	-68.608543
29489.865745	-1387.965667	1241.499023	181.243423
29489.865745	-1387.965667	1240.387695	-214.697281
29489.865745	-1387.965667	1239.275391	-205.388260
29489.865745	-1387.965667	1238.162109	-150.646011
29489.865745	-1387.965667	1237.049805	80.348595
29489.865745	-1387.965667	1235.936523	-72.346603
29489.865745	-1387.965667	1234.823242	40.337208
29489.865745	-1387.965667	1233.709961	-128.078400
29489.865745	-1387.965667	1232.596680	-364.362885
29489.865745	-1387.965667	1231.482422	-292.016754
29489.865745	-1387.965667	1230.369141	-151.755432
29489.865745	-1387.965667	1229.253906	-228.766464
29489.865745	-1387.965667	1228.139648	-205.979172
29489.865745	-1387.965667	1227.025391	-53.161686
29489.865745	-1387.965667	1225.910156	-170.564758
29489.865745	-1387.965667	1224.794922	-258.195160
29489.865745	-1387.965667	1223.679688	-358.585876
29489.865745	-1387.965667	1222.563477	-148.745621
29489.865745	-1387.965667	1221.447266	-274.880157
29489.865745	-1387.965667	1220.331055	-251.522430
29489.865745	-1387.965667	1219.214844	-155.457321
29489.865745	-1387.965667	1218.098633	-256.452087
29489.865745	-1387.965667	1216.981445	-236.914124
29489.865745	-1387.965667	1215.864258	-139.412109
29489.865745	-1387.965667	1214.747070	117.907852
29489.865745	-1387.965667	1213.629883	-72.604279
29489.865745	-1387.965667	1212.511719	-59.135406
29489.865745	-1387.965667	1211.393555	-129.013611
29489.865745	-1387.965667	1210.275391	58.831837
29489.865745	-1387.965667	1209.157227	196.309586
29489.865745	-1387.965667	1208.038086	189.341843
29489.865745	-1387.965667	1206.918945	170.190750
29489.865745	-1387.965667	1205.799805	211.110703
29489.865745	-1387.965667	1204.680664	52.787777
29489.865745	-1387.965667	1203.560547	161.460312
29489.865745	-1387.965667	1202.441406	30.530046
29489.865745	-1387.965667	1201.321289	29.201653
29489.865745	-1387.965667	1200.200195	26.832859
29489.865745	-1387.965667	1199.080078	111.433418
29489.865745	-1387.965667	1197.958984	109.937973
29489.865745	-1387.965667	1196.837891	110.273651
29489.865745	-1387.965667	1195.716797	-8.408503
29489.865745	-1387.965667	1194.594727	92.953506
29489.865745	-1387.965667	1193.473633	98.626305
29489.865745	-1387.965667	1192.351563	50.110096
29489.865745	-1387.965667	1191.229492	-8.560006
29489.865745	-1387.965667	1190.106445	43.275330
29489.865745	-1387.965667	1188.984375	187.860153
29489.865745	-1387.965667	1187.861328	-36.599014
29489.865745	-1387.965667	1186.738281	66.484184
29489.865745	-1387.965667	1185.614258	-16.242962
29489.865745	-1387.965667	1184.491211	124.827759
29489.865745	-1387.965667	1183.367188	214.716583
29489.865745	-1387.965667	1182.243164	234.299423
29489.865745	-1387.965667	1181.119141	342.651367
29489.865745	-1387.965667	1179.994141	394.725952
29489.865745	-1387.965667	1178.869141	345.907257
29489.865745	-1387.965667	1177.744141	277.989166
29489.865745	-1387.965667	1176.619141	362.757904
29489.865745	-1387.965667	1175.493164	297.277832
29489.865745	-1387.965667	1174.368164	240.661270
29489.865745	-1387.965667	1173.242188	14.719655
29489.865745	-1387.965667	1172.115234	21.391182
29489.865745	-1387.965667	1170.989258	78.812332
29489.865745	-1387.965667	1169.862305	165.914978
29489.865745	-1387.965667	1168.735352	23.273851
29489.865745	-1387.965667	1167.608398	-83.131393
29489.865745	-1387.965667	1166.481445	61.926971
29489.865745	-1387.965667	1165.353516	-102.942566
29489.865745	-1387.965667	1164.225586	111.827461
29489.865745	-1387.965667	1163.097656	4.437494
29489.865745	-1387.965667	1161.968750	-82.955444
29489.865745	-1387.965667	1160.840820	-47.960629
29489.865745	-1387.965667	1159.711914	43.103821
29489.865745	-1387.965667	1158.583008	-55.295502
29489.865745	-1387.965667	1157.453125	-121.728539
29489.865745	-1387.965667	1156.324219	286.497284
29489.865745	-1387.965667	1155.194336	124.141037
29489.865745	-1387.965667	1154.064453	70.058594
29489.865745	-1387.965667	1152.933594	-156.882935
29489.865745	-1387.965667	1151.803711	-78.837555
29489.865745	-1387.965667	1150.672852	-54.299046
29489.865745	-1387.965667	1149.541992	-106.266457
29489.865745	-1387.965667	1148.411133	-73.361359
29489.865745	-1387.965667	1147.279297	16.855114
29489.865745	-1387.965667	1146.147461	-55.809013
29489.865745	-1387.965667	1145.015625	48.843102
29489.865745	-1387.965667	1143.883789	41.566925
29489.865745	-1387.965667	1142.750977	-160.814346
29489.865745	-1387.965667	1141.619141	35.682487
29489.865745	-1387.965667	1140.486328	-147.315399
29489.865745	-1387.965667	1139.352539	-48.773586
29489.865745	-1387.965667	1138.219727	84.168953
29489.865745	-1387.965667	1137.085938	89.982384
29489.865745	-1387.965667	1135.952148	31.468258
29489.865745	-1387.965667	1134.818359	104.311882
29489.865745	-1387.965667	1133.683594	87.087509
29489.865745	-1387.965667	1132.549805	67.975914
29489.865745	-1387.965667	1131.415039	-11.903558
29489.865745	-1387.965667	1130.279297	100.341118
29489.865745	-1387.965667	1129.144531	240.680603
29489.865745	-1387.965667	1128.008789	232.272614
29489.865745	-1387.965667	1126.873047	-69.064514
29489.865745	-1387.965667	1125.737305	-38.393353
29489.865745	-1387.965667	1124.601563	145.151245
29489.865745	-1387.965667	1123.464844	89.324181
29489.865745	-1387.965667	1122.328125	207.674881
29489.865745	-1387.965667	1121.191406	63.832237
29489.865745	-1387.965667	1120.054688	49.083363
29489.865745	-1387.965667	1118.916992	5.608451
29489.865745	-1387.965667	1117.779297	140.525925
29489.865745	-1387.965667	1116.641602	-41.703243
29489.865745	-1387.965667	1115.503906	106.409309
29489.865745	-1387.965667	1114.365234	118.885132
29489.865745	-1387.965667	1113.226563	151.075638
29489.865745	-1387.965667	1112.087891	223.264175
29489.865745	-1387.965667	1110.949219	314.144226
29489.865745	-1387.965667	1109.809570	299.250549
29489.865745	-1387.965667	1108.669922	291.837524
29489.865745	-1387.965667	1107.530273	310.010803
29489.865745	-1387.965667	1106.390625	63.684689
29489.865745	-1387.965667	1105.250000	126.108284
29489.865745	-1387.965667	1104.109375	39.517048
29489.865745	-1387.965667	1102.968750	372.159271
29489.865745	-1387.965667	1101.828125	199.216904
29489.865745	-1387.965667	1100.686523	4.870224
29489.865745	-1387.965667	1099.544922	276.333801
29489.865745	-1387.965667	1098.403320	230.215393
29489.865745	-1387.965667	1097.261719	372.347351
29489.865745	-1387.965667	1096.120117	134.249573
29489.865745	-1387.965667	1094.977539	338.967041
29489.865745	-1387.965667	1093.834961	443.672089
29489.865745	-1387.965667	1092.691406	273.622314
29489.865745	-1387.965667	1091.548828	277.250824
29489.865745	-1387.965667	1090.405273	369.037262
29489.865745	-1387.965667	1089.261719	550.841980
29489.865745	-1387.965667	1088.118164	425.085388
29489.865745	-1387.965667	1086.973633	135.553879
29489.865745	-1387.965667	1085.829102	263.731293
29489.865745	-1387.965667	1084.684570	387.075195
29489.865745	-1387.965667	1083.540039	345.732544
29489.865745	-1387.965667	1082.395508	159.389465
29489.865745	-1387.965667	1081.250000	306.837616
29489.865745	-1387.965667	1080.104492	225.536209
29489.865745	-1387.965667	1078.958984	344.196716
29489.865745	-1387.965667	1077.812500	519.091003
29489.865745	-1387.965667	1076.666016	318.036011
29489.865745	-1387.965667	1075.519531	541.216003
29489.865745	-1387.965667	1074.373047	485.576904
29489.865745	-1387.965667	1073.226563	452.595947
29489.865745	-1387.965667	1072.079102	435.284607
29489.865745	-1387.965667	1070.931641	374.607086
29489.865745	-1387.965667	1069.784180	684.927307
29489.865745	-1387.965667	1068.635742	831.324829
29489.865745	-1387.965667	1067.487305	434.965424
29489.865745	-1387.965667	1066.338867	535.547058
29489.865745	-1387.965667	1065.190430	475.634888
29489.865745	-1387.965667	1064.041992	440.102722
29489.865745	-1387.965667	1062.892578	387.338135
29489.865745	-1387.965667	1061.743164	435.480225
29489.865745	-1387.965667	1060.593750	344.980896
29489.865745	-1387.965667	1059.443359	424.528229
29489.865745	-1387.965667	1058.292969	353.126923
29489.865745	-1387.965667	1057.142578	269.904694
29489.865745	-1387.965667	1055.992188	195.196335
29489.865745	-1387.965667	1054.841797	539.588623
29489.865745	-1387.965667	1053.690430	276.530823
29489.865745	-1387.965667	1052.539063	445.172760
29489.865745	-1387.965667	1051.387695	111.700813
29489.865745	-1387.965667	1050.235352	369.343292
29489.865745	-1387.965667	1049.083984	116.017136
29489.865745	-1387.965667	1047.931641	87.922157
29489.865745	-1387.965667	1046.778320	366.453430
29489.865745	-1387.965667	1045.625977	397.276642
29489.865745	-1387.965667	1044.472656	247.057739
29489.865745	-1387.965667	1043.319336	539.279541
29489.865745	-1387.965667	1042.166016	273.020996
29489.865745	-1387.965667	1041.012695	484.673737
29489.865745	-1387.965667	1039.858398	309.293274
29489.865745	-1387.965667	1038.704102	350.806152
29489.865745	-1387.965667	1037.549805	322.914520
29489.865745	-1387.965667	1036.394531	443.482208
29489.865745	-1387.965667	1035.239258	459.041595
29489.865745	-1387.965667	1034.083984	374.794800
29489.865745	-1387.965667	1032.928711	221.748672
29489.865745	-1387.965667	1031.773438	517.368958
29489.865745	-1387.965667	1030.617188	382.185150
29489.865745	-1387.965667	1029.460938	153.302353
29489.865745	-1387.965667	1028.304688	-94.212044
29489.865745	-1387.965667	1027.147461	112.594933
29489.865745	-1387.965667	1025.991211	-39.476650
29489.865745	-1387.965667	1024.833984	-126.561005
29489.865745	-1387.965667	1023.675781	-39.979671
29489.865745	-1387.965667	1022.518555	34.782822
29489.865745	-1387.965667	1021.360352	58.130798
29489.865745	-1387.965667	1020.202148	29.642855
29489.865745	-1387.965667	1019.043945	30.757507
29489.865745	-1387.965667	1017.884766	33.839130
29489.865745	-1387.965667	1016.726563	24.714657
29489.865745	-1387.965667	1015.567383	-84.896065
29489.865745	-1387.965667	1014.407227	-217.752029
29489.865745	-1387.965667	1013.248047	-63.734776
29489.865745	-1387.965667	1012.087891	-192.107376
29489.865745	-1387.965667	1010.927734	-241.618637
29489.865745	-1387.965667	1009.767578	-287.388641
29489.865745	-1387.965667	1008.606445	-30.705965
29489.865745	-1387.965667	1007.446289	-113.189636
29489.865745	-1387.965667	1006.285156	41.316402
29489.865745	-1387.965667	1005.123047	258.244568
29489.865745	-1387.965667	1003.961914	82.876770
29489.865745	-1387.965667	1002.799805	-213.342392
29489.865745	-1387.965667	1001.637695	-57.243095
29489.865745	-1387.965667	1000.475586	23.896387
29489.865745	-1387.965667	999.312500	222.103241
29489.865745	-1387.965667	998.149414	75.287720
29489.865745	-1387.965667	996.986328	170.976257
29489.865745	-1387.965667	995.823242	44.386650
29489.865745	-1387.965667	994.659180	167.147369
29489.865745	-1387.965667	993.496094	79.639236
29489.865745	-1387.965667	992.332031	-33.958088
29489.865745	-1387.965667	991.166992	-525.235596
29489.865745	-1387.965667	990.002930	-132.394089
29489.865745	-1387.965667	988.837891	-47.428150
29489.865745	-1387.965667	987.672852	-71.042137
29489.865745	-1387.965667	986.506836	-46.137375
29489.865745	-1387.965667	985.341797	-4.041096
29489.865745	-1387.965667	984.175781	22.651960
29489.865745	-1387.965667	983.009766	-36.400982
29489.865745	-1387.965667	981.843750	21.795195
29489.865745	-1387.965667	980.676758	-88.295929
29489.865745	-1387.965667	979.509766	-26.036488
29489.865745	-1387.965667	978.342773	13.654564
29489.865745	-1387.965667	977.175781	-194.924942
29489.865745	-1387.965667	976.007813	-16.999161
29489.865745	-1387.965667	974.839844	42.513325
29489.865745	-1387.965667	973.671875	-222.460739
29489.865745	-1387.965667	972.503906	76.878403
29489.865745	-1387.965667	971.334961	29.023130
29489.865745	-1387.965667	970.166016	-123.118736
29489.865745	-1387.965667	968.997070	-75.173225
29489.865745	-1387.965667	967.828125	-116.061310
29489.865745	-1387.965667	966.658203	-161.025223
29489.865745	-1387.965667	965.488281	29.046183
29489.865745	-1387.965667	964.318359	175.686981
29489.865745	-1387.965667	963.148438	-6.818728
29489.865745	-1387.965667	961.977539	50.960415
29489.865745	-1387.965667	960.806641	142.594696
29489.865745	-1387.965667	959.635742	-18.782206
29489.865745	-1387.965667	958.463867	-9.223471
29489.865745	-1387.965667	957.292969	-74.977669
29489.865745	-1387.965667	956.121094	110.980743
29489.865745	-1387.965667	954.948242	105.332161
29489.865745	-1387.965667	953.776367	107.279419
29489.865745	-1387.965667	952.603516	116.521599
29489.865745	-1387.965667	951.430664	105.508194
29489.865745	-1387.965667	950.257813	274.173584
29489.865745	-1387.965667	949.084961	237.303711
29489.865745	-1387.965667	947.911133	261.399597
29489.865745	-1387.965667	946.737305	281.199982
29489.865745	-1387.965667	945.563477	198.178192
29489.865745	-1387.965667	944.388672	187.376190
29489.865745	-1387.965667	943.213867	166.284683
29489.865745	-1387.965667	942.039063	101.302826
29489.865745	-1387.965667	940.864258	134.405930
29489.865745	-1387.965667	939.688477	166.481430
29489.865745	-1387.965667	938.513672	423.529938
29489.865745	-1387.965667	937.337891	524.575562
29489.865745	-1387.965667	936.161133	402.554352
29489.865745	-1387.965667	934.985352	507.615601
29489.865745	-1387.965667	933.808594	245.279251
29489.865745	-1387.965667	932.631836	545.440491
29489.865745	-1387.965667	931.454102	462.009979
29489.865745	-1387.965667	930.277344	492.078430
29489.865745	-1387.965667	929.099609	349.708557
29489.865745	-1387.965667	927.921875	329.803436
29489.865745	-1387.965667	926.743164	303.031281
29489.865745	-1387.965667	925.565430	260.389374
29489.865745	-1387.965667	924.386719	287.969330
29489.865745	-1387.965667	923.208008	238.484894
29489.865745	-1387.965667	922.028320	320.338470
29489.865745	-1387.965667	920.849609	381.742401
29489.865745	-1387.965667	919.669922	388.223511
29489.865745	-1387.965667	919.474609	188.384796
29489.865745	-1387.965667	918.309570	141.015060
29489.865745	-1387.965667	917.143555	319.899994
29489.865745	-1387.965667	915.977539	-125.666496
29489.865745	-1387.965667	914.810547	-136.836975
29489.865745	-1387.965667	913.644531	100.694839
29489.865745	-1387.965667	912.477539	-30.396143
29489.865745	-1387.965667	911.310547	121.072701
29489.865745	-1387.965667	910.143555	32.910316
29489.865745	-1387.965667	908.975586	-197.579025
29489.865745	-1387.965667	907.807617	-104.978264
29489.865745	-1387.965667	906.639648	19.173820
29489.865745	-1387.965667	905.471680	-10.294340
29489.865745	-1387.965667	904.303711	183.717148
29489.865745	-1387.965667	903.134766	45.838535
29489.865745	-1387.965667	901.965820	120.109970
29489.865745	-1387.965667	900.796875	-78.669495
29489.865745	-1387.965667	899.626953	101.567802
29489.865745	-1387.965667	898.457031	-65.600868
29489.865745	-1387.965667	897.287109	-38.815948
29489.865745	-1387.965667	896.117188	-93.223732
29489.865745	-1387.965667	894.947266	61.972816
29489.865745	-1387.965667	893.776367	464.958344
29489.865745	-1387.965667	892.605469	259.462524
29489.865745	-1387.965667	891.434570	60.782356
29489.865745	-1387.965667	890.262695	229.241028
29489.865745	-1387.965667	889.091797	190.459991
29489.865745	-1387.965667	887.919922	122.407784
29489.865745	-1387.965667	886.748047	-19.910517
29489.865745	-1387.965667	885.575195	157.332062
29489.865745	-1387.965667	884.403320	233.235580
29489.865745	-1387.965667	883.230469	-66.538277
29489.865745	-1387.965667	882.057617	-199.802780
29489.865745	-1387.965667	880.883789	8.714221
29489.865745	-1387.965667	879.710938	120.456650
29489.865745	-1387.965667	878.537109	-125.207031
29489.865745	-1387.965667	877.362305	11.193770
29489.865745	-1387.965667	876.188477	-128.812958
29489.865745	-1387.965667	875.013672	-53.161655
29489.865745	-1387.965667	873.839844	85.304626
29489.865745	-1387.965667	872.664063	-220.836411
29489.865745	-1387.965667	871.489258	-107.131462
29489.865745	-1387.965667	870.313477	210.726990
29489.865745	-1387.965667	869.138672	48.265167
29489.865745	-1387.965667	867.962891	195.421326
29489.865745	-1387.965667	866.786133	-63.457146
29489.865745	-1387.965667	865.610352	-8.328309
29489.865745	-1387.965667	864.433594	42.269352
29489.865745	-1387.965667	863.256836	34.542225
29489.865745	-1387.965667	862.079102	8.867338
29489.865745	-1387.965667	860.902344	-23.549192
29489.865745	-1387.965667	859.724609	-156.781250
29489.865745	-1387.965667	858.546875	30.276033
29489.865745	-1387.965667	857.368164	-102.963364
29489.865745	-1387.965667	856.190430	14.548606
29489.865745	-1387.965667	855.011719	-0.066873
29489.865745	-1387.965667	853.833008	211.308777
29489.865745	-1387.965667	852.654297	-18.184177
29489.865745	-1387.965667	851.474609	-191.686630
29489.865745	-1387.965667	850.294922	3.855566
29489.865745	-1387.965667	849.115234	-4.184929
29489.865745	-1387.965667	847.935547	179.998108
29489.865745	-1387.965667	846.754883	26.589808
29489.865745	-1387.965667	845.575195	141.353394
29489.865745	-1387.965667	844.393555	-193.008591
29489.865745	-1387.965667	843.212891	-80.543350
29489.865745	-1387.965667	842.032227	-249.538513
29489.865745	-1387.965667	840.850586	-172.895081
29489.865745	-1387.965667	839.668945	-178.914276
29489.865745	-1387.965667	838.486328	-33.200325
29489.865745	-1387.965667	837.304688	-8.077562
29489.865745	-1387.965667	836.122070	12.538951
29489.865745	-1387.965667	834.939453	-22.649946
29489.865745	-1387.965667	833.756836	-115.842072
29489.865745	-1387.965667	832.573242	-376.243439
29489.865745	-1387.965667	831.389648	38.821426
29489.865745	-1387.965667	830.206055	-290.669525
29489.865745	-1387.965667	829.022461	-190.039139
29489.865745	-1387.965667	827.838867	-285.524384
29489.865745	-1387.965667	826.654297	-136.017044
29489.865745	-1387.965667	825.469727	80.189751
29489.865745	-1387.965667	824.284180	71.411148
29489.865745	-1387.965667	823.099609	178.333252
29489.865745	-1387.965667	821.914063	102.690437
29489.865745	-1387.965667	820.728516	-259.982178
29489.865745	-1387.965667	819.542969	-204.353271
29489.865745	-1387.965667	818.356445	129.208511
29489.865745	-1387.965667	817.169922	53.455143
29489.865745	-1387.965667	815.983398	-197.940277
29489.865745	-1387.965667	814.796875	-240.351486
29489.865745	-1387.965667	813.609375	34.973717
29489.865745	-1387.965667	812.422852	39.085320
29489.865745	-1387.965667	811.235352	78.685692
29489.865745	-1387.965667	810.046875	-230.438934
29489.865745	-1387.965667	808.859375	-215.328171
29489.865745	-1387.965667	807.670898	177.104813
29489.865745	-1387.965667	806.482422	78.831062
29489.865745	-1387.965667	805.293945	-245.788864
29489.865745	-1387.965667	804.104492	-0.177012
29489.865745	-1387.965667	802.915039	-187.239166
29489.865745	-1387.965667	801.725586	237.766052
29489.865745	-1387.965667	800.536133	232.417953
29489.865745	-1387.965667	799.345703	133.915359
29489.865745	-1387.965667	798.155273	146.204224
29489.865745	-1387.965667	796.964844	353.410675
29489.865745	-1387.965667	795.774414	-13.286418
29489.865745	-1387.965667	794.583008	-76.463799
29489.865745	-1387.965667	793.392578	57.396709
29489.865745	-1387.965667	792.200195	67.163994
29489.865745	-1387.965667	791.008789	160.969467
29489.865745	-1387.965667	789.816406	130.746094
29489.865745	-1387.965667	788.625000	-34.499218
29489.865745	-1387.965667	787.432617	87.826424
29489.865745	-1387.965667	786.239258	97.241547
29489.865745	-1387.965667	785.046875	-72.520081
29489.865745	-1387.965667	783.853516	36.264977
29489.865745	-1387.965667	782.660156	100.728828
29489.865745	-1387.965667	781.465820	72.282372
29489.865745	-1387.965667	780.272461	-15.875326
29489.865745	-1387.965667	779.078125	-130.577942
29489.865745	-1387.965667	777.883789	132.326416
29489.865745	-1387.965667	776.688477	10.867528
29489.865745	-1387.965667	775.494141	52.733238
29489.865745	-1387.965667	774.298828	21.673368
29489.865745	-1387.965667	773.103516	156.039261
29489.865745	-1387.965667	771.907227	100.546036
29489.865745	-1387.965667	770.711914	58.227722
29489.865745	-1387.965667	769.515625	148.157867
29489.865745	-1387.965667	768.318359	68.204613
29489.865745	-1387.965667	767.122070	32.285210
29489.865745	-1387.965667	765.924805	-67.613121
29489.865745	-1387.965667	764.727539	54.982555
29489.865745	-1387.965667	763.530273	188.458145
29489.865745	-1387.965667	762.333008	220.476913
29489.865745	-1387.965667	761.134766	230.376434
29489.865745	-1387.965667	759.936523	99.286186
29489.865745	-1387.965667	758.738281	179.461243
29489.865745	-1387.965667	757.540039	224.305130
29489.865745	-1387.965667	756.340820	-5.979609
29489.865745	-1387.965667	755.141602	142.086426
29489.865745	-1387.965667	753.942383	65.674355
29489.865745	-1387.965667	752.742188	70.556831
29489.865745	-1387.965667	751.541992	163.276001
29489.865745	-1387.965667	750.341797	159.153412
29489.865745	-1387.965667	749.141602	-23.049921
29489.865745	-1387.965667	747.941406	106.688728
29489.865745	-1387.965667	746.740234	-58.051670
29489.865745	-1387.965667	745.539063	47.289024
29489.865745	-1387.965667	744.337891	-20.963673
29489.865745	-1387.965667	743.135742	95.101021
29489.865745	-1387.965667	741.933594	-142.319763
29489.865745	-1387.965667	740.731445	19.597584
29489.865745	-1387.965667	739.529297	-9.508896
29489.865745	-1387.965667	738.326172	-350.150543
29489.865745	-1387.965667	737.124023	-203.947174
29489.865745	-1387.965667	735.919922	-149.990433
29489.865745	-1387.965667	734.716797	-225.482758
29489.865745	-1387.965667	733.513672	106.560585
29489.865745	-1387.965667	732.309570	46.172810
29489.865745	-1387.965667	731.105469	274.850739
29489.865745	-1387.965667	729.900391	109.113770
29489.865745	-1387.965667	728.696289	160.112961
29489.865745	-1387.965667	727.491211	180.330933
29489.865745	-1387.965667	726.286133	163.223892
29489.865745	-1387.965667	725.080078	119.756294
29489.865745	-1387.965667	723.874023	384.671661
29489.865745	-1387.965667	722.668945	58.792057
29489.865745	-1387.965667	721.461914	224.977966
29489.865745	-1387.965667	720.255859	89.262688
29489.865745	-1387.965667	719.048828	-74.926910
29489.865745	-1387.965667	717.841797	123.631752
29489.865745	-1387.965667	716.634766	22.645420
29489.865745	-1387.965667	715.427734	146.598206
29489.865745	-1387.965667	714.219727	134.971527
29489.865745	-1387.965667	713.011719	177.826294
29489.865745	-1387.965667	711.803711	-128.761505
29489.865745	-1387.965667	710.594727	-35.896599
29489.865745	-1387.965667	709.385742	-91.580238
29489.865745	-1387.965667	708.176758	-180.082077
29489.865745	-1387.965667	706.967773	-142.140503
29489.865745	-1387.965667	705.758789	0.351850
29489.865745	-1387.965667	704.548828	66.352409
29489.865745	-1387.965667	703.338867	-159.909027
29489.865745	-1387.965667	702.127930	47.534634
29489.865745	-1387.965667	700.917969	-133.098495
29489.865745	-1387.965667	699.707031	-257.128204
29489.865745	-1387.965667	698.496094	89.261711
29489.865745	-1387.965667	697.285156	-161.299728
29489.865745	-1387.965667	696.073242	-85.289108
29489.865745	-1387.965667	694.861328	51.526123
29489.865745	-1387.965667	693.649414	46.706715
29489.865745	-1387.965667	692.436523	-6.099110
29489.865745	-1387.965667	691.224609	136.795212
29489.865745	-1387.965667	690.011719	68.539421
29489.865745	-1387.965667	688.798828	191.554153
29489.865745	-1387.965667	687.584961	268.743256
29489.865745	-1387.965667	686.372070	261.022675
29489.865745	-1387.965667	685.158203	481.363770
29489.865745	-1387.965667	683.943359	462.501129
29489.865745	-1387.965667	682.729492	417.472321
29489.865745	-1387.965667	681.514648	520.025696
29489.865745	-1387.965667	680.299805	952.461670
29489.865745	-1387.965667	679.084961	909.187012
29489.865745	-1387.965667	677.869141	796.364929
29489.865745	-1387.965667	676.653320	670.458252
29489.865745	-1387.965667	675.437500	919.815308
29489.865745	-1387.965667	674.221680	620.194580
29489.865745	-1387.965667	673.004883	793.333374
29489.865745	-1387.965667	671.789063	669.267090
29489.865745	-1387.965667	670.571289	460.596375
29489.865745	-1387.965667	669.354492	574.823853
29489.865745	-1387.965667	668.136719	524.219727
29489.865745	-1387.965667	666.919922	315.400421
29489.865745	-1387.965667	665.701172	457.414948
29489.865745	-1387.965667	664.483398	491.005280
29489.865745	-1387.965667	663.264648	403.238068
29489.865745	-1387.965667	662.045898	577.304138
29489.865745	-1387.965667	660.827148	673.294373
29489.865745	-1387.965667	659.608398	239.077087
29489.865745	-1387.965667	658.388672	404.111633
29489.865745	-1387.965667	657.168945	378.669342
29489.865745	-1387.965667	655.949219	424.493622
29489.865745	-1387.965667	654.728516	461.549561
29489.865745	-1387.965667	653.507813	440.142059
29489.865745	-1387.965667	652.287109	310.610321
29489.865745	-1387.965667	651.066406	362.512329
29489.865745	-1387.965667	649.844727	96.793549
29489.865745	-1387.965667	648.623047	142.056137
29489.865745	-1387.965667	647.401367	42.561367
29489.865745	-1387.965667	646.179688	210.677902
29489.865745	-1387.965667	644.957031	123.981926
29489.865745	-1387.965667	643.734375	65.288933
29489.865745	-1387.965667	642.511719	62.625946
29489.865745	-1387.965667	641.289063	-28.540550
29489.865745	-1387.965667	640.065430	26.871378
29489.865745	-1387.965667	638.841797	252.490143
29489.865745	-1387.965667	637.618164	107.221786
29489.865745	-1387.965667	636.393555	-50.992428
29489.865745	-1387.965667	635.168945	372.480103
29489.865745	-1387.965667	633.944336	336.910736
29489.865745	-1387.965667	632.719727	268.987000
29489.865745	-1387.965667	631.494141	539.046509
29489.865745	-1387.965667	630.269531	462.370911
29489.865745	-1387.965667	629.042969	514.777893
29489.865745	-1387.965667	627.817383	558.504639
29489.865745	-1387.965667	626.590820	640.867065
29489.865745	-1387.965667	625.365234	308.053497
29489.865745	-1387.965667	624.137695	429.023895
29489.865745	-1387.965667	622.911133	274.721069
29489.865745	-1387.965667	621.683594	303.124878
29489.865745	-1387.965667	620.456055	432.468475
29489.865745	-1387.965667	619.228516	243.738510
29489.865745	-1387.965667	618.000977	319.253723
29489.865745	-1387.965667	616.772461	383.951385
29489.865745	-1387.965667	615.543945	150.135239
29489.865745	-1387.965667	614.314453	55.906635
29489.865745	-1387.965667	613.085938	99.052536
29489.865745	-1387.965667	611.856445	182.910004
29489.865745	-1387.965667	610.626953	142.275177
29489.865745	-1387.965667	609.397461	-44.212681
29489.865745	-1387.965667	608.166992	60.981441
29489.865745	-1387.965667	606.936523	-350.574677
29489.865745	-1387.965667	605.706055	-159.659683
29489.865745	-1387.965667	604.474609	-144.576370
29489.865745	-1387.965667	603.244141	138.318130
29489.865745	-1387.965667	602.012695	22.642181
29489.865745	-1387.965667	600.780273	-337.144501
29489.865745	-1387.965667	599.548828	-80.113731
29489.865745	-1387.965667	598.316406	-217.096359
29489.865745	-1387.965667	597.083984	-150.692322
29489.865745	-1387.965667	595.851563	24.817995
29489.865745	-1387.965667	594.618164	-146.325027
29489.865745	-1387.965667	593.384766	-79.965408
29489.865745	-1387.965667	592.151367	-263.819031
29489.865745	-1387.965667	590.917969	-54.187706
29489.865745	-1387.965667	589.683594	-137.479324
29489.865745	-1387.965667	588.449219	-274.139465
29489.865745	-1387.965667	587.214844	-395.760895
29489.865745	-1387.965667	585.979492	-49.487743
29489.865745	-1387.965667	584.745117	-38.632210
29489.865745	-1387.965667	583.509766	74.739166
29489.865745	-1387.965667	582.273438	87.752518
29489.865745	-1387.965667	581.038086	98.675560
29489.865745	-1387.965667	579.801758	-216.860764
29489.865745	-1387.965667	578.565430	43.817017
29489.865745	-1387.965667	577.329102	44.206043
29489.865745	-1387.965667	576.091797	-217.663589
29489.865745	-1387.965667	574.854492	136.807236
29489.865745	-1387.965667	573.617188	182.098099
29489.865745	-1387.965667	572.378906	280.702179
29489.865745	-1387.965667	571.141602	68.251686
29489.865745	-1387.965667	569.903320	107.323685
29489.865745	-1387.965667	568.664063	272.099121
29489.865745	-1387.965667	567.425781	264.409088
29489.865745	-1387.965667	566.186523	77.963814
29489.865745	-1387.965667	564.947266	136.447876
29489.865745	-1387.965667	563.708008	124.768585
29489.865745	-1387.965667	562.467773	270.608978
29489.865745	-1387.965667	561.227539	101.669044
29489.865745	-1387.965667	559.987305	243.379471
29489.865745	-1387.965667	558.747070	-6.090784
29489.865745	-1387.965667	557.505859	-66.173668
29489.865745	-1387.965667	556.264648	18.387070
29489.865745	-1387.965667	555.023438	151.887268
29489.865745	-1387.965667	553.781250	22.010424
29489.865745	-1387.965667	552.539063	-7.878171
29489.865745	-1387.965667	551.296875	-29.148779
29489.865745	-1387.965667	550.054688	-82.136543
29489.865745	-1387.965667	548.811523	155.795395
29489.865745	-1387.965667	547.569336	-32.784515
29489.865745	-1387.965667	546.325195	71.611153
29489.865745	-1387.965667	545.082031	-40.263474
29489.865745	-1387.965667	543.837891	147.054367
29489.865745	-1387.965667	542.593750	171.163300
29489.865745	-1387.965667	541.349609	57.608734
29489.865745	-1387.965667	540.105469	213.396973
29489.865745	-1387.965667	538.860352	248.475922
29489.865745	-1387.965667	537.615234	179.877121
29489.865745	-1387.965667	536.369141	75.441193
29489.865745	-1387.965667	535.124023	-126.205566
29489.865745	-1387.965667	533.877930	165.658768
29489.865745	-1387.965667	532.631836	61.738876
29489.865745	-1387.965667	531.384766	42.658764
29489.865745	-1387.965667	530.138672	-367.663544
29489.865745	-1387.965667	528.891602	-217.108932
29489.865745	-1387.965667	527.643555	-96.073753
29489.865745	-1387.965667	526.396484	33.532845
29489.865745	-1387.965667	525.148438	101.937897
29489.865745	-1387.965667	523.900391	136.661026
29489.865745	-1387.965667	522.652344	-164.431152
29489.865745	-1387.965667	521.403320	-95.536568
29489.865745	-1387.965667	520.154297	-294.737823
29489.865745	-1387.965667	518.905273	-356.428406
29489.865745	-1387.965667	517.656250	-156.136688
29489.865745	-1387.965667	516.406250	6.246212
29489.865745	-1387.965667	515.156250	25.230423
29489.865745	-1387.965667	513.906250	-54.781116
29489.865745	-1387.965667	512.655273	-92.402161
29489.865745	-1387.965667	511.404297	-39.146793
29489.865745	-1387.965667	510.153320	-8.934717
29489.865745	-1387.965667	508.902344	55.167717
29489.865745	-1387.965667	507.650391	115.199112
29489.865745	-1387.965667	506.398438	133.236084
29489.865745	-1387.965667	505.146484	-82.397514
29489.865745	-1387.965667	503.893555	350.944305
29489.865745	-1387.965667	502.641602	64.108574
29489.865745	-1387.965667	501.388672	11.252856
29489.865745	-1387.965667	500.134766	154.343338
29489.865745	-1387.965667	498.881836	198.635925
29489.865745	-1387.965667	497.627930	137.882172
29489.865745	-1387.965667	496.374023	155.152390
29489.865745	-1387.965667	495.119141	317.687958
29489.865745	-1387.965667	493.865234	469.807465
29489.865745	-1387.965667	492.610352	466.467804
29489.865745	-1387.965667	491.355469	99.696999
29489.865745	-1387.965667	490.099609	321.585724
29489.865745	-1387.965667	488.843750	516.225708
29489.865745	-1387.965667	487.587891	234.160904
29489.865745	-1387.965667	486.332031	256.848969
29489.865745	-1387.965667	485.075195	523.204468
29489.865745	-1387.965667	483.818359	382.390015
29489.865745	-1387.965667	482.561523	623.704407
29489.865745	-1387.965667	481.304688	317.455963
29489.865745	-1387.965667	480.046875	244.304794
29489.865745	-1387.965667	478.789063	599.130737
29489.865745	-1387.965667	477.531250	362.655457
29489.865745	-1387.965667	476.272461	440.837280
29489.865745	-1387.965667	475.013672	397.539398
29489.865745	-1387.965667	473.754883	708.478638
29489.865745	-1387.965667	472.496094	629.732910
29489.865745	-1387.965667	471.236328	777.314453
29489.865745	-1387.965667	469.976563	673.639526
29489.865745	-1387.965667	468.716797	526.125000
29489.865745	-1387.965667	467.456055	416.422974
29489.865745	-1387.965667	466.196289	505.630859
29489.865745	-1387.965667	464.935547	523.725586
29489.865745	-1387.965667	463.673828	696.650085
29489.865745	-1387.965667	462.413086	744.059143
29489.865745	-1387.965667	461.151367	881.387756
29489.865745	-1387.965667	459.889648	851.447571
29489.865745	-1387.965667	458.626953	940.659912
29489.865745	-1387.965667	457.364258	896.108887
29489.865745	-1387.965667	456.101563	705.334778
29489.865745	-1387.965667	454.838867	744.367737
29489.865745	-1387.965667	453.575195	925.346130
29489.865745	-1387.965667	452.312500	880.734131
29489.865745	-1387.965667	451.047852	1165.867188
29489.865745	-1387.965667	449.784180	964.592041
29489.865745	-1387.965667	448.519531	1053.322021
29489.865745	-1387.965667	447.254883	1325.476074
29489.865745	-1387.965667	445.990234	1284.590820
29489.865745	-1387.965667	444.725586	1354.105225
29489.865745	-1387.965667	443.459961	1312.971924
29489.865745	-1387.965667	442.194336	1252.946045
29489.865745	-1387.965667	440.927734	1382.387207
29489.865745	-1387.965667	439.662109	1276.188232
29489.865745	-1387.965667	438.395508	1169.833008
29489.865745	-1387.965667	437.127930	1704.637817
29489.865745	-1387.965667	435.861328	1385.432007
29489.865745	-1387.965667	434.593750	1297.138550
29489.865745	-1387.965667	433.326172	1352.189453
29489.865745	-1387.965667	432.058594	1415.240967
29489.865745	-1387.965667	430.790039	1638.109985
29489.865745	-1387.965667	429.521484	1615.155029
29489.865745	-1387.965667	428.252930	1704.124390
29489.865745	-1387.965667	426.984375	1790.593994
29489.865745	-1387.965667	425.714844	1618.923706
29489.865745	-1387.965667	424.445313	1679.607666
29489.865745	-1387.965667	423.174805	1694.111328
29489.865745	-1387.965667	421.905273	1600.138550
29489.865745	-1387.965667	420.634766	1761.097290
29489.865745	-1387.965667	419.364258	1834.267578
29489.865745	-1387.965667	418.092773	1877.790161
29489.865745	-1387.965667	416.822266	1798.289307
29489.865745	-1387.965667	415.550781	1738.952148
29489.865745	-1387.965667	414.278320	1674.844360
29489.865745	-1387.965667	413.006836	1539.596680
29489.865745	-1387.965667	411.734375	1870.180176
29489.865745	-1387.965667	410.461914	1812.275146
29489.865745	-1387.965667	409.188477	1691.451050
29489.865745	-1387.965667	407.916016	1555.388794
29489.865745	-1387.965667	406.642578	1665.047852
29489.865745	-1387.965667	405.368164	1742.718628
29489.865745	-1387.965667	404.094727	1985.106567
29489.865745	-1387.965667	402.820313	1833.123779
29489.865745	-1387.965667	401.545898	1789.921875
29489.865745	-1387.965667	400.270508	1778.819336
29489.865745	-1387.965667	398.996094	1787.371826
29489.865745	-1387.965667	397.720703	1908.569946
29489.865745	-1387.965667	396.444336	1763.882813
29489.865745	-1387.965667	395.168945	1934.409302
29489.865745	-1387.965667	393.892578	1731.577148
29489.865745	-1387.965667	392.616211	1746.619141
29489.865745	-1387.965667	391.339844	1830.594971
29489.865745	-1387.965667	390.062500	1880.113159
29489.865745	-1387.965667	388.785156	2012.878784
29489.865745	-1387.965667	387.507813	1927.347168
29489.865745	-1387.965667	386.229492	1873.358643
29489.865745	-1387.965667	384.951172	2040.739502
29489.865745	-1387.965667	383.672852	1771.078369
29489.865745	-1387.965667	382.394531	1951.662354
29489.865745	-1387.965667	381.115234	1812.816650
29489.865745	-1387.965667	379.835938	1870.227295
29489.865745	-1387.965667	378.556641	1892.810547
29489.865745	-1387.965667	377.277344	1787.786499
29489.865745	-1387.965667	375.997070	1715.876465
29489.865745	-1387.965667	374.716797	1808.886353
29489.865745	-1387.965667	373.435547	1973.920532
29489.865745	-1387.965667	372.155273	1383.096191
29489.865745	-1387.965667	370.874023	1490.331543
29489.865745	-1387.965667	369.591797	1751.679932
29489.865745	-1387.965667	368.310547	1547.604248
29489.865745	-1387.965667	367.028320	1365.891846
29489.865745	-1387.965667	365.746094	1218.842651
29489.865745	-1387.965667	364.463867	1698.676025
29489.865745	-1387.965667	363.180664	1425.159546
29489.865745	-1387.965667	361.897461	1568.475586
29489.865745	-1387.965667	360.614258	1602.124390
29489.865745	-1387.965667	359.330078	1563.029053
29489.865745	-1387.965667	358.045898	1586.807373
29489.865745	-1387.965667	356.761719	1829.439575
29489.865745	-1387.965667	355.477539	1530.906616
29489.865745	-1387.965667	354.192383	1586.544189
29489.865745	-1387.965667	352.907227	1544.529663
29489.865745	-1387.965667	351.622070	1558.751221
29489.865745	-1387.965667	350.336914	1284.400513
29489.865745	-1387.965667	349.050781	1355.342163
29489.865745	-1387.965667	347.764648	1154.037842
29489.865745	-1387.965667	346.477539	924.484009
29489.865745	-1387.965667	345.191406	1181.302246
29489.865745	-1387.965667	343.904297	1063.130371
29489.865745	-1387.965667	342.616211	1063.922607
29489.865745	-1387.965667	341.329102	937.857849
29489.865745	-1387.965667	340.041016	914.121033
29489.865745	-1387.965667	338.752930	886.156311
29489.865745	-1387.965667	337.463867	866.043823
29489.865745	-1387.965667	336.175781	1158.847534
29489.865745	-1387.965667	334.886719	894.348633
29489.865745	-1387.965667	333.596680	627.229614
29489.865745	-1387.965667	332.307617	494.653168
29489.865745	-1387.965667	331.017578	369.395477
29489.865745	-1387.965667	329.727539	419.105835
29489.865745	-1387.965667	328.436523	336.802490
29489.865745	-1387.965667	327.146484	459.918182
29489.865745	-1387.965667	325.855469	540.698730
29489.865745	-1387.965667	324.563477	170.484711
29489.865745	-1387.965667	323.272461	37.990463
29489.865745	-1387.965667	321.980469	93.637993
29489.865745	-1387.965667	320.688477	149.505478
29489.865745	-1387.965667	319.395508	31.815117
29489.865745	-1387.965667	318.103516	-95.893837
29489.865745	-1387.965667	316.810547	-178.995346
29489.865745	-1387.965667	315.516602	-158.517365
29489.865745	-1387.965667	314.223633	-64.918808
29489.865745	-1387.965667	312.929688	-74.074005
29489.865745	-1387.965667	311.635742	113.742195
29489.865745	-1387.965667	310.340820	13.045315
29489.865745	-1387.965667	309.045898	-349.457825
29489.865745	-1387.965667	307.750977	-248.582199
29489.865745	-1387.965667	306.456055	74.901741
29489.865745	-1387.965667	305.160156	30.005045
29489.865745	-1387.965667	303.865234	71.183678
29489.865745	-1387.965667	302.568359	226.044403
29489.865745	-1387.965667	301.272461	503.152496
29489.865745	-1387.965667	299.975586	616.991272
29489.865745	-1387.965667	298.678711	346.032104
