#X		#Y		#Wave		#Intensity
29468.897819	-1339.733500	1999.980469	75.943855
29468.897819	-1339.733500	1999.016602	112.242462
29468.897819	-1339.733500	1998.052734	-138.968689
29468.897819	-1339.733500	1997.087891	30.685831
29468.897819	-1339.733500	1996.123047	-57.905266
29468.897819	-1339.733500	1995.158203	-174.201126
29468.897819	-1339.733500	1994.193359	-87.834038
29468.897819	-1339.733500	1993.228516	-26.719835
29468.897819	-1339.733500	1992.262695	19.076540
29468.897819	-1339.733500	1991.297852	12.436932
29468.897819	-1339.733500	1990.332031	114.284241
29468.897819	-1339.733500	1989.366211	106.814247
29468.897819	-1339.733500	1988.399414	-165.757553
29468.897819	-1339.733500	1987.433594	211.929474
29468.897819	-1339.733500	1986.466797	-98.400398
29468.897819	-1339.733500	1985.500977	63.298977
29468.897819	-1339.733500	1984.534180	68.854355
29468.897819	-1339.733500	1983.567383	46.890995
29468.897819	-1339.733500	1982.599609	78.986938
29468.897819	-1339.733500	1981.632813	199.711517
29468.897819	-1339.733500	1980.665039	-8.453927
29468.897819	-1339.733500	1979.697266	27.689419
29468.897819	-1339.733500	1978.729492	-40.168865
29468.897819	-1339.733500	1977.761719	-160.111908
29468.897819	-1339.733500	1976.792969	77.667610
29468.897819	-1339.733500	1975.825195	-79.768814
29468.897819	-1339.733500	1974.856445	-99.195526
29468.897819	-1339.733500	1973.887695	-5.350967
29468.897819	-1339.733500	1972.918945	73.444237
29468.897819	-1339.733500	1971.949219	-99.547791
29468.897819	-1339.733500	1970.980469	-8.836715
29468.897819	-1339.733500	1970.010742	61.929733
29468.897819	-1339.733500	1969.041016	102.913498
29468.897819	-1339.733500	1968.071289	123.996010
29468.897819	-1339.733500	1967.101563	95.628769
29468.897819	-1339.733500	1966.130859	-206.326859
29468.897819	-1339.733500	1965.161133	70.487495
29468.897819	-1339.733500	1964.190430	-7.547911
29468.897819	-1339.733500	1963.219727	39.878082
29468.897819	-1339.733500	1962.249023	156.087082
29468.897819	-1339.733500	1961.277344	190.913422
29468.897819	-1339.733500	1960.306641	228.077133
29468.897819	-1339.733500	1959.334961	90.441635
29468.897819	-1339.733500	1958.363281	33.931038
29468.897819	-1339.733500	1957.391602	220.822067
29468.897819	-1339.733500	1956.419922	-22.746422
29468.897819	-1339.733500	1955.447266	68.035774
29468.897819	-1339.733500	1954.474609	220.156921
29468.897819	-1339.733500	1953.501953	259.106903
29468.897819	-1339.733500	1952.529297	57.186012
29468.897819	-1339.733500	1951.556641	14.958953
29468.897819	-1339.733500	1950.583984	53.745190
29468.897819	-1339.733500	1949.610352	-13.130799
29468.897819	-1339.733500	1948.636719	136.031555
29468.897819	-1339.733500	1947.663086	312.100067
29468.897819	-1339.733500	1946.689453	171.460953
29468.897819	-1339.733500	1945.715820	92.188713
29468.897819	-1339.733500	1944.741211	3.099085
29468.897819	-1339.733500	1943.767578	31.763058
29468.897819	-1339.733500	1942.792969	18.700291
29468.897819	-1339.733500	1941.818359	62.020714
29468.897819	-1339.733500	1940.842773	-29.527966
29468.897819	-1339.733500	1939.868164	175.534958
29468.897819	-1339.733500	1938.892578	71.728493
29468.897819	-1339.733500	1937.916992	-44.294971
29468.897819	-1339.733500	1936.941406	155.739975
29468.897819	-1339.733500	1935.965820	17.701393
29468.897819	-1339.733500	1934.990234	278.878082
29468.897819	-1339.733500	1934.013672	-150.481232
29468.897819	-1339.733500	1933.037109	223.244980
29468.897819	-1339.733500	1932.060547	-51.731995
29468.897819	-1339.733500	1931.083984	-10.930485
29468.897819	-1339.733500	1930.107422	69.016823
29468.897819	-1339.733500	1929.129883	-0.262942
29468.897819	-1339.733500	1928.153320	228.874313
29468.897819	-1339.733500	1927.175781	242.768570
29468.897819	-1339.733500	1926.198242	151.557022
29468.897819	-1339.733500	1925.219727	238.832291
29468.897819	-1339.733500	1924.242188	120.823769
29468.897819	-1339.733500	1923.263672	-99.737175
29468.897819	-1339.733500	1922.285156	90.220695
29468.897819	-1339.733500	1921.306641	-59.364006
29468.897819	-1339.733500	1920.328125	28.012638
29468.897819	-1339.733500	1919.349609	-116.558617
29468.897819	-1339.733500	1918.370117	-53.554970
29468.897819	-1339.733500	1917.391602	-71.078247
29468.897819	-1339.733500	1916.412109	126.170105
29468.897819	-1339.733500	1915.431641	-45.020214
29468.897819	-1339.733500	1914.452148	254.668427
29468.897819	-1339.733500	1913.472656	129.928375
29468.897819	-1339.733500	1912.492188	-4.486455
29468.897819	-1339.733500	1911.511719	24.525070
29468.897819	-1339.733500	1910.531250	-4.938308
29468.897819	-1339.733500	1909.550781	53.378334
29468.897819	-1339.733500	1908.569336	-105.146240
29468.897819	-1339.733500	1907.588867	40.937325
29468.897819	-1339.733500	1906.607422	-66.304932
29468.897819	-1339.733500	1905.625977	-105.287216
29468.897819	-1339.733500	1904.644531	-29.788191
29468.897819	-1339.733500	1903.662109	-75.997620
29468.897819	-1339.733500	1902.680664	123.661049
29468.897819	-1339.733500	1901.698242	36.141579
29468.897819	-1339.733500	1900.715820	191.976501
29468.897819	-1339.733500	1899.733398	-21.943245
29468.897819	-1339.733500	1898.750000	-33.899380
29468.897819	-1339.733500	1897.767578	17.402746
29468.897819	-1339.733500	1896.784180	51.695248
29468.897819	-1339.733500	1895.800781	-71.983955
29468.897819	-1339.733500	1894.817383	49.856361
29468.897819	-1339.733500	1893.833984	-100.446907
29468.897819	-1339.733500	1892.850586	45.700878
29468.897819	-1339.733500	1891.866211	-150.643311
29468.897819	-1339.733500	1890.881836	29.503334
29468.897819	-1339.733500	1889.897461	46.937458
29468.897819	-1339.733500	1888.913086	8.556243
29468.897819	-1339.733500	1887.927734	-95.319771
29468.897819	-1339.733500	1886.943359	75.060898
29468.897819	-1339.733500	1885.958008	34.325916
29468.897819	-1339.733500	1884.972656	-76.720062
29468.897819	-1339.733500	1883.987305	-13.098031
29468.897819	-1339.733500	1883.001953	103.857491
29468.897819	-1339.733500	1882.015625	-96.797760
29468.897819	-1339.733500	1881.029297	-40.444889
29468.897819	-1339.733500	1880.042969	204.917419
29468.897819	-1339.733500	1879.056641	-109.492783
29468.897819	-1339.733500	1878.070313	-53.147865
29468.897819	-1339.733500	1877.083984	-91.276115
29468.897819	-1339.733500	1876.096680	37.694660
29468.897819	-1339.733500	1875.109375	-24.647186
29468.897819	-1339.733500	1874.122070	77.635017
29468.897819	-1339.733500	1873.134766	-47.619751
29468.897819	-1339.733500	1872.146484	23.161568
29468.897819	-1339.733500	1871.159180	-0.440310
29468.897819	-1339.733500	1870.170898	-282.855621
29468.897819	-1339.733500	1869.182617	12.810502
29468.897819	-1339.733500	1868.194336	-177.646072
29468.897819	-1339.733500	1867.205078	127.529198
29468.897819	-1339.733500	1866.216797	38.605492
29468.897819	-1339.733500	1865.227539	-23.723618
29468.897819	-1339.733500	1864.238281	-76.386574
29468.897819	-1339.733500	1863.249023	102.847969
29468.897819	-1339.733500	1862.259766	83.945732
29468.897819	-1339.733500	1861.269531	-251.307739
29468.897819	-1339.733500	1860.279297	75.045830
29468.897819	-1339.733500	1859.290039	-64.619156
29468.897819	-1339.733500	1858.298828	44.306892
29468.897819	-1339.733500	1857.308594	80.771667
29468.897819	-1339.733500	1856.318359	71.347710
29468.897819	-1339.733500	1855.327148	-162.431656
29468.897819	-1339.733500	1854.335938	-111.602188
29468.897819	-1339.733500	1853.344727	-87.358406
29468.897819	-1339.733500	1852.353516	177.895172
29468.897819	-1339.733500	1851.362305	-106.524292
29468.897819	-1339.733500	1850.370117	71.779549
29468.897819	-1339.733500	1849.377930	-10.240590
29468.897819	-1339.733500	1848.385742	28.157253
29468.897819	-1339.733500	1847.393555	25.541206
29468.897819	-1339.733500	1846.401367	304.592682
29468.897819	-1339.733500	1845.408203	181.426453
29468.897819	-1339.733500	1844.415039	202.663498
29468.897819	-1339.733500	1843.421875	-57.743305
29468.897819	-1339.733500	1842.428711	-19.761974
29468.897819	-1339.733500	1841.435547	111.954926
29468.897819	-1339.733500	1840.441406	183.414459
29468.897819	-1339.733500	1839.448242	-12.152150
29468.897819	-1339.733500	1838.454102	386.137543
29468.897819	-1339.733500	1837.459961	185.637375
29468.897819	-1339.733500	1836.464844	47.614845
29468.897819	-1339.733500	1835.470703	96.993240
29468.897819	-1339.733500	1834.475586	139.055756
29468.897819	-1339.733500	1833.480469	161.798157
29468.897819	-1339.733500	1832.485352	30.737844
29468.897819	-1339.733500	1831.490234	110.934227
29468.897819	-1339.733500	1830.495117	27.758245
29468.897819	-1339.733500	1829.499023	155.732697
29468.897819	-1339.733500	1828.502930	168.369476
29468.897819	-1339.733500	1827.506836	149.708481
29468.897819	-1339.733500	1826.510742	39.793549
29468.897819	-1339.733500	1825.513672	212.822922
29468.897819	-1339.733500	1824.517578	169.866516
29468.897819	-1339.733500	1823.520508	71.667534
29468.897819	-1339.733500	1822.523438	18.937716
29468.897819	-1339.733500	1821.526367	-9.920631
29468.897819	-1339.733500	1820.529297	107.280937
29468.897819	-1339.733500	1819.531250	1.513534
29468.897819	-1339.733500	1818.533203	56.147610
29468.897819	-1339.733500	1817.535156	57.952709
29468.897819	-1339.733500	1816.537109	198.505051
29468.897819	-1339.733500	1815.539063	-111.176758
29468.897819	-1339.733500	1814.540039	105.683540
29468.897819	-1339.733500	1813.541992	205.080429
29468.897819	-1339.733500	1812.542969	-73.721840
29468.897819	-1339.733500	1811.543945	161.747757
29468.897819	-1339.733500	1810.543945	234.353928
29468.897819	-1339.733500	1809.544922	218.325623
29468.897819	-1339.733500	1808.544922	156.732819
29468.897819	-1339.733500	1807.544922	75.899635
29468.897819	-1339.733500	1806.544922	59.478676
29468.897819	-1339.733500	1805.544922	-102.835472
29468.897819	-1339.733500	1804.544922	-112.342331
29468.897819	-1339.733500	1803.543945	250.601273
29468.897819	-1339.733500	1802.542969	157.141556
29468.897819	-1339.733500	1801.541992	116.091393
29468.897819	-1339.733500	1800.541016	101.161102
29468.897819	-1339.733500	1799.539063	272.233612
29468.897819	-1339.733500	1798.538086	-24.608210
29468.897819	-1339.733500	1797.536133	146.106064
29468.897819	-1339.733500	1796.534180	178.246338
29468.897819	-1339.733500	1795.532227	26.575802
29468.897819	-1339.733500	1794.529297	153.768707
29468.897819	-1339.733500	1793.527344	63.814911
29468.897819	-1339.733500	1792.524414	114.346451
29468.897819	-1339.733500	1791.521484	138.476349
29468.897819	-1339.733500	1790.518555	245.819458
29468.897819	-1339.733500	1789.514648	281.475189
29468.897819	-1339.733500	1788.511719	24.004400
29468.897819	-1339.733500	1787.507813	126.017204
29468.897819	-1339.733500	1786.503906	99.251541
29468.897819	-1339.733500	1785.500000	3.289239
29468.897819	-1339.733500	1784.496094	28.560774
29468.897819	-1339.733500	1783.491211	91.703735
29468.897819	-1339.733500	1782.486328	23.796713
29468.897819	-1339.733500	1781.481445	-13.345950
29468.897819	-1339.733500	1780.476563	80.138962
29468.897819	-1339.733500	1779.471680	33.122494
29468.897819	-1339.733500	1778.465820	133.313782
29468.897819	-1339.733500	1777.460938	52.658642
29468.897819	-1339.733500	1776.455078	228.476593
29468.897819	-1339.733500	1775.449219	71.418915
29468.897819	-1339.733500	1774.442383	170.762512
29468.897819	-1339.733500	1773.436523	165.393219
29468.897819	-1339.733500	1772.429688	245.303055
29468.897819	-1339.733500	1771.422852	287.005463
29468.897819	-1339.733500	1770.416016	17.557348
29468.897819	-1339.733500	1769.409180	-62.129940
29468.897819	-1339.733500	1768.402344	116.640182
29468.897819	-1339.733500	1767.394531	321.228516
29468.897819	-1339.733500	1766.386719	-27.084814
29468.897819	-1339.733500	1765.378906	113.033577
29468.897819	-1339.733500	1764.371094	134.354599
29468.897819	-1339.733500	1763.362305	136.492340
29468.897819	-1339.733500	1762.354492	0.984448
29468.897819	-1339.733500	1761.345703	208.896408
29468.897819	-1339.733500	1760.336914	-35.965942
29468.897819	-1339.733500	1759.328125	-169.611801
29468.897819	-1339.733500	1758.318359	224.682465
29468.897819	-1339.733500	1757.308594	201.902069
29468.897819	-1339.733500	1756.299805	145.801559
29468.897819	-1339.733500	1755.290039	11.398442
29468.897819	-1339.733500	1754.279297	-210.729004
29468.897819	-1339.733500	1753.269531	-167.975021
29468.897819	-1339.733500	1752.258789	-99.438347
29468.897819	-1339.733500	1751.249023	153.355774
29468.897819	-1339.733500	1750.238281	152.823486
29468.897819	-1339.733500	1749.226563	36.226822
29468.897819	-1339.733500	1748.215820	-56.878136
29468.897819	-1339.733500	1747.204102	230.310425
29468.897819	-1339.733500	1746.193359	39.919739
29468.897819	-1339.733500	1745.181641	184.828064
29468.897819	-1339.733500	1744.168945	-22.461208
29468.897819	-1339.733500	1743.157227	-19.693638
29468.897819	-1339.733500	1742.144531	-12.428541
29468.897819	-1339.733500	1741.132813	-59.646969
29468.897819	-1339.733500	1740.120117	-26.827890
29468.897819	-1339.733500	1739.106445	102.497078
29468.897819	-1339.733500	1738.093750	-9.050312
29468.897819	-1339.733500	1737.080078	93.864372
29468.897819	-1339.733500	1736.067383	45.624439
29468.897819	-1339.733500	1735.053711	18.397610
29468.897819	-1339.733500	1734.040039	151.277695
29468.897819	-1339.733500	1733.025391	85.900383
29468.897819	-1339.733500	1732.011719	27.431849
29468.897819	-1339.733500	1730.997070	-134.902969
29468.897819	-1339.733500	1729.982422	-151.334595
29468.897819	-1339.733500	1728.967773	119.361145
29468.897819	-1339.733500	1727.952148	-17.630108
29468.897819	-1339.733500	1726.937500	83.026878
29468.897819	-1339.733500	1725.921875	199.897079
29468.897819	-1339.733500	1724.906250	116.488403
29468.897819	-1339.733500	1723.890625	84.672592
29468.897819	-1339.733500	1722.875000	-83.772324
29468.897819	-1339.733500	1721.858398	-247.670395
29468.897819	-1339.733500	1720.841797	-11.947453
29468.897819	-1339.733500	1719.825195	-49.238457
29468.897819	-1339.733500	1718.808594	-25.598272
29468.897819	-1339.733500	1717.791992	80.091125
29468.897819	-1339.733500	1716.774414	53.936539
29468.897819	-1339.733500	1715.756836	-99.266075
29468.897819	-1339.733500	1714.739258	113.810356
29468.897819	-1339.733500	1713.721680	-27.993366
29468.897819	-1339.733500	1712.704102	-139.413589
29468.897819	-1339.733500	1711.685547	218.484879
29468.897819	-1339.733500	1710.667969	-64.657669
29468.897819	-1339.733500	1709.649414	-26.428047
29468.897819	-1339.733500	1708.630859	-117.439041
29468.897819	-1339.733500	1707.611328	-44.432816
29468.897819	-1339.733500	1706.592773	-100.606430
29468.897819	-1339.733500	1705.573242	-56.144669
29468.897819	-1339.733500	1704.553711	74.853188
29468.897819	-1339.733500	1703.534180	20.449877
29468.897819	-1339.733500	1702.513672	47.877129
29468.897819	-1339.733500	1701.494141	-6.868896
29468.897819	-1339.733500	1700.473633	151.369232
29468.897819	-1339.733500	1699.453125	65.790070
29468.897819	-1339.733500	1698.432617	-71.452698
29468.897819	-1339.733500	1697.412109	-23.867474
29468.897819	-1339.733500	1696.390625	72.651649
29468.897819	-1339.733500	1695.369141	288.310822
29468.897819	-1339.733500	1694.347656	185.496246
29468.897819	-1339.733500	1693.326172	-32.081627
29468.897819	-1339.733500	1692.304688	260.139221
29468.897819	-1339.733500	1691.282227	-55.954685
29468.897819	-1339.733500	1690.260742	203.085785
29468.897819	-1339.733500	1689.238281	204.698074
29468.897819	-1339.733500	1688.214844	65.888199
29468.897819	-1339.733500	1687.192383	317.220520
29468.897819	-1339.733500	1686.168945	241.192184
29468.897819	-1339.733500	1685.146484	354.257874
29468.897819	-1339.733500	1684.123047	387.690521
29468.897819	-1339.733500	1683.099609	306.542175
29468.897819	-1339.733500	1682.075195	493.699188
29468.897819	-1339.733500	1681.051758	708.665283
29468.897819	-1339.733500	1680.027344	592.004395
29468.897819	-1339.733500	1679.002930	556.894226
29468.897819	-1339.733500	1677.978516	579.962463
29468.897819	-1339.733500	1676.953125	432.594971
29468.897819	-1339.733500	1675.928711	842.450195
29468.897819	-1339.733500	1674.903320	867.311646
29468.897819	-1339.733500	1673.877930	728.861572
29468.897819	-1339.733500	1672.852539	888.611633
29468.897819	-1339.733500	1671.826172	768.537964
29468.897819	-1339.733500	1670.800781	869.703674
29468.897819	-1339.733500	1669.774414	1007.929199
29468.897819	-1339.733500	1668.748047	859.550842
29468.897819	-1339.733500	1667.721680	1139.473877
29468.897819	-1339.733500	1666.694336	1128.166260
29468.897819	-1339.733500	1665.667969	1074.874878
29468.897819	-1339.733500	1664.640625	1282.047974
29468.897819	-1339.733500	1663.613281	1247.075195
29468.897819	-1339.733500	1662.585938	1046.855347
29468.897819	-1339.733500	1661.557617	1376.762817
29468.897819	-1339.733500	1660.530273	1525.104370
29468.897819	-1339.733500	1659.501953	1550.040405
29468.897819	-1339.733500	1658.473633	1342.441406
29468.897819	-1339.733500	1657.444336	1680.836060
29468.897819	-1339.733500	1656.416016	1902.860229
29468.897819	-1339.733500	1655.386719	2089.817627
29468.897819	-1339.733500	1654.358398	1956.150391
29468.897819	-1339.733500	1653.328125	2198.507324
29468.897819	-1339.733500	1652.298828	1892.848267
29468.897819	-1339.733500	1651.269531	2095.495605
29468.897819	-1339.733500	1650.239258	2165.666992
29468.897819	-1339.733500	1649.208984	2483.960449
29468.897819	-1339.733500	1648.178711	2454.097412
29468.897819	-1339.733500	1647.148438	2628.239014
29468.897819	-1339.733500	1646.117188	2697.849609
29468.897819	-1339.733500	1645.086914	2825.335693
29468.897819	-1339.733500	1644.055664	2560.945801
29468.897819	-1339.733500	1643.024414	2766.999268
29468.897819	-1339.733500	1641.992188	2854.698730
29468.897819	-1339.733500	1640.960938	2868.191162
29468.897819	-1339.733500	1639.928711	3115.488525
29468.897819	-1339.733500	1638.896484	3026.857666
29468.897819	-1339.733500	1637.864258	3190.539551
29468.897819	-1339.733500	1636.832031	3627.219971
29468.897819	-1339.733500	1635.798828	3457.306152
29468.897819	-1339.733500	1634.766602	3669.197754
29468.897819	-1339.733500	1633.733398	3672.714844
29468.897819	-1339.733500	1632.699219	3877.359863
29468.897819	-1339.733500	1631.666016	3839.094727
29468.897819	-1339.733500	1630.632813	3858.590576
29468.897819	-1339.733500	1629.598633	3850.254639
29468.897819	-1339.733500	1628.564453	3846.495117
29468.897819	-1339.733500	1627.530273	3969.773438
29468.897819	-1339.733500	1626.495117	3882.701416
29468.897819	-1339.733500	1625.460938	3869.562744
29468.897819	-1339.733500	1624.425781	4036.480957
29468.897819	-1339.733500	1623.390625	4431.870605
29468.897819	-1339.733500	1622.355469	4203.808594
29468.897819	-1339.733500	1621.319336	4227.334961
29468.897819	-1339.733500	1620.284180	4386.995605
29468.897819	-1339.733500	1619.248047	4394.270996
29468.897819	-1339.733500	1618.211914	4526.071289
29468.897819	-1339.733500	1617.174805	4452.520020
29468.897819	-1339.733500	1616.138672	4736.391113
29468.897819	-1339.733500	1615.101563	4625.904297
29468.897819	-1339.733500	1614.065430	4529.307617
29468.897819	-1339.733500	1613.027344	4729.928711
29468.897819	-1339.733500	1611.990234	4605.645996
29468.897819	-1339.733500	1610.953125	4635.735840
29468.897819	-1339.733500	1609.915039	4582.867188
29468.897819	-1339.733500	1608.876953	4850.071289
29468.897819	-1339.733500	1607.838867	5094.147949
29468.897819	-1339.733500	1606.800781	5126.382324
29468.897819	-1339.733500	1605.761719	4792.684082
29468.897819	-1339.733500	1604.723633	4963.020020
29468.897819	-1339.733500	1603.684570	4857.230469
29468.897819	-1339.733500	1602.644531	5199.934082
29468.897819	-1339.733500	1601.605469	5317.210449
29468.897819	-1339.733500	1600.566406	5133.294434
29468.897819	-1339.733500	1599.526367	5370.064941
29468.897819	-1339.733500	1598.486328	4974.798828
29468.897819	-1339.733500	1597.446289	5174.793457
29468.897819	-1339.733500	1596.405273	5285.114746
29468.897819	-1339.733500	1595.365234	5390.864258
29468.897819	-1339.733500	1594.324219	5264.649902
29468.897819	-1339.733500	1593.283203	5342.845215
29468.897819	-1339.733500	1592.242188	5292.509766
29468.897819	-1339.733500	1591.200195	5159.584473
29468.897819	-1339.733500	1590.159180	5104.797852
29468.897819	-1339.733500	1589.117188	5098.219238
29468.897819	-1339.733500	1588.075195	5302.701660
29468.897819	-1339.733500	1587.032227	4926.959473
29468.897819	-1339.733500	1585.990234	5168.183105
29468.897819	-1339.733500	1584.947266	4921.087891
29468.897819	-1339.733500	1583.904297	4926.245117
29468.897819	-1339.733500	1582.861328	5064.358887
29468.897819	-1339.733500	1581.818359	4636.630859
29468.897819	-1339.733500	1580.775391	5026.823242
29468.897819	-1339.733500	1579.731445	5359.648926
29468.897819	-1339.733500	1578.687500	5071.950684
29468.897819	-1339.733500	1577.643555	5136.957520
29468.897819	-1339.733500	1576.598633	4677.884766
29468.897819	-1339.733500	1575.554688	4878.100586
29468.897819	-1339.733500	1574.509766	4822.060059
29468.897819	-1339.733500	1573.464844	4681.494141
29468.897819	-1339.733500	1572.419922	4822.351074
29468.897819	-1339.733500	1571.374023	4540.226563
29468.897819	-1339.733500	1570.329102	4688.093750
29468.897819	-1339.733500	1569.283203	4577.701660
29468.897819	-1339.733500	1568.237305	4725.659668
29468.897819	-1339.733500	1567.191406	4647.481934
29468.897819	-1339.733500	1566.144531	4729.294922
29468.897819	-1339.733500	1565.098633	4621.663574
29468.897819	-1339.733500	1564.051758	4628.308594
29468.897819	-1339.733500	1563.004883	4769.747559
29468.897819	-1339.733500	1561.957031	4833.608398
29468.897819	-1339.733500	1560.910156	4664.831543
29468.897819	-1339.733500	1559.862305	4772.264648
29468.897819	-1339.733500	1558.814453	4622.014648
29468.897819	-1339.733500	1557.766602	4622.462402
29468.897819	-1339.733500	1556.718750	4821.403809
29468.897819	-1339.733500	1555.669922	4778.715332
29468.897819	-1339.733500	1554.621094	4861.526855
29468.897819	-1339.733500	1553.573242	4709.748047
29468.897819	-1339.733500	1552.523438	5004.656250
29468.897819	-1339.733500	1551.474609	4967.041016
29468.897819	-1339.733500	1550.424805	5050.250000
29468.897819	-1339.733500	1549.375000	5126.733398
29468.897819	-1339.733500	1548.325195	5135.030762
29468.897819	-1339.733500	1547.275391	5173.056641
29468.897819	-1339.733500	1546.225586	5127.012207
29468.897819	-1339.733500	1545.174805	5151.637207
29468.897819	-1339.733500	1544.124023	5310.612305
29468.897819	-1339.733500	1543.073242	5158.095703
29468.897819	-1339.733500	1542.022461	5135.402344
29468.897819	-1339.733500	1540.970703	5174.227539
29468.897819	-1339.733500	1539.919922	5340.508789
29468.897819	-1339.733500	1538.868164	5347.779785
29468.897819	-1339.733500	1537.815430	5225.677734
29468.897819	-1339.733500	1536.763672	5269.643066
29468.897819	-1339.733500	1535.710938	4884.479980
29468.897819	-1339.733500	1534.659180	5119.567383
29468.897819	-1339.733500	1533.606445	5061.843262
29468.897819	-1339.733500	1532.552734	4863.560059
29468.897819	-1339.733500	1531.500000	4953.765137
29468.897819	-1339.733500	1530.446289	4976.018555
29468.897819	-1339.733500	1529.393555	4953.096680
29468.897819	-1339.733500	1528.338867	4549.287598
29468.897819	-1339.733500	1527.285156	4352.192871
29468.897819	-1339.733500	1526.231445	4175.766113
29468.897819	-1339.733500	1525.176758	4384.906250
29468.897819	-1339.733500	1524.122070	3991.334717
29468.897819	-1339.733500	1523.067383	3885.864502
29468.897819	-1339.733500	1522.012695	3764.770264
29468.897819	-1339.733500	1520.957031	3458.173096
29468.897819	-1339.733500	1519.901367	3564.022217
29468.897819	-1339.733500	1518.845703	3719.835205
29468.897819	-1339.733500	1517.790039	3183.141113
29468.897819	-1339.733500	1516.734375	3137.953125
29468.897819	-1339.733500	1515.677734	3065.812744
29468.897819	-1339.733500	1514.621094	2880.795654
29468.897819	-1339.733500	1513.564453	3132.578857
29468.897819	-1339.733500	1512.507813	3038.488770
29468.897819	-1339.733500	1511.450195	3046.365723
29468.897819	-1339.733500	1510.393555	3153.929688
29468.897819	-1339.733500	1509.335938	3184.805908
29468.897819	-1339.733500	1508.278320	3326.602295
29468.897819	-1339.733500	1507.219727	3188.412354
29468.897819	-1339.733500	1506.162109	2488.121826
29468.897819	-1339.733500	1505.103516	2562.862061
29468.897819	-1339.733500	1504.044922	2301.393799
29468.897819	-1339.733500	1502.986328	2302.097168
29468.897819	-1339.733500	1501.926758	2106.660889
29468.897819	-1339.733500	1500.868164	2200.366699
29468.897819	-1339.733500	1499.808594	2165.656494
29468.897819	-1339.733500	1498.749023	2063.524414
29468.897819	-1339.733500	1497.688477	1630.155518
29468.897819	-1339.733500	1496.628906	1670.674072
29468.897819	-1339.733500	1495.568359	1797.048584
29468.897819	-1339.733500	1494.507813	1673.450073
29468.897819	-1339.733500	1493.447266	1511.832886
29468.897819	-1339.733500	1492.386719	1379.803711
29468.897819	-1339.733500	1491.325195	1466.527344
29468.897819	-1339.733500	1490.263672	1524.183594
29468.897819	-1339.733500	1489.202148	1636.095947
29468.897819	-1339.733500	1488.140625	1329.519165
29468.897819	-1339.733500	1487.079102	1333.886108
29468.897819	-1339.733500	1486.016602	1273.229858
29468.897819	-1339.733500	1484.954102	1379.318726
29468.897819	-1339.733500	1483.891602	1015.528748
29468.897819	-1339.733500	1482.829102	1133.372559
29468.897819	-1339.733500	1481.765625	882.675293
29468.897819	-1339.733500	1480.702148	848.127930
29468.897819	-1339.733500	1479.638672	840.803650
29468.897819	-1339.733500	1478.575195	831.484680
29468.897819	-1339.733500	1477.511719	896.546875
29468.897819	-1339.733500	1476.447266	535.103455
29468.897819	-1339.733500	1475.382813	746.584351
29468.897819	-1339.733500	1474.318359	890.935791
29468.897819	-1339.733500	1473.253906	676.340088
29468.897819	-1339.733500	1472.189453	749.343079
29468.897819	-1339.733500	1471.124023	779.889038
29468.897819	-1339.733500	1470.058594	772.570740
29468.897819	-1339.733500	1468.993164	687.174011
29468.897819	-1339.733500	1467.927734	528.068726
29468.897819	-1339.733500	1466.861328	402.803619
29468.897819	-1339.733500	1465.794922	224.210632
29468.897819	-1339.733500	1464.728516	337.270844
29468.897819	-1339.733500	1463.662109	595.900818
29468.897819	-1339.733500	1462.594727	229.935455
29468.897819	-1339.733500	1461.528320	419.656128
29468.897819	-1339.733500	1460.460938	153.679489
29468.897819	-1339.733500	1459.393555	372.564301
29468.897819	-1339.733500	1458.326172	98.398918
29468.897819	-1339.733500	1457.257813	284.337738
29468.897819	-1339.733500	1456.189453	483.298035
29468.897819	-1339.733500	1455.121094	415.420868
29468.897819	-1339.733500	1454.052734	349.616730
29468.897819	-1339.733500	1452.984375	601.075439
29468.897819	-1339.733500	1451.915039	431.056061
29468.897819	-1339.733500	1450.845703	358.113159
29468.897819	-1339.733500	1449.776367	386.790009
29468.897819	-1339.733500	1448.707031	701.793884
29468.897819	-1339.733500	1447.636719	612.369141
29468.897819	-1339.733500	1446.567383	407.670593
29468.897819	-1339.733500	1445.497070	712.130249
29468.897819	-1339.733500	1444.425781	599.620178
29468.897819	-1339.733500	1443.355469	711.629456
29468.897819	-1339.733500	1442.285156	802.043518
29468.897819	-1339.733500	1441.213867	884.104187
29468.897819	-1339.733500	1440.142578	1111.859375
29468.897819	-1339.733500	1439.070313	864.598206
29468.897819	-1339.733500	1437.999023	1045.406738
29468.897819	-1339.733500	1436.926758	1044.424194
29468.897819	-1339.733500	1435.854492	874.661987
29468.897819	-1339.733500	1434.782227	843.081116
29468.897819	-1339.733500	1433.709961	802.568237
29468.897819	-1339.733500	1432.636719	960.417847
29468.897819	-1339.733500	1431.563477	1016.404114
29468.897819	-1339.733500	1430.490234	567.194763
29468.897819	-1339.733500	1429.416992	199.293655
29468.897819	-1339.733500	1428.343750	513.786499
29468.897819	-1339.733500	1427.269531	339.705261
29468.897819	-1339.733500	1426.195313	292.891113
29468.897819	-1339.733500	1425.121094	149.212906
29468.897819	-1339.733500	1424.046875	126.867615
29468.897819	-1339.733500	1422.971680	69.247604
29468.897819	-1339.733500	1421.896484	-227.285690
29468.897819	-1339.733500	1420.821289	-9.201385
29468.897819	-1339.733500	1419.746094	106.465004
29468.897819	-1339.733500	1418.669922	76.485680
29468.897819	-1339.733500	1417.594727	-13.077310
29468.897819	-1339.733500	1416.518555	13.092554
29468.897819	-1339.733500	1415.442383	-103.078583
29468.897819	-1339.733500	1414.365234	186.467575
29468.897819	-1339.733500	1413.289063	52.738216
29468.897819	-1339.733500	1412.211914	338.131866
29468.897819	-1339.733500	1411.134766	29.348984
29468.897819	-1339.733500	1410.057617	227.510056
29468.897819	-1339.733500	1408.979492	87.403076
29468.897819	-1339.733500	1407.902344	320.139984
29468.897819	-1339.733500	1406.824219	457.861969
29468.897819	-1339.733500	1405.746094	708.902893
29468.897819	-1339.733500	1404.666992	343.998840
29468.897819	-1339.733500	1403.588867	454.511688
29468.897819	-1339.733500	1402.509766	633.057190
29468.897819	-1339.733500	1401.430664	428.216095
29468.897819	-1339.733500	1400.351563	621.806030
29468.897819	-1339.733500	1399.271484	502.406036
29468.897819	-1339.733500	1398.192383	348.607758
29468.897819	-1339.733500	1397.112305	190.045013
29468.897819	-1339.733500	1396.031250	151.184464
29468.897819	-1339.733500	1394.951172	429.485321
29468.897819	-1339.733500	1393.871094	6.659896
29468.897819	-1339.733500	1392.790039	23.366741
29468.897819	-1339.733500	1391.708984	57.797489
29468.897819	-1339.733500	1390.626953	214.320145
29468.897819	-1339.733500	1389.545898	102.772224
29468.897819	-1339.733500	1388.463867	45.883068
29468.897819	-1339.733500	1387.381836	-7.490724
29468.897819	-1339.733500	1386.299805	-63.184181
29468.897819	-1339.733500	1385.217773	-223.803833
29468.897819	-1339.733500	1384.134766	66.410271
29468.897819	-1339.733500	1383.051758	-63.643368
29468.897819	-1339.733500	1381.968750	58.737270
29468.897819	-1339.733500	1380.885742	-105.109100
29468.897819	-1339.733500	1379.802734	-31.619196
29468.897819	-1339.733500	1378.718750	93.192612
29468.897819	-1339.733500	1377.634766	88.868095
29468.897819	-1339.733500	1376.550781	269.851349
29468.897819	-1339.733500	1375.465820	380.611084
29468.897819	-1339.733500	1374.381836	301.899780
29468.897819	-1339.733500	1373.296875	235.187500
29468.897819	-1339.733500	1372.211914	267.909271
29468.897819	-1339.733500	1371.126953	249.325546
29468.897819	-1339.733500	1370.041016	242.843491
29468.897819	-1339.733500	1368.955078	332.807617
29468.897819	-1339.733500	1367.869141	607.976318
29468.897819	-1339.733500	1366.783203	333.820923
29468.897819	-1339.733500	1365.697266	435.902496
29468.897819	-1339.733500	1364.610352	448.293304
29468.897819	-1339.733500	1363.523438	637.971436
29468.897819	-1339.733500	1362.436523	386.074127
29468.897819	-1339.733500	1361.349609	625.779602
29468.897819	-1339.733500	1360.261719	449.676514
29468.897819	-1339.733500	1359.174805	472.561829
29468.897819	-1339.733500	1358.086914	667.307861
29468.897819	-1339.733500	1356.998047	454.226318
29468.897819	-1339.733500	1355.910156	434.395935
29468.897819	-1339.733500	1354.821289	342.274323
29468.897819	-1339.733500	1353.732422	406.476105
29468.897819	-1339.733500	1352.643555	344.333710
29468.897819	-1339.733500	1351.554688	210.997879
29468.897819	-1339.733500	1350.464844	183.184006
29468.897819	-1339.733500	1349.375000	109.818382
29468.897819	-1339.733500	1348.285156	169.967712
29468.897819	-1339.733500	1347.195313	328.681152
29468.897819	-1339.733500	1346.105469	192.046814
29468.897819	-1339.733500	1345.014648	25.898226
29468.897819	-1339.733500	1343.923828	38.824669
29468.897819	-1339.733500	1342.833008	78.408409
29468.897819	-1339.733500	1341.741211	113.807678
29468.897819	-1339.733500	1340.650391	56.302570
29468.897819	-1339.733500	1339.558594	71.494629
29468.897819	-1339.733500	1338.466797	158.929153
29468.897819	-1339.733500	1337.374023	122.142014
29468.897819	-1339.733500	1336.282227	88.743820
29468.897819	-1339.733500	1335.189453	-5.537498
29468.897819	-1339.733500	1334.096680	112.293770
29468.897819	-1339.733500	1333.003906	50.593212
29468.897819	-1339.733500	1331.910156	2.420938
29468.897819	-1339.733500	1330.817383	-72.737312
29468.897819	-1339.733500	1329.723633	-198.261276
29468.897819	-1339.733500	1328.629883	-135.914017
29468.897819	-1339.733500	1327.535156	-401.236328
29468.897819	-1339.733500	1326.441406	-139.365005
29468.897819	-1339.733500	1325.346680	-66.221436
29468.897819	-1339.733500	1324.251953	-324.044006
29468.897819	-1339.733500	1323.156250	23.074356
29468.897819	-1339.733500	1322.061523	46.819733
29468.897819	-1339.733500	1320.965820	15.357914
29468.897819	-1339.733500	1319.870117	403.754517
29468.897819	-1339.733500	1318.774414	255.827881
29468.897819	-1339.733500	1317.678711	162.949081
29468.897819	-1339.733500	1316.582031	421.291656
29468.897819	-1339.733500	1315.485352	314.086578
29468.897819	-1339.733500	1314.388672	651.376770
29468.897819	-1339.733500	1313.291016	656.144714
29468.897819	-1339.733500	1312.194336	578.542542
29468.897819	-1339.733500	1311.096680	665.867554
29468.897819	-1339.733500	1309.999023	639.971008
29468.897819	-1339.733500	1308.901367	482.352783
29468.897819	-1339.733500	1307.802734	813.509766
29468.897819	-1339.733500	1306.705078	700.727417
29468.897819	-1339.733500	1305.606445	487.767151
29468.897819	-1339.733500	1304.506836	642.998474
29468.897819	-1339.733500	1303.408203	687.166809
29468.897819	-1339.733500	1302.308594	327.731781
29468.897819	-1339.733500	1301.208984	284.621643
29468.897819	-1339.733500	1300.109375	576.006165
29468.897819	-1339.733500	1299.009766	503.945709
29468.897819	-1339.733500	1297.909180	361.190216
29468.897819	-1339.733500	1296.808594	455.177216
29468.897819	-1339.733500	1295.708008	592.660339
29468.897819	-1339.733500	1294.607422	702.819214
29468.897819	-1339.733500	1293.506836	756.046204
29468.897819	-1339.733500	1292.405273	619.921814
29468.897819	-1339.733500	1291.303711	677.773560
29468.897819	-1339.733500	1290.202148	701.681335
29468.897819	-1339.733500	1289.099609	860.487671
29468.897819	-1339.733500	1287.998047	762.245300
29468.897819	-1339.733500	1286.895508	858.731384
29468.897819	-1339.733500	1285.792969	916.159607
29468.897819	-1339.733500	1284.689453	876.929504
29468.897819	-1339.733500	1283.586914	1115.169189
29468.897819	-1339.733500	1282.483398	1089.988647
29468.897819	-1339.733500	1281.379883	1191.395996
29468.897819	-1339.733500	1280.276367	993.076721
29468.897819	-1339.733500	1279.171875	1123.139648
29468.897819	-1339.733500	1278.067383	1245.188477
29468.897819	-1339.733500	1276.962891	1332.715088
29468.897819	-1339.733500	1275.858398	1085.225220
29468.897819	-1339.733500	1274.753906	1102.820190
29468.897819	-1339.733500	1273.648438	1396.333984
29468.897819	-1339.733500	1272.542969	1286.016235
29468.897819	-1339.733500	1271.437500	1249.712402
29468.897819	-1339.733500	1270.331055	1170.098511
29468.897819	-1339.733500	1269.225586	1269.556396
29468.897819	-1339.733500	1268.119141	1201.188232
29468.897819	-1339.733500	1267.012695	1174.233643
29468.897819	-1339.733500	1265.906250	1208.143555
29468.897819	-1339.733500	1264.798828	1027.078735
29468.897819	-1339.733500	1263.691406	1267.506958
29468.897819	-1339.733500	1262.583984	1359.179932
29468.897819	-1339.733500	1261.476563	995.618896
29468.897819	-1339.733500	1260.368164	899.492737
29468.897819	-1339.733500	1259.260742	1000.164368
29468.897819	-1339.733500	1258.152344	1055.102539
29468.897819	-1339.733500	1257.043945	924.157471
29468.897819	-1339.733500	1255.934570	1042.963135
29468.897819	-1339.733500	1254.825195	1007.855896
29468.897819	-1339.733500	1253.716797	1008.275696
29468.897819	-1339.733500	1252.606445	993.415771
29468.897819	-1339.733500	1251.497070	1074.408691
29468.897819	-1339.733500	1250.387695	950.528931
29468.897819	-1339.733500	1249.277344	1098.932129
29468.897819	-1339.733500	1248.166992	1168.776855
29468.897819	-1339.733500	1247.055664	1193.076050
29468.897819	-1339.733500	1245.945313	1331.168457
29468.897819	-1339.733500	1244.833984	1128.228760
29468.897819	-1339.733500	1243.722656	1080.778687
29468.897819	-1339.733500	1242.611328	1082.466553
29468.897819	-1339.733500	1241.499023	957.266479
29468.897819	-1339.733500	1240.387695	980.028503
29468.897819	-1339.733500	1239.275391	918.027344
29468.897819	-1339.733500	1238.162109	891.825378
29468.897819	-1339.733500	1237.049805	1074.184570
29468.897819	-1339.733500	1235.936523	963.247131
29468.897819	-1339.733500	1234.823242	973.530579
29468.897819	-1339.733500	1233.709961	1051.275024
29468.897819	-1339.733500	1232.596680	846.837769
29468.897819	-1339.733500	1231.482422	780.251831
29468.897819	-1339.733500	1230.369141	702.031006
29468.897819	-1339.733500	1229.253906	747.825134
29468.897819	-1339.733500	1228.139648	809.341675
29468.897819	-1339.733500	1227.025391	719.480713
29468.897819	-1339.733500	1225.910156	868.835815
29468.897819	-1339.733500	1224.794922	726.614136
29468.897819	-1339.733500	1223.679688	852.946411
29468.897819	-1339.733500	1222.563477	769.853882
29468.897819	-1339.733500	1221.447266	973.612122
29468.897819	-1339.733500	1220.331055	808.619446
29468.897819	-1339.733500	1219.214844	873.395508
29468.897819	-1339.733500	1218.098633	935.840515
29468.897819	-1339.733500	1216.981445	961.448486
29468.897819	-1339.733500	1215.864258	1036.996948
29468.897819	-1339.733500	1214.747070	1125.163574
29468.897819	-1339.733500	1213.629883	1237.368408
29468.897819	-1339.733500	1212.511719	1111.575928
29468.897819	-1339.733500	1211.393555	1105.116577
29468.897819	-1339.733500	1210.275391	1246.369385
29468.897819	-1339.733500	1209.157227	1095.236572
29468.897819	-1339.733500	1208.038086	1243.130127
29468.897819	-1339.733500	1206.918945	1172.306152
29468.897819	-1339.733500	1205.799805	1127.966064
29468.897819	-1339.733500	1204.680664	1061.061035
29468.897819	-1339.733500	1203.560547	1179.139526
29468.897819	-1339.733500	1202.441406	1087.431274
29468.897819	-1339.733500	1201.321289	1095.216431
29468.897819	-1339.733500	1200.200195	1160.545898
29468.897819	-1339.733500	1199.080078	1278.407471
29468.897819	-1339.733500	1197.958984	1257.651489
29468.897819	-1339.733500	1196.837891	1287.280762
29468.897819	-1339.733500	1195.716797	1267.955688
29468.897819	-1339.733500	1194.594727	1471.357056
29468.897819	-1339.733500	1193.473633	1448.614136
29468.897819	-1339.733500	1192.351563	1375.691772
29468.897819	-1339.733500	1191.229492	1365.333618
29468.897819	-1339.733500	1190.106445	1559.249390
29468.897819	-1339.733500	1188.984375	1407.887207
29468.897819	-1339.733500	1187.861328	1398.307495
29468.897819	-1339.733500	1186.738281	1612.478394
29468.897819	-1339.733500	1185.614258	1445.711304
29468.897819	-1339.733500	1184.491211	1586.433228
29468.897819	-1339.733500	1183.367188	1692.301880
29468.897819	-1339.733500	1182.243164	1779.635254
29468.897819	-1339.733500	1181.119141	1713.111572
29468.897819	-1339.733500	1179.994141	1787.866211
29468.897819	-1339.733500	1178.869141	1674.383667
29468.897819	-1339.733500	1177.744141	1655.168091
29468.897819	-1339.733500	1176.619141	1620.866577
29468.897819	-1339.733500	1175.493164	1538.536011
29468.897819	-1339.733500	1174.368164	1553.473999
29468.897819	-1339.733500	1173.242188	1533.860352
29468.897819	-1339.733500	1172.115234	1530.279419
29468.897819	-1339.733500	1170.989258	1563.735962
29468.897819	-1339.733500	1169.862305	1561.789673
29468.897819	-1339.733500	1168.735352	1531.666748
29468.897819	-1339.733500	1167.608398	1540.543701
29468.897819	-1339.733500	1166.481445	1791.383911
29468.897819	-1339.733500	1165.353516	1642.852295
29468.897819	-1339.733500	1164.225586	1599.614136
29468.897819	-1339.733500	1163.097656	1608.667114
29468.897819	-1339.733500	1161.968750	1736.912231
29468.897819	-1339.733500	1160.840820	1643.377441
29468.897819	-1339.733500	1159.711914	1627.498779
29468.897819	-1339.733500	1158.583008	1439.238037
29468.897819	-1339.733500	1157.453125	1498.563232
29468.897819	-1339.733500	1156.324219	1464.231812
29468.897819	-1339.733500	1155.194336	1417.213013
29468.897819	-1339.733500	1154.064453	1380.017090
29468.897819	-1339.733500	1152.933594	1313.400879
29468.897819	-1339.733500	1151.803711	1155.013916
29468.897819	-1339.733500	1150.672852	1178.516602
29468.897819	-1339.733500	1149.541992	1249.280762
29468.897819	-1339.733500	1148.411133	1370.481812
29468.897819	-1339.733500	1147.279297	1216.260254
29468.897819	-1339.733500	1146.147461	1421.357056
29468.897819	-1339.733500	1145.015625	1507.179565
29468.897819	-1339.733500	1143.883789	1308.796997
29468.897819	-1339.733500	1142.750977	1270.590332
29468.897819	-1339.733500	1141.619141	1142.765137
29468.897819	-1339.733500	1140.486328	1104.620605
29468.897819	-1339.733500	1139.352539	1116.225830
29468.897819	-1339.733500	1138.219727	1091.828857
29468.897819	-1339.733500	1137.085938	1080.551514
29468.897819	-1339.733500	1135.952148	1057.581543
29468.897819	-1339.733500	1134.818359	1073.028320
29468.897819	-1339.733500	1133.683594	1101.844482
29468.897819	-1339.733500	1132.549805	1108.110474
29468.897819	-1339.733500	1131.415039	1050.137573
29468.897819	-1339.733500	1130.279297	1171.162964
29468.897819	-1339.733500	1129.144531	1246.749023
29468.897819	-1339.733500	1128.008789	1146.213257
29468.897819	-1339.733500	1126.873047	984.574646
29468.897819	-1339.733500	1125.737305	832.416199
29468.897819	-1339.733500	1124.601563	885.193420
29468.897819	-1339.733500	1123.464844	894.060181
29468.897819	-1339.733500	1122.328125	774.325745
29468.897819	-1339.733500	1121.191406	686.219055
29468.897819	-1339.733500	1120.054688	727.973694
29468.897819	-1339.733500	1118.916992	679.775574
29468.897819	-1339.733500	1117.779297	492.793823
29468.897819	-1339.733500	1116.641602	374.618713
29468.897819	-1339.733500	1115.503906	175.419617
29468.897819	-1339.733500	1114.365234	311.667999
29468.897819	-1339.733500	1113.226563	303.746521
29468.897819	-1339.733500	1112.087891	146.147873
29468.897819	-1339.733500	1110.949219	111.850090
29468.897819	-1339.733500	1109.809570	142.994125
29468.897819	-1339.733500	1108.669922	162.991547
29468.897819	-1339.733500	1107.530273	49.989422
29468.897819	-1339.733500	1106.390625	16.417978
29468.897819	-1339.733500	1105.250000	71.314255
29468.897819	-1339.733500	1104.109375	118.896072
29468.897819	-1339.733500	1102.968750	221.876938
29468.897819	-1339.733500	1101.828125	214.520203
29468.897819	-1339.733500	1100.686523	232.286285
29468.897819	-1339.733500	1099.544922	197.294952
29468.897819	-1339.733500	1098.403320	325.472687
29468.897819	-1339.733500	1097.261719	353.399323
29468.897819	-1339.733500	1096.120117	517.530701
29468.897819	-1339.733500	1094.977539	498.273865
29468.897819	-1339.733500	1093.834961	487.148834
29468.897819	-1339.733500	1092.691406	399.539093
29468.897819	-1339.733500	1091.548828	368.559753
29468.897819	-1339.733500	1090.405273	321.396912
29468.897819	-1339.733500	1089.261719	203.543655
29468.897819	-1339.733500	1088.118164	259.225525
29468.897819	-1339.733500	1086.973633	197.552948
29468.897819	-1339.733500	1085.829102	129.558640
29468.897819	-1339.733500	1084.684570	-16.326824
29468.897819	-1339.733500	1083.540039	-71.937447
29468.897819	-1339.733500	1082.395508	-229.633591
29468.897819	-1339.733500	1081.250000	-113.164680
29468.897819	-1339.733500	1080.104492	-191.138947
29468.897819	-1339.733500	1078.958984	-186.263367
29468.897819	-1339.733500	1077.812500	-58.681271
29468.897819	-1339.733500	1076.666016	-196.855881
29468.897819	-1339.733500	1075.519531	26.980457
29468.897819	-1339.733500	1074.373047	50.292725
29468.897819	-1339.733500	1073.226563	-3.222663
29468.897819	-1339.733500	1072.079102	66.245499
29468.897819	-1339.733500	1070.931641	102.424156
29468.897819	-1339.733500	1069.784180	9.499055
29468.897819	-1339.733500	1068.635742	49.901173
29468.897819	-1339.733500	1067.487305	57.025875
29468.897819	-1339.733500	1066.338867	-52.532848
29468.897819	-1339.733500	1065.190430	186.126633
29468.897819	-1339.733500	1064.041992	69.120796
29468.897819	-1339.733500	1062.892578	149.466019
29468.897819	-1339.733500	1061.743164	53.297665
29468.897819	-1339.733500	1060.593750	38.583817
29468.897819	-1339.733500	1059.443359	-47.377247
29468.897819	-1339.733500	1058.292969	3.209433
29468.897819	-1339.733500	1057.142578	-59.808113
29468.897819	-1339.733500	1055.992188	120.786339
29468.897819	-1339.733500	1054.841797	185.914093
29468.897819	-1339.733500	1053.690430	23.562346
29468.897819	-1339.733500	1052.539063	-37.896099
29468.897819	-1339.733500	1051.387695	123.388840
29468.897819	-1339.733500	1050.235352	5.547579
29468.897819	-1339.733500	1049.083984	159.759079
29468.897819	-1339.733500	1047.931641	75.299255
29468.897819	-1339.733500	1046.778320	130.450470
29468.897819	-1339.733500	1045.625977	32.846581
29468.897819	-1339.733500	1044.472656	136.299911
29468.897819	-1339.733500	1043.319336	165.060379
29468.897819	-1339.733500	1042.166016	426.584595
29468.897819	-1339.733500	1041.012695	159.548996
29468.897819	-1339.733500	1039.858398	206.503906
29468.897819	-1339.733500	1038.704102	357.536713
29468.897819	-1339.733500	1037.549805	332.716400
29468.897819	-1339.733500	1036.394531	365.895813
29468.897819	-1339.733500	1035.239258	241.335510
29468.897819	-1339.733500	1034.083984	348.503021
29468.897819	-1339.733500	1032.928711	446.013306
29468.897819	-1339.733500	1031.773438	244.725464
29468.897819	-1339.733500	1030.617188	130.253525
29468.897819	-1339.733500	1029.460938	294.932007
29468.897819	-1339.733500	1028.304688	217.084885
29468.897819	-1339.733500	1027.147461	374.490936
29468.897819	-1339.733500	1025.991211	240.876144
29468.897819	-1339.733500	1024.833984	207.748291
29468.897819	-1339.733500	1023.675781	274.568817
29468.897819	-1339.733500	1022.518555	164.401321
29468.897819	-1339.733500	1021.360352	178.866272
29468.897819	-1339.733500	1020.202148	234.773788
29468.897819	-1339.733500	1019.043945	307.764404
29468.897819	-1339.733500	1017.884766	307.965698
29468.897819	-1339.733500	1016.726563	-59.209927
29468.897819	-1339.733500	1015.567383	188.469284
29468.897819	-1339.733500	1014.407227	60.595711
29468.897819	-1339.733500	1013.248047	167.783646
29468.897819	-1339.733500	1012.087891	-38.126431
29468.897819	-1339.733500	1010.927734	6.044758
29468.897819	-1339.733500	1009.767578	69.211258
29468.897819	-1339.733500	1008.606445	-49.535259
29468.897819	-1339.733500	1007.446289	-8.030594
29468.897819	-1339.733500	1006.285156	24.083334
29468.897819	-1339.733500	1005.123047	-54.540428
29468.897819	-1339.733500	1003.961914	21.539318
29468.897819	-1339.733500	1002.799805	-55.812099
29468.897819	-1339.733500	1001.637695	58.845245
29468.897819	-1339.733500	1000.475586	134.677429
29468.897819	-1339.733500	999.312500	149.710007
29468.897819	-1339.733500	998.149414	22.360750
29468.897819	-1339.733500	996.986328	146.692261
29468.897819	-1339.733500	995.823242	98.851112
29468.897819	-1339.733500	994.659180	-14.575948
29468.897819	-1339.733500	993.496094	-118.611755
29468.897819	-1339.733500	992.332031	-1.600610
29468.897819	-1339.733500	991.166992	-181.496750
29468.897819	-1339.733500	990.002930	-87.538246
29468.897819	-1339.733500	988.837891	-84.809174
29468.897819	-1339.733500	987.672852	119.455826
29468.897819	-1339.733500	986.506836	-3.237143
29468.897819	-1339.733500	985.341797	-24.249466
29468.897819	-1339.733500	984.175781	-149.692245
29468.897819	-1339.733500	983.009766	-84.192299
29468.897819	-1339.733500	981.843750	-54.184032
29468.897819	-1339.733500	980.676758	114.265038
29468.897819	-1339.733500	979.509766	97.866234
29468.897819	-1339.733500	978.342773	95.421516
29468.897819	-1339.733500	977.175781	102.065857
29468.897819	-1339.733500	976.007813	200.357422
29468.897819	-1339.733500	974.839844	9.444405
29468.897819	-1339.733500	973.671875	63.679554
29468.897819	-1339.733500	972.503906	-14.432014
29468.897819	-1339.733500	971.334961	22.265247
29468.897819	-1339.733500	970.166016	-18.798914
29468.897819	-1339.733500	968.997070	89.930435
29468.897819	-1339.733500	967.828125	85.430099
29468.897819	-1339.733500	966.658203	147.016495
29468.897819	-1339.733500	965.488281	117.087433
29468.897819	-1339.733500	964.318359	144.135376
29468.897819	-1339.733500	963.148438	-53.362877
29468.897819	-1339.733500	961.977539	-31.645836
29468.897819	-1339.733500	960.806641	140.310577
29468.897819	-1339.733500	959.635742	100.067162
29468.897819	-1339.733500	958.463867	152.779755
29468.897819	-1339.733500	957.292969	0.441154
29468.897819	-1339.733500	956.121094	-28.056259
29468.897819	-1339.733500	954.948242	-11.943834
29468.897819	-1339.733500	953.776367	104.245224
29468.897819	-1339.733500	952.603516	82.722275
29468.897819	-1339.733500	951.430664	143.899612
29468.897819	-1339.733500	950.257813	266.797028
29468.897819	-1339.733500	949.084961	250.999741
29468.897819	-1339.733500	947.911133	111.361351
29468.897819	-1339.733500	946.737305	83.325584
29468.897819	-1339.733500	945.563477	102.291153
29468.897819	-1339.733500	944.388672	138.641739
29468.897819	-1339.733500	943.213867	7.191376
29468.897819	-1339.733500	942.039063	-131.201279
29468.897819	-1339.733500	940.864258	3.030431
29468.897819	-1339.733500	939.688477	-190.569824
29468.897819	-1339.733500	938.513672	56.047134
29468.897819	-1339.733500	937.337891	55.022003
29468.897819	-1339.733500	936.161133	-38.048401
29468.897819	-1339.733500	934.985352	55.104084
29468.897819	-1339.733500	933.808594	-0.248245
29468.897819	-1339.733500	932.631836	17.808620
29468.897819	-1339.733500	931.454102	103.506508
29468.897819	-1339.733500	930.277344	-106.937866
29468.897819	-1339.733500	929.099609	154.373444
29468.897819	-1339.733500	927.921875	-52.991123
29468.897819	-1339.733500	926.743164	-60.637775
29468.897819	-1339.733500	925.565430	-12.758722
29468.897819	-1339.733500	924.386719	-9.908458
29468.897819	-1339.733500	923.208008	-34.127792
29468.897819	-1339.733500	922.028320	-10.334608
29468.897819	-1339.733500	920.849609	-10.590023
29468.897819	-1339.733500	919.669922	-8.430242
29468.897819	-1339.733500	919.474609	34.497223
29468.897819	-1339.733500	918.309570	-72.337921
29468.897819	-1339.733500	917.143555	-197.154129
29468.897819	-1339.733500	915.977539	-158.527252
29468.897819	-1339.733500	914.810547	-116.944756
29468.897819	-1339.733500	913.644531	-81.402077
29468.897819	-1339.733500	912.477539	-270.655548
29468.897819	-1339.733500	911.310547	-103.317085
29468.897819	-1339.733500	910.143555	-124.788948
29468.897819	-1339.733500	908.975586	-174.725708
29468.897819	-1339.733500	907.807617	-149.806656
29468.897819	-1339.733500	906.639648	-118.932076
29468.897819	-1339.733500	905.471680	10.682257
29468.897819	-1339.733500	904.303711	-12.391335
29468.897819	-1339.733500	903.134766	54.283257
29468.897819	-1339.733500	901.965820	31.175257
29468.897819	-1339.733500	900.796875	136.659683
29468.897819	-1339.733500	899.626953	304.877686
29468.897819	-1339.733500	898.457031	347.456665
29468.897819	-1339.733500	897.287109	331.722809
29468.897819	-1339.733500	896.117188	245.760117
29468.897819	-1339.733500	894.947266	478.001160
29468.897819	-1339.733500	893.776367	451.762756
29468.897819	-1339.733500	892.605469	326.975098
29468.897819	-1339.733500	891.434570	230.594147
29468.897819	-1339.733500	890.262695	128.276535
29468.897819	-1339.733500	889.091797	234.911987
29468.897819	-1339.733500	887.919922	152.017822
29468.897819	-1339.733500	886.748047	170.586731
29468.897819	-1339.733500	885.575195	13.163881
29468.897819	-1339.733500	884.403320	104.807968
29468.897819	-1339.733500	883.230469	199.394638
29468.897819	-1339.733500	882.057617	217.929199
29468.897819	-1339.733500	880.883789	142.575974
29468.897819	-1339.733500	879.710938	9.149448
29468.897819	-1339.733500	878.537109	121.552551
29468.897819	-1339.733500	877.362305	157.962830
29468.897819	-1339.733500	876.188477	-2.180265
29468.897819	-1339.733500	875.013672	-8.924994
29468.897819	-1339.733500	873.839844	2.196375
29468.897819	-1339.733500	872.664063	47.544170
29468.897819	-1339.733500	871.489258	0.639396
29468.897819	-1339.733500	870.313477	26.644707
29468.897819	-1339.733500	869.138672	3.569735
29468.897819	-1339.733500	867.962891	103.917946
29468.897819	-1339.733500	866.786133	13.962487
29468.897819	-1339.733500	865.610352	87.533226
29468.897819	-1339.733500	864.433594	-61.799000
29468.897819	-1339.733500	863.256836	115.767769
29468.897819	-1339.733500	862.079102	-21.604273
29468.897819	-1339.733500	860.902344	59.381420
29468.897819	-1339.733500	859.724609	-103.138863
29468.897819	-1339.733500	858.546875	38.713875
29468.897819	-1339.733500	857.368164	119.677017
29468.897819	-1339.733500	856.190430	73.015717
29468.897819	-1339.733500	855.011719	102.044991
29468.897819	-1339.733500	853.833008	-5.371883
29468.897819	-1339.733500	852.654297	-10.413137
29468.897819	-1339.733500	851.474609	42.383209
29468.897819	-1339.733500	850.294922	-73.801300
29468.897819	-1339.733500	849.115234	-56.547276
29468.897819	-1339.733500	847.935547	71.838081
29468.897819	-1339.733500	846.754883	135.012054
29468.897819	-1339.733500	845.575195	236.681793
29468.897819	-1339.733500	844.393555	70.323235
29468.897819	-1339.733500	843.212891	291.915283
29468.897819	-1339.733500	842.032227	212.975494
29468.897819	-1339.733500	840.850586	191.800827
29468.897819	-1339.733500	839.668945	166.215118
29468.897819	-1339.733500	838.486328	51.910789
29468.897819	-1339.733500	837.304688	233.449173
29468.897819	-1339.733500	836.122070	80.775352
29468.897819	-1339.733500	834.939453	59.751152
29468.897819	-1339.733500	833.756836	282.621918
29468.897819	-1339.733500	832.573242	317.760712
29468.897819	-1339.733500	831.389648	253.922806
29468.897819	-1339.733500	830.206055	398.397461
29468.897819	-1339.733500	829.022461	439.461151
29468.897819	-1339.733500	827.838867	403.754669
29468.897819	-1339.733500	826.654297	453.702850
29468.897819	-1339.733500	825.469727	608.437744
29468.897819	-1339.733500	824.284180	469.501373
29468.897819	-1339.733500	823.099609	357.195679
29468.897819	-1339.733500	821.914063	514.873169
29468.897819	-1339.733500	820.728516	545.690186
29468.897819	-1339.733500	819.542969	511.646667
29468.897819	-1339.733500	818.356445	350.875580
29468.897819	-1339.733500	817.169922	259.458832
29468.897819	-1339.733500	815.983398	406.792938
29468.897819	-1339.733500	814.796875	685.195129
29468.897819	-1339.733500	813.609375	446.555206
29468.897819	-1339.733500	812.422852	453.939148
29468.897819	-1339.733500	811.235352	303.820831
29468.897819	-1339.733500	810.046875	496.737244
29468.897819	-1339.733500	808.859375	240.762115
29468.897819	-1339.733500	807.670898	224.734543
29468.897819	-1339.733500	806.482422	202.850449
29468.897819	-1339.733500	805.293945	313.357666
29468.897819	-1339.733500	804.104492	278.276764
29468.897819	-1339.733500	802.915039	-155.155411
29468.897819	-1339.733500	801.725586	34.788403
29468.897819	-1339.733500	800.536133	108.588417
29468.897819	-1339.733500	799.345703	108.922424
29468.897819	-1339.733500	798.155273	65.210709
29468.897819	-1339.733500	796.964844	-35.735542
29468.897819	-1339.733500	795.774414	41.034512
29468.897819	-1339.733500	794.583008	51.738701
29468.897819	-1339.733500	793.392578	118.223495
29468.897819	-1339.733500	792.200195	-61.807079
29468.897819	-1339.733500	791.008789	-67.171135
29468.897819	-1339.733500	789.816406	-37.312515
29468.897819	-1339.733500	788.625000	-101.301941
29468.897819	-1339.733500	787.432617	-159.382065
29468.897819	-1339.733500	786.239258	-145.594345
29468.897819	-1339.733500	785.046875	-147.919769
29468.897819	-1339.733500	783.853516	-198.578522
29468.897819	-1339.733500	782.660156	10.084613
29468.897819	-1339.733500	781.465820	54.642902
29468.897819	-1339.733500	780.272461	169.480438
29468.897819	-1339.733500	779.078125	161.311615
29468.897819	-1339.733500	777.883789	47.773003
29468.897819	-1339.733500	776.688477	70.389977
29468.897819	-1339.733500	775.494141	56.429295
29468.897819	-1339.733500	774.298828	128.790939
29468.897819	-1339.733500	773.103516	97.296898
29468.897819	-1339.733500	771.907227	70.215691
29468.897819	-1339.733500	770.711914	-48.945820
29468.897819	-1339.733500	769.515625	-40.893120
29468.897819	-1339.733500	768.318359	-102.972603
29468.897819	-1339.733500	767.122070	-70.062263
29468.897819	-1339.733500	765.924805	37.335537
29468.897819	-1339.733500	764.727539	-49.529633
29468.897819	-1339.733500	763.530273	-29.773769
29468.897819	-1339.733500	762.333008	22.092583
29468.897819	-1339.733500	761.134766	-3.407272
29468.897819	-1339.733500	759.936523	-77.046288
29468.897819	-1339.733500	758.738281	-124.393631
29468.897819	-1339.733500	757.540039	-168.804642
29468.897819	-1339.733500	756.340820	135.316208
29468.897819	-1339.733500	755.141602	74.833595
29468.897819	-1339.733500	753.942383	-100.777756
29468.897819	-1339.733500	752.742188	29.717276
29468.897819	-1339.733500	751.541992	98.958733
29468.897819	-1339.733500	750.341797	181.276764
29468.897819	-1339.733500	749.141602	48.010296
29468.897819	-1339.733500	747.941406	163.781448
29468.897819	-1339.733500	746.740234	155.758835
29468.897819	-1339.733500	745.539063	-12.372597
29468.897819	-1339.733500	744.337891	1.453571
29468.897819	-1339.733500	743.135742	56.001614
29468.897819	-1339.733500	741.933594	8.695709
29468.897819	-1339.733500	740.731445	70.466507
29468.897819	-1339.733500	739.529297	-119.336411
29468.897819	-1339.733500	738.326172	29.628298
29468.897819	-1339.733500	737.124023	-78.730377
29468.897819	-1339.733500	735.919922	12.011990
29468.897819	-1339.733500	734.716797	54.755077
29468.897819	-1339.733500	733.513672	46.626312
29468.897819	-1339.733500	732.309570	79.142700
29468.897819	-1339.733500	731.105469	91.298767
29468.897819	-1339.733500	729.900391	97.624153
29468.897819	-1339.733500	728.696289	108.275085
29468.897819	-1339.733500	727.491211	137.761124
29468.897819	-1339.733500	726.286133	213.629547
29468.897819	-1339.733500	725.080078	-6.423106
29468.897819	-1339.733500	723.874023	-49.509663
29468.897819	-1339.733500	722.668945	61.059868
29468.897819	-1339.733500	721.461914	-167.602386
29468.897819	-1339.733500	720.255859	-116.526802
29468.897819	-1339.733500	719.048828	17.079021
29468.897819	-1339.733500	717.841797	-99.994331
29468.897819	-1339.733500	716.634766	-114.231377
29468.897819	-1339.733500	715.427734	24.978067
29468.897819	-1339.733500	714.219727	6.307802
29468.897819	-1339.733500	713.011719	-100.677078
29468.897819	-1339.733500	711.803711	-41.254086
29468.897819	-1339.733500	710.594727	15.212388
29468.897819	-1339.733500	709.385742	-5.044512
29468.897819	-1339.733500	708.176758	122.163521
29468.897819	-1339.733500	706.967773	-21.083590
29468.897819	-1339.733500	705.758789	-74.697151
29468.897819	-1339.733500	704.548828	56.647705
29468.897819	-1339.733500	703.338867	-59.180931
29468.897819	-1339.733500	702.127930	14.229616
29468.897819	-1339.733500	700.917969	120.774155
29468.897819	-1339.733500	699.707031	59.727402
29468.897819	-1339.733500	698.496094	267.171448
29468.897819	-1339.733500	697.285156	143.950897
29468.897819	-1339.733500	696.073242	20.729160
29468.897819	-1339.733500	694.861328	171.621719
29468.897819	-1339.733500	693.649414	81.509254
29468.897819	-1339.733500	692.436523	287.013123
29468.897819	-1339.733500	691.224609	92.984909
29468.897819	-1339.733500	690.011719	257.918335
29468.897819	-1339.733500	688.798828	256.980896
29468.897819	-1339.733500	687.584961	427.449951
29468.897819	-1339.733500	686.372070	437.875793
29468.897819	-1339.733500	685.158203	423.747833
29468.897819	-1339.733500	683.943359	484.439880
29468.897819	-1339.733500	682.729492	670.293457
29468.897819	-1339.733500	681.514648	697.666931
29468.897819	-1339.733500	680.299805	760.936218
29468.897819	-1339.733500	679.084961	647.137207
29468.897819	-1339.733500	677.869141	665.656494
29468.897819	-1339.733500	676.653320	896.946167
29468.897819	-1339.733500	675.437500	665.065796
29468.897819	-1339.733500	674.221680	829.980225
29468.897819	-1339.733500	673.004883	996.187927
29468.897819	-1339.733500	671.789063	680.860657
29468.897819	-1339.733500	670.571289	645.740051
29468.897819	-1339.733500	669.354492	752.755371
29468.897819	-1339.733500	668.136719	721.782349
29468.897819	-1339.733500	666.919922	598.853760
29468.897819	-1339.733500	665.701172	688.342163
29468.897819	-1339.733500	664.483398	711.692383
29468.897819	-1339.733500	663.264648	427.889099
29468.897819	-1339.733500	662.045898	571.617798
29468.897819	-1339.733500	660.827148	550.261414
29468.897819	-1339.733500	659.608398	584.749756
29468.897819	-1339.733500	658.388672	636.340454
29468.897819	-1339.733500	657.168945	739.419556
29468.897819	-1339.733500	655.949219	580.120056
29468.897819	-1339.733500	654.728516	758.922119
29468.897819	-1339.733500	653.507813	695.476685
29468.897819	-1339.733500	652.287109	690.682373
29468.897819	-1339.733500	651.066406	725.888123
29468.897819	-1339.733500	649.844727	657.915649
29468.897819	-1339.733500	648.623047	542.645752
29468.897819	-1339.733500	647.401367	463.102173
29468.897819	-1339.733500	646.179688	502.238342
29468.897819	-1339.733500	644.957031	607.054443
29468.897819	-1339.733500	643.734375	518.675842
29468.897819	-1339.733500	642.511719	567.489685
29468.897819	-1339.733500	641.289063	669.071472
29468.897819	-1339.733500	640.065430	606.162476
29468.897819	-1339.733500	638.841797	814.653015
29468.897819	-1339.733500	637.618164	745.824890
29468.897819	-1339.733500	636.393555	794.035217
29468.897819	-1339.733500	635.168945	536.553711
29468.897819	-1339.733500	633.944336	820.136658
29468.897819	-1339.733500	632.719727	632.490784
29468.897819	-1339.733500	631.494141	787.296265
29468.897819	-1339.733500	630.269531	656.596680
29468.897819	-1339.733500	629.042969	771.183289
29468.897819	-1339.733500	627.817383	620.366821
29468.897819	-1339.733500	626.590820	793.159058
29468.897819	-1339.733500	625.365234	727.720581
29468.897819	-1339.733500	624.137695	779.063477
29468.897819	-1339.733500	622.911133	562.404785
29468.897819	-1339.733500	621.683594	567.962830
29468.897819	-1339.733500	620.456055	724.384460
29468.897819	-1339.733500	619.228516	580.175476
29468.897819	-1339.733500	618.000977	599.642395
29468.897819	-1339.733500	616.772461	557.787048
29468.897819	-1339.733500	615.543945	577.034058
29468.897819	-1339.733500	614.314453	802.461365
29468.897819	-1339.733500	613.085938	738.931641
29468.897819	-1339.733500	611.856445	560.123108
29468.897819	-1339.733500	610.626953	523.468689
29468.897819	-1339.733500	609.397461	635.985046
29468.897819	-1339.733500	608.166992	493.939362
29468.897819	-1339.733500	606.936523	597.670105
29468.897819	-1339.733500	605.706055	522.248779
29468.897819	-1339.733500	604.474609	500.722565
29468.897819	-1339.733500	603.244141	540.163696
29468.897819	-1339.733500	602.012695	509.909576
29468.897819	-1339.733500	600.780273	533.497314
29468.897819	-1339.733500	599.548828	561.231201
29468.897819	-1339.733500	598.316406	588.841736
29468.897819	-1339.733500	597.083984	568.105835
29468.897819	-1339.733500	595.851563	436.652863
29468.897819	-1339.733500	594.618164	692.239624
29468.897819	-1339.733500	593.384766	631.483154
29468.897819	-1339.733500	592.151367	489.860596
29468.897819	-1339.733500	590.917969	601.842285
29468.897819	-1339.733500	589.683594	593.248230
29468.897819	-1339.733500	588.449219	482.572937
29468.897819	-1339.733500	587.214844	417.158936
29468.897819	-1339.733500	585.979492	421.041931
29468.897819	-1339.733500	584.745117	430.490417
29468.897819	-1339.733500	583.509766	330.858337
29468.897819	-1339.733500	582.273438	420.761505
29468.897819	-1339.733500	581.038086	434.145721
29468.897819	-1339.733500	579.801758	349.834320
29468.897819	-1339.733500	578.565430	401.206451
29468.897819	-1339.733500	577.329102	530.214233
29468.897819	-1339.733500	576.091797	529.033691
29468.897819	-1339.733500	574.854492	524.934021
29468.897819	-1339.733500	573.617188	270.677826
29468.897819	-1339.733500	572.378906	522.105164
29468.897819	-1339.733500	571.141602	521.969910
29468.897819	-1339.733500	569.903320	702.461548
29468.897819	-1339.733500	568.664063	587.757935
29468.897819	-1339.733500	567.425781	576.044922
29468.897819	-1339.733500	566.186523	631.972839
29468.897819	-1339.733500	564.947266	580.578125
29468.897819	-1339.733500	563.708008	612.333801
29468.897819	-1339.733500	562.467773	378.891052
29468.897819	-1339.733500	561.227539	392.177307
29468.897819	-1339.733500	559.987305	506.860901
29468.897819	-1339.733500	558.747070	566.456848
29468.897819	-1339.733500	557.505859	630.170898
29468.897819	-1339.733500	556.264648	519.116455
29468.897819	-1339.733500	555.023438	547.453125
29468.897819	-1339.733500	553.781250	675.663879
29468.897819	-1339.733500	552.539063	636.233459
29468.897819	-1339.733500	551.296875	757.190674
29468.897819	-1339.733500	550.054688	661.335876
29468.897819	-1339.733500	548.811523	725.820007
29468.897819	-1339.733500	547.569336	673.479675
29468.897819	-1339.733500	546.325195	389.064087
29468.897819	-1339.733500	545.082031	367.612457
29468.897819	-1339.733500	543.837891	233.654282
29468.897819	-1339.733500	542.593750	196.658188
29468.897819	-1339.733500	541.349609	239.701065
29468.897819	-1339.733500	540.105469	293.906647
29468.897819	-1339.733500	538.860352	27.830875
29468.897819	-1339.733500	537.615234	177.418213
29468.897819	-1339.733500	536.369141	249.674759
29468.897819	-1339.733500	535.124023	209.580765
29468.897819	-1339.733500	533.877930	97.886925
29468.897819	-1339.733500	532.631836	-12.402543
29468.897819	-1339.733500	531.384766	142.385361
29468.897819	-1339.733500	530.138672	75.515373
29468.897819	-1339.733500	528.891602	39.466473
29468.897819	-1339.733500	527.643555	245.873169
29468.897819	-1339.733500	526.396484	194.310944
29468.897819	-1339.733500	525.148438	13.829888
29468.897819	-1339.733500	523.900391	217.198166
29468.897819	-1339.733500	522.652344	5.911672
29468.897819	-1339.733500	521.403320	183.919601
29468.897819	-1339.733500	520.154297	17.458916
29468.897819	-1339.733500	518.905273	51.176872
29468.897819	-1339.733500	517.656250	68.064499
29468.897819	-1339.733500	516.406250	38.746658
29468.897819	-1339.733500	515.156250	22.007221
29468.897819	-1339.733500	513.906250	-17.119864
29468.897819	-1339.733500	512.655273	75.160118
29468.897819	-1339.733500	511.404297	87.711113
29468.897819	-1339.733500	510.153320	-4.567748
29468.897819	-1339.733500	508.902344	-120.572266
29468.897819	-1339.733500	507.650391	66.569305
29468.897819	-1339.733500	506.398438	0.843913
29468.897819	-1339.733500	505.146484	9.138871
29468.897819	-1339.733500	503.893555	-11.900715
29468.897819	-1339.733500	502.641602	28.478621
29468.897819	-1339.733500	501.388672	-48.379845
29468.897819	-1339.733500	500.134766	99.384712
29468.897819	-1339.733500	498.881836	-13.725328
29468.897819	-1339.733500	497.627930	-146.317001
29468.897819	-1339.733500	496.374023	50.167671
29468.897819	-1339.733500	495.119141	-33.601093
29468.897819	-1339.733500	493.865234	-57.400421
29468.897819	-1339.733500	492.610352	-68.653900
29468.897819	-1339.733500	491.355469	-123.078209
29468.897819	-1339.733500	490.099609	-35.430046
29468.897819	-1339.733500	488.843750	32.695843
29468.897819	-1339.733500	487.587891	-10.563875
29468.897819	-1339.733500	486.332031	-46.836262
29468.897819	-1339.733500	485.075195	-56.652649
29468.897819	-1339.733500	483.818359	-83.148140
29468.897819	-1339.733500	482.561523	-51.203934
29468.897819	-1339.733500	481.304688	-19.261845
29468.897819	-1339.733500	480.046875	-138.866165
29468.897819	-1339.733500	478.789063	55.723595
29468.897819	-1339.733500	477.531250	-79.104568
29468.897819	-1339.733500	476.272461	33.435883
29468.897819	-1339.733500	475.013672	-11.021336
29468.897819	-1339.733500	473.754883	76.485695
29468.897819	-1339.733500	472.496094	-54.017735
29468.897819	-1339.733500	471.236328	-45.643894
29468.897819	-1339.733500	469.976563	-34.485138
29468.897819	-1339.733500	468.716797	-77.432541
29468.897819	-1339.733500	467.456055	64.147415
29468.897819	-1339.733500	466.196289	-25.936007
29468.897819	-1339.733500	464.935547	40.715405
29468.897819	-1339.733500	463.673828	166.953262
29468.897819	-1339.733500	462.413086	160.090240
29468.897819	-1339.733500	461.151367	25.741995
29468.897819	-1339.733500	459.889648	-227.691864
29468.897819	-1339.733500	458.626953	17.637091
29468.897819	-1339.733500	457.364258	-5.799591
29468.897819	-1339.733500	456.101563	-180.142471
29468.897819	-1339.733500	454.838867	-69.252960
29468.897819	-1339.733500	453.575195	-102.354614
29468.897819	-1339.733500	452.312500	-38.584381
29468.897819	-1339.733500	451.047852	79.086540
29468.897819	-1339.733500	449.784180	1.690357
29468.897819	-1339.733500	448.519531	102.682831
29468.897819	-1339.733500	447.254883	3.156090
29468.897819	-1339.733500	445.990234	-30.003618
29468.897819	-1339.733500	444.725586	-23.099716
29468.897819	-1339.733500	443.459961	69.422852
29468.897819	-1339.733500	442.194336	-13.548721
29468.897819	-1339.733500	440.927734	102.331123
29468.897819	-1339.733500	439.662109	100.770210
29468.897819	-1339.733500	438.395508	93.634338
29468.897819	-1339.733500	437.127930	-63.984966
29468.897819	-1339.733500	435.861328	77.825600
29468.897819	-1339.733500	434.593750	76.040215
29468.897819	-1339.733500	433.326172	118.319862
29468.897819	-1339.733500	432.058594	108.110580
29468.897819	-1339.733500	430.790039	-173.764084
29468.897819	-1339.733500	429.521484	-50.388992
29468.897819	-1339.733500	428.252930	20.474943
29468.897819	-1339.733500	426.984375	-1.099529
29468.897819	-1339.733500	425.714844	-70.990570
29468.897819	-1339.733500	424.445313	-171.265488
29468.897819	-1339.733500	423.174805	29.885172
29468.897819	-1339.733500	421.905273	79.408928
29468.897819	-1339.733500	420.634766	141.143143
29468.897819	-1339.733500	419.364258	113.264587
29468.897819	-1339.733500	418.092773	226.911896
29468.897819	-1339.733500	416.822266	39.154079
29468.897819	-1339.733500	415.550781	155.160049
29468.897819	-1339.733500	414.278320	-37.021915
29468.897819	-1339.733500	413.006836	189.874069
29468.897819	-1339.733500	411.734375	252.925003
29468.897819	-1339.733500	410.461914	98.656342
29468.897819	-1339.733500	409.188477	206.540665
29468.897819	-1339.733500	407.916016	119.134560
29468.897819	-1339.733500	406.642578	-37.159077
29468.897819	-1339.733500	405.368164	100.058304
29468.897819	-1339.733500	404.094727	92.834290
29468.897819	-1339.733500	402.820313	81.171654
29468.897819	-1339.733500	401.545898	167.947449
29468.897819	-1339.733500	400.270508	81.528740
29468.897819	-1339.733500	398.996094	144.248230
29468.897819	-1339.733500	397.720703	-10.042840
29468.897819	-1339.733500	396.444336	-100.262222
29468.897819	-1339.733500	395.168945	-29.159155
29468.897819	-1339.733500	393.892578	-50.320415
29468.897819	-1339.733500	392.616211	-45.905025
29468.897819	-1339.733500	391.339844	26.500906
29468.897819	-1339.733500	390.062500	-98.776779
29468.897819	-1339.733500	388.785156	61.550350
29468.897819	-1339.733500	387.507813	110.423653
29468.897819	-1339.733500	386.229492	181.958832
29468.897819	-1339.733500	384.951172	306.222839
29468.897819	-1339.733500	383.672852	-31.042156
29468.897819	-1339.733500	382.394531	283.386749
29468.897819	-1339.733500	381.115234	178.714478
29468.897819	-1339.733500	379.835938	148.568542
29468.897819	-1339.733500	378.556641	272.121948
29468.897819	-1339.733500	377.277344	314.285217
29468.897819	-1339.733500	375.997070	67.465172
29468.897819	-1339.733500	374.716797	245.982849
29468.897819	-1339.733500	373.435547	203.782333
29468.897819	-1339.733500	372.155273	209.898056
29468.897819	-1339.733500	370.874023	-29.159113
29468.897819	-1339.733500	369.591797	118.400368
29468.897819	-1339.733500	368.310547	74.004120
29468.897819	-1339.733500	367.028320	-242.758713
29468.897819	-1339.733500	365.746094	-135.030289
29468.897819	-1339.733500	364.463867	-72.027306
29468.897819	-1339.733500	363.180664	-37.430626
29468.897819	-1339.733500	361.897461	64.140594
29468.897819	-1339.733500	360.614258	69.139778
29468.897819	-1339.733500	359.330078	-82.363556
29468.897819	-1339.733500	358.045898	-127.487923
29468.897819	-1339.733500	356.761719	-111.267181
29468.897819	-1339.733500	355.477539	96.871277
29468.897819	-1339.733500	354.192383	58.574951
29468.897819	-1339.733500	352.907227	36.553204
29468.897819	-1339.733500	351.622070	149.079620
29468.897819	-1339.733500	350.336914	128.134750
29468.897819	-1339.733500	349.050781	74.323158
29468.897819	-1339.733500	347.764648	-21.859716
29468.897819	-1339.733500	346.477539	-9.635393
29468.897819	-1339.733500	345.191406	21.283464
29468.897819	-1339.733500	343.904297	202.510056
29468.897819	-1339.733500	342.616211	-52.792610
29468.897819	-1339.733500	341.329102	45.910362
29468.897819	-1339.733500	340.041016	74.711525
29468.897819	-1339.733500	338.752930	117.787575
29468.897819	-1339.733500	337.463867	88.180725
29468.897819	-1339.733500	336.175781	78.224617
29468.897819	-1339.733500	334.886719	82.316826
29468.897819	-1339.733500	333.596680	89.533394
29468.897819	-1339.733500	332.307617	47.042805
29468.897819	-1339.733500	331.017578	29.248011
29468.897819	-1339.733500	329.727539	-22.149296
29468.897819	-1339.733500	328.436523	-149.256607
29468.897819	-1339.733500	327.146484	46.252728
29468.897819	-1339.733500	325.855469	37.181026
29468.897819	-1339.733500	324.563477	134.982910
29468.897819	-1339.733500	323.272461	-180.139465
29468.897819	-1339.733500	321.980469	-188.165237
29468.897819	-1339.733500	320.688477	-218.091064
29468.897819	-1339.733500	319.395508	-33.331223
29468.897819	-1339.733500	318.103516	-85.666626
29468.897819	-1339.733500	316.810547	88.597527
29468.897819	-1339.733500	315.516602	-119.105385
29468.897819	-1339.733500	314.223633	-119.172012
29468.897819	-1339.733500	312.929688	-122.792648
29468.897819	-1339.733500	311.635742	-193.468445
29468.897819	-1339.733500	310.340820	37.389721
29468.897819	-1339.733500	309.045898	48.340748
29468.897819	-1339.733500	307.750977	39.238380
29468.897819	-1339.733500	306.456055	92.338844
29468.897819	-1339.733500	305.160156	96.734596
29468.897819	-1339.733500	303.865234	-48.622215
29468.897819	-1339.733500	302.568359	21.484617
29468.897819	-1339.733500	301.272461	48.202961
29468.897819	-1339.733500	299.975586	217.292938
29468.897819	-1339.733500	298.678711	245.581100
