#X		#Y		#Wave		#Intensity
29684.117979	-1290.796833	1999.980469	-56.411823
29684.117979	-1290.796833	1999.016602	-143.038391
29684.117979	-1290.796833	1998.052734	55.760807
29684.117979	-1290.796833	1997.087891	45.989777
29684.117979	-1290.796833	1996.123047	-199.486969
29684.117979	-1290.796833	1995.158203	-160.314240
29684.117979	-1290.796833	1994.193359	-22.394850
29684.117979	-1290.796833	1993.228516	1.262684
29684.117979	-1290.796833	1992.262695	-19.937872
29684.117979	-1290.796833	1991.297852	-1.811128
29684.117979	-1290.796833	1990.332031	58.115719
29684.117979	-1290.796833	1989.366211	38.574230
29684.117979	-1290.796833	1988.399414	164.756378
29684.117979	-1290.796833	1987.433594	82.864578
29684.117979	-1290.796833	1986.466797	-31.378269
29684.117979	-1290.796833	1985.500977	-22.181252
29684.117979	-1290.796833	1984.534180	115.349068
29684.117979	-1290.796833	1983.567383	47.464230
29684.117979	-1290.796833	1982.599609	127.677986
29684.117979	-1290.796833	1981.632813	-9.766521
29684.117979	-1290.796833	1980.665039	-80.648155
29684.117979	-1290.796833	1979.697266	-80.058952
29684.117979	-1290.796833	1978.729492	-17.909571
29684.117979	-1290.796833	1977.761719	39.110840
29684.117979	-1290.796833	1976.792969	98.419228
29684.117979	-1290.796833	1975.825195	100.786285
29684.117979	-1290.796833	1974.856445	-5.567971
29684.117979	-1290.796833	1973.887695	304.918823
29684.117979	-1290.796833	1972.918945	33.024471
29684.117979	-1290.796833	1971.949219	101.438896
29684.117979	-1290.796833	1970.980469	-17.692543
29684.117979	-1290.796833	1970.010742	-97.451752
29684.117979	-1290.796833	1969.041016	246.657166
29684.117979	-1290.796833	1968.071289	1.549007
29684.117979	-1290.796833	1967.101563	52.100330
29684.117979	-1290.796833	1966.130859	85.294441
29684.117979	-1290.796833	1965.161133	81.440262
29684.117979	-1290.796833	1964.190430	107.052414
29684.117979	-1290.796833	1963.219727	-10.224949
29684.117979	-1290.796833	1962.249023	74.319016
29684.117979	-1290.796833	1961.277344	111.998581
29684.117979	-1290.796833	1960.306641	-44.799053
29684.117979	-1290.796833	1959.334961	152.675659
29684.117979	-1290.796833	1958.363281	30.246313
29684.117979	-1290.796833	1957.391602	33.235424
29684.117979	-1290.796833	1956.419922	-128.571716
29684.117979	-1290.796833	1955.447266	58.730892
29684.117979	-1290.796833	1954.474609	167.267365
29684.117979	-1290.796833	1953.501953	125.816772
29684.117979	-1290.796833	1952.529297	-43.420010
29684.117979	-1290.796833	1951.556641	-48.033276
29684.117979	-1290.796833	1950.583984	104.520378
29684.117979	-1290.796833	1949.610352	16.334555
29684.117979	-1290.796833	1948.636719	38.645241
29684.117979	-1290.796833	1947.663086	-42.170498
29684.117979	-1290.796833	1946.689453	-51.798191
29684.117979	-1290.796833	1945.715820	80.889015
29684.117979	-1290.796833	1944.741211	103.113052
29684.117979	-1290.796833	1943.767578	-46.384106
29684.117979	-1290.796833	1942.792969	-92.826561
29684.117979	-1290.796833	1941.818359	17.675375
29684.117979	-1290.796833	1940.842773	-28.765142
29684.117979	-1290.796833	1939.868164	64.527100
29684.117979	-1290.796833	1938.892578	-33.361824
29684.117979	-1290.796833	1937.916992	-6.248631
29684.117979	-1290.796833	1936.941406	-104.073700
29684.117979	-1290.796833	1935.965820	-37.750160
29684.117979	-1290.796833	1934.990234	136.309753
29684.117979	-1290.796833	1934.013672	-255.255951
29684.117979	-1290.796833	1933.037109	-27.337685
29684.117979	-1290.796833	1932.060547	-120.104767
29684.117979	-1290.796833	1931.083984	-2.376004
29684.117979	-1290.796833	1930.107422	103.096138
29684.117979	-1290.796833	1929.129883	-43.397312
29684.117979	-1290.796833	1928.153320	98.771660
29684.117979	-1290.796833	1927.175781	113.762733
29684.117979	-1290.796833	1926.198242	126.327415
29684.117979	-1290.796833	1925.219727	48.476280
29684.117979	-1290.796833	1924.242188	83.096626
29684.117979	-1290.796833	1923.263672	93.299240
29684.117979	-1290.796833	1922.285156	91.311821
29684.117979	-1290.796833	1921.306641	-91.385338
29684.117979	-1290.796833	1920.328125	26.380379
29684.117979	-1290.796833	1919.349609	-51.188194
29684.117979	-1290.796833	1918.370117	-9.083665
29684.117979	-1290.796833	1917.391602	-93.874664
29684.117979	-1290.796833	1916.412109	221.586685
29684.117979	-1290.796833	1915.431641	53.901531
29684.117979	-1290.796833	1914.452148	39.985226
29684.117979	-1290.796833	1913.472656	191.947495
29684.117979	-1290.796833	1912.492188	12.272162
29684.117979	-1290.796833	1911.511719	-57.595303
29684.117979	-1290.796833	1910.531250	-93.277779
29684.117979	-1290.796833	1909.550781	-7.063227
29684.117979	-1290.796833	1908.569336	-96.274513
29684.117979	-1290.796833	1907.588867	-129.387741
29684.117979	-1290.796833	1906.607422	-284.233368
29684.117979	-1290.796833	1905.625977	-59.100822
29684.117979	-1290.796833	1904.644531	19.901407
29684.117979	-1290.796833	1903.662109	-171.293747
29684.117979	-1290.796833	1902.680664	121.943474
29684.117979	-1290.796833	1901.698242	-151.861771
29684.117979	-1290.796833	1900.715820	-199.271759
29684.117979	-1290.796833	1899.733398	-78.792656
29684.117979	-1290.796833	1898.750000	-223.408539
29684.117979	-1290.796833	1897.767578	-56.703106
29684.117979	-1290.796833	1896.784180	61.352879
29684.117979	-1290.796833	1895.800781	1.962404
29684.117979	-1290.796833	1894.817383	-30.641628
29684.117979	-1290.796833	1893.833984	-82.639435
29684.117979	-1290.796833	1892.850586	84.046547
29684.117979	-1290.796833	1891.866211	117.116791
29684.117979	-1290.796833	1890.881836	-12.493613
29684.117979	-1290.796833	1889.897461	-139.597824
29684.117979	-1290.796833	1888.913086	58.650166
29684.117979	-1290.796833	1887.927734	31.143200
29684.117979	-1290.796833	1886.943359	98.308289
29684.117979	-1290.796833	1885.958008	-28.610178
29684.117979	-1290.796833	1884.972656	121.065720
29684.117979	-1290.796833	1883.987305	-185.220505
29684.117979	-1290.796833	1883.001953	-149.484314
29684.117979	-1290.796833	1882.015625	-91.917854
29684.117979	-1290.796833	1881.029297	-7.689091
29684.117979	-1290.796833	1880.042969	-39.791119
29684.117979	-1290.796833	1879.056641	-195.427017
29684.117979	-1290.796833	1878.070313	164.994064
29684.117979	-1290.796833	1877.083984	36.058094
29684.117979	-1290.796833	1876.096680	-92.810852
29684.117979	-1290.796833	1875.109375	-6.138417
29684.117979	-1290.796833	1874.122070	27.263830
29684.117979	-1290.796833	1873.134766	109.071617
29684.117979	-1290.796833	1872.146484	23.904343
29684.117979	-1290.796833	1871.159180	79.096230
29684.117979	-1290.796833	1870.170898	32.691807
29684.117979	-1290.796833	1869.182617	-144.276184
29684.117979	-1290.796833	1868.194336	0.411874
29684.117979	-1290.796833	1867.205078	-77.349251
29684.117979	-1290.796833	1866.216797	-10.055593
29684.117979	-1290.796833	1865.227539	40.305191
29684.117979	-1290.796833	1864.238281	-97.803589
29684.117979	-1290.796833	1863.249023	126.488976
29684.117979	-1290.796833	1862.259766	-35.729416
29684.117979	-1290.796833	1861.269531	135.349075
29684.117979	-1290.796833	1860.279297	192.891800
29684.117979	-1290.796833	1859.290039	221.445999
29684.117979	-1290.796833	1858.298828	163.108368
29684.117979	-1290.796833	1857.308594	58.942890
29684.117979	-1290.796833	1856.318359	-35.538528
29684.117979	-1290.796833	1855.327148	154.628128
29684.117979	-1290.796833	1854.335938	60.154144
29684.117979	-1290.796833	1853.344727	-12.593543
29684.117979	-1290.796833	1852.353516	23.156307
29684.117979	-1290.796833	1851.362305	-30.295769
29684.117979	-1290.796833	1850.370117	17.472195
29684.117979	-1290.796833	1849.377930	-16.707409
29684.117979	-1290.796833	1848.385742	28.602667
29684.117979	-1290.796833	1847.393555	213.567215
29684.117979	-1290.796833	1846.401367	-8.494701
29684.117979	-1290.796833	1845.408203	142.668900
29684.117979	-1290.796833	1844.415039	-175.613434
29684.117979	-1290.796833	1843.421875	45.275234
29684.117979	-1290.796833	1842.428711	51.914730
29684.117979	-1290.796833	1841.435547	82.586060
29684.117979	-1290.796833	1840.441406	192.593826
29684.117979	-1290.796833	1839.448242	40.414989
29684.117979	-1290.796833	1838.454102	20.505651
29684.117979	-1290.796833	1837.459961	106.344917
29684.117979	-1290.796833	1836.464844	110.408188
29684.117979	-1290.796833	1835.470703	-99.424995
29684.117979	-1290.796833	1834.475586	3.116687
29684.117979	-1290.796833	1833.480469	11.906028
29684.117979	-1290.796833	1832.485352	37.469185
29684.117979	-1290.796833	1831.490234	183.045212
29684.117979	-1290.796833	1830.495117	189.290161
29684.117979	-1290.796833	1829.499023	92.284714
29684.117979	-1290.796833	1828.502930	-19.120607
29684.117979	-1290.796833	1827.506836	234.173630
29684.117979	-1290.796833	1826.510742	-54.815163
29684.117979	-1290.796833	1825.513672	-22.347260
29684.117979	-1290.796833	1824.517578	26.850317
29684.117979	-1290.796833	1823.520508	4.059880
29684.117979	-1290.796833	1822.523438	67.525787
29684.117979	-1290.796833	1821.526367	142.905151
29684.117979	-1290.796833	1820.529297	-45.370502
29684.117979	-1290.796833	1819.531250	27.508646
29684.117979	-1290.796833	1818.533203	2.103581
29684.117979	-1290.796833	1817.535156	125.135902
29684.117979	-1290.796833	1816.537109	3.844795
29684.117979	-1290.796833	1815.539063	157.845444
29684.117979	-1290.796833	1814.540039	69.994324
29684.117979	-1290.796833	1813.541992	-22.664885
29684.117979	-1290.796833	1812.542969	9.066171
29684.117979	-1290.796833	1811.543945	-11.898555
29684.117979	-1290.796833	1810.543945	57.969128
29684.117979	-1290.796833	1809.544922	10.581546
29684.117979	-1290.796833	1808.544922	42.045826
29684.117979	-1290.796833	1807.544922	257.489075
29684.117979	-1290.796833	1806.544922	243.363541
29684.117979	-1290.796833	1805.544922	-36.041702
29684.117979	-1290.796833	1804.544922	-98.013664
29684.117979	-1290.796833	1803.543945	179.136658
29684.117979	-1290.796833	1802.542969	243.581650
29684.117979	-1290.796833	1801.541992	66.788239
29684.117979	-1290.796833	1800.541016	221.805389
29684.117979	-1290.796833	1799.539063	61.651974
29684.117979	-1290.796833	1798.538086	397.825806
29684.117979	-1290.796833	1797.536133	232.787277
29684.117979	-1290.796833	1796.534180	-13.362004
29684.117979	-1290.796833	1795.532227	124.474831
29684.117979	-1290.796833	1794.529297	204.958969
29684.117979	-1290.796833	1793.527344	111.309692
29684.117979	-1290.796833	1792.524414	-15.749557
29684.117979	-1290.796833	1791.521484	54.958443
29684.117979	-1290.796833	1790.518555	225.632217
29684.117979	-1290.796833	1789.514648	138.889664
29684.117979	-1290.796833	1788.511719	245.023178
29684.117979	-1290.796833	1787.507813	155.772125
29684.117979	-1290.796833	1786.503906	209.324921
29684.117979	-1290.796833	1785.500000	172.322540
29684.117979	-1290.796833	1784.496094	113.835693
29684.117979	-1290.796833	1783.491211	38.631340
29684.117979	-1290.796833	1782.486328	253.612122
29684.117979	-1290.796833	1781.481445	114.025528
29684.117979	-1290.796833	1780.476563	-156.387741
29684.117979	-1290.796833	1779.471680	98.678436
29684.117979	-1290.796833	1778.465820	172.895004
29684.117979	-1290.796833	1777.460938	104.396072
29684.117979	-1290.796833	1776.455078	21.577688
29684.117979	-1290.796833	1775.449219	204.800186
29684.117979	-1290.796833	1774.442383	50.558479
29684.117979	-1290.796833	1773.436523	17.412193
29684.117979	-1290.796833	1772.429688	117.161087
29684.117979	-1290.796833	1771.422852	406.707886
29684.117979	-1290.796833	1770.416016	150.130356
29684.117979	-1290.796833	1769.409180	119.010201
29684.117979	-1290.796833	1768.402344	47.477943
29684.117979	-1290.796833	1767.394531	168.031937
29684.117979	-1290.796833	1766.386719	136.655487
29684.117979	-1290.796833	1765.378906	69.631523
29684.117979	-1290.796833	1764.371094	38.105312
29684.117979	-1290.796833	1763.362305	125.020226
29684.117979	-1290.796833	1762.354492	-98.653854
29684.117979	-1290.796833	1761.345703	-234.664749
29684.117979	-1290.796833	1760.336914	-1.138865
29684.117979	-1290.796833	1759.328125	56.928493
29684.117979	-1290.796833	1758.318359	29.623934
29684.117979	-1290.796833	1757.308594	177.449265
29684.117979	-1290.796833	1756.299805	142.850021
29684.117979	-1290.796833	1755.290039	247.809891
29684.117979	-1290.796833	1754.279297	33.172283
29684.117979	-1290.796833	1753.269531	92.976151
29684.117979	-1290.796833	1752.258789	285.126587
29684.117979	-1290.796833	1751.249023	70.329941
29684.117979	-1290.796833	1750.238281	84.882561
29684.117979	-1290.796833	1749.226563	245.908234
29684.117979	-1290.796833	1748.215820	28.595308
29684.117979	-1290.796833	1747.204102	187.019958
29684.117979	-1290.796833	1746.193359	61.763515
29684.117979	-1290.796833	1745.181641	54.572720
29684.117979	-1290.796833	1744.168945	40.201313
29684.117979	-1290.796833	1743.157227	-146.636978
29684.117979	-1290.796833	1742.144531	-99.766174
29684.117979	-1290.796833	1741.132813	36.699707
29684.117979	-1290.796833	1740.120117	26.691200
29684.117979	-1290.796833	1739.106445	-169.823029
29684.117979	-1290.796833	1738.093750	-12.473029
29684.117979	-1290.796833	1737.080078	73.957405
29684.117979	-1290.796833	1736.067383	-2.452402
29684.117979	-1290.796833	1735.053711	-57.710205
29684.117979	-1290.796833	1734.040039	47.261444
29684.117979	-1290.796833	1733.025391	-217.940887
29684.117979	-1290.796833	1732.011719	-16.546715
29684.117979	-1290.796833	1730.997070	-36.791927
29684.117979	-1290.796833	1729.982422	-52.410202
29684.117979	-1290.796833	1728.967773	19.026527
29684.117979	-1290.796833	1727.952148	-43.877708
29684.117979	-1290.796833	1726.937500	102.684654
29684.117979	-1290.796833	1725.921875	72.560921
29684.117979	-1290.796833	1724.906250	-178.852188
29684.117979	-1290.796833	1723.890625	-74.976158
29684.117979	-1290.796833	1722.875000	-420.540039
29684.117979	-1290.796833	1721.858398	-175.722427
29684.117979	-1290.796833	1720.841797	-86.287369
29684.117979	-1290.796833	1719.825195	-32.240242
29684.117979	-1290.796833	1718.808594	-91.131348
29684.117979	-1290.796833	1717.791992	49.677509
29684.117979	-1290.796833	1716.774414	-49.332443
29684.117979	-1290.796833	1715.756836	-211.820267
29684.117979	-1290.796833	1714.739258	8.526105
29684.117979	-1290.796833	1713.721680	-128.249802
29684.117979	-1290.796833	1712.704102	169.307663
29684.117979	-1290.796833	1711.685547	41.767288
29684.117979	-1290.796833	1710.667969	-57.634758
29684.117979	-1290.796833	1709.649414	-2.216592
29684.117979	-1290.796833	1708.630859	-186.205963
29684.117979	-1290.796833	1707.611328	-32.438610
29684.117979	-1290.796833	1706.592773	-115.670891
29684.117979	-1290.796833	1705.573242	-189.579849
29684.117979	-1290.796833	1704.553711	-0.976878
29684.117979	-1290.796833	1703.534180	51.529346
29684.117979	-1290.796833	1702.513672	31.282469
29684.117979	-1290.796833	1701.494141	10.974193
29684.117979	-1290.796833	1700.473633	-189.787064
29684.117979	-1290.796833	1699.453125	-64.998764
29684.117979	-1290.796833	1698.432617	-62.099621
29684.117979	-1290.796833	1697.412109	-110.782234
29684.117979	-1290.796833	1696.390625	-63.560715
29684.117979	-1290.796833	1695.369141	-112.381432
29684.117979	-1290.796833	1694.347656	-32.566833
29684.117979	-1290.796833	1693.326172	58.841896
29684.117979	-1290.796833	1692.304688	-189.000122
29684.117979	-1290.796833	1691.282227	131.422028
29684.117979	-1290.796833	1690.260742	30.816311
29684.117979	-1290.796833	1689.238281	-95.543205
29684.117979	-1290.796833	1688.214844	72.546318
29684.117979	-1290.796833	1687.192383	142.373322
29684.117979	-1290.796833	1686.168945	167.708603
29684.117979	-1290.796833	1685.146484	3.779367
29684.117979	-1290.796833	1684.123047	59.359127
29684.117979	-1290.796833	1683.099609	16.788532
29684.117979	-1290.796833	1682.075195	153.913116
29684.117979	-1290.796833	1681.051758	-89.507210
29684.117979	-1290.796833	1680.027344	140.801636
29684.117979	-1290.796833	1679.002930	158.651276
29684.117979	-1290.796833	1677.978516	-54.496399
29684.117979	-1290.796833	1676.953125	12.230306
29684.117979	-1290.796833	1675.928711	106.865303
29684.117979	-1290.796833	1674.903320	164.096268
29684.117979	-1290.796833	1673.877930	-88.752174
29684.117979	-1290.796833	1672.852539	-103.858711
29684.117979	-1290.796833	1671.826172	134.939163
29684.117979	-1290.796833	1670.800781	142.983490
29684.117979	-1290.796833	1669.774414	32.181271
29684.117979	-1290.796833	1668.748047	270.659149
29684.117979	-1290.796833	1667.721680	227.290222
29684.117979	-1290.796833	1666.694336	128.013184
29684.117979	-1290.796833	1665.667969	91.572945
29684.117979	-1290.796833	1664.640625	224.945389
29684.117979	-1290.796833	1663.613281	234.923447
29684.117979	-1290.796833	1662.585938	109.951553
29684.117979	-1290.796833	1661.557617	205.891113
29684.117979	-1290.796833	1660.530273	364.535248
29684.117979	-1290.796833	1659.501953	141.840988
29684.117979	-1290.796833	1658.473633	318.936432
29684.117979	-1290.796833	1657.444336	342.552032
29684.117979	-1290.796833	1656.416016	205.830795
29684.117979	-1290.796833	1655.386719	280.483429
29684.117979	-1290.796833	1654.358398	362.049591
29684.117979	-1290.796833	1653.328125	366.905579
29684.117979	-1290.796833	1652.298828	543.520142
29684.117979	-1290.796833	1651.269531	492.580688
29684.117979	-1290.796833	1650.239258	406.810608
29684.117979	-1290.796833	1649.208984	397.603973
29684.117979	-1290.796833	1648.178711	448.681671
29684.117979	-1290.796833	1647.148438	650.455994
29684.117979	-1290.796833	1646.117188	432.427612
29684.117979	-1290.796833	1645.086914	671.166016
29684.117979	-1290.796833	1644.055664	617.731934
29684.117979	-1290.796833	1643.024414	733.461060
29684.117979	-1290.796833	1641.992188	666.075623
29684.117979	-1290.796833	1640.960938	858.150208
29684.117979	-1290.796833	1639.928711	813.885071
29684.117979	-1290.796833	1638.896484	834.453796
29684.117979	-1290.796833	1637.864258	861.942566
29684.117979	-1290.796833	1636.832031	1051.429688
29684.117979	-1290.796833	1635.798828	926.082764
29684.117979	-1290.796833	1634.766602	1059.923706
29684.117979	-1290.796833	1633.733398	973.922241
29684.117979	-1290.796833	1632.699219	913.372498
29684.117979	-1290.796833	1631.666016	1174.273071
29684.117979	-1290.796833	1630.632813	995.788452
29684.117979	-1290.796833	1629.598633	1147.899780
29684.117979	-1290.796833	1628.564453	918.618713
29684.117979	-1290.796833	1627.530273	1153.855591
29684.117979	-1290.796833	1626.495117	1137.176392
29684.117979	-1290.796833	1625.460938	1074.316040
29684.117979	-1290.796833	1624.425781	1320.909180
29684.117979	-1290.796833	1623.390625	1107.948975
29684.117979	-1290.796833	1622.355469	1255.178711
29684.117979	-1290.796833	1621.319336	1353.873535
29684.117979	-1290.796833	1620.284180	1394.857056
29684.117979	-1290.796833	1619.248047	1343.535522
29684.117979	-1290.796833	1618.211914	1665.906006
29684.117979	-1290.796833	1617.174805	1432.365356
29684.117979	-1290.796833	1616.138672	1547.093994
29684.117979	-1290.796833	1615.101563	1721.710938
29684.117979	-1290.796833	1614.065430	1785.651123
29684.117979	-1290.796833	1613.027344	1614.511963
29684.117979	-1290.796833	1611.990234	1650.812622
29684.117979	-1290.796833	1610.953125	1546.601929
29684.117979	-1290.796833	1609.915039	1675.038452
29684.117979	-1290.796833	1608.876953	1421.216919
29684.117979	-1290.796833	1607.838867	1512.826050
29684.117979	-1290.796833	1606.800781	1592.909790
29684.117979	-1290.796833	1605.761719	1408.331543
29684.117979	-1290.796833	1604.723633	1481.542236
29684.117979	-1290.796833	1603.684570	1262.595215
29684.117979	-1290.796833	1602.644531	1308.229004
29684.117979	-1290.796833	1601.605469	1379.173950
29684.117979	-1290.796833	1600.566406	1337.467896
29684.117979	-1290.796833	1599.526367	1114.210693
29684.117979	-1290.796833	1598.486328	1318.508057
29684.117979	-1290.796833	1597.446289	1359.623901
29684.117979	-1290.796833	1596.405273	1297.370728
29684.117979	-1290.796833	1595.365234	1223.699463
29684.117979	-1290.796833	1594.324219	1382.002319
29684.117979	-1290.796833	1593.283203	1248.708618
29684.117979	-1290.796833	1592.242188	1296.834839
29684.117979	-1290.796833	1591.200195	1285.300415
29684.117979	-1290.796833	1590.159180	996.187317
29684.117979	-1290.796833	1589.117188	888.442200
29684.117979	-1290.796833	1588.075195	980.320007
29684.117979	-1290.796833	1587.032227	959.829041
29684.117979	-1290.796833	1585.990234	934.812622
29684.117979	-1290.796833	1584.947266	941.929749
29684.117979	-1290.796833	1583.904297	985.757446
29684.117979	-1290.796833	1582.861328	1029.613159
29684.117979	-1290.796833	1581.818359	952.081055
29684.117979	-1290.796833	1580.775391	1055.571411
29684.117979	-1290.796833	1579.731445	978.150269
29684.117979	-1290.796833	1578.687500	1088.551758
29684.117979	-1290.796833	1577.643555	997.521118
29684.117979	-1290.796833	1576.598633	1043.886230
29684.117979	-1290.796833	1575.554688	982.751221
29684.117979	-1290.796833	1574.509766	1070.388306
29684.117979	-1290.796833	1573.464844	1036.820313
29684.117979	-1290.796833	1572.419922	824.946533
29684.117979	-1290.796833	1571.374023	770.966492
29684.117979	-1290.796833	1570.329102	888.521729
29684.117979	-1290.796833	1569.283203	804.956177
29684.117979	-1290.796833	1568.237305	810.601929
29684.117979	-1290.796833	1567.191406	987.653381
29684.117979	-1290.796833	1566.144531	479.440948
29684.117979	-1290.796833	1565.098633	515.023621
29684.117979	-1290.796833	1564.051758	625.996826
29684.117979	-1290.796833	1563.004883	437.943390
29684.117979	-1290.796833	1561.957031	676.823730
29684.117979	-1290.796833	1560.910156	584.810669
29684.117979	-1290.796833	1559.862305	552.210999
29684.117979	-1290.796833	1558.814453	615.497864
29684.117979	-1290.796833	1557.766602	350.428955
29684.117979	-1290.796833	1556.718750	607.684937
29684.117979	-1290.796833	1555.669922	550.307861
29684.117979	-1290.796833	1554.621094	540.892395
29684.117979	-1290.796833	1553.573242	697.914917
29684.117979	-1290.796833	1552.523438	693.172791
29684.117979	-1290.796833	1551.474609	558.680054
29684.117979	-1290.796833	1550.424805	654.329773
29684.117979	-1290.796833	1549.375000	469.951721
29684.117979	-1290.796833	1548.325195	520.209778
29684.117979	-1290.796833	1547.275391	531.835327
29684.117979	-1290.796833	1546.225586	579.948364
29684.117979	-1290.796833	1545.174805	634.943176
29684.117979	-1290.796833	1544.124023	330.589417
29684.117979	-1290.796833	1543.073242	547.255127
29684.117979	-1290.796833	1542.022461	475.141327
29684.117979	-1290.796833	1540.970703	682.762695
29684.117979	-1290.796833	1539.919922	679.013245
29684.117979	-1290.796833	1538.868164	818.513428
29684.117979	-1290.796833	1537.815430	755.826843
29684.117979	-1290.796833	1536.763672	825.014832
29684.117979	-1290.796833	1535.710938	594.465942
29684.117979	-1290.796833	1534.659180	822.791138
29684.117979	-1290.796833	1533.606445	794.571594
29684.117979	-1290.796833	1532.552734	904.906860
29684.117979	-1290.796833	1531.500000	919.986511
29684.117979	-1290.796833	1530.446289	894.308167
29684.117979	-1290.796833	1529.393555	743.975037
29684.117979	-1290.796833	1528.338867	886.359436
29684.117979	-1290.796833	1527.285156	897.272034
29684.117979	-1290.796833	1526.231445	860.668762
29684.117979	-1290.796833	1525.176758	889.905396
29684.117979	-1290.796833	1524.122070	735.664795
29684.117979	-1290.796833	1523.067383	873.870483
29684.117979	-1290.796833	1522.012695	620.220276
29684.117979	-1290.796833	1520.957031	692.908264
29684.117979	-1290.796833	1519.901367	459.971313
29684.117979	-1290.796833	1518.845703	254.396378
29684.117979	-1290.796833	1517.790039	630.737793
29684.117979	-1290.796833	1516.734375	486.521484
29684.117979	-1290.796833	1515.677734	294.946747
29684.117979	-1290.796833	1514.621094	449.669189
29684.117979	-1290.796833	1513.564453	434.804535
29684.117979	-1290.796833	1512.507813	374.826965
29684.117979	-1290.796833	1511.450195	556.887329
29684.117979	-1290.796833	1510.393555	379.583130
29684.117979	-1290.796833	1509.335938	247.651062
29684.117979	-1290.796833	1508.278320	280.826111
29684.117979	-1290.796833	1507.219727	259.874725
29684.117979	-1290.796833	1506.162109	288.736267
29684.117979	-1290.796833	1505.103516	103.165848
29684.117979	-1290.796833	1504.044922	-41.580524
29684.117979	-1290.796833	1502.986328	-46.206520
29684.117979	-1290.796833	1501.926758	-37.181568
29684.117979	-1290.796833	1500.868164	-107.016602
29684.117979	-1290.796833	1499.808594	-16.543411
29684.117979	-1290.796833	1498.749023	-61.321033
29684.117979	-1290.796833	1497.688477	-189.406403
29684.117979	-1290.796833	1496.628906	-121.173676
29684.117979	-1290.796833	1495.568359	-104.701851
29684.117979	-1290.796833	1494.507813	-126.433266
29684.117979	-1290.796833	1493.447266	-107.481834
29684.117979	-1290.796833	1492.386719	-63.641193
29684.117979	-1290.796833	1491.325195	178.503021
29684.117979	-1290.796833	1490.263672	-144.558411
29684.117979	-1290.796833	1489.202148	72.974602
29684.117979	-1290.796833	1488.140625	99.203903
29684.117979	-1290.796833	1487.079102	107.536018
29684.117979	-1290.796833	1486.016602	138.482452
29684.117979	-1290.796833	1484.954102	135.791214
29684.117979	-1290.796833	1483.891602	67.992805
29684.117979	-1290.796833	1482.829102	220.720261
29684.117979	-1290.796833	1481.765625	74.476700
29684.117979	-1290.796833	1480.702148	65.531120
29684.117979	-1290.796833	1479.638672	135.356369
29684.117979	-1290.796833	1478.575195	128.895966
29684.117979	-1290.796833	1477.511719	64.155937
29684.117979	-1290.796833	1476.447266	-22.940144
29684.117979	-1290.796833	1475.382813	11.414166
29684.117979	-1290.796833	1474.318359	-59.615967
29684.117979	-1290.796833	1473.253906	-65.386871
29684.117979	-1290.796833	1472.189453	38.856445
29684.117979	-1290.796833	1471.124023	-78.820343
29684.117979	-1290.796833	1470.058594	-59.586994
29684.117979	-1290.796833	1468.993164	22.582920
29684.117979	-1290.796833	1467.927734	102.598648
29684.117979	-1290.796833	1466.861328	-34.684669
29684.117979	-1290.796833	1465.794922	-21.702913
29684.117979	-1290.796833	1464.728516	35.847649
29684.117979	-1290.796833	1463.662109	-80.773209
29684.117979	-1290.796833	1462.594727	161.157272
29684.117979	-1290.796833	1461.528320	114.297218
29684.117979	-1290.796833	1460.460938	74.616631
29684.117979	-1290.796833	1459.393555	-115.414886
29684.117979	-1290.796833	1458.326172	76.960426
29684.117979	-1290.796833	1457.257813	93.407257
29684.117979	-1290.796833	1456.189453	388.477814
29684.117979	-1290.796833	1455.121094	215.310745
29684.117979	-1290.796833	1454.052734	328.353180
29684.117979	-1290.796833	1452.984375	428.762268
29684.117979	-1290.796833	1451.915039	418.525421
29684.117979	-1290.796833	1450.845703	306.957977
29684.117979	-1290.796833	1449.776367	301.664276
29684.117979	-1290.796833	1448.707031	188.720322
29684.117979	-1290.796833	1447.636719	366.425537
29684.117979	-1290.796833	1446.567383	568.286255
29684.117979	-1290.796833	1445.497070	488.335999
29684.117979	-1290.796833	1444.425781	549.103271
29684.117979	-1290.796833	1443.355469	503.605499
29684.117979	-1290.796833	1442.285156	732.552307
29684.117979	-1290.796833	1441.213867	837.429260
29684.117979	-1290.796833	1440.142578	856.545532
29684.117979	-1290.796833	1439.070313	563.771606
29684.117979	-1290.796833	1437.999023	608.120667
29684.117979	-1290.796833	1436.926758	586.804932
29684.117979	-1290.796833	1435.854492	636.526428
29684.117979	-1290.796833	1434.782227	256.544800
29684.117979	-1290.796833	1433.709961	311.574493
29684.117979	-1290.796833	1432.636719	357.045258
29684.117979	-1290.796833	1431.563477	315.980103
29684.117979	-1290.796833	1430.490234	120.474396
29684.117979	-1290.796833	1429.416992	-42.714371
29684.117979	-1290.796833	1428.343750	178.236694
29684.117979	-1290.796833	1427.269531	208.865204
29684.117979	-1290.796833	1426.195313	204.604736
29684.117979	-1290.796833	1425.121094	107.653122
29684.117979	-1290.796833	1424.046875	137.632065
29684.117979	-1290.796833	1422.971680	-24.395021
29684.117979	-1290.796833	1421.896484	80.115273
29684.117979	-1290.796833	1420.821289	122.039497
29684.117979	-1290.796833	1419.746094	5.034451
29684.117979	-1290.796833	1418.669922	-62.989399
29684.117979	-1290.796833	1417.594727	-116.328812
29684.117979	-1290.796833	1416.518555	-39.066624
29684.117979	-1290.796833	1415.442383	-45.606388
29684.117979	-1290.796833	1414.365234	-2.710109
29684.117979	-1290.796833	1413.289063	-117.613899
29684.117979	-1290.796833	1412.211914	60.997662
29684.117979	-1290.796833	1411.134766	-77.226700
29684.117979	-1290.796833	1410.057617	-67.831451
29684.117979	-1290.796833	1408.979492	169.833023
29684.117979	-1290.796833	1407.902344	20.110579
29684.117979	-1290.796833	1406.824219	32.154533
29684.117979	-1290.796833	1405.746094	91.326920
29684.117979	-1290.796833	1404.666992	-102.318001
29684.117979	-1290.796833	1403.588867	149.184860
29684.117979	-1290.796833	1402.509766	35.541348
29684.117979	-1290.796833	1401.430664	-24.349834
29684.117979	-1290.796833	1400.351563	-45.289089
29684.117979	-1290.796833	1399.271484	194.256836
29684.117979	-1290.796833	1398.192383	110.228516
29684.117979	-1290.796833	1397.112305	308.544708
29684.117979	-1290.796833	1396.031250	192.794876
29684.117979	-1290.796833	1394.951172	377.585083
29684.117979	-1290.796833	1393.871094	288.501404
29684.117979	-1290.796833	1392.790039	234.837402
29684.117979	-1290.796833	1391.708984	239.938080
29684.117979	-1290.796833	1390.626953	325.976044
29684.117979	-1290.796833	1389.545898	132.521133
29684.117979	-1290.796833	1388.463867	-43.548424
29684.117979	-1290.796833	1387.381836	79.195923
29684.117979	-1290.796833	1386.299805	196.465393
29684.117979	-1290.796833	1385.217773	106.937027
29684.117979	-1290.796833	1384.134766	96.406982
29684.117979	-1290.796833	1383.051758	198.381561
29684.117979	-1290.796833	1381.968750	119.807312
29684.117979	-1290.796833	1380.885742	58.718647
29684.117979	-1290.796833	1379.802734	318.176361
29684.117979	-1290.796833	1378.718750	226.664505
29684.117979	-1290.796833	1377.634766	274.030731
29684.117979	-1290.796833	1376.550781	86.347481
29684.117979	-1290.796833	1375.465820	326.683075
29684.117979	-1290.796833	1374.381836	165.909424
29684.117979	-1290.796833	1373.296875	130.799728
29684.117979	-1290.796833	1372.211914	89.631767
29684.117979	-1290.796833	1371.126953	187.677246
29684.117979	-1290.796833	1370.041016	235.907135
29684.117979	-1290.796833	1368.955078	275.329498
29684.117979	-1290.796833	1367.869141	151.689575
29684.117979	-1290.796833	1366.783203	374.593018
29684.117979	-1290.796833	1365.697266	371.094696
29684.117979	-1290.796833	1364.610352	275.506744
29684.117979	-1290.796833	1363.523438	197.426651
29684.117979	-1290.796833	1362.436523	249.054718
29684.117979	-1290.796833	1361.349609	300.278778
29684.117979	-1290.796833	1360.261719	360.047089
29684.117979	-1290.796833	1359.174805	360.344452
29684.117979	-1290.796833	1358.086914	291.099548
29684.117979	-1290.796833	1356.998047	523.071411
29684.117979	-1290.796833	1355.910156	495.236755
29684.117979	-1290.796833	1354.821289	557.329224
29684.117979	-1290.796833	1353.732422	617.856628
29684.117979	-1290.796833	1352.643555	492.589600
29684.117979	-1290.796833	1351.554688	693.126892
29684.117979	-1290.796833	1350.464844	549.359680
29684.117979	-1290.796833	1349.375000	618.592346
29684.117979	-1290.796833	1348.285156	404.152130
29684.117979	-1290.796833	1347.195313	479.026459
29684.117979	-1290.796833	1346.105469	412.614746
29684.117979	-1290.796833	1345.014648	406.173767
29684.117979	-1290.796833	1343.923828	598.069092
29684.117979	-1290.796833	1342.833008	757.702209
29684.117979	-1290.796833	1341.741211	733.637512
29684.117979	-1290.796833	1340.650391	695.540222
29684.117979	-1290.796833	1339.558594	720.000305
29684.117979	-1290.796833	1338.466797	971.131958
29684.117979	-1290.796833	1337.374023	846.798889
29684.117979	-1290.796833	1336.282227	951.241821
29684.117979	-1290.796833	1335.189453	1076.098999
29684.117979	-1290.796833	1334.096680	877.876221
29684.117979	-1290.796833	1333.003906	926.320435
29684.117979	-1290.796833	1331.910156	916.501526
29684.117979	-1290.796833	1330.817383	909.372681
29684.117979	-1290.796833	1329.723633	732.796387
29684.117979	-1290.796833	1328.629883	821.858948
29684.117979	-1290.796833	1327.535156	729.079773
29684.117979	-1290.796833	1326.441406	660.727844
29684.117979	-1290.796833	1325.346680	695.374146
29684.117979	-1290.796833	1324.251953	721.236572
29684.117979	-1290.796833	1323.156250	563.950012
29684.117979	-1290.796833	1322.061523	662.117981
29684.117979	-1290.796833	1320.965820	678.230713
29684.117979	-1290.796833	1319.870117	809.903503
29684.117979	-1290.796833	1318.774414	743.232117
29684.117979	-1290.796833	1317.678711	561.612915
29684.117979	-1290.796833	1316.582031	798.850830
29684.117979	-1290.796833	1315.485352	651.096191
29684.117979	-1290.796833	1314.388672	687.602844
29684.117979	-1290.796833	1313.291016	582.015625
29684.117979	-1290.796833	1312.194336	725.221680
29684.117979	-1290.796833	1311.096680	595.804626
29684.117979	-1290.796833	1309.999023	512.722107
29684.117979	-1290.796833	1308.901367	373.973267
29684.117979	-1290.796833	1307.802734	249.268478
29684.117979	-1290.796833	1306.705078	208.442688
29684.117979	-1290.796833	1305.606445	212.989151
29684.117979	-1290.796833	1304.506836	105.862061
29684.117979	-1290.796833	1303.408203	-35.719116
29684.117979	-1290.796833	1302.308594	200.315262
29684.117979	-1290.796833	1301.208984	121.042686
29684.117979	-1290.796833	1300.109375	181.159424
29684.117979	-1290.796833	1299.009766	22.201607
29684.117979	-1290.796833	1297.909180	156.632919
29684.117979	-1290.796833	1296.808594	184.756317
29684.117979	-1290.796833	1295.708008	165.816895
29684.117979	-1290.796833	1294.607422	218.061737
29684.117979	-1290.796833	1293.506836	113.065048
29684.117979	-1290.796833	1292.405273	131.236923
29684.117979	-1290.796833	1291.303711	351.023773
29684.117979	-1290.796833	1290.202148	253.115005
29684.117979	-1290.796833	1289.099609	185.195221
29684.117979	-1290.796833	1287.998047	245.344498
29684.117979	-1290.796833	1286.895508	13.038473
29684.117979	-1290.796833	1285.792969	44.116970
29684.117979	-1290.796833	1284.689453	7.399413
29684.117979	-1290.796833	1283.586914	47.871017
29684.117979	-1290.796833	1282.483398	250.291733
29684.117979	-1290.796833	1281.379883	154.241562
29684.117979	-1290.796833	1280.276367	17.494947
29684.117979	-1290.796833	1279.171875	64.303993
29684.117979	-1290.796833	1278.067383	16.325819
29684.117979	-1290.796833	1276.962891	135.245010
29684.117979	-1290.796833	1275.858398	47.861408
29684.117979	-1290.796833	1274.753906	132.151581
29684.117979	-1290.796833	1273.648438	78.736870
29684.117979	-1290.796833	1272.542969	190.404221
29684.117979	-1290.796833	1271.437500	91.341148
29684.117979	-1290.796833	1270.331055	19.469807
29684.117979	-1290.796833	1269.225586	107.585693
29684.117979	-1290.796833	1268.119141	-60.664230
29684.117979	-1290.796833	1267.012695	-26.338724
29684.117979	-1290.796833	1265.906250	-145.569580
29684.117979	-1290.796833	1264.798828	-42.187572
29684.117979	-1290.796833	1263.691406	-237.206543
29684.117979	-1290.796833	1262.583984	71.344276
29684.117979	-1290.796833	1261.476563	-121.248940
29684.117979	-1290.796833	1260.368164	18.019003
29684.117979	-1290.796833	1259.260742	-108.156982
29684.117979	-1290.796833	1258.152344	5.626955
29684.117979	-1290.796833	1257.043945	-34.456482
29684.117979	-1290.796833	1255.934570	-58.222427
29684.117979	-1290.796833	1254.825195	0.163938
29684.117979	-1290.796833	1253.716797	-45.943993
29684.117979	-1290.796833	1252.606445	-277.359955
29684.117979	-1290.796833	1251.497070	-217.919434
29684.117979	-1290.796833	1250.387695	-46.687546
29684.117979	-1290.796833	1249.277344	-123.831009
29684.117979	-1290.796833	1248.166992	-184.735641
29684.117979	-1290.796833	1247.055664	-58.626751
29684.117979	-1290.796833	1245.945313	-113.240883
29684.117979	-1290.796833	1244.833984	-116.477013
29684.117979	-1290.796833	1243.722656	-151.715057
29684.117979	-1290.796833	1242.611328	-149.002716
29684.117979	-1290.796833	1241.499023	-144.072205
29684.117979	-1290.796833	1240.387695	-80.308327
29684.117979	-1290.796833	1239.275391	-158.913895
29684.117979	-1290.796833	1238.162109	-44.346790
29684.117979	-1290.796833	1237.049805	-98.189003
29684.117979	-1290.796833	1235.936523	-207.858261
29684.117979	-1290.796833	1234.823242	-134.468689
29684.117979	-1290.796833	1233.709961	-167.456650
29684.117979	-1290.796833	1232.596680	-133.132477
29684.117979	-1290.796833	1231.482422	-94.401352
29684.117979	-1290.796833	1230.369141	-177.652588
29684.117979	-1290.796833	1229.253906	-198.138229
29684.117979	-1290.796833	1228.139648	-62.664417
29684.117979	-1290.796833	1227.025391	-62.049397
29684.117979	-1290.796833	1225.910156	-123.991379
29684.117979	-1290.796833	1224.794922	-202.121826
29684.117979	-1290.796833	1223.679688	-78.771568
29684.117979	-1290.796833	1222.563477	-146.218948
29684.117979	-1290.796833	1221.447266	27.170273
29684.117979	-1290.796833	1220.331055	-59.967907
29684.117979	-1290.796833	1219.214844	27.994703
29684.117979	-1290.796833	1218.098633	2.574966
29684.117979	-1290.796833	1216.981445	-79.000694
29684.117979	-1290.796833	1215.864258	7.940222
29684.117979	-1290.796833	1214.747070	-2.690864
29684.117979	-1290.796833	1213.629883	30.580948
29684.117979	-1290.796833	1212.511719	142.960495
29684.117979	-1290.796833	1211.393555	48.931957
29684.117979	-1290.796833	1210.275391	89.421425
29684.117979	-1290.796833	1209.157227	-55.121567
29684.117979	-1290.796833	1208.038086	-46.327244
29684.117979	-1290.796833	1206.918945	-172.336273
29684.117979	-1290.796833	1205.799805	-68.428589
29684.117979	-1290.796833	1204.680664	-30.792324
29684.117979	-1290.796833	1203.560547	-43.396683
29684.117979	-1290.796833	1202.441406	25.695831
29684.117979	-1290.796833	1201.321289	-17.632288
29684.117979	-1290.796833	1200.200195	11.417076
29684.117979	-1290.796833	1199.080078	6.717213
29684.117979	-1290.796833	1197.958984	-40.166969
29684.117979	-1290.796833	1196.837891	48.510963
29684.117979	-1290.796833	1195.716797	87.288536
29684.117979	-1290.796833	1194.594727	138.266602
29684.117979	-1290.796833	1193.473633	74.995621
29684.117979	-1290.796833	1192.351563	59.127079
29684.117979	-1290.796833	1191.229492	101.112717
29684.117979	-1290.796833	1190.106445	-68.179169
29684.117979	-1290.796833	1188.984375	113.146019
29684.117979	-1290.796833	1187.861328	3.520684
29684.117979	-1290.796833	1186.738281	125.997360
29684.117979	-1290.796833	1185.614258	-20.969856
29684.117979	-1290.796833	1184.491211	44.351894
29684.117979	-1290.796833	1183.367188	119.622231
29684.117979	-1290.796833	1182.243164	171.154648
29684.117979	-1290.796833	1181.119141	190.885208
29684.117979	-1290.796833	1179.994141	192.415253
29684.117979	-1290.796833	1178.869141	98.633644
29684.117979	-1290.796833	1177.744141	169.809448
29684.117979	-1290.796833	1176.619141	266.245972
29684.117979	-1290.796833	1175.493164	-7.748594
29684.117979	-1290.796833	1174.368164	-36.828144
29684.117979	-1290.796833	1173.242188	80.145660
29684.117979	-1290.796833	1172.115234	143.567780
29684.117979	-1290.796833	1170.989258	121.397881
29684.117979	-1290.796833	1169.862305	178.908813
29684.117979	-1290.796833	1168.735352	58.087578
29684.117979	-1290.796833	1167.608398	57.736538
29684.117979	-1290.796833	1166.481445	11.462754
29684.117979	-1290.796833	1165.353516	58.441273
29684.117979	-1290.796833	1164.225586	130.233551
29684.117979	-1290.796833	1163.097656	272.070679
29684.117979	-1290.796833	1161.968750	216.736984
29684.117979	-1290.796833	1160.840820	170.363022
29684.117979	-1290.796833	1159.711914	209.696381
29684.117979	-1290.796833	1158.583008	34.388660
29684.117979	-1290.796833	1157.453125	9.189803
29684.117979	-1290.796833	1156.324219	71.699593
29684.117979	-1290.796833	1155.194336	22.790216
29684.117979	-1290.796833	1154.064453	64.825447
29684.117979	-1290.796833	1152.933594	35.992523
29684.117979	-1290.796833	1151.803711	-34.830956
29684.117979	-1290.796833	1150.672852	-28.399164
29684.117979	-1290.796833	1149.541992	10.856978
29684.117979	-1290.796833	1148.411133	-64.639900
29684.117979	-1290.796833	1147.279297	-30.670563
29684.117979	-1290.796833	1146.147461	98.181931
29684.117979	-1290.796833	1145.015625	179.433975
29684.117979	-1290.796833	1143.883789	74.212334
29684.117979	-1290.796833	1142.750977	60.692108
29684.117979	-1290.796833	1141.619141	117.812515
29684.117979	-1290.796833	1140.486328	143.593842
29684.117979	-1290.796833	1139.352539	221.147095
29684.117979	-1290.796833	1138.219727	66.880592
29684.117979	-1290.796833	1137.085938	177.731308
29684.117979	-1290.796833	1135.952148	232.522995
29684.117979	-1290.796833	1134.818359	223.273102
29684.117979	-1290.796833	1133.683594	309.807709
29684.117979	-1290.796833	1132.549805	431.923492
29684.117979	-1290.796833	1131.415039	509.409393
29684.117979	-1290.796833	1130.279297	647.955566
29684.117979	-1290.796833	1129.144531	698.154907
29684.117979	-1290.796833	1128.008789	623.009033
29684.117979	-1290.796833	1126.873047	406.637085
29684.117979	-1290.796833	1125.737305	476.184509
29684.117979	-1290.796833	1124.601563	384.861237
29684.117979	-1290.796833	1123.464844	383.277100
29684.117979	-1290.796833	1122.328125	576.109131
29684.117979	-1290.796833	1121.191406	277.543915
29684.117979	-1290.796833	1120.054688	514.700500
29684.117979	-1290.796833	1118.916992	466.551788
29684.117979	-1290.796833	1117.779297	393.842560
29684.117979	-1290.796833	1116.641602	504.791534
29684.117979	-1290.796833	1115.503906	439.424133
29684.117979	-1290.796833	1114.365234	490.203278
29684.117979	-1290.796833	1113.226563	496.832001
29684.117979	-1290.796833	1112.087891	488.006622
29684.117979	-1290.796833	1110.949219	541.815063
29684.117979	-1290.796833	1109.809570	520.585266
29684.117979	-1290.796833	1108.669922	492.640686
29684.117979	-1290.796833	1107.530273	407.617065
29684.117979	-1290.796833	1106.390625	473.402222
29684.117979	-1290.796833	1105.250000	589.379578
29684.117979	-1290.796833	1104.109375	538.955750
29684.117979	-1290.796833	1102.968750	612.841858
29684.117979	-1290.796833	1101.828125	394.460785
29684.117979	-1290.796833	1100.686523	579.025879
29684.117979	-1290.796833	1099.544922	669.147156
29684.117979	-1290.796833	1098.403320	665.450745
29684.117979	-1290.796833	1097.261719	777.842041
29684.117979	-1290.796833	1096.120117	888.236267
29684.117979	-1290.796833	1094.977539	1035.558350
29684.117979	-1290.796833	1093.834961	1199.394165
29684.117979	-1290.796833	1092.691406	1390.562378
29684.117979	-1290.796833	1091.548828	1414.769043
29684.117979	-1290.796833	1090.405273	1441.512451
29684.117979	-1290.796833	1089.261719	1540.834595
29684.117979	-1290.796833	1088.118164	1499.687012
29684.117979	-1290.796833	1086.973633	1333.047974
29684.117979	-1290.796833	1085.829102	1110.251953
29684.117979	-1290.796833	1084.684570	1117.840210
29684.117979	-1290.796833	1083.540039	1204.902710
29684.117979	-1290.796833	1082.395508	1035.582275
29684.117979	-1290.796833	1081.250000	1168.403931
29684.117979	-1290.796833	1080.104492	983.870483
29684.117979	-1290.796833	1078.958984	938.509338
29684.117979	-1290.796833	1077.812500	892.278992
29684.117979	-1290.796833	1076.666016	850.370911
29684.117979	-1290.796833	1075.519531	797.027466
29684.117979	-1290.796833	1074.373047	840.877808
29684.117979	-1290.796833	1073.226563	716.019897
29684.117979	-1290.796833	1072.079102	666.673706
29684.117979	-1290.796833	1070.931641	704.335510
29684.117979	-1290.796833	1069.784180	848.943176
29684.117979	-1290.796833	1068.635742	625.259399
29684.117979	-1290.796833	1067.487305	440.864746
29684.117979	-1290.796833	1066.338867	590.190186
29684.117979	-1290.796833	1065.190430	600.183289
29684.117979	-1290.796833	1064.041992	622.933167
29684.117979	-1290.796833	1062.892578	941.967163
29684.117979	-1290.796833	1061.743164	869.943054
29684.117979	-1290.796833	1060.593750	529.193298
29684.117979	-1290.796833	1059.443359	477.953003
29684.117979	-1290.796833	1058.292969	517.536438
29684.117979	-1290.796833	1057.142578	402.012329
29684.117979	-1290.796833	1055.992188	416.940643
29684.117979	-1290.796833	1054.841797	500.335419
29684.117979	-1290.796833	1053.690430	521.240051
29684.117979	-1290.796833	1052.539063	306.005310
29684.117979	-1290.796833	1051.387695	221.765396
29684.117979	-1290.796833	1050.235352	185.130005
29684.117979	-1290.796833	1049.083984	225.373978
29684.117979	-1290.796833	1047.931641	170.379410
29684.117979	-1290.796833	1046.778320	220.801804
29684.117979	-1290.796833	1045.625977	338.232758
29684.117979	-1290.796833	1044.472656	292.027710
29684.117979	-1290.796833	1043.319336	191.716522
29684.117979	-1290.796833	1042.166016	351.601410
29684.117979	-1290.796833	1041.012695	299.281403
29684.117979	-1290.796833	1039.858398	220.252518
29684.117979	-1290.796833	1038.704102	393.372070
29684.117979	-1290.796833	1037.549805	283.546692
29684.117979	-1290.796833	1036.394531	217.563339
29684.117979	-1290.796833	1035.239258	233.384872
29684.117979	-1290.796833	1034.083984	144.342789
29684.117979	-1290.796833	1032.928711	103.522018
29684.117979	-1290.796833	1031.773438	233.127594
29684.117979	-1290.796833	1030.617188	103.512154
29684.117979	-1290.796833	1029.460938	195.176407
29684.117979	-1290.796833	1028.304688	282.302460
29684.117979	-1290.796833	1027.147461	254.071472
29684.117979	-1290.796833	1025.991211	294.641022
29684.117979	-1290.796833	1024.833984	42.034546
29684.117979	-1290.796833	1023.675781	159.114197
29684.117979	-1290.796833	1022.518555	202.808823
29684.117979	-1290.796833	1021.360352	254.613297
29684.117979	-1290.796833	1020.202148	259.902222
29684.117979	-1290.796833	1019.043945	362.220978
29684.117979	-1290.796833	1017.884766	210.771927
29684.117979	-1290.796833	1016.726563	41.337811
29684.117979	-1290.796833	1015.567383	177.633835
29684.117979	-1290.796833	1014.407227	102.547112
29684.117979	-1290.796833	1013.248047	105.509537
29684.117979	-1290.796833	1012.087891	144.292740
29684.117979	-1290.796833	1010.927734	86.634926
29684.117979	-1290.796833	1009.767578	77.262657
29684.117979	-1290.796833	1008.606445	90.166565
29684.117979	-1290.796833	1007.446289	224.926895
29684.117979	-1290.796833	1006.285156	3.218230
29684.117979	-1290.796833	1005.123047	248.311981
29684.117979	-1290.796833	1003.961914	66.051758
29684.117979	-1290.796833	1002.799805	221.906403
29684.117979	-1290.796833	1001.637695	254.073868
29684.117979	-1290.796833	1000.475586	78.578087
29684.117979	-1290.796833	999.312500	157.861130
29684.117979	-1290.796833	998.149414	52.901306
29684.117979	-1290.796833	996.986328	135.501373
29684.117979	-1290.796833	995.823242	247.980194
29684.117979	-1290.796833	994.659180	230.487701
29684.117979	-1290.796833	993.496094	10.159104
29684.117979	-1290.796833	992.332031	162.188766
29684.117979	-1290.796833	991.166992	44.504345
29684.117979	-1290.796833	990.002930	267.500977
29684.117979	-1290.796833	988.837891	-159.973801
29684.117979	-1290.796833	987.672852	6.073225
29684.117979	-1290.796833	986.506836	-29.609545
29684.117979	-1290.796833	985.341797	-11.172177
29684.117979	-1290.796833	984.175781	116.343468
29684.117979	-1290.796833	983.009766	159.806244
29684.117979	-1290.796833	981.843750	169.204422
29684.117979	-1290.796833	980.676758	-44.409542
29684.117979	-1290.796833	979.509766	-2.938212
29684.117979	-1290.796833	978.342773	143.020767
29684.117979	-1290.796833	977.175781	33.794533
29684.117979	-1290.796833	976.007813	63.332432
29684.117979	-1290.796833	974.839844	213.634811
29684.117979	-1290.796833	973.671875	86.398926
29684.117979	-1290.796833	972.503906	-41.629112
29684.117979	-1290.796833	971.334961	85.480392
29684.117979	-1290.796833	970.166016	126.649261
29684.117979	-1290.796833	968.997070	-32.060986
29684.117979	-1290.796833	967.828125	57.296917
29684.117979	-1290.796833	966.658203	51.772694
29684.117979	-1290.796833	965.488281	-113.601891
29684.117979	-1290.796833	964.318359	49.212704
29684.117979	-1290.796833	963.148438	20.772614
29684.117979	-1290.796833	961.977539	119.743698
29684.117979	-1290.796833	960.806641	87.796448
29684.117979	-1290.796833	959.635742	-131.945602
29684.117979	-1290.796833	958.463867	67.975319
29684.117979	-1290.796833	957.292969	52.871090
29684.117979	-1290.796833	956.121094	150.402405
29684.117979	-1290.796833	954.948242	169.805038
29684.117979	-1290.796833	953.776367	159.787903
29684.117979	-1290.796833	952.603516	278.804565
29684.117979	-1290.796833	951.430664	265.564209
29684.117979	-1290.796833	950.257813	83.121986
29684.117979	-1290.796833	949.084961	355.431946
29684.117979	-1290.796833	947.911133	114.431664
29684.117979	-1290.796833	946.737305	172.661453
29684.117979	-1290.796833	945.563477	110.847328
29684.117979	-1290.796833	944.388672	51.324787
29684.117979	-1290.796833	943.213867	97.055046
29684.117979	-1290.796833	942.039063	-5.212441
29684.117979	-1290.796833	940.864258	-37.928936
29684.117979	-1290.796833	939.688477	-128.840530
29684.117979	-1290.796833	938.513672	-7.029984
29684.117979	-1290.796833	937.337891	31.773743
29684.117979	-1290.796833	936.161133	95.207733
29684.117979	-1290.796833	934.985352	261.399261
29684.117979	-1290.796833	933.808594	248.712997
29684.117979	-1290.796833	932.631836	195.741623
29684.117979	-1290.796833	931.454102	370.868286
29684.117979	-1290.796833	930.277344	248.716446
29684.117979	-1290.796833	929.099609	182.389938
29684.117979	-1290.796833	927.921875	142.860809
29684.117979	-1290.796833	926.743164	177.090836
29684.117979	-1290.796833	925.565430	-36.616871
29684.117979	-1290.796833	924.386719	241.029984
29684.117979	-1290.796833	923.208008	11.717810
29684.117979	-1290.796833	922.028320	-0.954003
29684.117979	-1290.796833	920.849609	-60.504051
29684.117979	-1290.796833	919.669922	-58.226078
29684.117979	-1290.796833	919.474609	94.582832
29684.117979	-1290.796833	918.309570	108.630119
29684.117979	-1290.796833	917.143555	-0.023525
29684.117979	-1290.796833	915.977539	7.336129
29684.117979	-1290.796833	914.810547	-67.815132
29684.117979	-1290.796833	913.644531	-20.326447
29684.117979	-1290.796833	912.477539	18.223661
29684.117979	-1290.796833	911.310547	16.641224
29684.117979	-1290.796833	910.143555	3.914305
29684.117979	-1290.796833	908.975586	-57.816807
29684.117979	-1290.796833	907.807617	-148.478989
29684.117979	-1290.796833	906.639648	-214.614975
29684.117979	-1290.796833	905.471680	-113.761131
29684.117979	-1290.796833	904.303711	-126.465546
29684.117979	-1290.796833	903.134766	-141.391205
29684.117979	-1290.796833	901.965820	-40.621265
29684.117979	-1290.796833	900.796875	109.041771
29684.117979	-1290.796833	899.626953	-48.261879
29684.117979	-1290.796833	898.457031	123.574081
29684.117979	-1290.796833	897.287109	-9.218702
29684.117979	-1290.796833	896.117188	-77.504288
29684.117979	-1290.796833	894.947266	-76.877708
29684.117979	-1290.796833	893.776367	-42.925335
29684.117979	-1290.796833	892.605469	-0.103407
29684.117979	-1290.796833	891.434570	36.037960
29684.117979	-1290.796833	890.262695	-158.748291
29684.117979	-1290.796833	889.091797	-40.455841
29684.117979	-1290.796833	887.919922	142.152466
29684.117979	-1290.796833	886.748047	-90.260498
29684.117979	-1290.796833	885.575195	-67.448143
29684.117979	-1290.796833	884.403320	-26.902725
29684.117979	-1290.796833	883.230469	-55.118069
29684.117979	-1290.796833	882.057617	-87.756020
29684.117979	-1290.796833	880.883789	-56.094448
29684.117979	-1290.796833	879.710938	-28.880028
29684.117979	-1290.796833	878.537109	-85.874191
29684.117979	-1290.796833	877.362305	114.136047
29684.117979	-1290.796833	876.188477	-93.475403
29684.117979	-1290.796833	875.013672	-99.486595
29684.117979	-1290.796833	873.839844	53.910446
29684.117979	-1290.796833	872.664063	-62.801258
29684.117979	-1290.796833	871.489258	-99.796013
29684.117979	-1290.796833	870.313477	-10.653179
29684.117979	-1290.796833	869.138672	12.087057
29684.117979	-1290.796833	867.962891	-47.012581
29684.117979	-1290.796833	866.786133	-95.029213
29684.117979	-1290.796833	865.610352	-30.275520
29684.117979	-1290.796833	864.433594	-107.008621
29684.117979	-1290.796833	863.256836	-139.511078
29684.117979	-1290.796833	862.079102	2.548984
29684.117979	-1290.796833	860.902344	-14.498075
29684.117979	-1290.796833	859.724609	50.180935
29684.117979	-1290.796833	858.546875	-176.633591
29684.117979	-1290.796833	857.368164	-222.326126
29684.117979	-1290.796833	856.190430	-175.299240
29684.117979	-1290.796833	855.011719	-64.293495
29684.117979	-1290.796833	853.833008	-43.790260
29684.117979	-1290.796833	852.654297	-164.467819
29684.117979	-1290.796833	851.474609	-31.475317
29684.117979	-1290.796833	850.294922	-255.734070
29684.117979	-1290.796833	849.115234	-72.073746
29684.117979	-1290.796833	847.935547	-139.746399
29684.117979	-1290.796833	846.754883	-39.918278
29684.117979	-1290.796833	845.575195	-162.646835
29684.117979	-1290.796833	844.393555	-212.633774
29684.117979	-1290.796833	843.212891	-123.863167
29684.117979	-1290.796833	842.032227	-6.506667
29684.117979	-1290.796833	840.850586	-89.514755
29684.117979	-1290.796833	839.668945	-88.857155
29684.117979	-1290.796833	838.486328	21.820822
29684.117979	-1290.796833	837.304688	-89.743393
29684.117979	-1290.796833	836.122070	47.281284
29684.117979	-1290.796833	834.939453	72.097473
29684.117979	-1290.796833	833.756836	11.157629
29684.117979	-1290.796833	832.573242	225.009262
29684.117979	-1290.796833	831.389648	190.433594
29684.117979	-1290.796833	830.206055	70.178444
29684.117979	-1290.796833	829.022461	340.996063
29684.117979	-1290.796833	827.838867	451.368195
29684.117979	-1290.796833	826.654297	489.230927
29684.117979	-1290.796833	825.469727	325.096924
29684.117979	-1290.796833	824.284180	305.896942
29684.117979	-1290.796833	823.099609	405.202820
29684.117979	-1290.796833	821.914063	87.596039
29684.117979	-1290.796833	820.728516	-115.816589
29684.117979	-1290.796833	819.542969	-5.528956
29684.117979	-1290.796833	818.356445	56.471664
29684.117979	-1290.796833	817.169922	89.942497
29684.117979	-1290.796833	815.983398	-32.222206
29684.117979	-1290.796833	814.796875	3.434790
29684.117979	-1290.796833	813.609375	-0.362889
29684.117979	-1290.796833	812.422852	171.068451
29684.117979	-1290.796833	811.235352	42.397034
29684.117979	-1290.796833	810.046875	12.302718
29684.117979	-1290.796833	808.859375	-0.274450
29684.117979	-1290.796833	807.670898	6.845431
29684.117979	-1290.796833	806.482422	-106.394394
29684.117979	-1290.796833	805.293945	62.620975
29684.117979	-1290.796833	804.104492	47.829422
29684.117979	-1290.796833	802.915039	-12.887817
29684.117979	-1290.796833	801.725586	-161.042816
29684.117979	-1290.796833	800.536133	-153.946472
29684.117979	-1290.796833	799.345703	-133.747894
29684.117979	-1290.796833	798.155273	-185.672745
29684.117979	-1290.796833	796.964844	-200.448944
29684.117979	-1290.796833	795.774414	-88.551498
29684.117979	-1290.796833	794.583008	-18.199354
29684.117979	-1290.796833	793.392578	-50.500202
29684.117979	-1290.796833	792.200195	107.103180
29684.117979	-1290.796833	791.008789	-34.347122
29684.117979	-1290.796833	789.816406	155.889984
29684.117979	-1290.796833	788.625000	145.345551
29684.117979	-1290.796833	787.432617	130.432007
29684.117979	-1290.796833	786.239258	252.882797
29684.117979	-1290.796833	785.046875	-17.139139
29684.117979	-1290.796833	783.853516	-143.210236
29684.117979	-1290.796833	782.660156	109.923882
29684.117979	-1290.796833	781.465820	-153.407120
29684.117979	-1290.796833	780.272461	123.552559
29684.117979	-1290.796833	779.078125	110.738602
29684.117979	-1290.796833	777.883789	93.558205
29684.117979	-1290.796833	776.688477	239.633469
29684.117979	-1290.796833	775.494141	170.163666
29684.117979	-1290.796833	774.298828	294.366516
29684.117979	-1290.796833	773.103516	26.906664
29684.117979	-1290.796833	771.907227	220.652176
29684.117979	-1290.796833	770.711914	98.977715
29684.117979	-1290.796833	769.515625	153.441238
29684.117979	-1290.796833	768.318359	81.787834
29684.117979	-1290.796833	767.122070	131.843399
29684.117979	-1290.796833	765.924805	125.364532
29684.117979	-1290.796833	764.727539	101.487091
29684.117979	-1290.796833	763.530273	-28.826050
29684.117979	-1290.796833	762.333008	-9.279469
29684.117979	-1290.796833	761.134766	-135.219604
29684.117979	-1290.796833	759.936523	10.185270
29684.117979	-1290.796833	758.738281	-133.117096
29684.117979	-1290.796833	757.540039	68.586655
29684.117979	-1290.796833	756.340820	42.416805
29684.117979	-1290.796833	755.141602	18.400461
29684.117979	-1290.796833	753.942383	96.275887
29684.117979	-1290.796833	752.742188	200.106155
29684.117979	-1290.796833	751.541992	28.607897
29684.117979	-1290.796833	750.341797	82.512527
29684.117979	-1290.796833	749.141602	-6.621378
29684.117979	-1290.796833	747.941406	58.039162
29684.117979	-1290.796833	746.740234	133.471161
29684.117979	-1290.796833	745.539063	189.354721
29684.117979	-1290.796833	744.337891	292.806061
29684.117979	-1290.796833	743.135742	396.183411
29684.117979	-1290.796833	741.933594	380.478027
29684.117979	-1290.796833	740.731445	667.609314
29684.117979	-1290.796833	739.529297	602.041077
29684.117979	-1290.796833	738.326172	376.448456
29684.117979	-1290.796833	737.124023	345.490936
29684.117979	-1290.796833	735.919922	403.134094
29684.117979	-1290.796833	734.716797	272.704773
29684.117979	-1290.796833	733.513672	6.175881
29684.117979	-1290.796833	732.309570	197.673996
29684.117979	-1290.796833	731.105469	151.487457
29684.117979	-1290.796833	729.900391	-13.475468
29684.117979	-1290.796833	728.696289	108.711288
29684.117979	-1290.796833	727.491211	19.290506
29684.117979	-1290.796833	726.286133	39.920292
29684.117979	-1290.796833	725.080078	107.965324
29684.117979	-1290.796833	723.874023	262.221008
29684.117979	-1290.796833	722.668945	118.767975
29684.117979	-1290.796833	721.461914	208.191345
29684.117979	-1290.796833	720.255859	172.508057
29684.117979	-1290.796833	719.048828	261.797852
29684.117979	-1290.796833	717.841797	234.651215
29684.117979	-1290.796833	716.634766	149.306427
29684.117979	-1290.796833	715.427734	184.567688
29684.117979	-1290.796833	714.219727	120.713959
29684.117979	-1290.796833	713.011719	136.499924
29684.117979	-1290.796833	711.803711	66.134583
29684.117979	-1290.796833	710.594727	10.816222
29684.117979	-1290.796833	709.385742	-104.770172
29684.117979	-1290.796833	708.176758	5.513130
29684.117979	-1290.796833	706.967773	44.729633
29684.117979	-1290.796833	705.758789	-17.178732
29684.117979	-1290.796833	704.548828	-25.365906
29684.117979	-1290.796833	703.338867	33.029587
29684.117979	-1290.796833	702.127930	48.373260
29684.117979	-1290.796833	700.917969	12.098749
29684.117979	-1290.796833	699.707031	48.818844
29684.117979	-1290.796833	698.496094	63.997738
29684.117979	-1290.796833	697.285156	59.794678
29684.117979	-1290.796833	696.073242	44.807434
29684.117979	-1290.796833	694.861328	-19.587561
29684.117979	-1290.796833	693.649414	-45.385822
29684.117979	-1290.796833	692.436523	108.974663
29684.117979	-1290.796833	691.224609	-39.201168
29684.117979	-1290.796833	690.011719	7.767229
29684.117979	-1290.796833	688.798828	-13.944157
29684.117979	-1290.796833	687.584961	-24.984886
29684.117979	-1290.796833	686.372070	182.510895
29684.117979	-1290.796833	685.158203	145.611115
29684.117979	-1290.796833	683.943359	110.811874
29684.117979	-1290.796833	682.729492	41.704895
29684.117979	-1290.796833	681.514648	58.217224
29684.117979	-1290.796833	680.299805	96.072586
29684.117979	-1290.796833	679.084961	142.415665
29684.117979	-1290.796833	677.869141	8.932079
29684.117979	-1290.796833	676.653320	108.640602
29684.117979	-1290.796833	675.437500	137.663513
29684.117979	-1290.796833	674.221680	55.412636
29684.117979	-1290.796833	673.004883	11.620773
29684.117979	-1290.796833	671.789063	187.961609
29684.117979	-1290.796833	670.571289	11.535331
29684.117979	-1290.796833	669.354492	172.723190
29684.117979	-1290.796833	668.136719	47.523071
29684.117979	-1290.796833	666.919922	78.230186
29684.117979	-1290.796833	665.701172	85.370926
29684.117979	-1290.796833	664.483398	254.700699
29684.117979	-1290.796833	663.264648	107.997818
29684.117979	-1290.796833	662.045898	189.632324
29684.117979	-1290.796833	660.827148	0.209520
29684.117979	-1290.796833	659.608398	-44.144787
29684.117979	-1290.796833	658.388672	128.984848
29684.117979	-1290.796833	657.168945	159.121048
29684.117979	-1290.796833	655.949219	84.726570
29684.117979	-1290.796833	654.728516	212.770950
29684.117979	-1290.796833	653.507813	236.286270
29684.117979	-1290.796833	652.287109	116.992142
29684.117979	-1290.796833	651.066406	240.497864
29684.117979	-1290.796833	649.844727	161.583847
29684.117979	-1290.796833	648.623047	80.509933
29684.117979	-1290.796833	647.401367	129.250687
29684.117979	-1290.796833	646.179688	131.087326
29684.117979	-1290.796833	644.957031	-77.784889
29684.117979	-1290.796833	643.734375	134.560684
29684.117979	-1290.796833	642.511719	23.479979
29684.117979	-1290.796833	641.289063	-32.333649
29684.117979	-1290.796833	640.065430	52.118164
29684.117979	-1290.796833	638.841797	91.835518
29684.117979	-1290.796833	637.618164	65.596779
29684.117979	-1290.796833	636.393555	181.646271
29684.117979	-1290.796833	635.168945	102.165459
29684.117979	-1290.796833	633.944336	379.425873
29684.117979	-1290.796833	632.719727	325.286041
29684.117979	-1290.796833	631.494141	245.628754
29684.117979	-1290.796833	630.269531	573.424438
29684.117979	-1290.796833	629.042969	896.767090
29684.117979	-1290.796833	627.817383	1050.199219
29684.117979	-1290.796833	626.590820	1286.216675
29684.117979	-1290.796833	625.365234	1469.060181
29684.117979	-1290.796833	624.137695	1284.988037
29684.117979	-1290.796833	622.911133	1028.866333
29684.117979	-1290.796833	621.683594	626.565735
29684.117979	-1290.796833	620.456055	535.820679
29684.117979	-1290.796833	619.228516	324.310059
29684.117979	-1290.796833	618.000977	246.247955
29684.117979	-1290.796833	616.772461	261.315186
29684.117979	-1290.796833	615.543945	128.130646
29684.117979	-1290.796833	614.314453	88.060135
29684.117979	-1290.796833	613.085938	100.848000
29684.117979	-1290.796833	611.856445	-163.572891
29684.117979	-1290.796833	610.626953	-167.785477
29684.117979	-1290.796833	609.397461	45.751083
29684.117979	-1290.796833	608.166992	-87.597633
29684.117979	-1290.796833	606.936523	-144.855316
29684.117979	-1290.796833	605.706055	-142.976685
29684.117979	-1290.796833	604.474609	55.331951
29684.117979	-1290.796833	603.244141	38.035057
29684.117979	-1290.796833	602.012695	-80.691986
29684.117979	-1290.796833	600.780273	-117.083778
29684.117979	-1290.796833	599.548828	-212.624283
29684.117979	-1290.796833	598.316406	-2.148598
29684.117979	-1290.796833	597.083984	16.154516
29684.117979	-1290.796833	595.851563	61.818718
29684.117979	-1290.796833	594.618164	86.308830
29684.117979	-1290.796833	593.384766	-1.035905
29684.117979	-1290.796833	592.151367	10.693695
29684.117979	-1290.796833	590.917969	49.764725
29684.117979	-1290.796833	589.683594	19.212683
29684.117979	-1290.796833	588.449219	-26.130779
29684.117979	-1290.796833	587.214844	69.630371
29684.117979	-1290.796833	585.979492	-3.197453
29684.117979	-1290.796833	584.745117	65.036713
29684.117979	-1290.796833	583.509766	6.870428
29684.117979	-1290.796833	582.273438	-26.071350
29684.117979	-1290.796833	581.038086	153.490540
29684.117979	-1290.796833	579.801758	88.869835
29684.117979	-1290.796833	578.565430	-19.946167
29684.117979	-1290.796833	577.329102	60.501644
29684.117979	-1290.796833	576.091797	191.321198
29684.117979	-1290.796833	574.854492	61.377415
29684.117979	-1290.796833	573.617188	74.351570
29684.117979	-1290.796833	572.378906	114.581993
29684.117979	-1290.796833	571.141602	158.954468
29684.117979	-1290.796833	569.903320	24.731409
29684.117979	-1290.796833	568.664063	12.304971
29684.117979	-1290.796833	567.425781	106.912239
29684.117979	-1290.796833	566.186523	-56.741196
29684.117979	-1290.796833	564.947266	-136.429245
29684.117979	-1290.796833	563.708008	-161.578003
29684.117979	-1290.796833	562.467773	-67.200905
29684.117979	-1290.796833	561.227539	-235.050766
29684.117979	-1290.796833	559.987305	-201.586853
29684.117979	-1290.796833	558.747070	-149.312363
29684.117979	-1290.796833	557.505859	-53.094376
29684.117979	-1290.796833	556.264648	-151.825211
29684.117979	-1290.796833	555.023438	-20.113043
29684.117979	-1290.796833	553.781250	-5.790838
29684.117979	-1290.796833	552.539063	-20.828461
29684.117979	-1290.796833	551.296875	75.061913
29684.117979	-1290.796833	550.054688	-9.133160
29684.117979	-1290.796833	548.811523	-66.128586
29684.117979	-1290.796833	547.569336	-51.993900
29684.117979	-1290.796833	546.325195	-102.755692
29684.117979	-1290.796833	545.082031	-174.436722
29684.117979	-1290.796833	543.837891	-51.674198
29684.117979	-1290.796833	542.593750	-167.305435
29684.117979	-1290.796833	541.349609	-103.180336
29684.117979	-1290.796833	540.105469	-95.531090
29684.117979	-1290.796833	538.860352	-96.277397
29684.117979	-1290.796833	537.615234	-84.521172
29684.117979	-1290.796833	536.369141	-83.245628
29684.117979	-1290.796833	535.124023	-152.976440
29684.117979	-1290.796833	533.877930	-187.226669
29684.117979	-1290.796833	532.631836	-119.233421
29684.117979	-1290.796833	531.384766	-222.386749
29684.117979	-1290.796833	530.138672	-231.647278
29684.117979	-1290.796833	528.891602	-228.422287
29684.117979	-1290.796833	527.643555	-110.550529
29684.117979	-1290.796833	526.396484	28.098715
29684.117979	-1290.796833	525.148438	54.114647
29684.117979	-1290.796833	523.900391	165.528748
29684.117979	-1290.796833	522.652344	235.207306
29684.117979	-1290.796833	521.403320	127.788872
29684.117979	-1290.796833	520.154297	24.559803
29684.117979	-1290.796833	518.905273	235.726196
29684.117979	-1290.796833	517.656250	232.388657
29684.117979	-1290.796833	516.406250	-103.939415
29684.117979	-1290.796833	515.156250	46.716343
29684.117979	-1290.796833	513.906250	180.647385
29684.117979	-1290.796833	512.655273	216.750320
29684.117979	-1290.796833	511.404297	209.156708
29684.117979	-1290.796833	510.153320	108.001678
29684.117979	-1290.796833	508.902344	6.872995
29684.117979	-1290.796833	507.650391	-108.780617
29684.117979	-1290.796833	506.398438	-39.506386
29684.117979	-1290.796833	505.146484	-148.902176
29684.117979	-1290.796833	503.893555	-179.363632
29684.117979	-1290.796833	502.641602	-91.482559
29684.117979	-1290.796833	501.388672	-1.585711
29684.117979	-1290.796833	500.134766	-154.550873
29684.117979	-1290.796833	498.881836	-41.887417
29684.117979	-1290.796833	497.627930	20.922024
29684.117979	-1290.796833	496.374023	125.166946
29684.117979	-1290.796833	495.119141	254.226318
29684.117979	-1290.796833	493.865234	281.643951
29684.117979	-1290.796833	492.610352	377.422791
29684.117979	-1290.796833	491.355469	732.157837
29684.117979	-1290.796833	490.099609	1136.437500
29684.117979	-1290.796833	488.843750	1254.699341
29684.117979	-1290.796833	487.587891	1287.992920
29684.117979	-1290.796833	486.332031	1101.801514
29684.117979	-1290.796833	485.075195	781.125122
29684.117979	-1290.796833	483.818359	448.152313
29684.117979	-1290.796833	482.561523	191.858261
29684.117979	-1290.796833	481.304688	281.101837
29684.117979	-1290.796833	480.046875	196.561600
29684.117979	-1290.796833	478.789063	74.821472
29684.117979	-1290.796833	477.531250	118.489159
29684.117979	-1290.796833	476.272461	29.838753
29684.117979	-1290.796833	475.013672	230.487183
29684.117979	-1290.796833	473.754883	154.201187
29684.117979	-1290.796833	472.496094	-147.204727
29684.117979	-1290.796833	471.236328	-78.883591
29684.117979	-1290.796833	469.976563	51.319447
29684.117979	-1290.796833	468.716797	51.401283
29684.117979	-1290.796833	467.456055	20.494791
29684.117979	-1290.796833	466.196289	72.106895
29684.117979	-1290.796833	464.935547	125.721153
29684.117979	-1290.796833	463.673828	100.906372
29684.117979	-1290.796833	462.413086	210.096130
29684.117979	-1290.796833	461.151367	135.731613
29684.117979	-1290.796833	459.889648	108.763062
29684.117979	-1290.796833	458.626953	-25.385389
29684.117979	-1290.796833	457.364258	135.073273
29684.117979	-1290.796833	456.101563	33.848034
29684.117979	-1290.796833	454.838867	12.929030
29684.117979	-1290.796833	453.575195	-5.975934
29684.117979	-1290.796833	452.312500	40.950218
29684.117979	-1290.796833	451.047852	120.715744
29684.117979	-1290.796833	449.784180	95.472633
29684.117979	-1290.796833	448.519531	119.543312
29684.117979	-1290.796833	447.254883	112.696686
29684.117979	-1290.796833	445.990234	-23.741899
29684.117979	-1290.796833	444.725586	-12.182553
29684.117979	-1290.796833	443.459961	95.890907
29684.117979	-1290.796833	442.194336	84.670921
29684.117979	-1290.796833	440.927734	81.591286
29684.117979	-1290.796833	439.662109	45.580166
29684.117979	-1290.796833	438.395508	151.179962
29684.117979	-1290.796833	437.127930	100.616371
29684.117979	-1290.796833	435.861328	216.247208
29684.117979	-1290.796833	434.593750	278.372894
29684.117979	-1290.796833	433.326172	289.082825
29684.117979	-1290.796833	432.058594	469.935303
29684.117979	-1290.796833	430.790039	455.775665
29684.117979	-1290.796833	429.521484	437.410797
29684.117979	-1290.796833	428.252930	498.882996
29684.117979	-1290.796833	426.984375	467.984344
29684.117979	-1290.796833	425.714844	430.819946
29684.117979	-1290.796833	424.445313	325.940582
29684.117979	-1290.796833	423.174805	345.894135
29684.117979	-1290.796833	421.905273	259.229980
29684.117979	-1290.796833	420.634766	399.684479
29684.117979	-1290.796833	419.364258	456.010254
29684.117979	-1290.796833	418.092773	323.883942
29684.117979	-1290.796833	416.822266	318.502594
29684.117979	-1290.796833	415.550781	288.397797
29684.117979	-1290.796833	414.278320	456.479645
29684.117979	-1290.796833	413.006836	348.303833
29684.117979	-1290.796833	411.734375	237.929855
29684.117979	-1290.796833	410.461914	57.920441
29684.117979	-1290.796833	409.188477	35.098370
29684.117979	-1290.796833	407.916016	14.125135
29684.117979	-1290.796833	406.642578	121.594353
29684.117979	-1290.796833	405.368164	42.968365
29684.117979	-1290.796833	404.094727	7.017413
29684.117979	-1290.796833	402.820313	42.258240
29684.117979	-1290.796833	401.545898	-10.513386
29684.117979	-1290.796833	400.270508	48.667068
29684.117979	-1290.796833	398.996094	28.013807
29684.117979	-1290.796833	397.720703	7.074309
29684.117979	-1290.796833	396.444336	234.568954
29684.117979	-1290.796833	395.168945	304.722260
29684.117979	-1290.796833	393.892578	174.810104
29684.117979	-1290.796833	392.616211	113.903404
29684.117979	-1290.796833	391.339844	1.764165
29684.117979	-1290.796833	390.062500	52.239799
29684.117979	-1290.796833	388.785156	-50.371342
29684.117979	-1290.796833	387.507813	90.974182
29684.117979	-1290.796833	386.229492	199.300842
29684.117979	-1290.796833	384.951172	181.032928
29684.117979	-1290.796833	383.672852	22.000132
29684.117979	-1290.796833	382.394531	21.262358
29684.117979	-1290.796833	381.115234	125.819229
29684.117979	-1290.796833	379.835938	120.104790
29684.117979	-1290.796833	378.556641	225.726868
29684.117979	-1290.796833	377.277344	235.323257
29684.117979	-1290.796833	375.997070	218.001297
29684.117979	-1290.796833	374.716797	228.624802
29684.117979	-1290.796833	373.435547	-9.045012
29684.117979	-1290.796833	372.155273	179.249344
29684.117979	-1290.796833	370.874023	66.471436
29684.117979	-1290.796833	369.591797	-52.925777
29684.117979	-1290.796833	368.310547	226.886932
29684.117979	-1290.796833	367.028320	242.248474
29684.117979	-1290.796833	365.746094	261.046478
29684.117979	-1290.796833	364.463867	388.703430
29684.117979	-1290.796833	363.180664	136.539612
29684.117979	-1290.796833	361.897461	268.914551
29684.117979	-1290.796833	360.614258	116.854080
29684.117979	-1290.796833	359.330078	227.506851
29684.117979	-1290.796833	358.045898	161.169235
29684.117979	-1290.796833	356.761719	241.946930
29684.117979	-1290.796833	355.477539	271.310516
29684.117979	-1290.796833	354.192383	113.630325
29684.117979	-1290.796833	352.907227	66.517700
29684.117979	-1290.796833	351.622070	42.878487
29684.117979	-1290.796833	350.336914	206.526291
29684.117979	-1290.796833	349.050781	183.143616
29684.117979	-1290.796833	347.764648	227.622772
29684.117979	-1290.796833	346.477539	-127.103081
29684.117979	-1290.796833	345.191406	83.315704
29684.117979	-1290.796833	343.904297	230.007690
29684.117979	-1290.796833	342.616211	82.684906
29684.117979	-1290.796833	341.329102	-120.093071
29684.117979	-1290.796833	340.041016	-53.267994
29684.117979	-1290.796833	338.752930	-112.710648
29684.117979	-1290.796833	337.463867	-124.814949
29684.117979	-1290.796833	336.175781	-107.733788
29684.117979	-1290.796833	334.886719	-118.073616
29684.117979	-1290.796833	333.596680	3.505506
29684.117979	-1290.796833	332.307617	-19.326391
29684.117979	-1290.796833	331.017578	-311.583008
29684.117979	-1290.796833	329.727539	-97.000221
29684.117979	-1290.796833	328.436523	-214.369659
29684.117979	-1290.796833	327.146484	-199.994568
29684.117979	-1290.796833	325.855469	-128.608459
29684.117979	-1290.796833	324.563477	-225.859100
29684.117979	-1290.796833	323.272461	-46.575657
29684.117979	-1290.796833	321.980469	-184.942978
29684.117979	-1290.796833	320.688477	-167.755585
29684.117979	-1290.796833	319.395508	-81.725952
29684.117979	-1290.796833	318.103516	-238.674881
29684.117979	-1290.796833	316.810547	59.380058
29684.117979	-1290.796833	315.516602	-82.777191
29684.117979	-1290.796833	314.223633	-1.322538
29684.117979	-1290.796833	312.929688	104.457420
29684.117979	-1290.796833	311.635742	39.624325
29684.117979	-1290.796833	310.340820	93.519775
29684.117979	-1290.796833	309.045898	63.192902
29684.117979	-1290.796833	307.750977	85.226097
29684.117979	-1290.796833	306.456055	95.288963
29684.117979	-1290.796833	305.160156	314.105286
29684.117979	-1290.796833	303.865234	402.434235
29684.117979	-1290.796833	302.568359	438.380676
29684.117979	-1290.796833	301.272461	604.685669
29684.117979	-1290.796833	299.975586	596.219788
29684.117979	-1290.796833	298.678711	760.025146
