#X		#Y		#Wave		#Intensity
29467.451755	-1338.019667	1999.980469	158.548752
29467.451755	-1338.019667	1999.016602	54.524075
29467.451755	-1338.019667	1998.052734	-111.253593
29467.451755	-1338.019667	1997.087891	-83.580933
29467.451755	-1338.019667	1996.123047	40.802578
29467.451755	-1338.019667	1995.158203	-82.494652
29467.451755	-1338.019667	1994.193359	-54.579945
29467.451755	-1338.019667	1993.228516	35.311531
29467.451755	-1338.019667	1992.262695	-15.875833
29467.451755	-1338.019667	1991.297852	180.564865
29467.451755	-1338.019667	1990.332031	92.388580
29467.451755	-1338.019667	1989.366211	179.996399
29467.451755	-1338.019667	1988.399414	32.606731
29467.451755	-1338.019667	1987.433594	201.942825
29467.451755	-1338.019667	1986.466797	212.995804
29467.451755	-1338.019667	1985.500977	100.466362
29467.451755	-1338.019667	1984.534180	86.917274
29467.451755	-1338.019667	1983.567383	-111.957336
29467.451755	-1338.019667	1982.599609	-9.221562
29467.451755	-1338.019667	1981.632813	16.922848
29467.451755	-1338.019667	1980.665039	-53.244896
29467.451755	-1338.019667	1979.697266	-51.723961
29467.451755	-1338.019667	1978.729492	130.096268
29467.451755	-1338.019667	1977.761719	-18.958673
29467.451755	-1338.019667	1976.792969	32.018406
29467.451755	-1338.019667	1975.825195	-161.332504
29467.451755	-1338.019667	1974.856445	208.019531
29467.451755	-1338.019667	1973.887695	-22.253593
29467.451755	-1338.019667	1972.918945	-69.889557
29467.451755	-1338.019667	1971.949219	323.960632
29467.451755	-1338.019667	1970.980469	-83.688965
29467.451755	-1338.019667	1970.010742	-160.824524
29467.451755	-1338.019667	1969.041016	168.774841
29467.451755	-1338.019667	1968.071289	118.746696
29467.451755	-1338.019667	1967.101563	-98.801582
29467.451755	-1338.019667	1966.130859	68.035019
29467.451755	-1338.019667	1965.161133	136.291245
29467.451755	-1338.019667	1964.190430	-95.906410
29467.451755	-1338.019667	1963.219727	21.596769
29467.451755	-1338.019667	1962.249023	-65.260582
29467.451755	-1338.019667	1961.277344	79.259758
29467.451755	-1338.019667	1960.306641	125.289452
29467.451755	-1338.019667	1959.334961	35.982536
29467.451755	-1338.019667	1958.363281	-31.163315
29467.451755	-1338.019667	1957.391602	98.451889
29467.451755	-1338.019667	1956.419922	31.294380
29467.451755	-1338.019667	1955.447266	-3.890619
29467.451755	-1338.019667	1954.474609	236.213120
29467.451755	-1338.019667	1953.501953	9.284837
29467.451755	-1338.019667	1952.529297	82.181519
29467.451755	-1338.019667	1951.556641	-41.496624
29467.451755	-1338.019667	1950.583984	38.709034
29467.451755	-1338.019667	1949.610352	-165.995255
29467.451755	-1338.019667	1948.636719	-176.685547
29467.451755	-1338.019667	1947.663086	1.620331
29467.451755	-1338.019667	1946.689453	-6.694067
29467.451755	-1338.019667	1945.715820	247.528290
29467.451755	-1338.019667	1944.741211	33.030758
29467.451755	-1338.019667	1943.767578	247.844650
29467.451755	-1338.019667	1942.792969	330.115112
29467.451755	-1338.019667	1941.818359	-80.533363
29467.451755	-1338.019667	1940.842773	43.379917
29467.451755	-1338.019667	1939.868164	74.069206
29467.451755	-1338.019667	1938.892578	-93.790245
29467.451755	-1338.019667	1937.916992	162.260315
29467.451755	-1338.019667	1936.941406	50.716991
29467.451755	-1338.019667	1935.965820	64.090591
29467.451755	-1338.019667	1934.990234	119.049164
29467.451755	-1338.019667	1934.013672	46.633793
29467.451755	-1338.019667	1933.037109	42.744926
29467.451755	-1338.019667	1932.060547	232.165909
29467.451755	-1338.019667	1931.083984	51.975006
29467.451755	-1338.019667	1930.107422	91.996628
29467.451755	-1338.019667	1929.129883	7.210220
29467.451755	-1338.019667	1928.153320	64.255089
29467.451755	-1338.019667	1927.175781	23.426849
29467.451755	-1338.019667	1926.198242	-29.657808
29467.451755	-1338.019667	1925.219727	-2.107439
29467.451755	-1338.019667	1924.242188	252.657150
29467.451755	-1338.019667	1923.263672	-159.757217
29467.451755	-1338.019667	1922.285156	-41.959183
29467.451755	-1338.019667	1921.306641	-95.225769
29467.451755	-1338.019667	1920.328125	46.834953
29467.451755	-1338.019667	1919.349609	-106.634079
29467.451755	-1338.019667	1918.370117	-191.748505
29467.451755	-1338.019667	1917.391602	201.478882
29467.451755	-1338.019667	1916.412109	196.756836
29467.451755	-1338.019667	1915.431641	-164.214188
29467.451755	-1338.019667	1914.452148	-32.376320
29467.451755	-1338.019667	1913.472656	4.243612
29467.451755	-1338.019667	1912.492188	-20.164612
29467.451755	-1338.019667	1911.511719	65.084023
29467.451755	-1338.019667	1910.531250	-25.252216
29467.451755	-1338.019667	1909.550781	193.884750
29467.451755	-1338.019667	1908.569336	-130.463928
29467.451755	-1338.019667	1907.588867	-91.775665
29467.451755	-1338.019667	1906.607422	66.183670
29467.451755	-1338.019667	1905.625977	82.784050
29467.451755	-1338.019667	1904.644531	31.147074
29467.451755	-1338.019667	1903.662109	120.653488
29467.451755	-1338.019667	1902.680664	107.846031
29467.451755	-1338.019667	1901.698242	197.181915
29467.451755	-1338.019667	1900.715820	84.491409
29467.451755	-1338.019667	1899.733398	183.402008
29467.451755	-1338.019667	1898.750000	-43.673599
29467.451755	-1338.019667	1897.767578	222.871460
29467.451755	-1338.019667	1896.784180	68.677399
29467.451755	-1338.019667	1895.800781	172.119736
29467.451755	-1338.019667	1894.817383	183.113129
29467.451755	-1338.019667	1893.833984	87.129807
29467.451755	-1338.019667	1892.850586	-30.747606
29467.451755	-1338.019667	1891.866211	171.952744
29467.451755	-1338.019667	1890.881836	146.245392
29467.451755	-1338.019667	1889.897461	-192.716721
29467.451755	-1338.019667	1888.913086	-2.439838
29467.451755	-1338.019667	1887.927734	5.672650
29467.451755	-1338.019667	1886.943359	212.690018
29467.451755	-1338.019667	1885.958008	41.091923
29467.451755	-1338.019667	1884.972656	73.239998
29467.451755	-1338.019667	1883.987305	59.227631
29467.451755	-1338.019667	1883.001953	81.521263
29467.451755	-1338.019667	1882.015625	-70.813171
29467.451755	-1338.019667	1881.029297	-87.428391
29467.451755	-1338.019667	1880.042969	-65.335495
29467.451755	-1338.019667	1879.056641	56.014969
29467.451755	-1338.019667	1878.070313	-21.391989
29467.451755	-1338.019667	1877.083984	-101.264725
29467.451755	-1338.019667	1876.096680	-26.205681
29467.451755	-1338.019667	1875.109375	10.014687
29467.451755	-1338.019667	1874.122070	247.059128
29467.451755	-1338.019667	1873.134766	2.325730
29467.451755	-1338.019667	1872.146484	57.652210
29467.451755	-1338.019667	1871.159180	120.143318
29467.451755	-1338.019667	1870.170898	-105.306511
29467.451755	-1338.019667	1869.182617	-45.381367
29467.451755	-1338.019667	1868.194336	86.981895
29467.451755	-1338.019667	1867.205078	57.245632
29467.451755	-1338.019667	1866.216797	225.641296
29467.451755	-1338.019667	1865.227539	89.408302
29467.451755	-1338.019667	1864.238281	127.107079
29467.451755	-1338.019667	1863.249023	181.622055
29467.451755	-1338.019667	1862.259766	59.730255
29467.451755	-1338.019667	1861.269531	244.471695
29467.451755	-1338.019667	1860.279297	-164.847763
29467.451755	-1338.019667	1859.290039	265.920807
29467.451755	-1338.019667	1858.298828	-27.571091
29467.451755	-1338.019667	1857.308594	-82.150414
29467.451755	-1338.019667	1856.318359	-20.993122
29467.451755	-1338.019667	1855.327148	-8.183666
29467.451755	-1338.019667	1854.335938	-70.219452
29467.451755	-1338.019667	1853.344727	-33.459190
29467.451755	-1338.019667	1852.353516	299.714935
29467.451755	-1338.019667	1851.362305	37.362213
29467.451755	-1338.019667	1850.370117	-53.887405
29467.451755	-1338.019667	1849.377930	-133.140289
29467.451755	-1338.019667	1848.385742	151.285858
29467.451755	-1338.019667	1847.393555	-135.265518
29467.451755	-1338.019667	1846.401367	124.806786
29467.451755	-1338.019667	1845.408203	-159.399841
29467.451755	-1338.019667	1844.415039	23.377750
29467.451755	-1338.019667	1843.421875	215.627533
29467.451755	-1338.019667	1842.428711	-3.728956
29467.451755	-1338.019667	1841.435547	173.846069
29467.451755	-1338.019667	1840.441406	115.550117
29467.451755	-1338.019667	1839.448242	9.099408
29467.451755	-1338.019667	1838.454102	179.090408
29467.451755	-1338.019667	1837.459961	14.792711
29467.451755	-1338.019667	1836.464844	335.950409
29467.451755	-1338.019667	1835.470703	-1.504812
29467.451755	-1338.019667	1834.475586	57.483810
29467.451755	-1338.019667	1833.480469	171.608078
29467.451755	-1338.019667	1832.485352	16.619646
29467.451755	-1338.019667	1831.490234	89.707634
29467.451755	-1338.019667	1830.495117	105.060211
29467.451755	-1338.019667	1829.499023	93.907181
29467.451755	-1338.019667	1828.502930	61.068718
29467.451755	-1338.019667	1827.506836	-147.001389
29467.451755	-1338.019667	1826.510742	74.313744
29467.451755	-1338.019667	1825.513672	53.204502
29467.451755	-1338.019667	1824.517578	264.621124
29467.451755	-1338.019667	1823.520508	219.321548
29467.451755	-1338.019667	1822.523438	-70.556114
29467.451755	-1338.019667	1821.526367	3.867703
29467.451755	-1338.019667	1820.529297	190.788010
29467.451755	-1338.019667	1819.531250	116.403481
29467.451755	-1338.019667	1818.533203	-8.350590
29467.451755	-1338.019667	1817.535156	-6.227415
29467.451755	-1338.019667	1816.537109	67.628174
29467.451755	-1338.019667	1815.539063	107.845757
29467.451755	-1338.019667	1814.540039	33.057133
29467.451755	-1338.019667	1813.541992	-123.155586
29467.451755	-1338.019667	1812.542969	-4.270788
29467.451755	-1338.019667	1811.543945	14.001996
29467.451755	-1338.019667	1810.543945	36.945572
29467.451755	-1338.019667	1809.544922	253.475784
29467.451755	-1338.019667	1808.544922	120.768822
29467.451755	-1338.019667	1807.544922	-81.306374
29467.451755	-1338.019667	1806.544922	96.579025
29467.451755	-1338.019667	1805.544922	35.358337
29467.451755	-1338.019667	1804.544922	-42.663048
29467.451755	-1338.019667	1803.543945	98.976723
29467.451755	-1338.019667	1802.542969	78.075813
29467.451755	-1338.019667	1801.541992	59.467934
29467.451755	-1338.019667	1800.541016	-171.689957
29467.451755	-1338.019667	1799.539063	253.465988
29467.451755	-1338.019667	1798.538086	-85.226387
29467.451755	-1338.019667	1797.536133	-85.121254
29467.451755	-1338.019667	1796.534180	122.402374
29467.451755	-1338.019667	1795.532227	-109.072731
29467.451755	-1338.019667	1794.529297	55.240612
29467.451755	-1338.019667	1793.527344	212.244736
29467.451755	-1338.019667	1792.524414	-210.119598
29467.451755	-1338.019667	1791.521484	-24.746523
29467.451755	-1338.019667	1790.518555	-77.811066
29467.451755	-1338.019667	1789.514648	-140.499176
29467.451755	-1338.019667	1788.511719	-100.845978
29467.451755	-1338.019667	1787.507813	62.501373
29467.451755	-1338.019667	1786.503906	-176.676880
29467.451755	-1338.019667	1785.500000	12.593641
29467.451755	-1338.019667	1784.496094	-14.886469
29467.451755	-1338.019667	1783.491211	21.771469
29467.451755	-1338.019667	1782.486328	46.412544
29467.451755	-1338.019667	1781.481445	-145.511276
29467.451755	-1338.019667	1780.476563	-73.502151
29467.451755	-1338.019667	1779.471680	-39.670601
29467.451755	-1338.019667	1778.465820	-79.664558
29467.451755	-1338.019667	1777.460938	-186.290359
29467.451755	-1338.019667	1776.455078	-60.119148
29467.451755	-1338.019667	1775.449219	-3.004334
29467.451755	-1338.019667	1774.442383	-76.679184
29467.451755	-1338.019667	1773.436523	-105.300758
29467.451755	-1338.019667	1772.429688	65.424225
29467.451755	-1338.019667	1771.422852	0.943577
29467.451755	-1338.019667	1770.416016	102.528656
29467.451755	-1338.019667	1769.409180	170.739883
29467.451755	-1338.019667	1768.402344	-150.306671
29467.451755	-1338.019667	1767.394531	102.728317
29467.451755	-1338.019667	1766.386719	18.759975
29467.451755	-1338.019667	1765.378906	141.019653
29467.451755	-1338.019667	1764.371094	-42.724182
29467.451755	-1338.019667	1763.362305	27.115414
29467.451755	-1338.019667	1762.354492	144.227432
29467.451755	-1338.019667	1761.345703	-30.282551
29467.451755	-1338.019667	1760.336914	-43.740932
29467.451755	-1338.019667	1759.328125	49.281910
29467.451755	-1338.019667	1758.318359	104.252342
29467.451755	-1338.019667	1757.308594	128.309143
29467.451755	-1338.019667	1756.299805	-58.431885
29467.451755	-1338.019667	1755.290039	114.530075
29467.451755	-1338.019667	1754.279297	254.170288
29467.451755	-1338.019667	1753.269531	93.184532
29467.451755	-1338.019667	1752.258789	31.483227
29467.451755	-1338.019667	1751.249023	57.211807
29467.451755	-1338.019667	1750.238281	137.188477
29467.451755	-1338.019667	1749.226563	-85.601707
29467.451755	-1338.019667	1748.215820	3.598658
29467.451755	-1338.019667	1747.204102	-77.514885
29467.451755	-1338.019667	1746.193359	44.501068
29467.451755	-1338.019667	1745.181641	-88.789223
29467.451755	-1338.019667	1744.168945	23.479223
29467.451755	-1338.019667	1743.157227	-218.609909
29467.451755	-1338.019667	1742.144531	-31.036882
29467.451755	-1338.019667	1741.132813	-11.233202
29467.451755	-1338.019667	1740.120117	-102.488129
29467.451755	-1338.019667	1739.106445	-271.705200
29467.451755	-1338.019667	1738.093750	229.047989
29467.451755	-1338.019667	1737.080078	99.702316
29467.451755	-1338.019667	1736.067383	62.279488
29467.451755	-1338.019667	1735.053711	-62.498055
29467.451755	-1338.019667	1734.040039	81.399727
29467.451755	-1338.019667	1733.025391	64.841087
29467.451755	-1338.019667	1732.011719	62.330063
29467.451755	-1338.019667	1730.997070	102.099052
29467.451755	-1338.019667	1729.982422	87.560356
29467.451755	-1338.019667	1728.967773	171.829407
29467.451755	-1338.019667	1727.952148	274.773956
29467.451755	-1338.019667	1726.937500	375.227295
29467.451755	-1338.019667	1725.921875	-63.501087
29467.451755	-1338.019667	1724.906250	253.241943
29467.451755	-1338.019667	1723.890625	254.465378
29467.451755	-1338.019667	1722.875000	100.315941
29467.451755	-1338.019667	1721.858398	-20.975847
29467.451755	-1338.019667	1720.841797	109.278725
29467.451755	-1338.019667	1719.825195	380.434418
29467.451755	-1338.019667	1718.808594	183.601822
29467.451755	-1338.019667	1717.791992	506.119141
29467.451755	-1338.019667	1716.774414	438.330688
29467.451755	-1338.019667	1715.756836	262.390533
29467.451755	-1338.019667	1714.739258	370.613495
29467.451755	-1338.019667	1713.721680	368.310425
29467.451755	-1338.019667	1712.704102	316.590973
29467.451755	-1338.019667	1711.685547	396.221954
29467.451755	-1338.019667	1710.667969	454.605316
29467.451755	-1338.019667	1709.649414	426.016357
29467.451755	-1338.019667	1708.630859	214.330597
29467.451755	-1338.019667	1707.611328	298.153320
29467.451755	-1338.019667	1706.592773	463.935242
29467.451755	-1338.019667	1705.573242	312.982086
29467.451755	-1338.019667	1704.553711	586.301697
29467.451755	-1338.019667	1703.534180	479.699158
29467.451755	-1338.019667	1702.513672	614.384766
29467.451755	-1338.019667	1701.494141	699.727295
29467.451755	-1338.019667	1700.473633	691.209229
29467.451755	-1338.019667	1699.453125	1026.873169
29467.451755	-1338.019667	1698.432617	692.597534
29467.451755	-1338.019667	1697.412109	557.343689
29467.451755	-1338.019667	1696.390625	843.347778
29467.451755	-1338.019667	1695.369141	862.345215
29467.451755	-1338.019667	1694.347656	1110.532837
29467.451755	-1338.019667	1693.326172	960.828003
29467.451755	-1338.019667	1692.304688	822.770386
29467.451755	-1338.019667	1691.282227	689.320374
29467.451755	-1338.019667	1690.260742	904.204346
29467.451755	-1338.019667	1689.238281	1174.985840
29467.451755	-1338.019667	1688.214844	1094.970947
29467.451755	-1338.019667	1687.192383	1176.137451
29467.451755	-1338.019667	1686.168945	974.467468
29467.451755	-1338.019667	1685.146484	1158.198120
29467.451755	-1338.019667	1684.123047	1196.947754
29467.451755	-1338.019667	1683.099609	1389.685547
29467.451755	-1338.019667	1682.075195	1285.756836
29467.451755	-1338.019667	1681.051758	1592.570313
29467.451755	-1338.019667	1680.027344	1409.107910
29467.451755	-1338.019667	1679.002930	1360.936890
29467.451755	-1338.019667	1677.978516	1515.626221
29467.451755	-1338.019667	1676.953125	1308.651733
29467.451755	-1338.019667	1675.928711	1537.716064
29467.451755	-1338.019667	1674.903320	1517.131470
29467.451755	-1338.019667	1673.877930	1594.353271
29467.451755	-1338.019667	1672.852539	1613.194580
29467.451755	-1338.019667	1671.826172	1913.836182
29467.451755	-1338.019667	1670.800781	1680.836792
29467.451755	-1338.019667	1669.774414	1801.830444
29467.451755	-1338.019667	1668.748047	1950.630127
29467.451755	-1338.019667	1667.721680	2213.361572
29467.451755	-1338.019667	1666.694336	2124.398682
29467.451755	-1338.019667	1665.667969	2135.476563
29467.451755	-1338.019667	1664.640625	2323.275391
29467.451755	-1338.019667	1663.613281	2343.417480
29467.451755	-1338.019667	1662.585938	2626.294189
29467.451755	-1338.019667	1661.557617	2332.241455
29467.451755	-1338.019667	1660.530273	2624.140625
29467.451755	-1338.019667	1659.501953	2962.311279
29467.451755	-1338.019667	1658.473633	2879.606445
29467.451755	-1338.019667	1657.444336	3222.057617
29467.451755	-1338.019667	1656.416016	3320.381836
29467.451755	-1338.019667	1655.386719	3019.051270
29467.451755	-1338.019667	1654.358398	3486.460938
29467.451755	-1338.019667	1653.328125	3540.277100
29467.451755	-1338.019667	1652.298828	3919.013184
29467.451755	-1338.019667	1651.269531	4086.319580
29467.451755	-1338.019667	1650.239258	3919.311035
29467.451755	-1338.019667	1649.208984	4118.858887
29467.451755	-1338.019667	1648.178711	4148.923828
29467.451755	-1338.019667	1647.148438	4320.372559
29467.451755	-1338.019667	1646.117188	4524.122070
29467.451755	-1338.019667	1645.086914	4674.423340
29467.451755	-1338.019667	1644.055664	4991.456055
29467.451755	-1338.019667	1643.024414	4965.326660
29467.451755	-1338.019667	1641.992188	5071.179199
29467.451755	-1338.019667	1640.960938	5308.984375
29467.451755	-1338.019667	1639.928711	5412.278809
29467.451755	-1338.019667	1638.896484	5883.641602
29467.451755	-1338.019667	1637.864258	5674.114746
29467.451755	-1338.019667	1636.832031	6096.508301
29467.451755	-1338.019667	1635.798828	6280.287598
29467.451755	-1338.019667	1634.766602	5950.299805
29467.451755	-1338.019667	1633.733398	6425.391602
29467.451755	-1338.019667	1632.699219	6555.598633
29467.451755	-1338.019667	1631.666016	6644.096680
29467.451755	-1338.019667	1630.632813	7003.004395
29467.451755	-1338.019667	1629.598633	7320.084961
29467.451755	-1338.019667	1628.564453	7345.791992
29467.451755	-1338.019667	1627.530273	7641.776367
29467.451755	-1338.019667	1626.495117	7743.515625
29467.451755	-1338.019667	1625.460938	8016.107910
29467.451755	-1338.019667	1624.425781	8106.083984
29467.451755	-1338.019667	1623.390625	7893.520508
29467.451755	-1338.019667	1622.355469	8465.841797
29467.451755	-1338.019667	1621.319336	8770.146484
29467.451755	-1338.019667	1620.284180	8654.350586
29467.451755	-1338.019667	1619.248047	8653.881836
29467.451755	-1338.019667	1618.211914	9283.067383
29467.451755	-1338.019667	1617.174805	9522.203125
29467.451755	-1338.019667	1616.138672	9968.741211
29467.451755	-1338.019667	1615.101563	10041.592773
29467.451755	-1338.019667	1614.065430	10220.421875
29467.451755	-1338.019667	1613.027344	10194.008789
29467.451755	-1338.019667	1611.990234	10370.334961
29467.451755	-1338.019667	1610.953125	10422.170898
29467.451755	-1338.019667	1609.915039	10750.289063
29467.451755	-1338.019667	1608.876953	10617.735352
29467.451755	-1338.019667	1607.838867	10738.433594
29467.451755	-1338.019667	1606.800781	10932.706055
29467.451755	-1338.019667	1605.761719	10949.659180
29467.451755	-1338.019667	1604.723633	10911.382813
29467.451755	-1338.019667	1603.684570	10870.769531
29467.451755	-1338.019667	1602.644531	10768.028320
29467.451755	-1338.019667	1601.605469	10849.278320
29467.451755	-1338.019667	1600.566406	10730.465820
29467.451755	-1338.019667	1599.526367	10719.684570
29467.451755	-1338.019667	1598.486328	10688.203125
29467.451755	-1338.019667	1597.446289	10443.040039
29467.451755	-1338.019667	1596.405273	10772.220703
29467.451755	-1338.019667	1595.365234	10618.970703
29467.451755	-1338.019667	1594.324219	10647.147461
29467.451755	-1338.019667	1593.283203	10448.014648
29467.451755	-1338.019667	1592.242188	10712.611328
29467.451755	-1338.019667	1591.200195	10196.797852
29467.451755	-1338.019667	1590.159180	10110.266602
29467.451755	-1338.019667	1589.117188	10643.125000
29467.451755	-1338.019667	1588.075195	10609.253906
29467.451755	-1338.019667	1587.032227	10499.695313
29467.451755	-1338.019667	1585.990234	10933.565430
29467.451755	-1338.019667	1584.947266	10530.575195
29467.451755	-1338.019667	1583.904297	10719.022461
29467.451755	-1338.019667	1582.861328	10847.821289
29467.451755	-1338.019667	1581.818359	10765.809570
29467.451755	-1338.019667	1580.775391	10832.714844
29467.451755	-1338.019667	1579.731445	10732.404297
29467.451755	-1338.019667	1578.687500	10854.223633
29467.451755	-1338.019667	1577.643555	10728.782227
29467.451755	-1338.019667	1576.598633	10887.167969
29467.451755	-1338.019667	1575.554688	10734.332031
29467.451755	-1338.019667	1574.509766	10641.023438
29467.451755	-1338.019667	1573.464844	10385.370117
29467.451755	-1338.019667	1572.419922	10703.831055
29467.451755	-1338.019667	1571.374023	10272.217773
29467.451755	-1338.019667	1570.329102	9875.109375
29467.451755	-1338.019667	1569.283203	10060.953125
29467.451755	-1338.019667	1568.237305	10022.809570
29467.451755	-1338.019667	1567.191406	9733.397461
29467.451755	-1338.019667	1566.144531	9640.540039
29467.451755	-1338.019667	1565.098633	9438.145508
29467.451755	-1338.019667	1564.051758	9448.180664
29467.451755	-1338.019667	1563.004883	9608.906250
29467.451755	-1338.019667	1561.957031	9324.512695
29467.451755	-1338.019667	1560.910156	9519.489258
29467.451755	-1338.019667	1559.862305	9196.505859
29467.451755	-1338.019667	1558.814453	9158.810547
29467.451755	-1338.019667	1557.766602	9018.541016
29467.451755	-1338.019667	1556.718750	9129.178711
29467.451755	-1338.019667	1555.669922	9137.201172
29467.451755	-1338.019667	1554.621094	9054.094727
29467.451755	-1338.019667	1553.573242	9474.695313
29467.451755	-1338.019667	1552.523438	9245.802734
29467.451755	-1338.019667	1551.474609	9092.241211
29467.451755	-1338.019667	1550.424805	9075.408203
29467.451755	-1338.019667	1549.375000	9434.333984
29467.451755	-1338.019667	1548.325195	9476.728516
29467.451755	-1338.019667	1547.275391	9143.602539
29467.451755	-1338.019667	1546.225586	9484.251953
29467.451755	-1338.019667	1545.174805	9408.436523
29467.451755	-1338.019667	1544.124023	9869.547852
29467.451755	-1338.019667	1543.073242	9907.516602
29467.451755	-1338.019667	1542.022461	9754.524414
29467.451755	-1338.019667	1540.970703	10049.489258
29467.451755	-1338.019667	1539.919922	10239.869141
29467.451755	-1338.019667	1538.868164	10721.094727
29467.451755	-1338.019667	1537.815430	10436.487305
29467.451755	-1338.019667	1536.763672	10704.084961
29467.451755	-1338.019667	1535.710938	11055.653320
29467.451755	-1338.019667	1534.659180	10937.139648
29467.451755	-1338.019667	1533.606445	11116.124023
29467.451755	-1338.019667	1532.552734	10775.301758
29467.451755	-1338.019667	1531.500000	10983.894531
29467.451755	-1338.019667	1530.446289	10588.928711
29467.451755	-1338.019667	1529.393555	10582.125000
29467.451755	-1338.019667	1528.338867	10264.637695
29467.451755	-1338.019667	1527.285156	10235.363281
29467.451755	-1338.019667	1526.231445	9893.316406
29467.451755	-1338.019667	1525.176758	9390.529297
29467.451755	-1338.019667	1524.122070	8874.430664
29467.451755	-1338.019667	1523.067383	8689.427734
29467.451755	-1338.019667	1522.012695	8581.604492
29467.451755	-1338.019667	1520.957031	8546.371094
29467.451755	-1338.019667	1519.901367	8255.357422
29467.451755	-1338.019667	1518.845703	8179.631348
29467.451755	-1338.019667	1517.790039	7818.821777
29467.451755	-1338.019667	1516.734375	7779.610840
29467.451755	-1338.019667	1515.677734	7978.068359
29467.451755	-1338.019667	1514.621094	7995.570313
29467.451755	-1338.019667	1513.564453	8164.699707
29467.451755	-1338.019667	1512.507813	7940.398438
29467.451755	-1338.019667	1511.450195	7702.701172
29467.451755	-1338.019667	1510.393555	7980.596191
29467.451755	-1338.019667	1509.335938	7829.072754
29467.451755	-1338.019667	1508.278320	7557.961426
29467.451755	-1338.019667	1507.219727	7531.025391
29467.451755	-1338.019667	1506.162109	7185.764160
29467.451755	-1338.019667	1505.103516	7111.712402
29467.451755	-1338.019667	1504.044922	7080.697266
29467.451755	-1338.019667	1502.986328	7122.042480
29467.451755	-1338.019667	1501.926758	7183.777344
29467.451755	-1338.019667	1500.868164	7182.445801
29467.451755	-1338.019667	1499.808594	6912.757813
29467.451755	-1338.019667	1498.749023	7051.539551
29467.451755	-1338.019667	1497.688477	7021.238281
29467.451755	-1338.019667	1496.628906	7027.163574
29467.451755	-1338.019667	1495.568359	6852.862793
29467.451755	-1338.019667	1494.507813	6985.254883
29467.451755	-1338.019667	1493.447266	6867.613281
29467.451755	-1338.019667	1492.386719	7216.472656
29467.451755	-1338.019667	1491.325195	7045.013184
29467.451755	-1338.019667	1490.263672	7047.146973
29467.451755	-1338.019667	1489.202148	6790.496094
29467.451755	-1338.019667	1488.140625	6666.888184
29467.451755	-1338.019667	1487.079102	6995.824707
29467.451755	-1338.019667	1486.016602	6451.707031
29467.451755	-1338.019667	1484.954102	6281.386230
29467.451755	-1338.019667	1483.891602	6725.308594
29467.451755	-1338.019667	1482.829102	6148.245117
29467.451755	-1338.019667	1481.765625	6088.638672
29467.451755	-1338.019667	1480.702148	5595.349609
29467.451755	-1338.019667	1479.638672	5614.811035
29467.451755	-1338.019667	1478.575195	5232.253906
29467.451755	-1338.019667	1477.511719	4935.309082
29467.451755	-1338.019667	1476.447266	4697.003418
29467.451755	-1338.019667	1475.382813	4459.124512
29467.451755	-1338.019667	1474.318359	4373.953125
29467.451755	-1338.019667	1473.253906	4147.733887
29467.451755	-1338.019667	1472.189453	4132.622070
29467.451755	-1338.019667	1471.124023	3732.086670
29467.451755	-1338.019667	1470.058594	4076.172852
29467.451755	-1338.019667	1468.993164	4095.001221
29467.451755	-1338.019667	1467.927734	4262.292969
29467.451755	-1338.019667	1466.861328	4413.771484
29467.451755	-1338.019667	1465.794922	4359.276367
29467.451755	-1338.019667	1464.728516	4481.766113
29467.451755	-1338.019667	1463.662109	4444.821777
29467.451755	-1338.019667	1462.594727	4471.640625
29467.451755	-1338.019667	1461.528320	4575.994629
29467.451755	-1338.019667	1460.460938	4822.786621
29467.451755	-1338.019667	1459.393555	4404.429199
29467.451755	-1338.019667	1458.326172	4659.281738
29467.451755	-1338.019667	1457.257813	4705.729492
29467.451755	-1338.019667	1456.189453	4585.826172
29467.451755	-1338.019667	1455.121094	4499.264648
29467.451755	-1338.019667	1454.052734	4248.252441
29467.451755	-1338.019667	1452.984375	4410.198242
29467.451755	-1338.019667	1451.915039	4440.749512
29467.451755	-1338.019667	1450.845703	4407.666992
29467.451755	-1338.019667	1449.776367	4123.170898
29467.451755	-1338.019667	1448.707031	3955.486572
29467.451755	-1338.019667	1447.636719	4001.151611
29467.451755	-1338.019667	1446.567383	3594.362793
29467.451755	-1338.019667	1445.497070	3784.364746
29467.451755	-1338.019667	1444.425781	3551.898682
29467.451755	-1338.019667	1443.355469	3603.588623
29467.451755	-1338.019667	1442.285156	3486.329590
29467.451755	-1338.019667	1441.213867	3411.873047
29467.451755	-1338.019667	1440.142578	3531.432129
29467.451755	-1338.019667	1439.070313	3437.262939
29467.451755	-1338.019667	1437.999023	3254.275879
29467.451755	-1338.019667	1436.926758	3411.749268
29467.451755	-1338.019667	1435.854492	3080.091309
29467.451755	-1338.019667	1434.782227	3038.491699
29467.451755	-1338.019667	1433.709961	3316.582275
29467.451755	-1338.019667	1432.636719	3102.392822
29467.451755	-1338.019667	1431.563477	2924.834717
29467.451755	-1338.019667	1430.490234	2589.913818
29467.451755	-1338.019667	1429.416992	2690.150635
29467.451755	-1338.019667	1428.343750	2725.444092
29467.451755	-1338.019667	1427.269531	2859.467529
29467.451755	-1338.019667	1426.195313	2557.390869
29467.451755	-1338.019667	1425.121094	2462.314209
29467.451755	-1338.019667	1424.046875	2239.982422
29467.451755	-1338.019667	1422.971680	2564.701904
29467.451755	-1338.019667	1421.896484	2674.991699
29467.451755	-1338.019667	1420.821289	2592.299561
29467.451755	-1338.019667	1419.746094	2258.648926
29467.451755	-1338.019667	1418.669922	2545.597900
29467.451755	-1338.019667	1417.594727	2329.565674
29467.451755	-1338.019667	1416.518555	2635.866699
29467.451755	-1338.019667	1415.442383	2154.054932
29467.451755	-1338.019667	1414.365234	1744.751953
29467.451755	-1338.019667	1413.289063	1725.915894
29467.451755	-1338.019667	1412.211914	1842.226196
29467.451755	-1338.019667	1411.134766	1661.339844
29467.451755	-1338.019667	1410.057617	1886.097046
29467.451755	-1338.019667	1408.979492	1475.066772
29467.451755	-1338.019667	1407.902344	1507.914917
29467.451755	-1338.019667	1406.824219	2023.958984
29467.451755	-1338.019667	1405.746094	1510.556152
29467.451755	-1338.019667	1404.666992	1585.749023
29467.451755	-1338.019667	1403.588867	1672.076660
29467.451755	-1338.019667	1402.509766	1724.112061
29467.451755	-1338.019667	1401.430664	1759.885498
29467.451755	-1338.019667	1400.351563	2027.871704
29467.451755	-1338.019667	1399.271484	2063.563232
29467.451755	-1338.019667	1398.192383	1890.192749
29467.451755	-1338.019667	1397.112305	2143.133545
29467.451755	-1338.019667	1396.031250	2017.896240
29467.451755	-1338.019667	1394.951172	2479.034424
29467.451755	-1338.019667	1393.871094	2763.089600
29467.451755	-1338.019667	1392.790039	2906.448242
29467.451755	-1338.019667	1391.708984	3029.431152
29467.451755	-1338.019667	1390.626953	2982.870605
29467.451755	-1338.019667	1389.545898	3191.421387
29467.451755	-1338.019667	1388.463867	3363.675049
29467.451755	-1338.019667	1387.381836	3098.587158
29467.451755	-1338.019667	1386.299805	2853.188477
29467.451755	-1338.019667	1385.217773	3058.145508
29467.451755	-1338.019667	1384.134766	2813.591309
29467.451755	-1338.019667	1383.051758	2964.429932
29467.451755	-1338.019667	1381.968750	2930.225830
29467.451755	-1338.019667	1380.885742	3081.095947
29467.451755	-1338.019667	1379.802734	2754.508789
29467.451755	-1338.019667	1378.718750	3006.196533
29467.451755	-1338.019667	1377.634766	3234.902100
29467.451755	-1338.019667	1376.550781	3030.376709
29467.451755	-1338.019667	1375.465820	3413.878906
29467.451755	-1338.019667	1374.381836	3698.546387
29467.451755	-1338.019667	1373.296875	3425.545654
29467.451755	-1338.019667	1372.211914	3614.044434
29467.451755	-1338.019667	1371.126953	3748.510986
29467.451755	-1338.019667	1370.041016	4086.829346
29467.451755	-1338.019667	1368.955078	3944.060791
29467.451755	-1338.019667	1367.869141	4443.567871
29467.451755	-1338.019667	1366.783203	4160.970215
29467.451755	-1338.019667	1365.697266	4311.711914
29467.451755	-1338.019667	1364.610352	4430.471680
29467.451755	-1338.019667	1363.523438	4356.421875
29467.451755	-1338.019667	1362.436523	4492.295410
29467.451755	-1338.019667	1361.349609	4618.091797
29467.451755	-1338.019667	1360.261719	4595.305664
29467.451755	-1338.019667	1359.174805	4360.493164
29467.451755	-1338.019667	1358.086914	4302.083984
29467.451755	-1338.019667	1356.998047	4551.501953
29467.451755	-1338.019667	1355.910156	4900.890137
29467.451755	-1338.019667	1354.821289	4662.167480
29467.451755	-1338.019667	1353.732422	4633.299316
29467.451755	-1338.019667	1352.643555	4201.582520
29467.451755	-1338.019667	1351.554688	4153.482422
29467.451755	-1338.019667	1350.464844	4216.638184
29467.451755	-1338.019667	1349.375000	4083.557617
29467.451755	-1338.019667	1348.285156	4316.701660
29467.451755	-1338.019667	1347.195313	3815.075928
29467.451755	-1338.019667	1346.105469	4163.597168
29467.451755	-1338.019667	1345.014648	3905.906982
29467.451755	-1338.019667	1343.923828	3633.601563
29467.451755	-1338.019667	1342.833008	3665.641113
29467.451755	-1338.019667	1341.741211	3722.980225
29467.451755	-1338.019667	1340.650391	3665.330566
29467.451755	-1338.019667	1339.558594	3665.579102
29467.451755	-1338.019667	1338.466797	3647.970703
29467.451755	-1338.019667	1337.374023	3517.127197
29467.451755	-1338.019667	1336.282227	3376.977051
29467.451755	-1338.019667	1335.189453	3464.713623
29467.451755	-1338.019667	1334.096680	3076.959961
29467.451755	-1338.019667	1333.003906	2976.674316
29467.451755	-1338.019667	1331.910156	3087.533203
29467.451755	-1338.019667	1330.817383	2667.519043
29467.451755	-1338.019667	1329.723633	2712.357178
29467.451755	-1338.019667	1328.629883	2791.377441
29467.451755	-1338.019667	1327.535156	2511.633545
29467.451755	-1338.019667	1326.441406	2404.909424
29467.451755	-1338.019667	1325.346680	2614.871094
29467.451755	-1338.019667	1324.251953	2380.533203
29467.451755	-1338.019667	1323.156250	2355.791992
29467.451755	-1338.019667	1322.061523	2344.335938
29467.451755	-1338.019667	1320.965820	2264.190186
29467.451755	-1338.019667	1319.870117	2231.282227
29467.451755	-1338.019667	1318.774414	2026.163818
29467.451755	-1338.019667	1317.678711	2298.245850
29467.451755	-1338.019667	1316.582031	2244.053467
29467.451755	-1338.019667	1315.485352	2326.063965
29467.451755	-1338.019667	1314.388672	2375.590576
29467.451755	-1338.019667	1313.291016	2345.422363
29467.451755	-1338.019667	1312.194336	2436.322754
29467.451755	-1338.019667	1311.096680	2441.828857
29467.451755	-1338.019667	1309.999023	2252.648438
29467.451755	-1338.019667	1308.901367	2126.897217
29467.451755	-1338.019667	1307.802734	1861.466431
29467.451755	-1338.019667	1306.705078	1805.305054
29467.451755	-1338.019667	1305.606445	1615.048218
29467.451755	-1338.019667	1304.506836	1945.716553
29467.451755	-1338.019667	1303.408203	1960.342163
29467.451755	-1338.019667	1302.308594	2053.879395
29467.451755	-1338.019667	1301.208984	2168.071045
29467.451755	-1338.019667	1300.109375	1894.847534
29467.451755	-1338.019667	1299.009766	2223.418701
29467.451755	-1338.019667	1297.909180	2296.063477
29467.451755	-1338.019667	1296.808594	2241.737061
29467.451755	-1338.019667	1295.708008	2129.266602
29467.451755	-1338.019667	1294.607422	2536.564453
29467.451755	-1338.019667	1293.506836	2536.293945
29467.451755	-1338.019667	1292.405273	2614.199219
29467.451755	-1338.019667	1291.303711	2453.107666
29467.451755	-1338.019667	1290.202148	2385.446045
29467.451755	-1338.019667	1289.099609	2288.381104
29467.451755	-1338.019667	1287.998047	2256.145508
29467.451755	-1338.019667	1286.895508	2429.918457
29467.451755	-1338.019667	1285.792969	2406.631836
29467.451755	-1338.019667	1284.689453	2281.056396
29467.451755	-1338.019667	1283.586914	2195.943604
29467.451755	-1338.019667	1282.483398	2320.109863
29467.451755	-1338.019667	1281.379883	2217.914795
29467.451755	-1338.019667	1280.276367	2047.102661
29467.451755	-1338.019667	1279.171875	1969.617065
29467.451755	-1338.019667	1278.067383	2110.625488
29467.451755	-1338.019667	1276.962891	2079.530518
29467.451755	-1338.019667	1275.858398	2051.819580
29467.451755	-1338.019667	1274.753906	1811.574585
29467.451755	-1338.019667	1273.648438	1527.962402
29467.451755	-1338.019667	1272.542969	1514.825684
29467.451755	-1338.019667	1271.437500	1683.975220
29467.451755	-1338.019667	1270.331055	1463.126953
29467.451755	-1338.019667	1269.225586	1644.591187
29467.451755	-1338.019667	1268.119141	1644.478638
29467.451755	-1338.019667	1267.012695	1613.900635
29467.451755	-1338.019667	1265.906250	1503.320801
29467.451755	-1338.019667	1264.798828	1503.970703
29467.451755	-1338.019667	1263.691406	1375.420532
29467.451755	-1338.019667	1262.583984	1596.420776
29467.451755	-1338.019667	1261.476563	1468.786377
29467.451755	-1338.019667	1260.368164	1392.165283
29467.451755	-1338.019667	1259.260742	1591.928711
29467.451755	-1338.019667	1258.152344	1158.642212
29467.451755	-1338.019667	1257.043945	1258.873169
29467.451755	-1338.019667	1255.934570	1364.635498
29467.451755	-1338.019667	1254.825195	940.654663
29467.451755	-1338.019667	1253.716797	1275.942871
29467.451755	-1338.019667	1252.606445	1039.357544
29467.451755	-1338.019667	1251.497070	842.098633
29467.451755	-1338.019667	1250.387695	926.410522
29467.451755	-1338.019667	1249.277344	853.198242
29467.451755	-1338.019667	1248.166992	848.366211
29467.451755	-1338.019667	1247.055664	942.141968
29467.451755	-1338.019667	1245.945313	670.175293
29467.451755	-1338.019667	1244.833984	654.530029
29467.451755	-1338.019667	1243.722656	769.655396
29467.451755	-1338.019667	1242.611328	520.471497
29467.451755	-1338.019667	1241.499023	405.924988
29467.451755	-1338.019667	1240.387695	474.242920
29467.451755	-1338.019667	1239.275391	395.152161
29467.451755	-1338.019667	1238.162109	212.690292
29467.451755	-1338.019667	1237.049805	119.296906
29467.451755	-1338.019667	1235.936523	171.929703
29467.451755	-1338.019667	1234.823242	20.490206
29467.451755	-1338.019667	1233.709961	-36.827934
29467.451755	-1338.019667	1232.596680	-9.038084
29467.451755	-1338.019667	1231.482422	-101.650108
29467.451755	-1338.019667	1230.369141	-20.080830
29467.451755	-1338.019667	1229.253906	-148.416870
29467.451755	-1338.019667	1228.139648	3.118420
29467.451755	-1338.019667	1227.025391	-241.285553
29467.451755	-1338.019667	1225.910156	-88.120750
29467.451755	-1338.019667	1224.794922	-153.460922
29467.451755	-1338.019667	1223.679688	12.182480
29467.451755	-1338.019667	1222.563477	65.757118
29467.451755	-1338.019667	1221.447266	-4.094162
29467.451755	-1338.019667	1220.331055	-31.503893
29467.451755	-1338.019667	1219.214844	299.352417
29467.451755	-1338.019667	1218.098633	229.203537
29467.451755	-1338.019667	1216.981445	317.376312
29467.451755	-1338.019667	1215.864258	453.687103
29467.451755	-1338.019667	1214.747070	586.253418
29467.451755	-1338.019667	1213.629883	328.018829
29467.451755	-1338.019667	1212.511719	480.388489
29467.451755	-1338.019667	1211.393555	374.418823
29467.451755	-1338.019667	1210.275391	463.635529
29467.451755	-1338.019667	1209.157227	512.179443
29467.451755	-1338.019667	1208.038086	530.233215
29467.451755	-1338.019667	1206.918945	262.718323
29467.451755	-1338.019667	1205.799805	439.035461
29467.451755	-1338.019667	1204.680664	446.352875
29467.451755	-1338.019667	1203.560547	290.124786
29467.451755	-1338.019667	1202.441406	218.447449
29467.451755	-1338.019667	1201.321289	153.805328
29467.451755	-1338.019667	1200.200195	-43.670395
29467.451755	-1338.019667	1199.080078	125.555840
29467.451755	-1338.019667	1197.958984	123.869026
29467.451755	-1338.019667	1196.837891	60.092712
29467.451755	-1338.019667	1195.716797	108.947891
29467.451755	-1338.019667	1194.594727	225.367554
29467.451755	-1338.019667	1193.473633	390.142853
29467.451755	-1338.019667	1192.351563	243.885590
29467.451755	-1338.019667	1191.229492	453.126251
29467.451755	-1338.019667	1190.106445	227.969772
29467.451755	-1338.019667	1188.984375	193.162277
29467.451755	-1338.019667	1187.861328	284.954376
29467.451755	-1338.019667	1186.738281	604.937073
29467.451755	-1338.019667	1185.614258	737.482849
29467.451755	-1338.019667	1184.491211	953.808533
29467.451755	-1338.019667	1183.367188	1018.856262
29467.451755	-1338.019667	1182.243164	1332.359497
29467.451755	-1338.019667	1181.119141	1015.525574
29467.451755	-1338.019667	1179.994141	1220.223267
29467.451755	-1338.019667	1178.869141	1079.010376
29467.451755	-1338.019667	1177.744141	1030.906616
29467.451755	-1338.019667	1176.619141	1019.410522
29467.451755	-1338.019667	1175.493164	998.785278
29467.451755	-1338.019667	1174.368164	858.673401
29467.451755	-1338.019667	1173.242188	738.030823
29467.451755	-1338.019667	1172.115234	747.996460
29467.451755	-1338.019667	1170.989258	644.457092
29467.451755	-1338.019667	1169.862305	578.018921
29467.451755	-1338.019667	1168.735352	445.485809
29467.451755	-1338.019667	1167.608398	438.145325
29467.451755	-1338.019667	1166.481445	419.427521
29467.451755	-1338.019667	1165.353516	331.249939
29467.451755	-1338.019667	1164.225586	264.092346
29467.451755	-1338.019667	1163.097656	167.330109
29467.451755	-1338.019667	1161.968750	523.728394
29467.451755	-1338.019667	1160.840820	572.400818
29467.451755	-1338.019667	1159.711914	459.330292
29467.451755	-1338.019667	1158.583008	643.629517
29467.451755	-1338.019667	1157.453125	409.001129
29467.451755	-1338.019667	1156.324219	502.537323
29467.451755	-1338.019667	1155.194336	351.504211
29467.451755	-1338.019667	1154.064453	384.256744
29467.451755	-1338.019667	1152.933594	588.722046
29467.451755	-1338.019667	1151.803711	409.479004
29467.451755	-1338.019667	1150.672852	524.414490
29467.451755	-1338.019667	1149.541992	381.584869
29467.451755	-1338.019667	1148.411133	375.580505
29467.451755	-1338.019667	1147.279297	324.078369
29467.451755	-1338.019667	1146.147461	187.617325
29467.451755	-1338.019667	1145.015625	246.022171
29467.451755	-1338.019667	1143.883789	111.889153
29467.451755	-1338.019667	1142.750977	201.111938
29467.451755	-1338.019667	1141.619141	203.506454
29467.451755	-1338.019667	1140.486328	94.544975
29467.451755	-1338.019667	1139.352539	194.104919
29467.451755	-1338.019667	1138.219727	-46.833405
29467.451755	-1338.019667	1137.085938	-39.630024
29467.451755	-1338.019667	1135.952148	-11.460448
29467.451755	-1338.019667	1134.818359	70.590027
29467.451755	-1338.019667	1133.683594	-84.833282
29467.451755	-1338.019667	1132.549805	-64.308136
29467.451755	-1338.019667	1131.415039	-44.593426
29467.451755	-1338.019667	1130.279297	-90.665169
29467.451755	-1338.019667	1129.144531	118.760521
29467.451755	-1338.019667	1128.008789	216.699875
29467.451755	-1338.019667	1126.873047	148.927094
29467.451755	-1338.019667	1125.737305	24.288599
29467.451755	-1338.019667	1124.601563	252.728500
29467.451755	-1338.019667	1123.464844	197.719849
29467.451755	-1338.019667	1122.328125	198.039032
29467.451755	-1338.019667	1121.191406	75.870453
29467.451755	-1338.019667	1120.054688	138.345749
29467.451755	-1338.019667	1118.916992	128.506134
29467.451755	-1338.019667	1117.779297	69.868538
29467.451755	-1338.019667	1116.641602	192.191605
29467.451755	-1338.019667	1115.503906	223.153900
29467.451755	-1338.019667	1114.365234	184.929245
29467.451755	-1338.019667	1113.226563	24.173532
29467.451755	-1338.019667	1112.087891	40.614227
29467.451755	-1338.019667	1110.949219	43.922134
29467.451755	-1338.019667	1109.809570	-185.894211
29467.451755	-1338.019667	1108.669922	-16.968605
29467.451755	-1338.019667	1107.530273	116.130547
29467.451755	-1338.019667	1106.390625	-176.142685
29467.451755	-1338.019667	1105.250000	27.256138
29467.451755	-1338.019667	1104.109375	163.544128
29467.451755	-1338.019667	1102.968750	149.357040
29467.451755	-1338.019667	1101.828125	-2.556066
29467.451755	-1338.019667	1100.686523	119.657562
29467.451755	-1338.019667	1099.544922	162.801361
29467.451755	-1338.019667	1098.403320	-15.985952
29467.451755	-1338.019667	1097.261719	32.561352
29467.451755	-1338.019667	1096.120117	-103.505859
29467.451755	-1338.019667	1094.977539	-34.669144
29467.451755	-1338.019667	1093.834961	-47.502533
29467.451755	-1338.019667	1092.691406	33.608952
29467.451755	-1338.019667	1091.548828	114.575340
29467.451755	-1338.019667	1090.405273	141.804138
29467.451755	-1338.019667	1089.261719	138.334015
29467.451755	-1338.019667	1088.118164	246.746201
29467.451755	-1338.019667	1086.973633	161.801819
29467.451755	-1338.019667	1085.829102	200.516373
29467.451755	-1338.019667	1084.684570	-43.784668
29467.451755	-1338.019667	1083.540039	-116.218262
29467.451755	-1338.019667	1082.395508	42.843796
29467.451755	-1338.019667	1081.250000	146.579239
29467.451755	-1338.019667	1080.104492	-53.518360
29467.451755	-1338.019667	1078.958984	229.426315
29467.451755	-1338.019667	1077.812500	264.237244
29467.451755	-1338.019667	1076.666016	89.632942
29467.451755	-1338.019667	1075.519531	164.669418
29467.451755	-1338.019667	1074.373047	144.865601
29467.451755	-1338.019667	1073.226563	50.584209
29467.451755	-1338.019667	1072.079102	243.459366
29467.451755	-1338.019667	1070.931641	-130.671738
29467.451755	-1338.019667	1069.784180	-50.221725
29467.451755	-1338.019667	1068.635742	-161.127029
29467.451755	-1338.019667	1067.487305	225.722366
29467.451755	-1338.019667	1066.338867	72.334724
29467.451755	-1338.019667	1065.190430	230.345337
29467.451755	-1338.019667	1064.041992	39.097485
29467.451755	-1338.019667	1062.892578	2.925826
29467.451755	-1338.019667	1061.743164	-38.614750
29467.451755	-1338.019667	1060.593750	20.521246
29467.451755	-1338.019667	1059.443359	144.857666
29467.451755	-1338.019667	1058.292969	-21.279736
29467.451755	-1338.019667	1057.142578	-53.186260
29467.451755	-1338.019667	1055.992188	-127.553665
29467.451755	-1338.019667	1054.841797	-372.957489
29467.451755	-1338.019667	1053.690430	28.364006
29467.451755	-1338.019667	1052.539063	134.133606
29467.451755	-1338.019667	1051.387695	96.798286
29467.451755	-1338.019667	1050.235352	-158.315063
29467.451755	-1338.019667	1049.083984	-43.868942
29467.451755	-1338.019667	1047.931641	-5.301168
29467.451755	-1338.019667	1046.778320	-233.480438
29467.451755	-1338.019667	1045.625977	-249.606689
29467.451755	-1338.019667	1044.472656	-315.926880
29467.451755	-1338.019667	1043.319336	-160.914566
29467.451755	-1338.019667	1042.166016	-108.580620
29467.451755	-1338.019667	1041.012695	-92.417412
29467.451755	-1338.019667	1039.858398	-78.585152
29467.451755	-1338.019667	1038.704102	-6.860603
29467.451755	-1338.019667	1037.549805	81.756126
29467.451755	-1338.019667	1036.394531	-87.336868
29467.451755	-1338.019667	1035.239258	-24.039026
29467.451755	-1338.019667	1034.083984	-154.884598
29467.451755	-1338.019667	1032.928711	-216.771088
29467.451755	-1338.019667	1031.773438	-138.062775
29467.451755	-1338.019667	1030.617188	-324.670593
29467.451755	-1338.019667	1029.460938	-195.720978
29467.451755	-1338.019667	1028.304688	115.568367
29467.451755	-1338.019667	1027.147461	55.456127
29467.451755	-1338.019667	1025.991211	-66.199142
29467.451755	-1338.019667	1024.833984	120.438232
29467.451755	-1338.019667	1023.675781	127.831902
29467.451755	-1338.019667	1022.518555	-21.174561
29467.451755	-1338.019667	1021.360352	-20.806591
29467.451755	-1338.019667	1020.202148	189.198059
29467.451755	-1338.019667	1019.043945	188.486984
29467.451755	-1338.019667	1017.884766	226.405121
29467.451755	-1338.019667	1016.726563	-61.627678
29467.451755	-1338.019667	1015.567383	173.094833
29467.451755	-1338.019667	1014.407227	65.307877
29467.451755	-1338.019667	1013.248047	29.206417
29467.451755	-1338.019667	1012.087891	109.508789
29467.451755	-1338.019667	1010.927734	-7.042316
29467.451755	-1338.019667	1009.767578	124.296501
29467.451755	-1338.019667	1008.606445	25.214186
29467.451755	-1338.019667	1007.446289	79.907761
29467.451755	-1338.019667	1006.285156	150.787003
29467.451755	-1338.019667	1005.123047	230.242523
29467.451755	-1338.019667	1003.961914	121.766945
29467.451755	-1338.019667	1002.799805	298.350494
29467.451755	-1338.019667	1001.637695	218.752426
29467.451755	-1338.019667	1000.475586	195.684021
29467.451755	-1338.019667	999.312500	109.614761
29467.451755	-1338.019667	998.149414	123.483910
29467.451755	-1338.019667	996.986328	184.110229
29467.451755	-1338.019667	995.823242	268.520477
29467.451755	-1338.019667	994.659180	318.094910
29467.451755	-1338.019667	993.496094	368.704071
29467.451755	-1338.019667	992.332031	265.675354
29467.451755	-1338.019667	991.166992	-76.500847
29467.451755	-1338.019667	990.002930	467.243896
29467.451755	-1338.019667	988.837891	212.903442
29467.451755	-1338.019667	987.672852	49.170975
29467.451755	-1338.019667	986.506836	29.848051
29467.451755	-1338.019667	985.341797	372.084930
29467.451755	-1338.019667	984.175781	146.114044
29467.451755	-1338.019667	983.009766	138.773544
29467.451755	-1338.019667	981.843750	54.000469
29467.451755	-1338.019667	980.676758	21.531521
29467.451755	-1338.019667	979.509766	241.644623
29467.451755	-1338.019667	978.342773	245.385284
29467.451755	-1338.019667	977.175781	-24.701986
29467.451755	-1338.019667	976.007813	245.926788
29467.451755	-1338.019667	974.839844	303.920074
29467.451755	-1338.019667	973.671875	67.542175
29467.451755	-1338.019667	972.503906	263.853271
29467.451755	-1338.019667	971.334961	246.188980
29467.451755	-1338.019667	970.166016	340.472626
29467.451755	-1338.019667	968.997070	293.256592
29467.451755	-1338.019667	967.828125	175.995636
29467.451755	-1338.019667	966.658203	107.695030
29467.451755	-1338.019667	965.488281	207.315536
29467.451755	-1338.019667	964.318359	250.150833
29467.451755	-1338.019667	963.148438	304.290466
29467.451755	-1338.019667	961.977539	240.682755
29467.451755	-1338.019667	960.806641	138.978302
29467.451755	-1338.019667	959.635742	473.371185
29467.451755	-1338.019667	958.463867	566.239136
29467.451755	-1338.019667	957.292969	569.735107
29467.451755	-1338.019667	956.121094	351.004333
29467.451755	-1338.019667	954.948242	297.908691
29467.451755	-1338.019667	953.776367	510.054718
29467.451755	-1338.019667	952.603516	442.259064
29467.451755	-1338.019667	951.430664	569.624329
29467.451755	-1338.019667	950.257813	436.949158
29467.451755	-1338.019667	949.084961	415.331940
29467.451755	-1338.019667	947.911133	266.881226
29467.451755	-1338.019667	946.737305	136.579773
29467.451755	-1338.019667	945.563477	217.280930
29467.451755	-1338.019667	944.388672	179.013901
29467.451755	-1338.019667	943.213867	85.026337
29467.451755	-1338.019667	942.039063	-1.039316
29467.451755	-1338.019667	940.864258	318.217194
29467.451755	-1338.019667	939.688477	376.539581
29467.451755	-1338.019667	938.513672	174.156677
29467.451755	-1338.019667	937.337891	218.198639
29467.451755	-1338.019667	936.161133	437.175873
29467.451755	-1338.019667	934.985352	239.812683
29467.451755	-1338.019667	933.808594	83.785736
29467.451755	-1338.019667	932.631836	252.573883
29467.451755	-1338.019667	931.454102	340.743652
29467.451755	-1338.019667	930.277344	273.411560
29467.451755	-1338.019667	929.099609	491.688293
29467.451755	-1338.019667	927.921875	396.488525
29467.451755	-1338.019667	926.743164	409.397064
29467.451755	-1338.019667	925.565430	502.519287
29467.451755	-1338.019667	924.386719	235.205566
29467.451755	-1338.019667	923.208008	117.567146
29467.451755	-1338.019667	922.028320	69.175926
29467.451755	-1338.019667	920.849609	31.798910
29467.451755	-1338.019667	919.669922	36.067215
29467.451755	-1338.019667	919.474609	357.947357
29467.451755	-1338.019667	918.309570	129.229141
29467.451755	-1338.019667	917.143555	185.736862
29467.451755	-1338.019667	915.977539	6.838956
29467.451755	-1338.019667	914.810547	265.262207
29467.451755	-1338.019667	913.644531	0.498945
29467.451755	-1338.019667	912.477539	-87.153481
29467.451755	-1338.019667	911.310547	13.258581
29467.451755	-1338.019667	910.143555	-80.024750
29467.451755	-1338.019667	908.975586	-68.263329
29467.451755	-1338.019667	907.807617	84.415619
29467.451755	-1338.019667	906.639648	49.024673
29467.451755	-1338.019667	905.471680	-19.573025
29467.451755	-1338.019667	904.303711	-2.561190
29467.451755	-1338.019667	903.134766	-54.668686
29467.451755	-1338.019667	901.965820	58.880840
29467.451755	-1338.019667	900.796875	304.855804
29467.451755	-1338.019667	899.626953	219.414886
29467.451755	-1338.019667	898.457031	274.706665
29467.451755	-1338.019667	897.287109	106.409683
29467.451755	-1338.019667	896.117188	227.800186
29467.451755	-1338.019667	894.947266	288.403412
29467.451755	-1338.019667	893.776367	489.570190
29467.451755	-1338.019667	892.605469	403.861389
29467.451755	-1338.019667	891.434570	505.579590
29467.451755	-1338.019667	890.262695	185.539337
29467.451755	-1338.019667	889.091797	201.737991
29467.451755	-1338.019667	887.919922	-41.076138
29467.451755	-1338.019667	886.748047	71.462746
29467.451755	-1338.019667	885.575195	-130.017532
29467.451755	-1338.019667	884.403320	4.420135
29467.451755	-1338.019667	883.230469	174.541306
29467.451755	-1338.019667	882.057617	223.456070
29467.451755	-1338.019667	880.883789	198.014725
29467.451755	-1338.019667	879.710938	-33.782818
29467.451755	-1338.019667	878.537109	-161.015091
29467.451755	-1338.019667	877.362305	-172.746887
29467.451755	-1338.019667	876.188477	219.618607
29467.451755	-1338.019667	875.013672	133.513367
29467.451755	-1338.019667	873.839844	-216.419800
29467.451755	-1338.019667	872.664063	-220.057022
29467.451755	-1338.019667	871.489258	-231.976776
29467.451755	-1338.019667	870.313477	-95.622368
29467.451755	-1338.019667	869.138672	-30.757975
29467.451755	-1338.019667	867.962891	66.986397
29467.451755	-1338.019667	866.786133	-161.969711
29467.451755	-1338.019667	865.610352	-193.290665
29467.451755	-1338.019667	864.433594	19.547596
29467.451755	-1338.019667	863.256836	-129.820953
29467.451755	-1338.019667	862.079102	-87.188240
29467.451755	-1338.019667	860.902344	-178.963562
29467.451755	-1338.019667	859.724609	318.659088
29467.451755	-1338.019667	858.546875	56.840187
29467.451755	-1338.019667	857.368164	123.927246
29467.451755	-1338.019667	856.190430	45.748486
29467.451755	-1338.019667	855.011719	-35.166691
29467.451755	-1338.019667	853.833008	190.637131
29467.451755	-1338.019667	852.654297	35.735748
29467.451755	-1338.019667	851.474609	42.377892
29467.451755	-1338.019667	850.294922	-5.750504
29467.451755	-1338.019667	849.115234	159.543503
29467.451755	-1338.019667	847.935547	127.767288
29467.451755	-1338.019667	846.754883	279.233917
29467.451755	-1338.019667	845.575195	209.105927
29467.451755	-1338.019667	844.393555	35.086990
29467.451755	-1338.019667	843.212891	257.467621
29467.451755	-1338.019667	842.032227	225.568588
29467.451755	-1338.019667	840.850586	-49.523724
29467.451755	-1338.019667	839.668945	230.029053
29467.451755	-1338.019667	838.486328	280.017273
29467.451755	-1338.019667	837.304688	15.930887
29467.451755	-1338.019667	836.122070	117.766136
29467.451755	-1338.019667	834.939453	279.587036
29467.451755	-1338.019667	833.756836	233.912537
29467.451755	-1338.019667	832.573242	87.282860
29467.451755	-1338.019667	831.389648	19.799141
29467.451755	-1338.019667	830.206055	230.506668
29467.451755	-1338.019667	829.022461	72.994667
29467.451755	-1338.019667	827.838867	-21.772667
29467.451755	-1338.019667	826.654297	150.590439
29467.451755	-1338.019667	825.469727	88.505455
29467.451755	-1338.019667	824.284180	42.772156
29467.451755	-1338.019667	823.099609	-32.925907
29467.451755	-1338.019667	821.914063	182.788788
29467.451755	-1338.019667	820.728516	218.688309
29467.451755	-1338.019667	819.542969	145.663513
29467.451755	-1338.019667	818.356445	271.333405
29467.451755	-1338.019667	817.169922	70.394814
29467.451755	-1338.019667	815.983398	-247.463547
29467.451755	-1338.019667	814.796875	49.512405
29467.451755	-1338.019667	813.609375	39.048939
29467.451755	-1338.019667	812.422852	80.230148
29467.451755	-1338.019667	811.235352	-14.540488
29467.451755	-1338.019667	810.046875	-76.676933
29467.451755	-1338.019667	808.859375	56.832672
29467.451755	-1338.019667	807.670898	-97.695221
29467.451755	-1338.019667	806.482422	-140.818619
29467.451755	-1338.019667	805.293945	217.954758
29467.451755	-1338.019667	804.104492	147.598984
29467.451755	-1338.019667	802.915039	22.966221
29467.451755	-1338.019667	801.725586	99.190277
29467.451755	-1338.019667	800.536133	77.687195
29467.451755	-1338.019667	799.345703	189.096939
29467.451755	-1338.019667	798.155273	-8.741006
29467.451755	-1338.019667	796.964844	-3.146998
29467.451755	-1338.019667	795.774414	-119.570297
29467.451755	-1338.019667	794.583008	97.424858
29467.451755	-1338.019667	793.392578	21.640558
29467.451755	-1338.019667	792.200195	21.732773
29467.451755	-1338.019667	791.008789	-51.332596
29467.451755	-1338.019667	789.816406	124.770988
29467.451755	-1338.019667	788.625000	206.013641
29467.451755	-1338.019667	787.432617	46.272572
29467.451755	-1338.019667	786.239258	16.491926
29467.451755	-1338.019667	785.046875	62.471931
29467.451755	-1338.019667	783.853516	-143.190598
29467.451755	-1338.019667	782.660156	-221.660095
29467.451755	-1338.019667	781.465820	192.064285
29467.451755	-1338.019667	780.272461	108.110985
29467.451755	-1338.019667	779.078125	32.279747
29467.451755	-1338.019667	777.883789	169.966690
29467.451755	-1338.019667	776.688477	-38.288406
29467.451755	-1338.019667	775.494141	10.163485
29467.451755	-1338.019667	774.298828	-127.790184
29467.451755	-1338.019667	773.103516	-90.185928
29467.451755	-1338.019667	771.907227	68.871407
29467.451755	-1338.019667	770.711914	-77.175163
29467.451755	-1338.019667	769.515625	-206.991089
29467.451755	-1338.019667	768.318359	151.581375
29467.451755	-1338.019667	767.122070	-72.691437
29467.451755	-1338.019667	765.924805	234.412567
29467.451755	-1338.019667	764.727539	120.720161
29467.451755	-1338.019667	763.530273	217.327606
29467.451755	-1338.019667	762.333008	149.454163
29467.451755	-1338.019667	761.134766	318.721222
29467.451755	-1338.019667	759.936523	35.265221
29467.451755	-1338.019667	758.738281	134.396179
29467.451755	-1338.019667	757.540039	319.636047
29467.451755	-1338.019667	756.340820	143.973297
29467.451755	-1338.019667	755.141602	353.304108
29467.451755	-1338.019667	753.942383	266.463867
29467.451755	-1338.019667	752.742188	246.900909
29467.451755	-1338.019667	751.541992	394.111053
29467.451755	-1338.019667	750.341797	210.394455
29467.451755	-1338.019667	749.141602	75.127518
29467.451755	-1338.019667	747.941406	278.645569
29467.451755	-1338.019667	746.740234	137.977768
29467.451755	-1338.019667	745.539063	166.644440
29467.451755	-1338.019667	744.337891	66.293358
29467.451755	-1338.019667	743.135742	-42.110855
29467.451755	-1338.019667	741.933594	367.849609
29467.451755	-1338.019667	740.731445	31.110603
29467.451755	-1338.019667	739.529297	107.912651
29467.451755	-1338.019667	738.326172	77.279762
29467.451755	-1338.019667	737.124023	-15.099923
29467.451755	-1338.019667	735.919922	-21.627697
29467.451755	-1338.019667	734.716797	-76.475006
29467.451755	-1338.019667	733.513672	-53.568085
29467.451755	-1338.019667	732.309570	-46.800129
29467.451755	-1338.019667	731.105469	-149.988495
29467.451755	-1338.019667	729.900391	-81.646561
29467.451755	-1338.019667	728.696289	-222.387589
29467.451755	-1338.019667	727.491211	263.783875
29467.451755	-1338.019667	726.286133	-10.986574
29467.451755	-1338.019667	725.080078	89.220139
29467.451755	-1338.019667	723.874023	103.662010
29467.451755	-1338.019667	722.668945	-26.498543
29467.451755	-1338.019667	721.461914	188.580978
29467.451755	-1338.019667	720.255859	-5.859569
29467.451755	-1338.019667	719.048828	8.388545
29467.451755	-1338.019667	717.841797	62.698700
29467.451755	-1338.019667	716.634766	-70.249275
29467.451755	-1338.019667	715.427734	32.069164
29467.451755	-1338.019667	714.219727	-55.485924
29467.451755	-1338.019667	713.011719	-231.248047
29467.451755	-1338.019667	711.803711	-302.793243
29467.451755	-1338.019667	710.594727	183.917068
29467.451755	-1338.019667	709.385742	-50.713165
29467.451755	-1338.019667	708.176758	67.149170
29467.451755	-1338.019667	706.967773	14.052035
29467.451755	-1338.019667	705.758789	110.379333
29467.451755	-1338.019667	704.548828	163.906723
29467.451755	-1338.019667	703.338867	-12.086643
29467.451755	-1338.019667	702.127930	-73.376968
29467.451755	-1338.019667	700.917969	190.636246
29467.451755	-1338.019667	699.707031	49.212963
29467.451755	-1338.019667	698.496094	211.662781
29467.451755	-1338.019667	697.285156	200.747543
29467.451755	-1338.019667	696.073242	275.030609
29467.451755	-1338.019667	694.861328	303.926270
29467.451755	-1338.019667	693.649414	415.304688
29467.451755	-1338.019667	692.436523	414.724274
29467.451755	-1338.019667	691.224609	379.464111
29467.451755	-1338.019667	690.011719	19.417065
29467.451755	-1338.019667	688.798828	252.881485
29467.451755	-1338.019667	687.584961	515.436035
29467.451755	-1338.019667	686.372070	413.384613
29467.451755	-1338.019667	685.158203	356.508423
29467.451755	-1338.019667	683.943359	405.930420
29467.451755	-1338.019667	682.729492	768.941345
29467.451755	-1338.019667	681.514648	666.605103
29467.451755	-1338.019667	680.299805	728.979248
29467.451755	-1338.019667	679.084961	674.353088
29467.451755	-1338.019667	677.869141	524.045044
29467.451755	-1338.019667	676.653320	973.869629
29467.451755	-1338.019667	675.437500	528.692322
29467.451755	-1338.019667	674.221680	723.333618
29467.451755	-1338.019667	673.004883	1138.075562
29467.451755	-1338.019667	671.789063	730.034363
29467.451755	-1338.019667	670.571289	1019.744019
29467.451755	-1338.019667	669.354492	773.504822
29467.451755	-1338.019667	668.136719	646.600281
29467.451755	-1338.019667	666.919922	673.425293
29467.451755	-1338.019667	665.701172	737.249512
29467.451755	-1338.019667	664.483398	445.864471
29467.451755	-1338.019667	663.264648	316.121307
29467.451755	-1338.019667	662.045898	483.008423
29467.451755	-1338.019667	660.827148	845.703918
29467.451755	-1338.019667	659.608398	739.507874
29467.451755	-1338.019667	658.388672	485.016083
29467.451755	-1338.019667	657.168945	884.246704
29467.451755	-1338.019667	655.949219	484.108185
29467.451755	-1338.019667	654.728516	435.886688
29467.451755	-1338.019667	653.507813	726.137573
29467.451755	-1338.019667	652.287109	690.912109
29467.451755	-1338.019667	651.066406	507.549591
29467.451755	-1338.019667	649.844727	932.106323
29467.451755	-1338.019667	648.623047	600.576660
29467.451755	-1338.019667	647.401367	757.879944
29467.451755	-1338.019667	646.179688	677.274597
29467.451755	-1338.019667	644.957031	586.032532
29467.451755	-1338.019667	643.734375	521.131775
29467.451755	-1338.019667	642.511719	633.030029
29467.451755	-1338.019667	641.289063	710.466064
29467.451755	-1338.019667	640.065430	740.262451
29467.451755	-1338.019667	638.841797	930.874146
29467.451755	-1338.019667	637.618164	788.957214
29467.451755	-1338.019667	636.393555	718.191284
29467.451755	-1338.019667	635.168945	702.717224
29467.451755	-1338.019667	633.944336	1037.731201
29467.451755	-1338.019667	632.719727	676.746643
29467.451755	-1338.019667	631.494141	653.065063
29467.451755	-1338.019667	630.269531	634.563293
29467.451755	-1338.019667	629.042969	615.950867
29467.451755	-1338.019667	627.817383	615.679077
29467.451755	-1338.019667	626.590820	918.047363
29467.451755	-1338.019667	625.365234	828.007385
29467.451755	-1338.019667	624.137695	924.724915
29467.451755	-1338.019667	622.911133	676.645447
29467.451755	-1338.019667	621.683594	573.230957
29467.451755	-1338.019667	620.456055	856.339417
29467.451755	-1338.019667	619.228516	713.277588
29467.451755	-1338.019667	618.000977	812.012329
29467.451755	-1338.019667	616.772461	568.929626
29467.451755	-1338.019667	615.543945	593.861572
29467.451755	-1338.019667	614.314453	563.500549
29467.451755	-1338.019667	613.085938	588.209412
29467.451755	-1338.019667	611.856445	413.224365
29467.451755	-1338.019667	610.626953	637.264648
29467.451755	-1338.019667	609.397461	257.396088
29467.451755	-1338.019667	608.166992	239.725922
29467.451755	-1338.019667	606.936523	423.982513
29467.451755	-1338.019667	605.706055	387.713226
29467.451755	-1338.019667	604.474609	590.002686
29467.451755	-1338.019667	603.244141	737.048279
29467.451755	-1338.019667	602.012695	566.721924
29467.451755	-1338.019667	600.780273	446.154938
29467.451755	-1338.019667	599.548828	590.202332
29467.451755	-1338.019667	598.316406	689.542480
29467.451755	-1338.019667	597.083984	623.726807
29467.451755	-1338.019667	595.851563	392.861633
29467.451755	-1338.019667	594.618164	785.102539
29467.451755	-1338.019667	593.384766	805.383179
29467.451755	-1338.019667	592.151367	676.386169
29467.451755	-1338.019667	590.917969	1193.613281
29467.451755	-1338.019667	589.683594	658.923157
29467.451755	-1338.019667	588.449219	676.202087
29467.451755	-1338.019667	587.214844	591.403259
29467.451755	-1338.019667	585.979492	556.209412
29467.451755	-1338.019667	584.745117	429.468048
29467.451755	-1338.019667	583.509766	305.293701
29467.451755	-1338.019667	582.273438	408.365967
29467.451755	-1338.019667	581.038086	542.657959
29467.451755	-1338.019667	579.801758	373.867828
29467.451755	-1338.019667	578.565430	688.078064
29467.451755	-1338.019667	577.329102	328.602356
29467.451755	-1338.019667	576.091797	405.018860
29467.451755	-1338.019667	574.854492	486.538177
29467.451755	-1338.019667	573.617188	312.292664
29467.451755	-1338.019667	572.378906	440.572113
29467.451755	-1338.019667	571.141602	477.463257
29467.451755	-1338.019667	569.903320	524.680176
29467.451755	-1338.019667	568.664063	144.335495
29467.451755	-1338.019667	567.425781	191.452972
29467.451755	-1338.019667	566.186523	366.128235
29467.451755	-1338.019667	564.947266	274.972137
29467.451755	-1338.019667	563.708008	496.290131
29467.451755	-1338.019667	562.467773	415.412933
29467.451755	-1338.019667	561.227539	454.245636
29467.451755	-1338.019667	559.987305	401.909180
29467.451755	-1338.019667	558.747070	383.358551
29467.451755	-1338.019667	557.505859	185.245682
29467.451755	-1338.019667	556.264648	195.228958
29467.451755	-1338.019667	555.023438	111.538795
29467.451755	-1338.019667	553.781250	264.398468
29467.451755	-1338.019667	552.539063	333.964600
29467.451755	-1338.019667	551.296875	122.795807
29467.451755	-1338.019667	550.054688	298.783813
29467.451755	-1338.019667	548.811523	407.104034
29467.451755	-1338.019667	547.569336	73.855240
29467.451755	-1338.019667	546.325195	80.818245
29467.451755	-1338.019667	545.082031	-16.088142
29467.451755	-1338.019667	543.837891	50.503319
29467.451755	-1338.019667	542.593750	75.514351
29467.451755	-1338.019667	541.349609	-366.476624
29467.451755	-1338.019667	540.105469	169.494537
29467.451755	-1338.019667	538.860352	121.750732
29467.451755	-1338.019667	537.615234	328.068329
29467.451755	-1338.019667	536.369141	85.848366
29467.451755	-1338.019667	535.124023	185.788925
29467.451755	-1338.019667	533.877930	254.564728
29467.451755	-1338.019667	532.631836	341.424988
29467.451755	-1338.019667	531.384766	-81.960754
29467.451755	-1338.019667	530.138672	25.619440
29467.451755	-1338.019667	528.891602	306.570740
29467.451755	-1338.019667	527.643555	274.223694
29467.451755	-1338.019667	526.396484	128.043198
29467.451755	-1338.019667	525.148438	124.194168
29467.451755	-1338.019667	523.900391	122.932770
29467.451755	-1338.019667	522.652344	36.338573
29467.451755	-1338.019667	521.403320	203.135941
29467.451755	-1338.019667	520.154297	111.391518
29467.451755	-1338.019667	518.905273	81.716156
29467.451755	-1338.019667	517.656250	67.565392
29467.451755	-1338.019667	516.406250	-96.394958
29467.451755	-1338.019667	515.156250	34.139977
29467.451755	-1338.019667	513.906250	-85.815681
29467.451755	-1338.019667	512.655273	129.876556
29467.451755	-1338.019667	511.404297	182.903320
29467.451755	-1338.019667	510.153320	-65.964470
29467.451755	-1338.019667	508.902344	10.352654
29467.451755	-1338.019667	507.650391	-194.477493
29467.451755	-1338.019667	506.398438	-303.776245
29467.451755	-1338.019667	505.146484	115.518181
29467.451755	-1338.019667	503.893555	-40.135330
29467.451755	-1338.019667	502.641602	41.410793
29467.451755	-1338.019667	501.388672	192.517303
29467.451755	-1338.019667	500.134766	176.159088
29467.451755	-1338.019667	498.881836	435.424774
29467.451755	-1338.019667	497.627930	377.918427
29467.451755	-1338.019667	496.374023	150.587616
29467.451755	-1338.019667	495.119141	330.036682
29467.451755	-1338.019667	493.865234	174.967041
29467.451755	-1338.019667	492.610352	302.991608
29467.451755	-1338.019667	491.355469	199.536118
29467.451755	-1338.019667	490.099609	65.318130
29467.451755	-1338.019667	488.843750	160.028778
29467.451755	-1338.019667	487.587891	-69.102875
29467.451755	-1338.019667	486.332031	187.619980
29467.451755	-1338.019667	485.075195	207.916779
29467.451755	-1338.019667	483.818359	94.699783
29467.451755	-1338.019667	482.561523	-136.534668
29467.451755	-1338.019667	481.304688	89.429398
29467.451755	-1338.019667	480.046875	22.715591
29467.451755	-1338.019667	478.789063	-87.528107
29467.451755	-1338.019667	477.531250	-213.047958
29467.451755	-1338.019667	476.272461	33.528557
29467.451755	-1338.019667	475.013672	-179.030014
29467.451755	-1338.019667	473.754883	-165.767151
29467.451755	-1338.019667	472.496094	-111.416893
29467.451755	-1338.019667	471.236328	-208.249542
29467.451755	-1338.019667	469.976563	48.672592
29467.451755	-1338.019667	468.716797	-24.944492
29467.451755	-1338.019667	467.456055	-52.357681
29467.451755	-1338.019667	466.196289	132.882568
29467.451755	-1338.019667	464.935547	-201.651611
29467.451755	-1338.019667	463.673828	119.342003
29467.451755	-1338.019667	462.413086	48.708576
29467.451755	-1338.019667	461.151367	83.075768
29467.451755	-1338.019667	459.889648	-97.389069
29467.451755	-1338.019667	458.626953	162.197037
29467.451755	-1338.019667	457.364258	-71.776405
29467.451755	-1338.019667	456.101563	-129.183289
29467.451755	-1338.019667	454.838867	-97.042252
29467.451755	-1338.019667	453.575195	-13.754124
29467.451755	-1338.019667	452.312500	26.133106
29467.451755	-1338.019667	451.047852	219.301941
29467.451755	-1338.019667	449.784180	93.229271
29467.451755	-1338.019667	448.519531	-17.427032
29467.451755	-1338.019667	447.254883	-53.962334
29467.451755	-1338.019667	445.990234	-189.969208
29467.451755	-1338.019667	444.725586	-70.723076
29467.451755	-1338.019667	443.459961	191.354950
29467.451755	-1338.019667	442.194336	52.930206
29467.451755	-1338.019667	440.927734	-24.219728
29467.451755	-1338.019667	439.662109	250.503174
29467.451755	-1338.019667	438.395508	51.039188
29467.451755	-1338.019667	437.127930	200.772278
29467.451755	-1338.019667	435.861328	52.372601
29467.451755	-1338.019667	434.593750	-258.989960
29467.451755	-1338.019667	433.326172	-305.382050
29467.451755	-1338.019667	432.058594	109.061325
29467.451755	-1338.019667	430.790039	77.833839
29467.451755	-1338.019667	429.521484	13.503536
29467.451755	-1338.019667	428.252930	63.657856
29467.451755	-1338.019667	426.984375	93.391655
29467.451755	-1338.019667	425.714844	6.054339
29467.451755	-1338.019667	424.445313	295.012238
29467.451755	-1338.019667	423.174805	225.311066
29467.451755	-1338.019667	421.905273	186.060562
29467.451755	-1338.019667	420.634766	103.521278
29467.451755	-1338.019667	419.364258	302.906555
29467.451755	-1338.019667	418.092773	253.155487
29467.451755	-1338.019667	416.822266	132.197815
29467.451755	-1338.019667	415.550781	74.607880
29467.451755	-1338.019667	414.278320	-84.659157
29467.451755	-1338.019667	413.006836	47.819721
29467.451755	-1338.019667	411.734375	-60.990871
29467.451755	-1338.019667	410.461914	-93.860001
29467.451755	-1338.019667	409.188477	210.360641
29467.451755	-1338.019667	407.916016	-46.138443
29467.451755	-1338.019667	406.642578	21.694647
29467.451755	-1338.019667	405.368164	-37.507507
29467.451755	-1338.019667	404.094727	131.092392
29467.451755	-1338.019667	402.820313	129.565613
29467.451755	-1338.019667	401.545898	213.828506
29467.451755	-1338.019667	400.270508	231.858398
29467.451755	-1338.019667	398.996094	100.154015
29467.451755	-1338.019667	397.720703	107.320946
29467.451755	-1338.019667	396.444336	253.244614
29467.451755	-1338.019667	395.168945	120.376465
29467.451755	-1338.019667	393.892578	265.341492
29467.451755	-1338.019667	392.616211	159.394760
29467.451755	-1338.019667	391.339844	222.392242
29467.451755	-1338.019667	390.062500	-26.115326
29467.451755	-1338.019667	388.785156	136.879684
29467.451755	-1338.019667	387.507813	99.599968
29467.451755	-1338.019667	386.229492	182.963486
29467.451755	-1338.019667	384.951172	336.361298
29467.451755	-1338.019667	383.672852	127.923683
29467.451755	-1338.019667	382.394531	135.983078
29467.451755	-1338.019667	381.115234	468.879486
29467.451755	-1338.019667	379.835938	384.482788
29467.451755	-1338.019667	378.556641	188.304260
29467.451755	-1338.019667	377.277344	36.772186
29467.451755	-1338.019667	375.997070	199.636169
29467.451755	-1338.019667	374.716797	16.096489
29467.451755	-1338.019667	373.435547	255.141403
29467.451755	-1338.019667	372.155273	278.892426
29467.451755	-1338.019667	370.874023	4.259306
29467.451755	-1338.019667	369.591797	30.933064
29467.451755	-1338.019667	368.310547	91.759232
29467.451755	-1338.019667	367.028320	138.777924
29467.451755	-1338.019667	365.746094	227.360626
29467.451755	-1338.019667	364.463867	-85.536301
29467.451755	-1338.019667	363.180664	35.695976
29467.451755	-1338.019667	361.897461	7.090041
29467.451755	-1338.019667	360.614258	97.823112
29467.451755	-1338.019667	359.330078	116.618065
29467.451755	-1338.019667	358.045898	176.633514
29467.451755	-1338.019667	356.761719	86.753654
29467.451755	-1338.019667	355.477539	35.503872
29467.451755	-1338.019667	354.192383	-77.737228
29467.451755	-1338.019667	352.907227	88.670403
29467.451755	-1338.019667	351.622070	130.150223
29467.451755	-1338.019667	350.336914	-181.768341
29467.451755	-1338.019667	349.050781	86.879555
29467.451755	-1338.019667	347.764648	130.053513
29467.451755	-1338.019667	346.477539	-222.840607
29467.451755	-1338.019667	345.191406	-118.572571
29467.451755	-1338.019667	343.904297	-187.141586
29467.451755	-1338.019667	342.616211	-413.466370
29467.451755	-1338.019667	341.329102	-215.786377
29467.451755	-1338.019667	340.041016	129.731537
29467.451755	-1338.019667	338.752930	-26.076660
29467.451755	-1338.019667	337.463867	171.320984
29467.451755	-1338.019667	336.175781	50.428989
29467.451755	-1338.019667	334.886719	-0.580481
29467.451755	-1338.019667	333.596680	3.137533
29467.451755	-1338.019667	332.307617	-176.222260
29467.451755	-1338.019667	331.017578	-38.220924
29467.451755	-1338.019667	329.727539	4.054184
29467.451755	-1338.019667	328.436523	-142.055923
29467.451755	-1338.019667	327.146484	26.325562
29467.451755	-1338.019667	325.855469	-48.856079
29467.451755	-1338.019667	324.563477	-110.054642
29467.451755	-1338.019667	323.272461	-309.687347
29467.451755	-1338.019667	321.980469	146.702209
29467.451755	-1338.019667	320.688477	116.938873
29467.451755	-1338.019667	319.395508	183.116653
29467.451755	-1338.019667	318.103516	257.841400
29467.451755	-1338.019667	316.810547	508.082367
29467.451755	-1338.019667	315.516602	466.829102
29467.451755	-1338.019667	314.223633	593.538452
29467.451755	-1338.019667	312.929688	483.581116
29467.451755	-1338.019667	311.635742	281.766327
29467.451755	-1338.019667	310.340820	105.134308
29467.451755	-1338.019667	309.045898	90.780731
29467.451755	-1338.019667	307.750977	61.478184
29467.451755	-1338.019667	306.456055	196.545471
29467.451755	-1338.019667	305.160156	86.965752
29467.451755	-1338.019667	303.865234	104.200745
29467.451755	-1338.019667	302.568359	242.645386
29467.451755	-1338.019667	301.272461	-107.602234
29467.451755	-1338.019667	299.975586	163.696823
29467.451755	-1338.019667	298.678711	70.468567
