#X		#Y		#Wave		#Intensity
-164.617021	5639.076667	1999.946289	13.332483
-164.617021	5639.076667	1998.981445	57.461983
-164.617021	5639.076667	1998.017578	-55.461811
-164.617021	5639.076667	1997.052734	-156.079041
-164.617021	5639.076667	1996.088867	-26.363338
-164.617021	5639.076667	1995.124023	-20.674980
-164.617021	5639.076667	1994.159180	93.870041
-164.617021	5639.076667	1993.193359	72.063828
-164.617021	5639.076667	1992.228516	25.394884
-164.617021	5639.076667	1991.262695	75.175087
-164.617021	5639.076667	1990.296875	72.858246
-164.617021	5639.076667	1989.331055	35.798248
-164.617021	5639.076667	1988.365234	50.605755
-164.617021	5639.076667	1987.398438	-43.522850
-164.617021	5639.076667	1986.432617	-80.830582
-164.617021	5639.076667	1985.465820	-44.036930
-164.617021	5639.076667	1984.499023	-121.064041
-164.617021	5639.076667	1983.532227	71.265846
-164.617021	5639.076667	1982.565430	-28.164003
-164.617021	5639.076667	1981.597656	-13.981550
-164.617021	5639.076667	1980.629883	-44.348289
-164.617021	5639.076667	1979.662109	110.459221
-164.617021	5639.076667	1978.694336	116.972473
-164.617021	5639.076667	1977.726563	91.316406
-164.617021	5639.076667	1976.758789	154.466507
-164.617021	5639.076667	1975.790039	-4.595330
-164.617021	5639.076667	1974.821289	-25.479183
-164.617021	5639.076667	1973.852539	126.279785
-164.617021	5639.076667	1972.883789	53.458134
-164.617021	5639.076667	1971.915039	64.455414
-164.617021	5639.076667	1970.945313	43.338188
-164.617021	5639.076667	1969.975586	61.618542
-164.617021	5639.076667	1969.005859	111.882896
-164.617021	5639.076667	1968.036133	1.895386
-164.617021	5639.076667	1967.066406	0.311674
-164.617021	5639.076667	1966.096680	15.926313
-164.617021	5639.076667	1965.125977	88.137840
-164.617021	5639.076667	1964.155273	29.765501
-164.617021	5639.076667	1963.184570	-13.854032
-164.617021	5639.076667	1962.213867	198.509659
-164.617021	5639.076667	1961.242188	172.023819
-164.617021	5639.076667	1960.271484	69.231049
-164.617021	5639.076667	1959.299805	59.928955
-164.617021	5639.076667	1958.328125	-94.529984
-164.617021	5639.076667	1957.356445	92.881332
-164.617021	5639.076667	1956.384766	49.059105
-164.617021	5639.076667	1955.412109	29.806404
-164.617021	5639.076667	1954.439453	22.822607
-164.617021	5639.076667	1953.467773	33.018349
-164.617021	5639.076667	1952.495117	-55.098000
-164.617021	5639.076667	1951.521484	-62.140247
-164.617021	5639.076667	1950.548828	9.394383
-164.617021	5639.076667	1949.575195	61.233257
-164.617021	5639.076667	1948.601563	-49.010960
-164.617021	5639.076667	1947.627930	282.620361
-164.617021	5639.076667	1946.654297	29.988453
-164.617021	5639.076667	1945.680664	93.977402
-164.617021	5639.076667	1944.706055	-16.264856
-164.617021	5639.076667	1943.732422	15.788925
-164.617021	5639.076667	1942.757813	69.886642
-164.617021	5639.076667	1941.783203	-15.813725
-164.617021	5639.076667	1940.807617	-74.529388
-164.617021	5639.076667	1939.833008	-94.016075
-164.617021	5639.076667	1938.857422	131.555435
-164.617021	5639.076667	1937.881836	75.262016
-164.617021	5639.076667	1936.906250	65.524895
-164.617021	5639.076667	1935.930664	4.347777
-164.617021	5639.076667	1934.955078	26.445278
-164.617021	5639.076667	1933.978516	9.352133
-164.617021	5639.076667	1933.001953	170.955444
-164.617021	5639.076667	1932.025391	21.667500
-164.617021	5639.076667	1931.048828	-103.100388
-164.617021	5639.076667	1930.072266	-63.908619
-164.617021	5639.076667	1929.094727	87.782761
-164.617021	5639.076667	1928.118164	41.319954
-164.617021	5639.076667	1927.140625	16.876957
-164.617021	5639.076667	1926.163086	-73.566238
-164.617021	5639.076667	1925.184570	7.118364
-164.617021	5639.076667	1924.207031	-39.303913
-164.617021	5639.076667	1923.228516	-19.740953
-164.617021	5639.076667	1922.250000	119.515427
-164.617021	5639.076667	1921.271484	4.707376
-164.617021	5639.076667	1920.292969	51.113144
-164.617021	5639.076667	1919.314453	163.423569
-164.617021	5639.076667	1918.334961	51.113945
-164.617021	5639.076667	1917.355469	2.303977
-164.617021	5639.076667	1916.375977	31.598999
-164.617021	5639.076667	1915.396484	-87.935715
-164.617021	5639.076667	1914.416992	129.191864
-164.617021	5639.076667	1913.436523	134.065826
-164.617021	5639.076667	1912.457031	-34.178894
-164.617021	5639.076667	1911.476563	-14.641987
-164.617021	5639.076667	1910.496094	-34.107693
-164.617021	5639.076667	1909.515625	70.723541
-164.617021	5639.076667	1908.534180	4.962638
-164.617021	5639.076667	1907.552734	-2.304101
-164.617021	5639.076667	1906.572266	-138.648361
-164.617021	5639.076667	1905.590820	31.889973
-164.617021	5639.076667	1904.608398	90.372345
-164.617021	5639.076667	1903.626953	58.773071
-164.617021	5639.076667	1902.644531	-2.015878
-164.617021	5639.076667	1901.663086	-16.541981
-164.617021	5639.076667	1900.680664	-31.058277
-164.617021	5639.076667	1899.698242	-13.941982
-164.617021	5639.076667	1898.714844	-11.419656
-164.617021	5639.076667	1897.732422	64.054382
-164.617021	5639.076667	1896.749023	127.349670
-164.617021	5639.076667	1895.765625	13.193394
-164.617021	5639.076667	1894.782227	-18.288406
-164.617021	5639.076667	1893.798828	-37.604485
-164.617021	5639.076667	1892.814453	-18.040495
-164.617021	5639.076667	1891.831055	3.952999
-164.617021	5639.076667	1890.846680	103.648872
-164.617021	5639.076667	1889.862305	13.940238
-164.617021	5639.076667	1888.877930	11.658639
-164.617021	5639.076667	1887.892578	-5.179353
-164.617021	5639.076667	1886.908203	-9.870601
-164.617021	5639.076667	1885.922852	-106.745476
-164.617021	5639.076667	1884.937500	-11.955130
-164.617021	5639.076667	1883.952148	-72.403900
-164.617021	5639.076667	1882.965820	-72.207794
-164.617021	5639.076667	1881.980469	-25.943558
-164.617021	5639.076667	1880.994141	51.817005
-164.617021	5639.076667	1880.007813	20.504225
-164.617021	5639.076667	1879.021484	124.890480
-164.617021	5639.076667	1878.035156	20.915133
-164.617021	5639.076667	1877.047852	35.659698
-164.617021	5639.076667	1876.061523	64.934509
-164.617021	5639.076667	1875.074219	11.886068
-164.617021	5639.076667	1874.086914	-43.557079
-164.617021	5639.076667	1873.098633	48.653378
-164.617021	5639.076667	1872.111328	-35.801697
-164.617021	5639.076667	1871.123047	87.833122
-164.617021	5639.076667	1870.135742	204.171768
-164.617021	5639.076667	1869.147461	129.421844
-164.617021	5639.076667	1868.158203	78.881546
-164.617021	5639.076667	1867.169922	50.123280
-164.617021	5639.076667	1866.180664	-12.459324
-164.617021	5639.076667	1865.192383	26.481493
-164.617021	5639.076667	1864.203125	-50.561012
-164.617021	5639.076667	1863.213867	48.769817
-164.617021	5639.076667	1862.223633	-8.920078
-164.617021	5639.076667	1861.234375	-52.095497
-164.617021	5639.076667	1860.244141	-116.980446
-164.617021	5639.076667	1859.253906	-150.458527
-164.617021	5639.076667	1858.263672	-14.986457
-164.617021	5639.076667	1857.273438	60.115765
-164.617021	5639.076667	1856.282227	36.280743
-164.617021	5639.076667	1855.291992	70.346359
-164.617021	5639.076667	1854.300781	24.819103
-164.617021	5639.076667	1853.309570	-3.810641
-164.617021	5639.076667	1852.317383	-8.322669
-164.617021	5639.076667	1851.326172	-48.982651
-164.617021	5639.076667	1850.333984	-26.974012
-164.617021	5639.076667	1849.342773	7.075745
-164.617021	5639.076667	1848.350586	101.332809
-164.617021	5639.076667	1847.357422	-30.831900
-164.617021	5639.076667	1846.365234	5.609367
-164.617021	5639.076667	1845.372070	102.222710
-164.617021	5639.076667	1844.379883	25.496824
-164.617021	5639.076667	1843.386719	-56.013908
-164.617021	5639.076667	1842.393555	67.024597
-164.617021	5639.076667	1841.399414	38.460011
-164.617021	5639.076667	1840.406250	48.389885
-164.617021	5639.076667	1839.412109	48.695766
-164.617021	5639.076667	1838.417969	-92.852715
-164.617021	5639.076667	1837.423828	58.920029
-164.617021	5639.076667	1836.429688	44.800915
-164.617021	5639.076667	1835.434570	81.146393
-164.617021	5639.076667	1834.440430	-48.293640
-164.617021	5639.076667	1833.445313	103.350166
-164.617021	5639.076667	1832.450195	-141.325668
-164.617021	5639.076667	1831.454102	60.697186
-164.617021	5639.076667	1830.458984	-23.037176
-164.617021	5639.076667	1829.462891	39.669926
-164.617021	5639.076667	1828.466797	1.560295
-164.617021	5639.076667	1827.470703	23.445274
-164.617021	5639.076667	1826.474609	50.117157
-164.617021	5639.076667	1825.478516	0.026440
-164.617021	5639.076667	1824.481445	55.460224
-164.617021	5639.076667	1823.484375	264.310242
-164.617021	5639.076667	1822.487305	10.446424
-164.617021	5639.076667	1821.490234	-6.062068
-164.617021	5639.076667	1820.493164	8.581460
-164.617021	5639.076667	1819.495117	-17.512655
-164.617021	5639.076667	1818.498047	35.443176
-164.617021	5639.076667	1817.500000	95.557495
-164.617021	5639.076667	1816.500977	33.531780
-164.617021	5639.076667	1815.502930	110.371422
-164.617021	5639.076667	1814.504883	57.931385
-164.617021	5639.076667	1813.505859	62.935764
-164.617021	5639.076667	1812.506836	-1.450225
-164.617021	5639.076667	1811.507813	-41.896660
-164.617021	5639.076667	1810.508789	42.031357
-164.617021	5639.076667	1809.508789	3.970505
-164.617021	5639.076667	1808.508789	16.122652
-164.617021	5639.076667	1807.508789	-14.760400
-164.617021	5639.076667	1806.508789	-0.231534
-164.617021	5639.076667	1805.508789	109.859978
-164.617021	5639.076667	1804.508789	45.512047
-164.617021	5639.076667	1803.507813	7.453609
-164.617021	5639.076667	1802.506836	138.951523
-164.617021	5639.076667	1801.505859	74.612587
-164.617021	5639.076667	1800.504883	177.388809
-164.617021	5639.076667	1799.502930	129.757172
-164.617021	5639.076667	1798.501953	82.137848
-164.617021	5639.076667	1797.500000	20.212919
-164.617021	5639.076667	1796.498047	8.394819
-164.617021	5639.076667	1795.496094	146.819656
-164.617021	5639.076667	1794.493164	-34.328098
-164.617021	5639.076667	1793.491211	39.669655
-164.617021	5639.076667	1792.488281	104.095551
-164.617021	5639.076667	1791.485352	178.020752
-164.617021	5639.076667	1790.482422	206.639969
-164.617021	5639.076667	1789.478516	63.723595
-164.617021	5639.076667	1788.475586	-62.474060
-164.617021	5639.076667	1787.471680	18.534670
-164.617021	5639.076667	1786.467773	47.125675
-164.617021	5639.076667	1785.463867	1.906774
-164.617021	5639.076667	1784.459961	144.706985
-164.617021	5639.076667	1783.455078	35.221943
-164.617021	5639.076667	1782.450195	68.508270
-164.617021	5639.076667	1781.445313	-100.403366
-164.617021	5639.076667	1780.440430	51.781891
-164.617021	5639.076667	1779.435547	237.186523
-164.617021	5639.076667	1778.429688	-48.173061
-164.617021	5639.076667	1777.424805	-0.689287
-164.617021	5639.076667	1776.418945	122.805519
-164.617021	5639.076667	1775.413086	-5.594350
-164.617021	5639.076667	1774.406250	39.446342
-164.617021	5639.076667	1773.400391	120.085045
-164.617021	5639.076667	1772.393555	36.842411
-164.617021	5639.076667	1771.386719	-20.264383
-164.617021	5639.076667	1770.379883	-34.635284
-164.617021	5639.076667	1769.373047	76.765305
-164.617021	5639.076667	1768.365234	-58.647320
-164.617021	5639.076667	1767.358398	74.044662
-164.617021	5639.076667	1766.350586	33.534664
-164.617021	5639.076667	1765.342773	12.000584
-164.617021	5639.076667	1764.334961	-35.615711
-164.617021	5639.076667	1763.326172	40.036095
-164.617021	5639.076667	1762.318359	82.470612
-164.617021	5639.076667	1761.309570	120.138016
-164.617021	5639.076667	1760.300781	-81.495651
-164.617021	5639.076667	1759.291016	53.278790
-164.617021	5639.076667	1758.282227	109.844200
-164.617021	5639.076667	1757.272461	57.460258
-164.617021	5639.076667	1756.262695	9.820113
-164.617021	5639.076667	1755.252930	-47.279369
-164.617021	5639.076667	1754.243164	-52.307911
-164.617021	5639.076667	1753.233398	-26.588266
-164.617021	5639.076667	1752.222656	115.016930
-164.617021	5639.076667	1751.211914	69.721382
-164.617021	5639.076667	1750.201172	-63.055946
-164.617021	5639.076667	1749.190430	135.182022
-164.617021	5639.076667	1748.179688	80.422134
-164.617021	5639.076667	1747.167969	132.015091
-164.617021	5639.076667	1746.156250	27.636082
-164.617021	5639.076667	1745.144531	62.662094
-164.617021	5639.076667	1744.132813	81.131241
-164.617021	5639.076667	1743.121094	118.474701
-164.617021	5639.076667	1742.108398	-33.085751
-164.617021	5639.076667	1741.095703	105.743790
-164.617021	5639.076667	1740.083008	-45.777355
-164.617021	5639.076667	1739.070313	0.956322
-164.617021	5639.076667	1738.057617	9.915079
-164.617021	5639.076667	1737.043945	-61.337547
-164.617021	5639.076667	1736.030273	-24.093533
-164.617021	5639.076667	1735.016602	13.125697
-164.617021	5639.076667	1734.002930	-72.261353
-164.617021	5639.076667	1732.989258	80.421165
-164.617021	5639.076667	1731.974609	-61.523998
-164.617021	5639.076667	1730.959961	-14.943927
-164.617021	5639.076667	1729.945313	19.830385
-164.617021	5639.076667	1728.930664	-46.687809
-164.617021	5639.076667	1727.916016	-49.615139
-164.617021	5639.076667	1726.900391	-26.656693
-164.617021	5639.076667	1725.885742	102.204353
-164.617021	5639.076667	1724.870117	40.386856
-164.617021	5639.076667	1723.853516	-0.242914
-164.617021	5639.076667	1722.837891	-132.608521
-164.617021	5639.076667	1721.822266	101.971680
-164.617021	5639.076667	1720.805664	-89.171310
-164.617021	5639.076667	1719.789063	51.248352
-164.617021	5639.076667	1718.772461	-19.949417
-164.617021	5639.076667	1717.754883	12.275848
-164.617021	5639.076667	1716.738281	96.175507
-164.617021	5639.076667	1715.720703	10.885096
-164.617021	5639.076667	1714.703125	90.035225
-164.617021	5639.076667	1713.685547	68.167015
-164.617021	5639.076667	1712.667969	-12.399133
-164.617021	5639.076667	1711.649414	-111.724823
-164.617021	5639.076667	1710.630859	21.332809
-164.617021	5639.076667	1709.612305	-61.552311
-164.617021	5639.076667	1708.593750	73.774223
-164.617021	5639.076667	1707.575195	2.622574
-164.617021	5639.076667	1706.555664	34.677696
-164.617021	5639.076667	1705.536133	62.022427
-164.617021	5639.076667	1704.516602	26.052876
-164.617021	5639.076667	1703.497070	-38.036991
-164.617021	5639.076667	1702.477539	17.403822
-164.617021	5639.076667	1701.457031	-23.247383
-164.617021	5639.076667	1700.437500	144.594986
-164.617021	5639.076667	1699.416992	36.000343
-164.617021	5639.076667	1698.395508	-159.201111
-164.617021	5639.076667	1697.375000	-0.817802
-164.617021	5639.076667	1696.354492	47.484600
-164.617021	5639.076667	1695.333008	-117.204224
-164.617021	5639.076667	1694.311523	-59.554268
-164.617021	5639.076667	1693.290039	-11.290514
-164.617021	5639.076667	1692.267578	-9.832562
-164.617021	5639.076667	1691.246094	82.821297
-164.617021	5639.076667	1690.223633	2.418141
-164.617021	5639.076667	1689.201172	109.044350
-164.617021	5639.076667	1688.178711	-8.738914
-164.617021	5639.076667	1687.155273	46.428516
-164.617021	5639.076667	1686.132813	-31.593203
-164.617021	5639.076667	1685.109375	46.903419
-164.617021	5639.076667	1684.085938	17.940334
-164.617021	5639.076667	1683.062500	-4.012597
-164.617021	5639.076667	1682.039063	-39.968414
-164.617021	5639.076667	1681.014648	-8.232506
-164.617021	5639.076667	1679.990234	-11.516786
-164.617021	5639.076667	1678.965820	55.187675
-164.617021	5639.076667	1677.941406	21.559246
-164.617021	5639.076667	1676.916992	22.922285
-164.617021	5639.076667	1675.891602	66.248741
-164.617021	5639.076667	1674.866211	-25.659122
-164.617021	5639.076667	1673.840820	113.215927
-164.617021	5639.076667	1672.815430	-4.307604
-164.617021	5639.076667	1671.790039	18.005783
-164.617021	5639.076667	1670.763672	5.362891
-164.617021	5639.076667	1669.737305	41.630936
-164.617021	5639.076667	1668.710938	-45.532707
-164.617021	5639.076667	1667.684570	20.990273
-164.617021	5639.076667	1666.658203	94.467606
-164.617021	5639.076667	1665.630859	35.259403
-164.617021	5639.076667	1664.603516	24.934065
-164.617021	5639.076667	1663.576172	37.873093
-164.617021	5639.076667	1662.548828	-9.667994
-164.617021	5639.076667	1661.520508	-113.005356
-164.617021	5639.076667	1660.493164	74.319946
-164.617021	5639.076667	1659.464844	-15.050635
-164.617021	5639.076667	1658.436523	39.704247
-164.617021	5639.076667	1657.408203	78.171158
-164.617021	5639.076667	1656.378906	-115.698959
-164.617021	5639.076667	1655.350586	-100.447174
-164.617021	5639.076667	1654.321289	65.744247
-164.617021	5639.076667	1653.291992	-21.210594
-164.617021	5639.076667	1652.261719	7.935140
-164.617021	5639.076667	1651.232422	113.661385
-164.617021	5639.076667	1650.202148	80.114960
-164.617021	5639.076667	1649.171875	62.821320
-164.617021	5639.076667	1648.141602	122.079918
-164.617021	5639.076667	1647.111328	-73.789268
-164.617021	5639.076667	1646.080078	-142.057480
-164.617021	5639.076667	1645.049805	42.391937
-164.617021	5639.076667	1644.018555	4.259522
-164.617021	5639.076667	1642.987305	-45.443939
-164.617021	5639.076667	1641.955078	4.496164
-164.617021	5639.076667	1640.923828	56.736500
-164.617021	5639.076667	1639.891602	85.795006
-164.617021	5639.076667	1638.859375	96.319183
-164.617021	5639.076667	1637.827148	-13.545314
-164.617021	5639.076667	1636.794922	-37.723156
-164.617021	5639.076667	1635.761719	60.759560
-164.617021	5639.076667	1634.729492	62.030659
-164.617021	5639.076667	1633.696289	-98.630173
-164.617021	5639.076667	1632.662109	106.201538
-164.617021	5639.076667	1631.628906	88.967056
-164.617021	5639.076667	1630.594727	25.499815
-164.617021	5639.076667	1629.561523	-123.463516
-164.617021	5639.076667	1628.527344	-119.839508
-164.617021	5639.076667	1627.493164	68.635017
-164.617021	5639.076667	1626.458008	35.261135
-164.617021	5639.076667	1625.423828	101.222748
-164.617021	5639.076667	1624.388672	72.479782
-164.617021	5639.076667	1623.353516	101.471176
-164.617021	5639.076667	1622.318359	75.053993
-164.617021	5639.076667	1621.282227	-15.973613
-164.617021	5639.076667	1620.247070	63.792934
-164.617021	5639.076667	1619.210938	14.336538
-164.617021	5639.076667	1618.174805	43.326092
-164.617021	5639.076667	1617.137695	70.000687
-164.617021	5639.076667	1616.101563	36.723343
-164.617021	5639.076667	1615.064453	12.681588
-164.617021	5639.076667	1614.027344	-9.041637
-164.617021	5639.076667	1612.990234	-125.229416
-164.617021	5639.076667	1611.953125	21.274616
-164.617021	5639.076667	1610.916016	29.520388
-164.617021	5639.076667	1609.877930	44.674751
-164.617021	5639.076667	1608.839844	32.197559
-164.617021	5639.076667	1607.801758	15.126039
-164.617021	5639.076667	1606.763672	-36.458157
-164.617021	5639.076667	1605.724609	-5.176725
-164.617021	5639.076667	1604.685547	26.098125
-164.617021	5639.076667	1603.646484	25.161919
-164.617021	5639.076667	1602.607422	15.032825
-164.617021	5639.076667	1601.568359	-96.260239
-164.617021	5639.076667	1600.528320	-5.199302
-164.617021	5639.076667	1599.489258	76.640465
-164.617021	5639.076667	1598.449219	75.722137
-164.617021	5639.076667	1597.408203	134.545853
-164.617021	5639.076667	1596.368164	165.789307
-164.617021	5639.076667	1595.327148	102.859978
-164.617021	5639.076667	1594.287109	-40.405285
-164.617021	5639.076667	1593.246094	2.350219
-164.617021	5639.076667	1592.204102	61.160789
-164.617021	5639.076667	1591.163086	119.957474
-164.617021	5639.076667	1590.121094	114.490570
-164.617021	5639.076667	1589.079102	102.150940
-164.617021	5639.076667	1588.037109	202.207703
-164.617021	5639.076667	1586.995117	88.972961
-164.617021	5639.076667	1585.953125	97.301300
-164.617021	5639.076667	1584.910156	78.124329
-164.617021	5639.076667	1583.867188	127.715691
-164.617021	5639.076667	1582.824219	85.641861
-164.617021	5639.076667	1581.781250	-45.751377
-164.617021	5639.076667	1580.737305	49.663429
-164.617021	5639.076667	1579.693359	-67.918251
-164.617021	5639.076667	1578.649414	68.690651
-164.617021	5639.076667	1577.605469	97.667465
-164.617021	5639.076667	1576.561523	-24.408163
-164.617021	5639.076667	1575.516602	20.606403
-164.617021	5639.076667	1574.472656	-51.060219
-164.617021	5639.076667	1573.427734	16.831264
-164.617021	5639.076667	1572.381836	-43.360657
-164.617021	5639.076667	1571.336914	63.387989
-164.617021	5639.076667	1570.291016	92.379044
-164.617021	5639.076667	1569.246094	146.509003
-164.617021	5639.076667	1568.200195	127.503571
-164.617021	5639.076667	1567.153320	-87.963356
-164.617021	5639.076667	1566.107422	158.062286
-164.617021	5639.076667	1565.060547	63.727634
-164.617021	5639.076667	1564.013672	53.918419
-164.617021	5639.076667	1562.966797	30.424721
-164.617021	5639.076667	1561.919922	-6.744627
-164.617021	5639.076667	1560.872070	90.739632
-164.617021	5639.076667	1559.825195	169.944702
-164.617021	5639.076667	1558.777344	105.422607
-164.617021	5639.076667	1557.729492	59.178646
-164.617021	5639.076667	1556.680664	149.767197
-164.617021	5639.076667	1555.632813	32.881374
-164.617021	5639.076667	1554.583984	-129.535141
-164.617021	5639.076667	1553.535156	4.360302
-164.617021	5639.076667	1552.486328	65.306511
-164.617021	5639.076667	1551.436523	146.736801
-164.617021	5639.076667	1550.387695	71.003838
-164.617021	5639.076667	1549.337891	43.124653
-164.617021	5639.076667	1548.288086	-9.775935
-164.617021	5639.076667	1547.238281	96.678551
-164.617021	5639.076667	1546.187500	36.978119
-164.617021	5639.076667	1545.136719	2.337399
-164.617021	5639.076667	1544.086914	63.260044
-164.617021	5639.076667	1543.035156	49.113552
-164.617021	5639.076667	1541.984375	50.900070
-164.617021	5639.076667	1540.933594	86.796135
-164.617021	5639.076667	1539.881836	4.493460
-164.617021	5639.076667	1538.830078	-20.955503
-164.617021	5639.076667	1537.778320	33.136253
-164.617021	5639.076667	1536.725586	-28.636700
-164.617021	5639.076667	1535.673828	34.538944
-164.617021	5639.076667	1534.621094	-13.567109
-164.617021	5639.076667	1533.568359	1.922735
-164.617021	5639.076667	1532.515625	49.192547
-164.617021	5639.076667	1531.461914	-17.015606
-164.617021	5639.076667	1530.409180	89.249657
-164.617021	5639.076667	1529.355469	52.568199
-164.617021	5639.076667	1528.301758	31.786785
-164.617021	5639.076667	1527.247070	-95.554634
-164.617021	5639.076667	1526.193359	24.281376
-164.617021	5639.076667	1525.138672	37.544174
-164.617021	5639.076667	1524.083984	270.634186
-164.617021	5639.076667	1523.029297	11.969379
-164.617021	5639.076667	1521.974609	-44.970806
-164.617021	5639.076667	1520.918945	36.277462
-164.617021	5639.076667	1519.863281	-13.834641
-164.617021	5639.076667	1518.807617	-91.084984
-164.617021	5639.076667	1517.751953	78.429230
-164.617021	5639.076667	1516.696289	23.840284
-164.617021	5639.076667	1515.639648	-3.568126
-164.617021	5639.076667	1514.583008	95.726402
-164.617021	5639.076667	1513.526367	20.836613
-164.617021	5639.076667	1512.469727	-26.879131
-164.617021	5639.076667	1511.412109	58.821381
-164.617021	5639.076667	1510.355469	-29.552269
-164.617021	5639.076667	1509.297852	-47.825169
-164.617021	5639.076667	1508.240234	-9.594122
-164.617021	5639.076667	1507.181641	-154.354187
-164.617021	5639.076667	1506.124023	-32.531414
-164.617021	5639.076667	1505.065430	-25.915665
-164.617021	5639.076667	1504.006836	-8.005154
-164.617021	5639.076667	1502.948242	0.877797
-164.617021	5639.076667	1501.888672	-107.589966
-164.617021	5639.076667	1500.830078	-103.186142
-164.617021	5639.076667	1499.770508	-82.986160
-164.617021	5639.076667	1498.710938	-74.062508
-164.617021	5639.076667	1497.650391	-74.155792
-164.617021	5639.076667	1496.590820	-11.111654
-164.617021	5639.076667	1495.530273	-81.078705
-164.617021	5639.076667	1494.469727	27.030680
-164.617021	5639.076667	1493.409180	128.345337
-164.617021	5639.076667	1492.348633	-76.750511
-164.617021	5639.076667	1491.287109	24.559675
-164.617021	5639.076667	1490.225586	38.013405
-164.617021	5639.076667	1489.164063	-121.891350
-164.617021	5639.076667	1488.102539	37.916615
-164.617021	5639.076667	1487.041016	-18.384066
-164.617021	5639.076667	1485.978516	58.099865
-164.617021	5639.076667	1484.916016	114.309471
-164.617021	5639.076667	1483.853516	-2.674281
-164.617021	5639.076667	1482.791016	-0.422272
-164.617021	5639.076667	1481.727539	-83.598839
-164.617021	5639.076667	1480.664063	-58.849373
-164.617021	5639.076667	1479.600586	67.055519
-164.617021	5639.076667	1478.537109	-34.040501
-164.617021	5639.076667	1477.473633	73.845390
-164.617021	5639.076667	1476.409180	89.574272
-164.617021	5639.076667	1475.344727	-49.581318
-164.617021	5639.076667	1474.280273	47.042091
-164.617021	5639.076667	1473.215820	-51.682552
-164.617021	5639.076667	1472.151367	80.768097
-164.617021	5639.076667	1471.085938	76.408966
-164.617021	5639.076667	1470.020508	22.601891
-164.617021	5639.076667	1468.955078	-1.916899
-164.617021	5639.076667	1467.888672	-55.610004
-164.617021	5639.076667	1466.823242	47.543667
-164.617021	5639.076667	1465.756836	-21.754513
-164.617021	5639.076667	1464.690430	-106.721840
-164.617021	5639.076667	1463.624023	-12.495631
-164.617021	5639.076667	1462.556641	27.838985
-164.617021	5639.076667	1461.490234	94.943657
-164.617021	5639.076667	1460.422852	-59.062710
-164.617021	5639.076667	1459.355469	59.506367
-164.617021	5639.076667	1458.287109	35.264988
-164.617021	5639.076667	1457.219727	-0.411378
-164.617021	5639.076667	1456.151367	144.880402
-164.617021	5639.076667	1455.083008	82.497177
-164.617021	5639.076667	1454.014648	0.165903
-164.617021	5639.076667	1452.945313	60.496300
-164.617021	5639.076667	1451.876953	16.129894
-164.617021	5639.076667	1450.807617	35.794083
-164.617021	5639.076667	1449.738281	189.862305
-164.617021	5639.076667	1448.668945	150.439407
-164.617021	5639.076667	1447.598633	84.003807
-164.617021	5639.076667	1446.528320	142.009491
-164.617021	5639.076667	1445.458008	46.027626
-164.617021	5639.076667	1444.387695	88.350082
-164.617021	5639.076667	1443.317383	85.161804
-164.617021	5639.076667	1442.246094	13.121381
-164.617021	5639.076667	1441.174805	67.256508
-164.617021	5639.076667	1440.103516	-94.305977
-164.617021	5639.076667	1439.032227	-33.838669
-164.617021	5639.076667	1437.960938	-30.911509
-164.617021	5639.076667	1436.888672	-28.569006
-164.617021	5639.076667	1435.816406	63.472855
-164.617021	5639.076667	1434.744141	36.897541
-164.617021	5639.076667	1433.670898	-67.735931
-164.617021	5639.076667	1432.598633	-79.710014
-164.617021	5639.076667	1431.525391	152.810226
-164.617021	5639.076667	1430.452148	36.591228
-164.617021	5639.076667	1429.378906	-41.447712
-164.617021	5639.076667	1428.304688	44.711418
-164.617021	5639.076667	1427.231445	130.349609
-164.617021	5639.076667	1426.157227	61.442467
-164.617021	5639.076667	1425.083008	-27.692345
-164.617021	5639.076667	1424.007813	-25.310240
-164.617021	5639.076667	1422.933594	-43.383175
-164.617021	5639.076667	1421.858398	3.169933
-164.617021	5639.076667	1420.783203	65.118896
-164.617021	5639.076667	1419.708008	110.310768
-164.617021	5639.076667	1418.631836	54.646858
-164.617021	5639.076667	1417.555664	0.428238
-164.617021	5639.076667	1416.479492	67.047844
-164.617021	5639.076667	1415.403320	79.972839
-164.617021	5639.076667	1414.327148	13.522914
-164.617021	5639.076667	1413.250000	-22.179405
-164.617021	5639.076667	1412.173828	104.038918
-164.617021	5639.076667	1411.096680	63.465538
-164.617021	5639.076667	1410.018555	54.308331
-164.617021	5639.076667	1408.941406	53.882420
-164.617021	5639.076667	1407.863281	-21.787228
-164.617021	5639.076667	1406.785156	53.737640
-164.617021	5639.076667	1405.707031	-96.581665
-164.617021	5639.076667	1404.628906	-22.987471
-164.617021	5639.076667	1403.549805	-12.384583
-164.617021	5639.076667	1402.470703	42.893284
-164.617021	5639.076667	1401.391602	68.691704
-164.617021	5639.076667	1400.312500	8.961250
-164.617021	5639.076667	1399.233398	17.935188
-164.617021	5639.076667	1398.153320	84.907433
-164.617021	5639.076667	1397.073242	-1.065591
-164.617021	5639.076667	1395.993164	12.494028
-164.617021	5639.076667	1394.913086	62.713120
-164.617021	5639.076667	1393.832031	65.469582
-164.617021	5639.076667	1392.750977	109.131851
-164.617021	5639.076667	1391.669922	-38.536995
-164.617021	5639.076667	1390.588867	16.270529
-164.617021	5639.076667	1389.506836	132.787308
-164.617021	5639.076667	1388.425781	72.802109
-164.617021	5639.076667	1387.343750	-10.281204
-164.617021	5639.076667	1386.261719	166.976624
-164.617021	5639.076667	1385.178711	114.718117
-164.617021	5639.076667	1384.096680	39.811687
-164.617021	5639.076667	1383.013672	70.938011
-164.617021	5639.076667	1381.930664	21.940165
-164.617021	5639.076667	1380.846680	-60.229748
-164.617021	5639.076667	1379.763672	37.269836
-164.617021	5639.076667	1378.679688	38.008743
-164.617021	5639.076667	1377.595703	114.549789
-164.617021	5639.076667	1376.511719	47.632626
-164.617021	5639.076667	1375.427734	70.864059
-164.617021	5639.076667	1374.342773	112.138573
-164.617021	5639.076667	1373.257813	-21.208548
-164.617021	5639.076667	1372.172852	25.138512
-164.617021	5639.076667	1371.087891	22.969198
-164.617021	5639.076667	1370.001953	50.741932
-164.617021	5639.076667	1368.916992	28.242687
-164.617021	5639.076667	1367.831055	-31.489523
-164.617021	5639.076667	1366.744141	16.736107
-164.617021	5639.076667	1365.658203	159.756836
-164.617021	5639.076667	1364.571289	57.530624
-164.617021	5639.076667	1363.484375	21.083706
-164.617021	5639.076667	1362.397461	-104.468773
-164.617021	5639.076667	1361.310547	-84.007767
-164.617021	5639.076667	1360.222656	60.789375
-164.617021	5639.076667	1359.135742	-58.774693
-164.617021	5639.076667	1358.047852	93.092888
-164.617021	5639.076667	1356.958984	-6.233466
-164.617021	5639.076667	1355.871094	-77.045807
-164.617021	5639.076667	1354.782227	83.279266
-164.617021	5639.076667	1353.693359	58.654778
-164.617021	5639.076667	1352.604492	118.911209
-164.617021	5639.076667	1351.515625	89.340469
-164.617021	5639.076667	1350.425781	57.366749
-164.617021	5639.076667	1349.335938	80.906502
-164.617021	5639.076667	1348.246094	-25.507633
-164.617021	5639.076667	1347.156250	113.783447
-164.617021	5639.076667	1346.066406	65.781128
-164.617021	5639.076667	1344.975586	-16.495689
-164.617021	5639.076667	1343.884766	71.106300
-164.617021	5639.076667	1342.793945	78.982048
-164.617021	5639.076667	1341.702148	-31.431601
-164.617021	5639.076667	1340.611328	51.332748
-164.617021	5639.076667	1339.519531	7.455995
-164.617021	5639.076667	1338.427734	136.291672
-164.617021	5639.076667	1337.334961	160.117462
-164.617021	5639.076667	1336.243164	181.381226
-164.617021	5639.076667	1335.150391	88.217972
-164.617021	5639.076667	1334.057617	35.674122
-164.617021	5639.076667	1332.964844	20.375101
-164.617021	5639.076667	1331.871094	49.245033
-164.617021	5639.076667	1330.778320	32.998497
-164.617021	5639.076667	1329.684570	-28.535751
-164.617021	5639.076667	1328.590820	-17.782911
-164.617021	5639.076667	1327.496094	-1.445350
-164.617021	5639.076667	1326.402344	8.137856
-164.617021	5639.076667	1325.307617	8.171887
-164.617021	5639.076667	1324.212891	27.785286
-164.617021	5639.076667	1323.117188	-0.134978
-164.617021	5639.076667	1322.022461	-2.500191
-164.617021	5639.076667	1320.926758	-65.053452
-164.617021	5639.076667	1319.831055	45.228333
-164.617021	5639.076667	1318.735352	-53.057701
-164.617021	5639.076667	1317.638672	3.137022
-164.617021	5639.076667	1316.542969	40.650795
-164.617021	5639.076667	1315.446289	-166.348892
-164.617021	5639.076667	1314.349609	36.482872
-164.617021	5639.076667	1313.251953	32.162418
-164.617021	5639.076667	1312.155273	57.020782
-164.617021	5639.076667	1311.057617	85.701477
-164.617021	5639.076667	1309.959961	8.912248
-164.617021	5639.076667	1308.862305	29.978271
-164.617021	5639.076667	1307.763672	-38.571941
-164.617021	5639.076667	1306.665039	-33.433945
-164.617021	5639.076667	1305.566406	-42.514973
-164.617021	5639.076667	1304.467773	61.325584
-164.617021	5639.076667	1303.369141	-68.483086
-164.617021	5639.076667	1302.269531	-61.945698
-164.617021	5639.076667	1301.169922	0.360894
-164.617021	5639.076667	1300.070313	32.073891
-164.617021	5639.076667	1298.970703	-8.239815
-164.617021	5639.076667	1297.870117	80.156738
-164.617021	5639.076667	1296.769531	86.138878
-164.617021	5639.076667	1295.668945	84.053299
-164.617021	5639.076667	1294.568359	-37.847569
-164.617021	5639.076667	1293.466797	46.037483
-164.617021	5639.076667	1292.366211	41.554901
-164.617021	5639.076667	1291.264648	-92.669586
-164.617021	5639.076667	1290.162109	32.199459
-164.617021	5639.076667	1289.060547	68.228256
-164.617021	5639.076667	1287.958008	-34.644505
-164.617021	5639.076667	1286.855469	7.541049
-164.617021	5639.076667	1285.752930	-98.780487
-164.617021	5639.076667	1284.650391	-7.634478
-164.617021	5639.076667	1283.546875	36.612942
-164.617021	5639.076667	1282.444336	105.373306
-164.617021	5639.076667	1281.339844	93.581360
-164.617021	5639.076667	1280.236328	23.634441
-164.617021	5639.076667	1279.132813	4.934498
-164.617021	5639.076667	1278.028320	28.176895
-164.617021	5639.076667	1276.923828	-12.843443
-164.617021	5639.076667	1275.819336	-130.370621
-164.617021	5639.076667	1274.713867	58.972366
-164.617021	5639.076667	1273.608398	102.704094
-164.617021	5639.076667	1272.503906	-33.736423
-164.617021	5639.076667	1271.397461	22.425747
-164.617021	5639.076667	1270.291992	-26.631594
-164.617021	5639.076667	1269.185547	-8.098854
-164.617021	5639.076667	1268.080078	-80.152206
-164.617021	5639.076667	1266.972656	-10.149604
-164.617021	5639.076667	1265.866211	-5.792062
-164.617021	5639.076667	1264.759766	-1.677700
-164.617021	5639.076667	1263.652344	-34.105831
-164.617021	5639.076667	1262.544922	-16.955740
-164.617021	5639.076667	1261.436523	-33.599991
-164.617021	5639.076667	1260.329102	-56.587704
-164.617021	5639.076667	1259.220703	-143.086426
-164.617021	5639.076667	1258.112305	-27.941729
-164.617021	5639.076667	1257.003906	-65.559296
-164.617021	5639.076667	1255.895508	-47.023041
-164.617021	5639.076667	1254.786133	-90.661110
-164.617021	5639.076667	1253.676758	-92.517769
-164.617021	5639.076667	1252.567383	-62.601242
-164.617021	5639.076667	1251.458008	-24.614077
-164.617021	5639.076667	1250.347656	2.811361
-164.617021	5639.076667	1249.237305	-66.256859
-164.617021	5639.076667	1248.126953	14.300006
-164.617021	5639.076667	1247.016602	-8.613657
-164.617021	5639.076667	1245.905273	-22.980324
-164.617021	5639.076667	1244.793945	25.327677
-164.617021	5639.076667	1243.682617	-53.156353
-164.617021	5639.076667	1242.571289	-87.152046
-164.617021	5639.076667	1241.459961	-84.483521
-164.617021	5639.076667	1240.347656	-65.780724
-164.617021	5639.076667	1239.235352	16.879456
-164.617021	5639.076667	1238.123047	39.940975
-164.617021	5639.076667	1237.009766	56.395947
-164.617021	5639.076667	1235.897461	-16.069132
-164.617021	5639.076667	1234.784180	-47.586346
-164.617021	5639.076667	1233.670898	54.084343
-164.617021	5639.076667	1232.556641	55.481426
-164.617021	5639.076667	1231.443359	0.689880
-164.617021	5639.076667	1230.329102	-102.584030
-164.617021	5639.076667	1229.214844	58.520370
-164.617021	5639.076667	1228.099609	22.231989
-164.617021	5639.076667	1226.985352	-7.316796
-164.617021	5639.076667	1225.870117	12.781432
-164.617021	5639.076667	1224.754883	-60.451504
-164.617021	5639.076667	1223.639648	-55.058445
-164.617021	5639.076667	1222.523438	48.452698
-164.617021	5639.076667	1221.408203	1.866203
-164.617021	5639.076667	1220.291992	23.258406
-164.617021	5639.076667	1219.174805	67.230507
-164.617021	5639.076667	1218.058594	39.006256
-164.617021	5639.076667	1216.941406	79.677116
-164.617021	5639.076667	1215.824219	-41.699894
-164.617021	5639.076667	1214.707031	114.346069
-164.617021	5639.076667	1213.589844	95.339066
-164.617021	5639.076667	1212.471680	33.194534
-164.617021	5639.076667	1211.353516	-53.213604
-164.617021	5639.076667	1210.235352	46.595264
-164.617021	5639.076667	1209.117188	-15.594530
-164.617021	5639.076667	1207.998047	-36.388554
-164.617021	5639.076667	1206.878906	-79.928986
-164.617021	5639.076667	1205.759766	30.821432
-164.617021	5639.076667	1204.640625	24.279856
-164.617021	5639.076667	1203.520508	29.579975
-164.617021	5639.076667	1202.401367	85.795700
-164.617021	5639.076667	1201.281250	40.481846
-164.617021	5639.076667	1200.160156	90.868568
-164.617021	5639.076667	1199.040039	12.852037
-164.617021	5639.076667	1197.918945	32.199001
-164.617021	5639.076667	1196.797852	74.053436
-164.617021	5639.076667	1195.676758	9.239720
-164.617021	5639.076667	1194.555664	35.699432
-164.617021	5639.076667	1193.433594	89.221558
-164.617021	5639.076667	1192.311523	-60.344864
-164.617021	5639.076667	1191.189453	43.691761
-164.617021	5639.076667	1190.066406	15.508595
-164.617021	5639.076667	1188.944336	53.675159
-164.617021	5639.076667	1187.821289	91.825417
-164.617021	5639.076667	1186.698242	-36.588074
-164.617021	5639.076667	1185.574219	-92.238708
-164.617021	5639.076667	1184.451172	73.686684
-164.617021	5639.076667	1183.327148	32.720501
-164.617021	5639.076667	1182.203125	64.996964
-164.617021	5639.076667	1181.078125	16.077539
-164.617021	5639.076667	1179.954102	-21.479986
-164.617021	5639.076667	1178.829102	-29.512812
-164.617021	5639.076667	1177.704102	-41.238781
-164.617021	5639.076667	1176.579102	20.961926
-164.617021	5639.076667	1175.453125	-27.157804
-164.617021	5639.076667	1174.327148	-29.418352
-164.617021	5639.076667	1173.201172	-48.272167
-164.617021	5639.076667	1172.075195	64.210136
-164.617021	5639.076667	1170.949219	-1.552788
-164.617021	5639.076667	1169.822266	-33.355392
-164.617021	5639.076667	1168.695313	21.986807
-164.617021	5639.076667	1167.568359	86.286995
-164.617021	5639.076667	1166.440430	-30.577389
-164.617021	5639.076667	1165.313477	70.149612
-164.617021	5639.076667	1164.185547	113.024445
-164.617021	5639.076667	1163.057617	20.628565
-164.617021	5639.076667	1161.928711	46.309151
-164.617021	5639.076667	1160.800781	179.037949
-164.617021	5639.076667	1159.671875	90.300163
-164.617021	5639.076667	1158.541992	67.451965
-164.617021	5639.076667	1157.413086	88.444061
-164.617021	5639.076667	1156.283203	-7.773451
-164.617021	5639.076667	1155.154297	-16.471081
-164.617021	5639.076667	1154.023438	10.216194
-164.617021	5639.076667	1152.893555	105.076584
-164.617021	5639.076667	1151.763672	-46.800983
-164.617021	5639.076667	1150.632813	20.551844
-164.617021	5639.076667	1149.501953	84.047501
-164.617021	5639.076667	1148.370117	-30.202579
-164.617021	5639.076667	1147.239258	42.789310
-164.617021	5639.076667	1146.107422	-1.367930
-164.617021	5639.076667	1144.975586	48.997875
-164.617021	5639.076667	1143.843750	-9.596469
-164.617021	5639.076667	1142.710938	-53.121525
-164.617021	5639.076667	1141.578125	-37.012558
-164.617021	5639.076667	1140.445313	-20.410482
-164.617021	5639.076667	1139.312500	6.308929
-164.617021	5639.076667	1138.178711	-27.457661
-164.617021	5639.076667	1137.045898	81.896942
-164.617021	5639.076667	1135.912109	9.306983
-164.617021	5639.076667	1134.777344	98.337631
-164.617021	5639.076667	1133.643555	67.661949
-164.617021	5639.076667	1132.508789	42.975468
-164.617021	5639.076667	1131.374023	30.584532
-164.617021	5639.076667	1130.239258	38.353119
-164.617021	5639.076667	1129.104492	26.245298
-164.617021	5639.076667	1127.968750	66.886337
-164.617021	5639.076667	1126.833008	122.218765
-164.617021	5639.076667	1125.697266	47.899055
-164.617021	5639.076667	1124.560547	98.942627
-164.617021	5639.076667	1123.424805	197.005753
-164.617021	5639.076667	1122.288086	107.366180
-164.617021	5639.076667	1121.151367	32.708584
-164.617021	5639.076667	1120.013672	86.185654
-164.617021	5639.076667	1118.876953	-14.990288
-164.617021	5639.076667	1117.739258	47.396591
-164.617021	5639.076667	1116.601563	164.209137
-164.617021	5639.076667	1115.462891	-32.286137
-164.617021	5639.076667	1114.324219	56.129536
-164.617021	5639.076667	1113.186523	87.253021
-164.617021	5639.076667	1112.046875	33.992382
-164.617021	5639.076667	1110.908203	-73.908684
-164.617021	5639.076667	1109.769531	108.447205
-164.617021	5639.076667	1108.629883	104.323204
-164.617021	5639.076667	1107.490234	130.914581
-164.617021	5639.076667	1106.349609	-4.189810
-164.617021	5639.076667	1105.209961	162.162979
-164.617021	5639.076667	1104.069336	67.761353
-164.617021	5639.076667	1102.928711	46.810265
-164.617021	5639.076667	1101.787109	21.638390
-164.617021	5639.076667	1100.646484	29.874136
-164.617021	5639.076667	1099.504883	105.748390
-164.617021	5639.076667	1098.363281	185.224350
-164.617021	5639.076667	1097.221680	131.121567
-164.617021	5639.076667	1096.079102	230.756073
-164.617021	5639.076667	1094.936523	187.907913
-164.617021	5639.076667	1093.793945	81.743782
-164.617021	5639.076667	1092.651367	78.005569
-164.617021	5639.076667	1091.507813	180.180267
-164.617021	5639.076667	1090.364258	138.458511
-164.617021	5639.076667	1089.220703	102.448891
-164.617021	5639.076667	1088.077148	175.658417
-164.617021	5639.076667	1086.933594	222.882172
-164.617021	5639.076667	1085.789063	140.147781
-164.617021	5639.076667	1084.644531	36.476337
-164.617021	5639.076667	1083.499023	41.003403
-164.617021	5639.076667	1082.354492	83.581963
-164.617021	5639.076667	1081.208984	-31.416489
-164.617021	5639.076667	1080.063477	138.152161
-164.617021	5639.076667	1078.917969	51.105942
-164.617021	5639.076667	1077.771484	41.870029
-164.617021	5639.076667	1076.625977	137.998398
-164.617021	5639.076667	1075.479492	146.014587
-164.617021	5639.076667	1074.332031	10.007174
-164.617021	5639.076667	1073.185547	-78.708237
-164.617021	5639.076667	1072.038086	0.523322
-164.617021	5639.076667	1070.890625	69.288185
-164.617021	5639.076667	1069.743164	131.949310
-164.617021	5639.076667	1068.594727	27.086760
-164.617021	5639.076667	1067.447266	4.623861
-164.617021	5639.076667	1066.298828	-53.388725
-164.617021	5639.076667	1065.149414	-95.801384
-164.617021	5639.076667	1064.000977	8.109367
-164.617021	5639.076667	1062.851563	17.591568
-164.617021	5639.076667	1061.702148	101.348572
-164.617021	5639.076667	1060.552734	170.734512
-164.617021	5639.076667	1059.402344	109.913139
-164.617021	5639.076667	1058.252930	70.091591
-164.617021	5639.076667	1057.102539	151.879440
-164.617021	5639.076667	1055.951172	167.401855
-164.617021	5639.076667	1054.800781	59.846859
-164.617021	5639.076667	1053.649414	-24.298454
-164.617021	5639.076667	1052.498047	175.916168
-164.617021	5639.076667	1051.346680	-57.432487
-164.617021	5639.076667	1050.194336	58.692493
-164.617021	5639.076667	1049.042969	107.344620
-164.617021	5639.076667	1047.890625	29.919390
-164.617021	5639.076667	1046.738281	217.954849
-164.617021	5639.076667	1045.584961	14.605151
-164.617021	5639.076667	1044.431641	37.399025
-164.617021	5639.076667	1043.278320	-17.744484
-164.617021	5639.076667	1042.125000	25.311941
-164.617021	5639.076667	1040.971680	-16.442339
-164.617021	5639.076667	1039.817383	70.058578
-164.617021	5639.076667	1038.663086	54.774910
-164.617021	5639.076667	1037.508789	-34.469990
-164.617021	5639.076667	1036.353516	-12.481269
-164.617021	5639.076667	1035.198242	66.621155
-164.617021	5639.076667	1034.042969	-94.239288
-164.617021	5639.076667	1032.887695	-45.097660
-164.617021	5639.076667	1031.732422	-89.863548
-164.617021	5639.076667	1030.576172	29.637989
-164.617021	5639.076667	1029.419922	71.682419
-164.617021	5639.076667	1028.263672	31.325966
-164.617021	5639.076667	1027.106445	6.134751
-164.617021	5639.076667	1025.949219	-85.607536
-164.617021	5639.076667	1024.792969	-29.268177
-164.617021	5639.076667	1023.634766	81.997627
-164.617021	5639.076667	1022.477539	9.583499
-164.617021	5639.076667	1021.319336	1.165186
-164.617021	5639.076667	1020.161133	-105.125603
-164.617021	5639.076667	1019.002930	-21.059305
-164.617021	5639.076667	1017.843750	21.776531
-164.617021	5639.076667	1016.684570	84.956421
-164.617021	5639.076667	1015.525391	90.960388
-164.617021	5639.076667	1014.366211	35.334873
-164.617021	5639.076667	1013.207031	-49.489414
-164.617021	5639.076667	1012.046875	0.819033
-164.617021	5639.076667	1010.886719	99.678345
-164.617021	5639.076667	1009.726563	121.942085
-164.617021	5639.076667	1008.565430	79.041908
-164.617021	5639.076667	1007.404297	107.648804
-164.617021	5639.076667	1006.243164	92.503517
-164.617021	5639.076667	1005.082031	102.260384
-164.617021	5639.076667	1003.920898	0.086406
-164.617021	5639.076667	1002.758789	7.909945
-164.617021	5639.076667	1001.596680	-32.999027
-164.617021	5639.076667	1000.433594	-29.317097
-164.617021	5639.076667	999.271484	103.215706
-164.617021	5639.076667	998.108398	6.600718
-164.617021	5639.076667	996.945313	57.980843
-164.617021	5639.076667	995.782227	3.158819
-164.617021	5639.076667	994.618164	-9.806480
-164.617021	5639.076667	993.454102	8.134028
-164.617021	5639.076667	992.290039	130.673218
-164.617021	5639.076667	991.125977	-17.946751
-164.617021	5639.076667	989.960938	40.852623
-164.617021	5639.076667	988.796875	80.423141
-164.617021	5639.076667	987.630859	-33.108051
-164.617021	5639.076667	986.465820	49.164085
-164.617021	5639.076667	985.300781	12.832219
-164.617021	5639.076667	984.134766	155.485672
-164.617021	5639.076667	982.968750	89.553658
-164.617021	5639.076667	981.801758	-106.980896
-164.617021	5639.076667	980.635742	-72.863701
-164.617021	5639.076667	979.468750	18.897520
-164.617021	5639.076667	978.301758	-3.724676
-164.617021	5639.076667	977.133789	1.632602
-164.617021	5639.076667	975.966797	-51.122253
-164.617021	5639.076667	974.798828	74.373314
-164.617021	5639.076667	973.630859	86.134247
-164.617021	5639.076667	972.461914	142.698807
-164.617021	5639.076667	971.293945	163.051361
-164.617021	5639.076667	970.125000	92.838806
-164.617021	5639.076667	968.956055	-83.570480
-164.617021	5639.076667	967.786133	-5.403803
-164.617021	5639.076667	966.617188	25.746365
-164.617021	5639.076667	965.447266	147.628647
-164.617021	5639.076667	964.276367	-26.587511
-164.617021	5639.076667	963.106445	-26.950811
-164.617021	5639.076667	961.935547	-84.337975
-164.617021	5639.076667	960.764648	79.024452
-164.617021	5639.076667	959.593750	76.245750
-164.617021	5639.076667	958.422852	59.670074
-164.617021	5639.076667	957.250977	51.410641
-164.617021	5639.076667	956.079102	-6.732345
-164.617021	5639.076667	954.907227	88.595024
-164.617021	5639.076667	953.734375	38.305824
-164.617021	5639.076667	952.562500	-29.453249
-164.617021	5639.076667	951.389648	67.525429
-164.617021	5639.076667	950.215820	12.567503
-164.617021	5639.076667	949.042969	-37.215641
-164.617021	5639.076667	947.869141	34.775845
-164.617021	5639.076667	946.695313	66.266273
-164.617021	5639.076667	945.521484	8.469893
-164.617021	5639.076667	944.346680	24.694454
-164.617021	5639.076667	943.172852	40.916843
-164.617021	5639.076667	941.998047	8.649705
-164.617021	5639.076667	940.822266	-38.503033
-164.617021	5639.076667	939.647461	-37.289715
-164.617021	5639.076667	938.471680	45.071949
-164.617021	5639.076667	937.295898	188.532150
-164.617021	5639.076667	936.119141	-21.276489
-164.617021	5639.076667	934.943359	-37.820782
-164.617021	5639.076667	933.766602	-56.997471
-164.617021	5639.076667	932.589844	152.518555
-164.617021	5639.076667	931.413086	97.928291
-164.617021	5639.076667	930.235352	68.704781
-164.617021	5639.076667	929.057617	72.505562
-164.617021	5639.076667	927.879883	35.773830
-164.617021	5639.076667	926.702148	-84.721039
-164.617021	5639.076667	925.523438	68.953499
-164.617021	5639.076667	924.344727	6.915847
-164.617021	5639.076667	923.166016	99.675117
-164.617021	5639.076667	921.987305	14.882000
-164.617021	5639.076667	920.807617	-77.463989
-164.617021	5639.076667	919.627930	-74.873428
-164.617021	5639.076667	919.497070	-52.831108
-164.617021	5639.076667	918.331055	24.731777
-164.617021	5639.076667	917.165039	31.323076
-164.617021	5639.076667	915.999023	53.136936
-164.617021	5639.076667	914.833008	-41.568527
-164.617021	5639.076667	913.666016	-113.416748
-164.617021	5639.076667	912.499023	-66.196754
-164.617021	5639.076667	911.332031	72.169876
-164.617021	5639.076667	910.165039	61.156570
-164.617021	5639.076667	908.997070	27.394361
-164.617021	5639.076667	907.830078	-175.860825
-164.617021	5639.076667	906.661133	-57.734539
-164.617021	5639.076667	905.493164	83.124924
-164.617021	5639.076667	904.325195	82.340279
-164.617021	5639.076667	903.156250	-1.850925
-164.617021	5639.076667	901.987305	-25.323833
-164.617021	5639.076667	900.818359	1.774859
-164.617021	5639.076667	899.648438	66.783310
-164.617021	5639.076667	898.478516	10.531906
-164.617021	5639.076667	897.308594	133.639069
-164.617021	5639.076667	896.138672	-58.919353
-164.617021	5639.076667	894.968750	-110.005882
-164.617021	5639.076667	893.797852	35.825619
-164.617021	5639.076667	892.626953	-10.172692
-164.617021	5639.076667	891.456055	59.924252
-164.617021	5639.076667	890.284180	-46.562374
-164.617021	5639.076667	889.113281	-107.594460
-164.617021	5639.076667	887.941406	25.571667
-164.617021	5639.076667	886.768555	-60.620346
-164.617021	5639.076667	885.596680	-66.109032
-164.617021	5639.076667	884.423828	51.900620
-164.617021	5639.076667	883.250977	36.349121
-164.617021	5639.076667	882.078125	-14.443949
-164.617021	5639.076667	880.905273	-75.274246
-164.617021	5639.076667	879.731445	25.082340
-164.617021	5639.076667	878.557617	188.347519
-164.617021	5639.076667	877.383789	4.236838
-164.617021	5639.076667	876.209961	39.136784
-164.617021	5639.076667	875.035156	28.754898
-164.617021	5639.076667	873.860352	73.728844
-164.617021	5639.076667	872.685547	68.402611
-164.617021	5639.076667	871.510742	168.691940
-164.617021	5639.076667	870.334961	-52.803478
-164.617021	5639.076667	869.159180	85.198006
-164.617021	5639.076667	867.983398	42.240566
-164.617021	5639.076667	866.807617	-106.199501
-164.617021	5639.076667	865.630859	9.164531
-164.617021	5639.076667	864.454102	-88.956047
-164.617021	5639.076667	863.277344	-69.023407
-164.617021	5639.076667	862.100586	-3.904034
-164.617021	5639.076667	860.922852	61.202984
-164.617021	5639.076667	859.745117	88.657837
-164.617021	5639.076667	858.567383	75.975380
-164.617021	5639.076667	857.389648	-67.112236
-164.617021	5639.076667	856.210938	-19.551619
-164.617021	5639.076667	855.032227	98.197548
-164.617021	5639.076667	853.853516	63.009007
-164.617021	5639.076667	852.674805	-140.059402
-164.617021	5639.076667	851.495117	-79.952332
-164.617021	5639.076667	850.315430	2.683997
-164.617021	5639.076667	849.135742	87.799980
-164.617021	5639.076667	847.956055	32.667313
-164.617021	5639.076667	846.775391	-14.921311
-164.617021	5639.076667	845.595703	70.171524
-164.617021	5639.076667	844.415039	62.650131
-164.617021	5639.076667	843.233398	-140.007233
-164.617021	5639.076667	842.052734	-7.388772
-164.617021	5639.076667	840.871094	-17.365822
-164.617021	5639.076667	839.689453	-42.333706
-164.617021	5639.076667	838.506836	-19.784851
-164.617021	5639.076667	837.325195	-34.731823
-164.617021	5639.076667	836.142578	220.209946
-164.617021	5639.076667	834.959961	127.786217
-164.617021	5639.076667	833.777344	20.419561
-164.617021	5639.076667	832.593750	17.991106
-164.617021	5639.076667	831.410156	-51.844212
-164.617021	5639.076667	830.226563	145.452866
-164.617021	5639.076667	829.042969	115.560783
-164.617021	5639.076667	827.858398	58.240543
-164.617021	5639.076667	826.673828	-111.314354
-164.617021	5639.076667	825.489258	-46.341496
-164.617021	5639.076667	824.304688	38.557278
-164.617021	5639.076667	823.120117	130.903656
-164.617021	5639.076667	821.934570	16.327297
-164.617021	5639.076667	820.749023	26.406969
-164.617021	5639.076667	819.562500	73.862671
-164.617021	5639.076667	818.376953	56.528450
-164.617021	5639.076667	817.190430	31.733759
-164.617021	5639.076667	816.003906	56.752171
-164.617021	5639.076667	814.817383	51.886627
-164.617021	5639.076667	813.629883	263.574921
-164.617021	5639.076667	812.442383	131.756622
-164.617021	5639.076667	811.254883	7.457334
-164.617021	5639.076667	810.067383	52.360386
-164.617021	5639.076667	808.878906	119.630119
-164.617021	5639.076667	807.690430	174.439026
-164.617021	5639.076667	806.501953	119.841530
-164.617021	5639.076667	805.313477	52.837841
-164.617021	5639.076667	804.124023	-6.681622
-164.617021	5639.076667	802.934570	125.122643
-164.617021	5639.076667	801.745117	10.962764
-164.617021	5639.076667	800.555664	155.121674
-164.617021	5639.076667	799.365234	237.148972
-164.617021	5639.076667	798.175781	3.874352
-164.617021	5639.076667	796.985352	95.820602
-164.617021	5639.076667	795.793945	187.727676
-164.617021	5639.076667	794.603516	73.681168
-164.617021	5639.076667	793.412109	130.822983
-164.617021	5639.076667	792.220703	49.067356
-164.617021	5639.076667	791.028320	101.226570
-164.617021	5639.076667	789.836914	26.938009
-164.617021	5639.076667	788.644531	210.418243
-164.617021	5639.076667	787.452148	34.542988
-164.617021	5639.076667	786.258789	-42.172394
-164.617021	5639.076667	785.066406	111.470078
-164.617021	5639.076667	783.873047	57.044865
-164.617021	5639.076667	782.679688	-24.597210
-164.617021	5639.076667	781.485352	79.429817
-164.617021	5639.076667	780.291992	151.233154
-164.617021	5639.076667	779.097656	-26.887190
-164.617021	5639.076667	777.903320	25.108114
-164.617021	5639.076667	776.708008	-9.482390
-164.617021	5639.076667	775.512695	35.056911
-164.617021	5639.076667	774.318359	180.923599
-164.617021	5639.076667	773.122070	94.397545
-164.617021	5639.076667	771.926758	25.193523
-164.617021	5639.076667	770.730469	109.187149
-164.617021	5639.076667	769.534180	42.464207
-164.617021	5639.076667	768.337891	-98.326118
-164.617021	5639.076667	767.141602	155.975616
-164.617021	5639.076667	765.944336	-16.886768
-164.617021	5639.076667	764.747070	-83.563309
-164.617021	5639.076667	763.549805	20.033688
-164.617021	5639.076667	762.351563	86.575233
-164.617021	5639.076667	761.154297	103.747459
-164.617021	5639.076667	759.956055	113.506378
-164.617021	5639.076667	758.757813	231.728897
-164.617021	5639.076667	757.558594	165.025482
-164.617021	5639.076667	756.359375	162.412674
-164.617021	5639.076667	755.160156	127.758949
-164.617021	5639.076667	753.960938	216.276520
-164.617021	5639.076667	752.761719	144.659027
-164.617021	5639.076667	751.561523	97.685852
-164.617021	5639.076667	750.361328	183.658768
-164.617021	5639.076667	749.160156	168.671570
-164.617021	5639.076667	747.959961	87.233398
-164.617021	5639.076667	746.758789	35.342556
-164.617021	5639.076667	745.557617	35.115826
-164.617021	5639.076667	744.356445	93.897774
-164.617021	5639.076667	743.154297	12.496013
-164.617021	5639.076667	741.952148	184.312531
-164.617021	5639.076667	740.750000	56.201183
-164.617021	5639.076667	739.547852	151.736023
-164.617021	5639.076667	738.344727	-59.868629
-164.617021	5639.076667	737.142578	15.972275
-164.617021	5639.076667	735.939453	64.757347
-164.617021	5639.076667	734.735352	123.330658
-164.617021	5639.076667	733.532227	37.037571
-164.617021	5639.076667	732.328125	21.938177
-164.617021	5639.076667	731.124023	50.995140
-164.617021	5639.076667	729.918945	43.230827
-164.617021	5639.076667	728.714844	10.925308
-164.617021	5639.076667	727.509766	128.197647
-164.617021	5639.076667	726.303711	14.960279
-164.617021	5639.076667	725.098633	63.522179
-164.617021	5639.076667	723.892578	23.829977
-164.617021	5639.076667	722.686523	-37.911350
-164.617021	5639.076667	721.480469	93.868401
-164.617021	5639.076667	720.274414	213.332214
-164.617021	5639.076667	719.067383	90.330986
-164.617021	5639.076667	717.860352	187.682541
-164.617021	5639.076667	716.653320	201.763245
-164.617021	5639.076667	715.445313	188.907379
-164.617021	5639.076667	714.238281	-39.249180
-164.617021	5639.076667	713.030273	-34.961655
-164.617021	5639.076667	711.821289	-91.825882
-164.617021	5639.076667	710.613281	61.575893
-164.617021	5639.076667	709.404297	-51.539974
-164.617021	5639.076667	708.195313	-147.518585
-164.617021	5639.076667	706.986328	-4.024068
-164.617021	5639.076667	705.776367	68.552155
-164.617021	5639.076667	704.566406	53.156055
-164.617021	5639.076667	703.356445	-74.575211
-164.617021	5639.076667	702.146484	-99.734962
-164.617021	5639.076667	700.935547	-12.622854
-164.617021	5639.076667	699.724609	50.032341
-164.617021	5639.076667	698.513672	22.371216
-164.617021	5639.076667	697.302734	16.657898
-164.617021	5639.076667	696.090820	-11.018167
-164.617021	5639.076667	694.878906	107.594315
-164.617021	5639.076667	693.666992	40.871784
-164.617021	5639.076667	692.455078	-25.840555
-164.617021	5639.076667	691.242188	19.547182
-164.617021	5639.076667	690.029297	89.260002
-164.617021	5639.076667	688.816406	80.983925
-164.617021	5639.076667	687.602539	-36.887474
-164.617021	5639.076667	686.389648	78.997818
-164.617021	5639.076667	685.175781	-7.216146
-164.617021	5639.076667	683.960938	81.811913
-164.617021	5639.076667	682.747070	175.648956
-164.617021	5639.076667	681.532227	-3.021976
-164.617021	5639.076667	680.317383	102.919777
-164.617021	5639.076667	679.102539	48.314079
-164.617021	5639.076667	677.886719	47.198948
-164.617021	5639.076667	676.670898	-14.697974
-164.617021	5639.076667	675.455078	1.175111
-164.617021	5639.076667	674.239258	63.184456
-164.617021	5639.076667	673.022461	-1.157858
-164.617021	5639.076667	671.805664	133.647385
-164.617021	5639.076667	670.588867	35.290165
-164.617021	5639.076667	669.372070	150.574753
-164.617021	5639.076667	668.154297	95.907219
-164.617021	5639.076667	666.936523	4.847888
-164.617021	5639.076667	665.718750	52.088234
-164.617021	5639.076667	664.500977	79.887596
-164.617021	5639.076667	663.282227	199.806808
-164.617021	5639.076667	662.063477	103.884781
-164.617021	5639.076667	660.844727	34.648926
-164.617021	5639.076667	659.625000	127.793831
-164.617021	5639.076667	658.405273	60.971741
-164.617021	5639.076667	657.185547	37.763309
-164.617021	5639.076667	655.965820	-4.826973
-164.617021	5639.076667	654.745117	151.135666
-164.617021	5639.076667	653.525391	-60.953388
-164.617021	5639.076667	652.303711	-76.919922
-164.617021	5639.076667	651.083008	15.993211
-164.617021	5639.076667	649.861328	-24.209333
-164.617021	5639.076667	648.640625	-59.575413
-164.617021	5639.076667	647.417969	-36.901665
-164.617021	5639.076667	646.196289	191.255280
-164.617021	5639.076667	644.973633	-136.667908
-164.617021	5639.076667	643.750977	-17.371321
-164.617021	5639.076667	642.528320	150.183762
-164.617021	5639.076667	641.305664	15.687395
-164.617021	5639.076667	640.082031	47.882351
-164.617021	5639.076667	638.858398	-14.124763
-164.617021	5639.076667	637.634766	39.759457
-164.617021	5639.076667	636.410156	42.920315
-164.617021	5639.076667	635.185547	46.064079
-164.617021	5639.076667	633.960938	109.507797
-164.617021	5639.076667	632.736328	-77.953453
-164.617021	5639.076667	631.510742	113.277992
-164.617021	5639.076667	630.285156	135.635025
-164.617021	5639.076667	629.059570	-18.006706
-164.617021	5639.076667	627.833984	50.131771
-164.617021	5639.076667	626.607422	7.387349
-164.617021	5639.076667	625.380859	-119.670799
-164.617021	5639.076667	624.154297	27.887194
-164.617021	5639.076667	622.927734	-34.131382
-164.617021	5639.076667	621.700195	69.983864
-164.617021	5639.076667	620.472656	106.644943
-164.617021	5639.076667	619.245117	150.497055
-164.617021	5639.076667	618.016602	-24.628841
-164.617021	5639.076667	616.788086	19.207626
-164.617021	5639.076667	615.559570	34.152637
-164.617021	5639.076667	614.331055	-61.527512
-164.617021	5639.076667	613.101563	-99.482841
-164.617021	5639.076667	611.872070	117.332520
-164.617021	5639.076667	610.642578	38.480793
-164.617021	5639.076667	609.413086	14.906978
-164.617021	5639.076667	608.182617	20.155846
-164.617021	5639.076667	606.952148	-15.433703
-164.617021	5639.076667	605.721680	76.229340
-164.617021	5639.076667	604.491211	-14.588221
-164.617021	5639.076667	603.259766	17.017231
-164.617021	5639.076667	602.028320	-68.970833
-164.617021	5639.076667	600.796875	-58.978481
-164.617021	5639.076667	599.564453	39.739189
-164.617021	5639.076667	598.332031	71.265778
-164.617021	5639.076667	597.099609	-50.661209
-164.617021	5639.076667	595.867188	33.580982
-164.617021	5639.076667	594.633789	-35.585037
-164.617021	5639.076667	593.400391	19.850639
-164.617021	5639.076667	592.166992	-1.395971
-164.617021	5639.076667	590.933594	-65.748985
-164.617021	5639.076667	589.699219	171.596512
-164.617021	5639.076667	588.464844	80.886276
-164.617021	5639.076667	587.230469	-43.299400
-164.617021	5639.076667	585.995117	105.333618
-164.617021	5639.076667	584.760742	-28.389273
-164.617021	5639.076667	583.525391	-73.568474
-164.617021	5639.076667	582.289063	-6.348331
-164.617021	5639.076667	581.053711	108.648819
-164.617021	5639.076667	579.817383	8.473425
-164.617021	5639.076667	578.581055	75.611542
-164.617021	5639.076667	577.343750	73.428551
-164.617021	5639.076667	576.107422	66.461838
-164.617021	5639.076667	574.870117	18.893637
-164.617021	5639.076667	573.631836	35.806637
-164.617021	5639.076667	572.394531	112.383751
-164.617021	5639.076667	571.156250	36.179253
-164.617021	5639.076667	569.917969	24.426292
-164.617021	5639.076667	568.679688	-15.954538
-164.617021	5639.076667	567.440430	-18.160891
-164.617021	5639.076667	566.202148	103.625931
-164.617021	5639.076667	564.961914	63.239834
-164.617021	5639.076667	563.722656	68.152924
-164.617021	5639.076667	562.482422	-96.136749
-164.617021	5639.076667	561.243164	-60.227966
-164.617021	5639.076667	560.001953	-50.539303
-164.617021	5639.076667	558.761719	-21.808092
-164.617021	5639.076667	557.520508	-35.950397
-164.617021	5639.076667	556.279297	11.802106
-164.617021	5639.076667	555.038086	73.810905
-164.617021	5639.076667	553.795898	35.851429
-164.617021	5639.076667	552.554688	12.177470
-164.617021	5639.076667	551.311523	28.946527
-164.617021	5639.076667	550.069336	-87.462471
-164.617021	5639.076667	548.826172	-44.533531
-164.617021	5639.076667	547.583984	-20.642723
-164.617021	5639.076667	546.339844	-11.022247
-164.617021	5639.076667	545.096680	74.620903
-164.617021	5639.076667	543.852539	91.337837
-164.617021	5639.076667	542.608398	108.045815
-164.617021	5639.076667	541.364258	-1.100282
-164.617021	5639.076667	540.119141	67.841904
-164.617021	5639.076667	538.875000	70.296593
-164.617021	5639.076667	537.628906	-19.792711
-164.617021	5639.076667	536.383789	193.817688
-164.617021	5639.076667	535.137695	37.324360
-164.617021	5639.076667	533.892578	-33.735687
-164.617021	5639.076667	532.645508	-81.056686
-164.617021	5639.076667	531.399414	101.563072
-164.617021	5639.076667	530.152344	42.380665
-164.617021	5639.076667	528.905273	47.193672
-164.617021	5639.076667	527.658203	-66.437302
-164.617021	5639.076667	526.410156	-26.080235
-164.617021	5639.076667	525.163086	9.521577
-164.617021	5639.076667	523.914063	-9.339341
-164.617021	5639.076667	522.666016	-6.892942
-164.617021	5639.076667	521.416992	-47.041382
-164.617021	5639.076667	520.167969	68.966980
-164.617021	5639.076667	518.918945	47.739098
-164.617021	5639.076667	517.669922	9.965892
-164.617021	5639.076667	516.419922	64.414276
-164.617021	5639.076667	515.169922	-53.715389
-164.617021	5639.076667	513.919922	104.702362
-164.617021	5639.076667	512.668945	104.749374
-164.617021	5639.076667	511.417969	107.157219
-164.617021	5639.076667	510.166992	109.562592
-164.617021	5639.076667	508.916016	95.436630
-164.617021	5639.076667	507.664063	81.316704
-164.617021	5639.076667	506.412109	-131.054398
-164.617021	5639.076667	505.160156	20.054216
-164.617021	5639.076667	503.907227	-57.741993
-164.617021	5639.076667	502.655273	-69.465210
-164.617021	5639.076667	501.402344	24.932455
-164.617021	5639.076667	500.148438	-85.826942
-164.617021	5639.076667	498.895508	-7.970191
-164.617021	5639.076667	497.641602	48.641376
-164.617021	5639.076667	496.387695	46.323746
-164.617021	5639.076667	495.132813	34.582924
-164.617021	5639.076667	493.878906	72.300514
-164.617021	5639.076667	492.624023	69.972054
-164.617021	5639.076667	491.368164	138.265350
-164.617021	5639.076667	490.113281	-14.712425
-164.617021	5639.076667	488.857422	-9.969682
-164.617021	5639.076667	487.601563	25.350531
-164.617021	5639.076667	486.344727	51.244389
-164.617021	5639.076667	485.088867	4.223819
-164.617021	5639.076667	483.832031	-54.534573
-164.617021	5639.076667	482.575195	4.254849
-164.617021	5639.076667	481.317383	8.964665
-164.617021	5639.076667	480.059570	-56.818722
-164.617021	5639.076667	478.801758	-73.249374
-164.617021	5639.076667	477.543945	-70.889572
-164.617021	5639.076667	476.285156	-80.276443
-164.617021	5639.076667	475.027344	72.312370
-164.617021	5639.076667	473.767578	91.051620
-164.617021	5639.076667	472.508789	133.240570
-164.617021	5639.076667	471.249023	29.954098
-164.617021	5639.076667	469.989258	-75.640892
-164.617021	5639.076667	468.729492	39.230171
-164.617021	5639.076667	467.469727	-24.136166
-164.617021	5639.076667	466.208984	41.435230
-164.617021	5639.076667	464.948242	-50.041561
-164.617021	5639.076667	463.686523	144.353195
-164.617021	5639.076667	462.425781	71.614830
-164.617021	5639.076667	461.164063	-15.153156
-164.617021	5639.076667	459.901367	90.104958
-164.617021	5639.076667	458.639648	38.464108
-164.617021	5639.076667	457.376953	136.621948
-164.617021	5639.076667	456.114258	-6.285386
-164.617021	5639.076667	454.851563	0.579547
-164.617021	5639.076667	453.587891	-53.381725
-164.617021	5639.076667	452.324219	-74.594604
-164.617021	5639.076667	451.060547	-13.985826
-164.617021	5639.076667	449.796875	-35.225304
-164.617021	5639.076667	448.532227	-86.849091
-164.617021	5639.076667	447.267578	116.200325
-164.617021	5639.076667	446.002930	-40.578056
-164.617021	5639.076667	444.737305	17.550161
-164.617021	5639.076667	443.471680	40.613682
-164.617021	5639.076667	442.206055	-120.764000
-164.617021	5639.076667	440.940430	-20.697693
-164.617021	5639.076667	439.673828	-25.693325
-164.617021	5639.076667	438.407227	111.598625
-164.617021	5639.076667	437.140625	139.191757
-164.617021	5639.076667	435.873047	66.484833
-164.617021	5639.076667	434.605469	140.662857
-164.617021	5639.076667	433.337891	74.938126
-164.617021	5639.076667	432.070313	74.469215
-164.617021	5639.076667	430.801758	15.732934
-164.617021	5639.076667	429.533203	-75.610603
-164.617021	5639.076667	428.264648	133.477539
-164.617021	5639.076667	426.996094	104.963997
-164.617021	5639.076667	425.726563	-12.017276
-164.617021	5639.076667	424.457031	-14.936503
-164.617021	5639.076667	423.186523	114.746445
-164.617021	5639.076667	421.916992	146.642197
-164.617021	5639.076667	420.646484	118.026474
-164.617021	5639.076667	419.375977	61.492081
-164.617021	5639.076667	418.104492	137.464783
-164.617021	5639.076667	416.833008	18.137058
-164.617021	5639.076667	415.561523	-54.694420
-164.617021	5639.076667	414.290039	25.809996
-164.617021	5639.076667	413.017578	76.052017
-164.617021	5639.076667	411.746094	89.083038
-164.617021	5639.076667	410.472656	-0.080917
-164.617021	5639.076667	409.200195	94.137939
-164.617021	5639.076667	407.926758	55.998665
-164.617021	5639.076667	406.653320	124.571823
-164.617021	5639.076667	405.379883	65.493423
-164.617021	5639.076667	404.105469	24.957462
-164.617021	5639.076667	402.831055	74.831932
-164.617021	5639.076667	401.556641	154.783112
-164.617021	5639.076667	400.282227	90.961639
-164.617021	5639.076667	399.006836	59.569214
-164.617021	5639.076667	397.731445	113.867500
-164.617021	5639.076667	396.456055	98.615059
-164.617021	5639.076667	395.179688	53.222462
-164.617021	5639.076667	393.903320	-101.007996
-164.617021	5639.076667	392.626953	89.674927
-164.617021	5639.076667	391.350586	99.723648
-164.617021	5639.076667	390.073242	151.368454
-164.617021	5639.076667	388.795898	73.406876
-164.617021	5639.076667	387.518555	37.060410
-164.617021	5639.076667	386.240234	95.481590
-164.617021	5639.076667	384.961914	-5.676921
-164.617021	5639.076667	383.683594	110.410851
-164.617021	5639.076667	382.405273	25.369732
-164.617021	5639.076667	381.125977	7.309666
-164.617021	5639.076667	379.846680	9.993834
-164.617021	5639.076667	378.567383	51.880577
-164.617021	5639.076667	377.287109	54.449387
-164.617021	5639.076667	376.006836	50.039265
-164.617021	5639.076667	374.726563	20.193064
-164.617021	5639.076667	373.446289	50.292023
-164.617021	5639.076667	372.165039	-28.090736
-164.617021	5639.076667	370.883789	36.486549
-164.617021	5639.076667	369.602539	-118.057243
-164.617021	5639.076667	368.320313	13.247408
-164.617021	5639.076667	367.039063	197.445175
-164.617021	5639.076667	365.755859	-21.722357
-164.617021	5639.076667	364.473633	-42.738483
-164.617021	5639.076667	363.190430	-8.529968
-164.617021	5639.076667	361.907227	-11.238131
-164.617021	5639.076667	360.624023	-50.838978
-164.617021	5639.076667	359.340820	-14.528703
-164.617021	5639.076667	358.056641	-17.415613
-164.617021	5639.076667	356.772461	-27.263798
-164.617021	5639.076667	355.487305	-18.769979
-164.617021	5639.076667	354.202148	118.437637
-164.617021	5639.076667	352.916992	0.319721
-164.617021	5639.076667	351.631836	40.796448
-164.617021	5639.076667	350.346680	51.317318
-164.617021	5639.076667	349.060547	20.412088
-164.617021	5639.076667	347.774414	-45.000183
-164.617021	5639.076667	346.487305	52.611694
-164.617021	5639.076667	345.200195	-49.645557
-164.617021	5639.076667	343.913086	-25.662104
-164.617021	5639.076667	342.625977	-6.342725
-164.617021	5639.076667	341.338867	38.145634
-164.617021	5639.076667	340.050781	-22.980322
-164.617021	5639.076667	338.762695	16.775721
-164.617021	5639.076667	337.473633	3.707609
-164.617021	5639.076667	336.184570	-23.173506
-164.617021	5639.076667	334.895508	34.702469
-164.617021	5639.076667	333.606445	-47.298420
-164.617021	5639.076667	332.317383	-168.274429
-164.617021	5639.076667	331.027344	6.227964
-164.617021	5639.076667	329.736328	6.541139
-164.617021	5639.076667	328.446289	-18.389948
-164.617021	5639.076667	327.155273	-43.373470
-164.617021	5639.076667	325.864258	98.663559
-164.617021	5639.076667	324.573242	137.613937
-164.617021	5639.076667	323.281250	-22.536961
-164.617021	5639.076667	321.989258	-18.002945
-164.617021	5639.076667	320.697266	-45.540428
-164.617021	5639.076667	319.405273	20.609877
-164.617021	5639.076667	318.112305	-2.466463
-164.617021	5639.076667	316.819336	-39.296764
-164.617021	5639.076667	315.526367	-112.717224
-164.617021	5639.076667	314.232422	101.639091
-164.617021	5639.076667	312.938477	76.071396
-164.617021	5639.076667	311.644531	41.333565
-164.617021	5639.076667	310.349609	72.757042
-164.617021	5639.076667	309.054688	-19.113983
-164.617021	5639.076667	307.759766	53.288616
-164.617021	5639.076667	306.464844	-75.121750
-164.617021	5639.076667	305.168945	-16.508038
-164.617021	5639.076667	303.873047	23.800928
-164.617021	5639.076667	302.577148	155.241318
-164.617021	5639.076667	301.281250	215.936401
-164.617021	5639.076667	299.984375	135.294830
