#X		#Y		#Wave		#Intensity
163.157447	5869.220000	1999.946289	100.005219
163.157447	5869.220000	1998.981445	-115.869804
163.157447	5869.220000	1998.017578	54.467403
163.157447	5869.220000	1997.052734	73.555710
163.157447	5869.220000	1996.088867	20.766203
163.157447	5869.220000	1995.124023	96.791435
163.157447	5869.220000	1994.159180	61.317879
163.157447	5869.220000	1993.193359	8.506509
163.157447	5869.220000	1992.228516	-56.679989
163.157447	5869.220000	1991.262695	56.368195
163.157447	5869.220000	1990.296875	70.364372
163.157447	5869.220000	1989.331055	-116.087387
163.157447	5869.220000	1988.365234	-20.448923
163.157447	5869.220000	1987.398438	18.250572
163.157447	5869.220000	1986.432617	-4.901177
163.157447	5869.220000	1985.465820	-8.274378
163.157447	5869.220000	1984.499023	35.314449
163.157447	5869.220000	1983.532227	17.086210
163.157447	5869.220000	1982.565430	6.270082
163.157447	5869.220000	1981.597656	44.865280
163.157447	5869.220000	1980.629883	16.740549
163.157447	5869.220000	1979.662109	-13.850079
163.157447	5869.220000	1978.694336	-51.843269
163.157447	5869.220000	1977.726563	18.805254
163.157447	5869.220000	1976.758789	-6.847804
163.157447	5869.220000	1975.790039	122.989113
163.157447	5869.220000	1974.821289	75.109978
163.157447	5869.220000	1973.852539	-7.294027
163.157447	5869.220000	1972.883789	-55.137215
163.157447	5869.220000	1971.915039	-14.182053
163.157447	5869.220000	1970.945313	-29.956411
163.157447	5869.220000	1969.975586	25.766720
163.157447	5869.220000	1969.005859	74.073700
163.157447	5869.220000	1968.036133	-5.784080
163.157447	5869.220000	1967.066406	20.335131
163.157447	5869.220000	1966.096680	9.493478
163.157447	5869.220000	1965.125977	47.915440
163.157447	5869.220000	1964.155273	32.148499
163.157447	5869.220000	1963.184570	-0.845580
163.157447	5869.220000	1962.213867	-43.672188
163.157447	5869.220000	1961.242188	-84.020226
163.157447	5869.220000	1960.271484	99.572281
163.157447	5869.220000	1959.299805	54.296776
163.157447	5869.220000	1958.328125	9.040983
163.157447	5869.220000	1957.356445	-18.979750
163.157447	5869.220000	1956.384766	-34.692177
163.157447	5869.220000	1955.412109	45.481834
163.157447	5869.220000	1954.439453	66.639175
163.157447	5869.220000	1953.467773	-0.676764
163.157447	5869.220000	1952.495117	30.317722
163.157447	5869.220000	1951.521484	31.825470
163.157447	5869.220000	1950.548828	33.337795
163.157447	5869.220000	1949.575195	74.144257
163.157447	5869.220000	1948.601563	-7.819737
163.157447	5869.220000	1947.627930	106.631516
163.157447	5869.220000	1946.654297	90.968124
163.157447	5869.220000	1945.680664	124.392593
163.157447	5869.220000	1944.706055	20.420263
163.157447	5869.220000	1943.732422	21.968323
163.157447	5869.220000	1942.757813	21.068520
163.157447	5869.220000	1941.783203	47.146893
163.157447	5869.220000	1940.807617	43.802254
163.157447	5869.220000	1939.833008	-6.105418
163.157447	5869.220000	1938.857422	120.456619
163.157447	5869.220000	1937.881836	-17.641817
163.157447	5869.220000	1936.906250	-67.492714
163.157447	5869.220000	1935.930664	10.042873
163.157447	5869.220000	1934.955078	-12.845326
163.157447	5869.220000	1933.978516	-1.442308
163.157447	5869.220000	1933.001953	54.024761
163.157447	5869.220000	1932.025391	-30.027122
163.157447	5869.220000	1931.048828	-77.336487
163.157447	5869.220000	1930.072266	19.723372
163.157447	5869.220000	1929.094727	33.586201
163.157447	5869.220000	1928.118164	-87.058662
163.157447	5869.220000	1927.140625	124.889442
163.157447	5869.220000	1926.163086	9.173722
163.157447	5869.220000	1925.184570	-69.829201
163.157447	5869.220000	1924.207031	-19.275295
163.157447	5869.220000	1923.228516	43.482285
163.157447	5869.220000	1922.250000	74.464767
163.157447	5869.220000	1921.271484	81.017288
163.157447	5869.220000	1920.292969	11.871968
163.157447	5869.220000	1919.314453	23.328041
163.157447	5869.220000	1918.334961	29.903252
163.157447	5869.220000	1917.355469	-131.920303
163.157447	5869.220000	1916.375977	-8.180301
163.157447	5869.220000	1915.396484	0.853136
163.157447	5869.220000	1914.416992	26.963356
163.157447	5869.220000	1913.436523	67.701309
163.157447	5869.220000	1912.457031	-59.815491
163.157447	5869.220000	1911.476563	12.625795
163.157447	5869.220000	1910.496094	16.797243
163.157447	5869.220000	1909.515625	28.282713
163.157447	5869.220000	1908.534180	66.569923
163.157447	5869.220000	1907.552734	53.689960
163.157447	5869.220000	1906.572266	1.849903
163.157447	5869.220000	1905.590820	108.317795
163.157447	5869.220000	1904.608398	-1.937730
163.157447	5869.220000	1903.626953	-5.041712
163.157447	5869.220000	1902.644531	-10.574472
163.157447	5869.220000	1901.663086	20.398506
163.157447	5869.220000	1900.680664	29.467316
163.157447	5869.220000	1899.698242	82.319717
163.157447	5869.220000	1898.714844	6.261311
163.157447	5869.220000	1897.732422	-40.587395
163.157447	5869.220000	1896.749023	87.620064
163.157447	5869.220000	1895.765625	31.056776
163.157447	5869.220000	1894.782227	35.270908
163.157447	5869.220000	1893.798828	12.759126
163.157447	5869.220000	1892.814453	-43.751339
163.157447	5869.220000	1891.831055	-5.516000
163.157447	5869.220000	1890.846680	-11.003070
163.157447	5869.220000	1889.862305	29.643126
163.157447	5869.220000	1888.877930	-2.546829
163.157447	5869.220000	1887.892578	-37.150631
163.157447	5869.220000	1886.908203	83.556656
163.157447	5869.220000	1885.922852	-77.202751
163.157447	5869.220000	1884.937500	72.575737
163.157447	5869.220000	1883.952148	62.239101
163.157447	5869.220000	1882.965820	17.960871
163.157447	5869.220000	1881.980469	27.033096
163.157447	5869.220000	1880.994141	91.848900
163.157447	5869.220000	1880.007813	-12.992897
163.157447	5869.220000	1879.021484	-91.144096
163.157447	5869.220000	1878.035156	7.570406
163.157447	5869.220000	1877.047852	67.495766
163.157447	5869.220000	1876.061523	30.537306
163.157447	5869.220000	1875.074219	29.907490
163.157447	5869.220000	1874.086914	63.165089
163.157447	5869.220000	1873.098633	62.526825
163.157447	5869.220000	1872.111328	-37.320709
163.157447	5869.220000	1871.123047	-11.331571
163.157447	5869.220000	1870.135742	-72.430740
163.157447	5869.220000	1869.147461	35.774395
163.157447	5869.220000	1868.158203	-10.808148
163.157447	5869.220000	1867.169922	22.399590
163.157447	5869.220000	1866.180664	103.931816
163.157447	5869.220000	1865.192383	25.939741
163.157447	5869.220000	1864.203125	-3.704786
163.157447	5869.220000	1863.213867	34.295795
163.157447	5869.220000	1862.223633	108.506088
163.157447	5869.220000	1861.234375	71.608093
163.157447	5869.220000	1860.244141	12.991705
163.157447	5869.220000	1859.253906	7.496973
163.157447	5869.220000	1858.263672	26.133728
163.157447	5869.220000	1857.273438	-27.627998
163.157447	5869.220000	1856.282227	34.423111
163.157447	5869.220000	1855.291992	53.030384
163.157447	5869.220000	1854.300781	-27.247633
163.157447	5869.220000	1853.309570	8.231640
163.157447	5869.220000	1852.317383	-4.520697
163.157447	5869.220000	1851.326172	-72.707558
163.157447	5869.220000	1850.333984	15.757406
163.157447	5869.220000	1849.342773	72.862953
163.157447	5869.220000	1848.350586	91.399742
163.157447	5869.220000	1847.357422	-12.903640
163.157447	5869.220000	1846.365234	-13.633596
163.157447	5869.220000	1845.372070	38.594017
163.157447	5869.220000	1844.379883	-39.182896
163.157447	5869.220000	1843.386719	56.334332
163.157447	5869.220000	1842.393555	41.127708
163.157447	5869.220000	1841.399414	49.975868
163.157447	5869.220000	1840.406250	-8.531968
163.157447	5869.220000	1839.412109	72.449707
163.157447	5869.220000	1838.417969	163.010345
163.157447	5869.220000	1837.423828	-13.297460
163.157447	5869.220000	1836.429688	31.564951
163.157447	5869.220000	1835.434570	141.281204
163.157447	5869.220000	1834.440430	-25.337452
163.157447	5869.220000	1833.445313	17.074427
163.157447	5869.220000	1832.450195	-67.821869
163.157447	5869.220000	1831.454102	-37.441124
163.157447	5869.220000	1830.458984	43.333408
163.157447	5869.220000	1829.462891	32.859776
163.157447	5869.220000	1828.466797	60.777351
163.157447	5869.220000	1827.470703	-9.697206
163.157447	5869.220000	1826.474609	92.563660
163.157447	5869.220000	1825.478516	154.003174
163.157447	5869.220000	1824.481445	52.348103
163.157447	5869.220000	1823.484375	-22.905933
163.157447	5869.220000	1822.487305	177.519745
163.157447	5869.220000	1821.490234	71.094513
163.157447	5869.220000	1820.493164	113.260384
163.157447	5869.220000	1819.495117	2.074643
163.157447	5869.220000	1818.498047	104.097893
163.157447	5869.220000	1817.500000	150.991211
163.157447	5869.220000	1816.500977	51.800606
163.157447	5869.220000	1815.502930	-76.089783
163.157447	5869.220000	1814.504883	23.433983
163.157447	5869.220000	1813.505859	29.581968
163.157447	5869.220000	1812.506836	40.501541
163.157447	5869.220000	1811.507813	58.581768
163.157447	5869.220000	1810.508789	93.385048
163.157447	5869.220000	1809.508789	63.601410
163.157447	5869.220000	1808.508789	50.552582
163.157447	5869.220000	1807.508789	118.766068
163.157447	5869.220000	1806.508789	-54.430336
163.157447	5869.220000	1805.508789	1.806792
163.157447	5869.220000	1804.508789	-13.657152
163.157447	5869.220000	1803.507813	-5.243281
163.157447	5869.220000	1802.506836	81.959824
163.157447	5869.220000	1801.505859	9.150814
163.157447	5869.220000	1800.504883	-44.546108
163.157447	5869.220000	1799.502930	-29.022797
163.157447	5869.220000	1798.501953	24.662443
163.157447	5869.220000	1797.500000	32.984512
163.157447	5869.220000	1796.498047	110.464775
163.157447	5869.220000	1795.496094	-21.964212
163.157447	5869.220000	1794.493164	29.242420
163.157447	5869.220000	1793.491211	8.899059
163.157447	5869.220000	1792.488281	45.753693
163.157447	5869.220000	1791.485352	46.835564
163.157447	5869.220000	1790.482422	116.999611
163.157447	5869.220000	1789.478516	29.901257
163.157447	5869.220000	1788.475586	-4.779022
163.157447	5869.220000	1787.471680	10.546013
163.157447	5869.220000	1786.467773	-26.525471
163.157447	5869.220000	1785.463867	-15.989108
163.157447	5869.220000	1784.459961	49.267372
163.157447	5869.220000	1783.455078	35.963295
163.157447	5869.220000	1782.450195	-115.330452
163.157447	5869.220000	1781.445313	-7.319464
163.157447	5869.220000	1780.440430	29.294584
163.157447	5869.220000	1779.435547	27.838823
163.157447	5869.220000	1778.429688	-54.454781
163.157447	5869.220000	1777.424805	-46.413979
163.157447	5869.220000	1776.418945	-66.905891
163.157447	5869.220000	1775.413086	-51.766266
163.157447	5869.220000	1774.406250	17.986828
163.157447	5869.220000	1773.400391	-76.169319
163.157447	5869.220000	1772.393555	83.765259
163.157447	5869.220000	1771.386719	10.970519
163.157447	5869.220000	1770.379883	-21.459305
163.157447	5869.220000	1769.373047	-1.681427
163.157447	5869.220000	1768.365234	34.682743
163.157447	5869.220000	1767.358398	47.298409
163.157447	5869.220000	1766.350586	52.779423
163.157447	5869.220000	1765.342773	17.932283
163.157447	5869.220000	1764.334961	23.389578
163.157447	5869.220000	1763.326172	88.090881
163.157447	5869.220000	1762.318359	53.216187
163.157447	5869.220000	1761.309570	56.252525
163.157447	5869.220000	1760.300781	7.154657
163.157447	5869.220000	1759.291016	-22.990171
163.157447	5869.220000	1758.282227	65.272789
163.157447	5869.220000	1757.272461	-9.885185
163.157447	5869.220000	1756.262695	2.561037
163.157447	5869.220000	1755.252930	-18.146315
163.157447	5869.220000	1754.243164	8.468147
163.157447	5869.220000	1753.233398	65.816093
163.157447	5869.220000	1752.222656	71.087715
163.157447	5869.220000	1751.211914	-77.381958
163.157447	5869.220000	1750.201172	34.293598
163.157447	5869.220000	1749.190430	37.164494
163.157447	5869.220000	1748.179688	-4.888359
163.157447	5869.220000	1747.167969	61.768311
163.157447	5869.220000	1746.156250	88.219589
163.157447	5869.220000	1745.144531	29.604712
163.157447	5869.220000	1744.132813	-21.915131
163.157447	5869.220000	1743.121094	82.425026
163.157447	5869.220000	1742.108398	-25.775043
163.157447	5869.220000	1741.095703	118.627922
163.157447	5869.220000	1740.083008	10.436744
163.157447	5869.220000	1739.070313	128.796997
163.157447	5869.220000	1738.057617	-64.309547
163.157447	5869.220000	1737.043945	6.819378
163.157447	5869.220000	1736.030273	-61.228558
163.157447	5869.220000	1735.016602	87.655624
163.157447	5869.220000	1734.002930	-22.838549
163.157447	5869.220000	1732.989258	52.893028
163.157447	5869.220000	1731.974609	79.096756
163.157447	5869.220000	1730.959961	-0.741913
163.157447	5869.220000	1729.945313	46.638340
163.157447	5869.220000	1728.930664	-61.448425
163.157447	5869.220000	1727.916016	54.186863
163.157447	5869.220000	1726.900391	-25.634243
163.157447	5869.220000	1725.885742	85.219360
163.157447	5869.220000	1724.870117	50.112846
163.157447	5869.220000	1723.853516	19.712563
163.157447	5869.220000	1722.837891	88.115242
163.157447	5869.220000	1721.822266	3.603612
163.157447	5869.220000	1720.805664	-50.318436
163.157447	5869.220000	1719.789063	13.321733
163.157447	5869.220000	1718.772461	72.225891
163.157447	5869.220000	1717.754883	1.836382
163.157447	5869.220000	1716.738281	79.496651
163.157447	5869.220000	1715.720703	67.843201
163.157447	5869.220000	1714.703125	-82.395660
163.157447	5869.220000	1713.685547	-40.022045
163.157447	5869.220000	1712.667969	-21.153513
163.157447	5869.220000	1711.649414	18.823128
163.157447	5869.220000	1710.630859	-11.635745
163.157447	5869.220000	1709.612305	-32.706268
163.157447	5869.220000	1708.593750	-72.547256
163.157447	5869.220000	1707.575195	51.813358
163.157447	5869.220000	1706.555664	16.641315
163.157447	5869.220000	1705.536133	-121.695580
163.157447	5869.220000	1704.516602	-131.051941
163.157447	5869.220000	1703.497070	-56.034538
163.157447	5869.220000	1702.477539	28.318663
163.157447	5869.220000	1701.457031	93.885437
163.157447	5869.220000	1700.437500	-20.952875
163.157447	5869.220000	1699.416992	-42.074905
163.157447	5869.220000	1698.395508	-4.658750
163.157447	5869.220000	1697.375000	28.054413
163.157447	5869.220000	1696.354492	-0.111605
163.157447	5869.220000	1695.333008	-18.915293
163.157447	5869.220000	1694.311523	-2.622541
163.157447	5869.220000	1693.290039	123.606400
163.157447	5869.220000	1692.267578	34.597744
163.157447	5869.220000	1691.246094	6.418012
163.157447	5869.220000	1690.223633	-7.732182
163.157447	5869.220000	1689.201172	160.446259
163.157447	5869.220000	1688.178711	45.762302
163.157447	5869.220000	1687.155273	36.263596
163.157447	5869.220000	1686.132813	31.436644
163.157447	5869.220000	1685.109375	-69.163261
163.157447	5869.220000	1684.085938	24.100161
163.157447	5869.220000	1683.062500	63.619892
163.157447	5869.220000	1682.039063	5.073097
163.157447	5869.220000	1681.014648	46.901653
163.157447	5869.220000	1679.990234	-81.638252
163.157447	5869.220000	1678.965820	-7.157302
163.157447	5869.220000	1677.941406	-23.682678
163.157447	5869.220000	1676.916992	36.755020
163.157447	5869.220000	1675.891602	34.205818
163.157447	5869.220000	1674.866211	-45.278915
163.157447	5869.220000	1673.840820	54.735313
163.157447	5869.220000	1672.815430	-15.410517
163.157447	5869.220000	1671.790039	-99.513107
163.157447	5869.220000	1670.763672	28.392338
163.157447	5869.220000	1669.737305	86.373817
163.157447	5869.220000	1668.710938	-44.285297
163.157447	5869.220000	1667.684570	50.930294
163.157447	5869.220000	1666.658203	13.427992
163.157447	5869.220000	1665.630859	31.788307
163.157447	5869.220000	1664.603516	-5.704195
163.157447	5869.220000	1663.576172	24.278292
163.157447	5869.220000	1662.548828	105.415382
163.157447	5869.220000	1661.520508	26.061996
163.157447	5869.220000	1660.493164	46.712902
163.157447	5869.220000	1659.464844	51.079723
163.157447	5869.220000	1658.436523	74.035179
163.157447	5869.220000	1657.408203	1.711028
163.157447	5869.220000	1656.378906	-24.125454
163.157447	5869.220000	1655.350586	54.571529
163.157447	5869.220000	1654.321289	44.987484
163.157447	5869.220000	1653.291992	86.486336
163.157447	5869.220000	1652.261719	97.787987
163.157447	5869.220000	1651.232422	-23.207251
163.157447	5869.220000	1650.202148	29.878248
163.157447	5869.220000	1649.171875	43.501923
163.157447	5869.220000	1648.141602	40.882454
163.157447	5869.220000	1647.111328	96.242424
163.157447	5869.220000	1646.080078	61.149647
163.157447	5869.220000	1645.049805	39.982193
163.157447	5869.220000	1644.018555	53.587929
163.157447	5869.220000	1642.987305	74.140839
163.157447	5869.220000	1641.955078	62.247799
163.157447	5869.220000	1640.923828	115.222427
163.157447	5869.220000	1639.891602	68.587875
163.157447	5869.220000	1638.859375	75.229805
163.157447	5869.220000	1637.827148	-17.678762
163.157447	5869.220000	1636.794922	95.453896
163.157447	5869.220000	1635.761719	4.892627
163.157447	5869.220000	1634.729492	80.960541
163.157447	5869.220000	1633.696289	80.659836
163.157447	5869.220000	1632.662109	165.935013
163.157447	5869.220000	1631.628906	29.190233
163.157447	5869.220000	1630.594727	128.318802
163.157447	5869.220000	1629.561523	111.837906
163.157447	5869.220000	1628.527344	146.207504
163.157447	5869.220000	1627.493164	205.983658
163.157447	5869.220000	1626.458008	228.774963
163.157447	5869.220000	1625.423828	117.599548
163.157447	5869.220000	1624.388672	237.394974
163.157447	5869.220000	1623.353516	172.442581
163.157447	5869.220000	1622.318359	162.919800
163.157447	5869.220000	1621.282227	141.863235
163.157447	5869.220000	1620.247070	201.582489
163.157447	5869.220000	1619.210938	180.535141
163.157447	5869.220000	1618.174805	210.244965
163.157447	5869.220000	1617.137695	205.354095
163.157447	5869.220000	1616.101563	232.751373
163.157447	5869.220000	1615.064453	299.329803
163.157447	5869.220000	1614.027344	255.258316
163.157447	5869.220000	1612.990234	188.166046
163.157447	5869.220000	1611.953125	183.309967
163.157447	5869.220000	1610.916016	353.522278
163.157447	5869.220000	1609.877930	238.102325
163.157447	5869.220000	1608.839844	111.220818
163.157447	5869.220000	1607.801758	216.905487
163.157447	5869.220000	1606.763672	99.296402
163.157447	5869.220000	1605.724609	149.724442
163.157447	5869.220000	1604.685547	128.816559
163.157447	5869.220000	1603.646484	110.224045
163.157447	5869.220000	1602.607422	160.640884
163.157447	5869.220000	1601.568359	240.937347
163.157447	5869.220000	1600.528320	100.509315
163.157447	5869.220000	1599.489258	169.308182
163.157447	5869.220000	1598.449219	125.481735
163.157447	5869.220000	1597.408203	88.571426
163.157447	5869.220000	1596.368164	168.839371
163.157447	5869.220000	1595.327148	44.676361
163.157447	5869.220000	1594.287109	-1.355964
163.157447	5869.220000	1593.246094	186.808243
163.157447	5869.220000	1592.204102	140.779770
163.157447	5869.220000	1591.163086	140.677567
163.157447	5869.220000	1590.121094	69.454262
163.157447	5869.220000	1589.079102	85.440292
163.157447	5869.220000	1588.037109	16.567425
163.157447	5869.220000	1586.995117	94.489616
163.157447	5869.220000	1585.953125	82.977264
163.157447	5869.220000	1584.910156	71.476906
163.157447	5869.220000	1583.867188	92.075745
163.157447	5869.220000	1582.824219	2.692867
163.157447	5869.220000	1581.781250	9.571568
163.157447	5869.220000	1580.737305	149.300507
163.157447	5869.220000	1579.693359	98.917282
163.157447	5869.220000	1578.649414	-38.437836
163.157447	5869.220000	1577.605469	32.577332
163.157447	5869.220000	1576.561523	34.916523
163.157447	5869.220000	1575.516602	151.673080
163.157447	5869.220000	1574.472656	135.707825
163.157447	5869.220000	1573.427734	-10.616655
163.157447	5869.220000	1572.381836	-21.950827
163.157447	5869.220000	1571.336914	71.905907
163.157447	5869.220000	1570.291016	65.154579
163.157447	5869.220000	1569.246094	33.278702
163.157447	5869.220000	1568.200195	188.798691
163.157447	5869.220000	1567.153320	19.856281
163.157447	5869.220000	1566.107422	129.658813
163.157447	5869.220000	1565.060547	113.825867
163.157447	5869.220000	1564.013672	75.178818
163.157447	5869.220000	1562.966797	45.690422
163.157447	5869.220000	1561.919922	-29.420942
163.157447	5869.220000	1560.872070	64.369118
163.157447	5869.220000	1559.825195	87.411324
163.157447	5869.220000	1558.777344	12.372777
163.157447	5869.220000	1557.729492	17.196087
163.157447	5869.220000	1556.680664	-9.892152
163.157447	5869.220000	1555.632813	65.629326
163.157447	5869.220000	1554.583984	111.503395
163.157447	5869.220000	1553.535156	29.761978
163.157447	5869.220000	1552.486328	-47.377300
163.157447	5869.220000	1551.436523	-131.307419
163.157447	5869.220000	1550.387695	-12.498957
163.157447	5869.220000	1549.337891	31.135096
163.157447	5869.220000	1548.288086	4.193469
163.157447	5869.220000	1547.238281	52.387192
163.157447	5869.220000	1546.187500	11.825304
163.157447	5869.220000	1545.136719	-58.283646
163.157447	5869.220000	1544.086914	53.628948
163.157447	5869.220000	1543.035156	67.715286
163.157447	5869.220000	1541.984375	56.799656
163.157447	5869.220000	1540.933594	-13.205176
163.157447	5869.220000	1539.881836	114.576988
163.157447	5869.220000	1538.830078	-14.467894
163.157447	5869.220000	1537.778320	-61.653713
163.157447	5869.220000	1536.725586	136.525406
163.157447	5869.220000	1535.673828	80.273773
163.157447	5869.220000	1534.621094	-37.250191
163.157447	5869.220000	1533.568359	74.582794
163.157447	5869.220000	1532.515625	75.166351
163.157447	5869.220000	1531.461914	16.761061
163.157447	5869.220000	1530.409180	-89.251671
163.157447	5869.220000	1529.355469	-13.731606
163.157447	5869.220000	1528.301758	-22.141821
163.157447	5869.220000	1527.247070	-12.393558
163.157447	5869.220000	1526.193359	-23.036453
163.157447	5869.220000	1525.138672	-15.527065
163.157447	5869.220000	1524.083984	-48.796322
163.157447	5869.220000	1523.029297	-52.581715
163.157447	5869.220000	1521.974609	81.835312
163.157447	5869.220000	1520.918945	-57.835537
163.157447	5869.220000	1519.863281	44.858772
163.157447	5869.220000	1518.807617	-22.269701
163.157447	5869.220000	1517.751953	-105.199905
163.157447	5869.220000	1516.696289	63.121174
163.157447	5869.220000	1515.639648	-8.448005
163.157447	5869.220000	1514.583008	35.399021
163.157447	5869.220000	1513.526367	-6.700740
163.157447	5869.220000	1512.469727	43.945866
163.157447	5869.220000	1511.412109	-86.279465
163.157447	5869.220000	1510.355469	-8.479101
163.157447	5869.220000	1509.297852	-18.831573
163.157447	5869.220000	1508.240234	9.248291
163.157447	5869.220000	1507.181641	87.032387
163.157447	5869.220000	1506.124023	13.476797
163.157447	5869.220000	1505.065430	-21.644733
163.157447	5869.220000	1504.006836	38.088348
163.157447	5869.220000	1502.948242	16.553268
163.157447	5869.220000	1501.888672	17.611586
163.157447	5869.220000	1500.830078	77.352524
163.157447	5869.220000	1499.770508	28.802414
163.157447	5869.220000	1498.710938	5.098769
163.157447	5869.220000	1497.650391	8.481380
163.157447	5869.220000	1496.590820	59.226585
163.157447	5869.220000	1495.530273	78.410660
163.157447	5869.220000	1494.469727	50.276981
163.157447	5869.220000	1493.409180	98.781868
163.157447	5869.220000	1492.348633	79.700966
163.157447	5869.220000	1491.287109	62.897205
163.157447	5869.220000	1490.225586	-7.927839
163.157447	5869.220000	1489.164063	90.150642
163.157447	5869.220000	1488.102539	-70.656410
163.157447	5869.220000	1487.041016	-37.835567
163.157447	5869.220000	1485.978516	35.491322
163.157447	5869.220000	1484.916016	14.322604
163.157447	5869.220000	1483.853516	69.649498
163.157447	5869.220000	1482.791016	12.536448
163.157447	5869.220000	1481.727539	4.926355
163.157447	5869.220000	1480.664063	10.825073
163.157447	5869.220000	1479.600586	16.734549
163.157447	5869.220000	1478.537109	33.903797
163.157447	5869.220000	1477.473633	-27.537802
163.157447	5869.220000	1476.409180	34.592720
163.157447	5869.220000	1475.344727	-13.288474
163.157447	5869.220000	1474.280273	116.098389
163.157447	5869.220000	1473.215820	79.484970
163.157447	5869.220000	1472.151367	92.200127
163.157447	5869.220000	1471.085938	10.779915
163.157447	5869.220000	1470.020508	46.046661
163.157447	5869.220000	1468.955078	56.488132
163.157447	5869.220000	1467.888672	33.558170
163.157447	5869.220000	1466.823242	-47.692459
163.157447	5869.220000	1465.756836	155.605865
163.157447	5869.220000	1464.690430	99.166496
163.157447	5869.220000	1463.624023	125.438370
163.157447	5869.220000	1462.556641	37.422527
163.157447	5869.220000	1461.490234	209.237915
163.157447	5869.220000	1460.422852	76.828300
163.157447	5869.220000	1459.355469	203.753845
163.157447	5869.220000	1458.287109	138.509308
163.157447	5869.220000	1457.219727	300.831421
163.157447	5869.220000	1456.151367	170.981949
163.157447	5869.220000	1455.083008	163.859863
163.157447	5869.220000	1454.014648	274.652618
163.157447	5869.220000	1452.945313	209.918243
163.157447	5869.220000	1451.876953	227.289337
163.157447	5869.220000	1450.807617	255.669144
163.157447	5869.220000	1449.738281	226.480972
163.157447	5869.220000	1448.668945	257.583679
163.157447	5869.220000	1447.598633	169.954788
163.157447	5869.220000	1446.528320	191.766342
163.157447	5869.220000	1445.458008	75.626213
163.157447	5869.220000	1444.387695	186.327057
163.157447	5869.220000	1443.317383	310.732117
163.157447	5869.220000	1442.246094	139.466705
163.157447	5869.220000	1441.174805	254.891006
163.157447	5869.220000	1440.103516	250.326263
163.157447	5869.220000	1439.032227	130.414734
163.157447	5869.220000	1437.960938	180.784531
163.157447	5869.220000	1436.888672	153.687531
163.157447	5869.220000	1435.816406	304.984802
163.157447	5869.220000	1434.744141	271.687744
163.157447	5869.220000	1433.670898	144.676941
163.157447	5869.220000	1432.598633	223.422272
163.157447	5869.220000	1431.525391	240.152725
163.157447	5869.220000	1430.452148	296.358185
163.157447	5869.220000	1429.378906	320.587921
163.157447	5869.220000	1428.304688	192.791870
163.157447	5869.220000	1427.231445	210.157578
163.157447	5869.220000	1426.157227	259.954895
163.157447	5869.220000	1425.083008	140.857529
163.157447	5869.220000	1424.007813	169.117722
163.157447	5869.220000	1422.933594	108.870613
163.157447	5869.220000	1421.858398	76.623520
163.157447	5869.220000	1420.783203	135.638168
163.157447	5869.220000	1419.708008	8.098090
163.157447	5869.220000	1418.631836	80.650620
163.157447	5869.220000	1417.555664	-11.858324
163.157447	5869.220000	1416.479492	11.405655
163.157447	5869.220000	1415.403320	72.521812
163.157447	5869.220000	1414.327148	40.145580
163.157447	5869.220000	1413.250000	-35.680847
163.157447	5869.220000	1412.173828	18.859261
163.157447	5869.220000	1411.096680	92.586472
163.157447	5869.220000	1410.018555	-19.777102
163.157447	5869.220000	1408.941406	-0.941410
163.157447	5869.220000	1407.863281	40.507690
163.157447	5869.220000	1406.785156	41.684525
163.157447	5869.220000	1405.707031	42.051643
163.157447	5869.220000	1404.628906	-21.246511
163.157447	5869.220000	1403.549805	47.247639
163.157447	5869.220000	1402.470703	-29.952948
163.157447	5869.220000	1401.391602	-27.774889
163.157447	5869.220000	1400.312500	15.264874
163.157447	5869.220000	1399.233398	-11.717304
163.157447	5869.220000	1398.153320	-19.766710
163.157447	5869.220000	1397.073242	29.881983
163.157447	5869.220000	1395.993164	89.250153
163.157447	5869.220000	1394.913086	-2.928165
163.157447	5869.220000	1393.832031	10.360865
163.157447	5869.220000	1392.750977	33.257027
163.157447	5869.220000	1391.669922	31.806114
163.157447	5869.220000	1390.588867	4.229215
163.157447	5869.220000	1389.506836	21.697195
163.157447	5869.220000	1388.425781	-38.613678
163.157447	5869.220000	1387.343750	62.765396
163.157447	5869.220000	1386.261719	63.201672
163.157447	5869.220000	1385.178711	112.190521
163.157447	5869.220000	1384.096680	64.986725
163.157447	5869.220000	1383.013672	-23.449369
163.157447	5869.220000	1381.930664	103.990410
163.157447	5869.220000	1380.846680	19.696251
163.157447	5869.220000	1379.763672	88.497551
163.157447	5869.220000	1378.679688	-60.032455
163.157447	5869.220000	1377.595703	46.594715
163.157447	5869.220000	1376.511719	-78.909630
163.157447	5869.220000	1375.427734	-55.180847
163.157447	5869.220000	1374.342773	-68.915855
163.157447	5869.220000	1373.257813	-22.595930
163.157447	5869.220000	1372.172852	-64.961182
163.157447	5869.220000	1371.087891	-8.016853
163.157447	5869.220000	1370.001953	30.099270
163.157447	5869.220000	1368.916992	110.913879
163.157447	5869.220000	1367.831055	25.546547
163.157447	5869.220000	1366.744141	51.403435
163.157447	5869.220000	1365.658203	81.374702
163.157447	5869.220000	1364.571289	27.227201
163.157447	5869.220000	1363.484375	61.264458
163.157447	5869.220000	1362.397461	-17.566139
163.157447	5869.220000	1361.310547	40.186466
163.157447	5869.220000	1360.222656	141.012253
163.157447	5869.220000	1359.135742	-49.796886
163.157447	5869.220000	1358.047852	49.455944
163.157447	5869.220000	1356.958984	73.838760
163.157447	5869.220000	1355.871094	4.972999
163.157447	5869.220000	1354.782227	44.140800
163.157447	5869.220000	1353.693359	22.378527
163.157447	5869.220000	1352.604492	14.377946
163.157447	5869.220000	1351.515625	88.552750
163.157447	5869.220000	1350.425781	66.394951
163.157447	5869.220000	1349.335938	30.704790
163.157447	5869.220000	1348.246094	20.938189
163.157447	5869.220000	1347.156250	-130.686462
163.157447	5869.220000	1346.066406	53.069221
163.157447	5869.220000	1344.975586	86.882355
163.157447	5869.220000	1343.884766	34.587559
163.157447	5869.220000	1342.793945	17.398329
163.157447	5869.220000	1341.702148	-13.828277
163.157447	5869.220000	1340.611328	-19.092390
163.157447	5869.220000	1339.519531	59.784592
163.157447	5869.220000	1338.427734	50.308395
163.157447	5869.220000	1337.334961	-20.505205
163.157447	5869.220000	1336.243164	-68.454735
163.157447	5869.220000	1335.150391	-74.223106
163.157447	5869.220000	1334.057617	25.301571
163.157447	5869.220000	1332.964844	44.883339
163.157447	5869.220000	1331.871094	-92.388756
163.157447	5869.220000	1330.778320	-49.900711
163.157447	5869.220000	1329.684570	-20.696945
163.157447	5869.220000	1328.590820	-21.417303
163.157447	5869.220000	1327.496094	-20.907772
163.157447	5869.220000	1326.402344	8.430230
163.157447	5869.220000	1325.307617	17.036942
163.157447	5869.220000	1324.212891	14.617955
163.157447	5869.220000	1323.117188	26.584633
163.157447	5869.220000	1322.022461	17.817003
163.157447	5869.220000	1320.926758	-17.261496
163.157447	5869.220000	1319.831055	-37.577374
163.157447	5869.220000	1318.735352	71.401718
163.157447	5869.220000	1317.638672	61.199711
163.157447	5869.220000	1316.542969	23.911915
163.157447	5869.220000	1315.446289	83.964745
163.157447	5869.220000	1314.349609	45.361362
163.157447	5869.220000	1313.251953	133.728012
163.157447	5869.220000	1312.155273	51.198792
163.157447	5869.220000	1311.057617	98.125679
163.157447	5869.220000	1309.959961	92.860222
163.157447	5869.220000	1308.862305	127.168388
163.157447	5869.220000	1307.763672	123.846375
163.157447	5869.220000	1306.665039	141.673447
163.157447	5869.220000	1305.566406	124.468544
163.157447	5869.220000	1304.467773	139.439804
163.157447	5869.220000	1303.369141	134.619095
163.157447	5869.220000	1302.269531	148.288467
163.157447	5869.220000	1301.169922	79.906815
163.157447	5869.220000	1300.070313	39.495529
163.157447	5869.220000	1298.970703	67.086449
163.157447	5869.220000	1297.870117	74.288551
163.157447	5869.220000	1296.769531	77.139107
163.157447	5869.220000	1295.668945	41.298645
163.157447	5869.220000	1294.568359	68.694771
163.157447	5869.220000	1293.466797	143.386902
163.157447	5869.220000	1292.366211	121.186768
163.157447	5869.220000	1291.264648	168.337570
163.157447	5869.220000	1290.162109	4.284268
163.157447	5869.220000	1289.060547	149.083450
163.157447	5869.220000	1287.958008	163.815247
163.157447	5869.220000	1286.855469	86.796478
163.157447	5869.220000	1285.752930	69.675217
163.157447	5869.220000	1284.650391	156.724777
163.157447	5869.220000	1283.546875	131.743362
163.157447	5869.220000	1282.444336	76.013603
163.157447	5869.220000	1281.339844	124.191093
163.157447	5869.220000	1280.236328	91.250153
163.157447	5869.220000	1279.132813	78.034378
163.157447	5869.220000	1278.028320	41.079781
163.157447	5869.220000	1276.923828	101.355736
163.157447	5869.220000	1275.819336	128.068436
163.157447	5869.220000	1274.713867	9.342029
163.157447	5869.220000	1273.608398	60.504280
163.157447	5869.220000	1272.503906	5.002121
163.157447	5869.220000	1271.397461	47.686470
163.157447	5869.220000	1270.291992	19.968636
163.157447	5869.220000	1269.185547	86.859467
163.157447	5869.220000	1268.080078	74.780746
163.157447	5869.220000	1266.972656	26.992102
163.157447	5869.220000	1265.866211	32.891407
163.157447	5869.220000	1264.759766	-5.692603
163.157447	5869.220000	1263.652344	125.546104
163.157447	5869.220000	1262.544922	65.751717
163.157447	5869.220000	1261.436523	-32.628857
163.157447	5869.220000	1260.329102	36.823490
163.157447	5869.220000	1259.220703	53.579815
163.157447	5869.220000	1258.112305	-24.897572
163.157447	5869.220000	1257.003906	-25.183481
163.157447	5869.220000	1255.895508	21.458803
163.157447	5869.220000	1254.786133	3.593605
163.157447	5869.220000	1253.676758	-14.652690
163.157447	5869.220000	1252.567383	-84.868317
163.157447	5869.220000	1251.458008	6.351404
163.157447	5869.220000	1250.347656	28.483156
163.157447	5869.220000	1249.237305	-7.399651
163.157447	5869.220000	1248.126953	34.238533
163.157447	5869.220000	1247.016602	-18.330423
163.157447	5869.220000	1245.905273	11.872110
163.157447	5869.220000	1244.793945	-44.649776
163.157447	5869.220000	1243.682617	-11.967963
163.157447	5869.220000	1242.571289	-4.163107
163.157447	5869.220000	1241.459961	3.225148
163.157447	5869.220000	1240.347656	-6.689814
163.157447	5869.220000	1239.235352	3.928139
163.157447	5869.220000	1238.123047	17.755674
163.157447	5869.220000	1237.009766	39.875408
163.157447	5869.220000	1235.897461	32.073734
163.157447	5869.220000	1234.784180	-26.983772
163.157447	5869.220000	1233.670898	11.570525
163.157447	5869.220000	1232.556641	99.989159
163.157447	5869.220000	1231.443359	-62.219521
163.157447	5869.220000	1230.329102	-28.832109
163.157447	5869.220000	1229.214844	8.117929
163.157447	5869.220000	1228.099609	-65.497253
163.157447	5869.220000	1226.985352	46.011379
163.157447	5869.220000	1225.870117	-71.835419
163.157447	5869.220000	1224.754883	-1.548151
163.157447	5869.220000	1223.639648	37.832821
163.157447	5869.220000	1222.523438	-7.315239
163.157447	5869.220000	1221.408203	-2.786899
163.157447	5869.220000	1220.291992	26.114101
163.157447	5869.220000	1219.174805	-5.836689
163.157447	5869.220000	1218.058594	68.106224
163.157447	5869.220000	1216.941406	43.855381
163.157447	5869.220000	1215.824219	-17.314758
163.157447	5869.220000	1214.707031	7.120381
163.157447	5869.220000	1213.589844	-75.659096
163.157447	5869.220000	1212.471680	-60.342106
163.157447	5869.220000	1211.353516	-10.616840
163.157447	5869.220000	1210.235352	-127.028038
163.157447	5869.220000	1209.117188	15.557526
163.157447	5869.220000	1207.998047	-22.318367
163.157447	5869.220000	1206.878906	89.872917
163.157447	5869.220000	1205.759766	68.096153
163.157447	5869.220000	1204.640625	36.632046
163.157447	5869.220000	1203.520508	18.580210
163.157447	5869.220000	1202.401367	36.303703
163.157447	5869.220000	1201.281250	-10.215691
163.157447	5869.220000	1200.160156	4.988746
163.157447	5869.220000	1199.040039	21.366037
163.157447	5869.220000	1197.918945	-2.770763
163.157447	5869.220000	1196.797852	29.124363
163.157447	5869.220000	1195.676758	-10.254061
163.157447	5869.220000	1194.555664	12.190588
163.157447	5869.220000	1193.433594	27.310581
163.157447	5869.220000	1192.311523	-43.414196
163.157447	5869.220000	1191.189453	11.685629
163.157447	5869.220000	1190.066406	8.265788
163.157447	5869.220000	1188.944336	30.262465
163.157447	5869.220000	1187.821289	-8.264056
163.157447	5869.220000	1186.698242	69.708130
163.157447	5869.220000	1185.574219	-13.424308
163.157447	5869.220000	1184.451172	-1.359652
163.157447	5869.220000	1183.327148	3.850522
163.157447	5869.220000	1182.203125	11.952998
163.157447	5869.220000	1181.078125	-8.266651
163.157447	5869.220000	1179.954102	3.749680
163.157447	5869.220000	1178.829102	-62.319153
163.157447	5869.220000	1177.704102	-33.366722
163.157447	5869.220000	1176.579102	-28.718018
163.157447	5869.220000	1175.453125	-68.490814
163.157447	5869.220000	1174.327148	-87.887009
163.157447	5869.220000	1173.201172	-32.034580
163.157447	5869.220000	1172.075195	5.208048
163.157447	5869.220000	1170.949219	22.911877
163.157447	5869.220000	1169.822266	28.467657
163.157447	5869.220000	1168.695313	17.418640
163.157447	5869.220000	1167.568359	7.143450
163.157447	5869.220000	1166.440430	28.066029
163.157447	5869.220000	1165.313477	-57.747791
163.157447	5869.220000	1164.185547	-48.083641
163.157447	5869.220000	1163.057617	2.652535
163.157447	5869.220000	1161.928711	13.447159
163.157447	5869.220000	1160.800781	11.435456
163.157447	5869.220000	1159.671875	-20.477097
163.157447	5869.220000	1158.541992	-58.592789
163.157447	5869.220000	1157.413086	34.106941
163.157447	5869.220000	1156.283203	5.811477
163.157447	5869.220000	1155.154297	-17.886372
163.157447	5869.220000	1154.023438	-5.115045
163.157447	5869.220000	1152.893555	17.050972
163.157447	5869.220000	1151.763672	14.767013
163.157447	5869.220000	1150.632813	99.516998
163.157447	5869.220000	1149.501953	-3.529233
163.157447	5869.220000	1148.370117	-3.778642
163.157447	5869.220000	1147.239258	-44.108536
163.157447	5869.220000	1146.107422	34.220894
163.157447	5869.220000	1144.975586	-13.524541
163.157447	5869.220000	1143.843750	16.167353
163.157447	5869.220000	1142.710938	-47.694641
163.157447	5869.220000	1141.578125	-32.522911
163.157447	5869.220000	1140.445313	9.565828
163.157447	5869.220000	1139.312500	-90.259483
163.157447	5869.220000	1138.178711	3.467431
163.157447	5869.220000	1137.045898	23.592537
163.157447	5869.220000	1135.912109	-6.600031
163.157447	5869.220000	1134.777344	-16.507277
163.157447	5869.220000	1133.643555	27.333261
163.157447	5869.220000	1132.508789	8.831170
163.157447	5869.220000	1131.374023	7.926173
163.157447	5869.220000	1130.239258	-5.039936
163.157447	5869.220000	1129.104492	-23.013205
163.157447	5869.220000	1127.968750	22.070986
163.157447	5869.220000	1126.833008	1.178028
163.157447	5869.220000	1125.697266	1.941465
163.157447	5869.220000	1124.560547	22.535275
163.157447	5869.220000	1123.424805	-42.539627
163.157447	5869.220000	1122.288086	-4.552234
163.157447	5869.220000	1121.151367	81.171867
163.157447	5869.220000	1120.013672	36.489006
163.157447	5869.220000	1118.876953	-25.280516
163.157447	5869.220000	1117.739258	50.891140
163.157447	5869.220000	1116.601563	63.896183
163.157447	5869.220000	1115.462891	-20.641008
163.157447	5869.220000	1114.324219	32.229652
163.157447	5869.220000	1113.186523	77.823280
163.157447	5869.220000	1112.046875	34.925770
163.157447	5869.220000	1110.908203	34.251244
163.157447	5869.220000	1109.769531	-24.021257
163.157447	5869.220000	1108.629883	-25.900204
163.157447	5869.220000	1107.490234	-77.296059
163.157447	5869.220000	1106.349609	20.138651
163.157447	5869.220000	1105.209961	10.126004
163.157447	5869.220000	1104.069336	78.965904
163.157447	5869.220000	1102.928711	17.283321
163.157447	5869.220000	1101.787109	14.883708
163.157447	5869.220000	1100.646484	52.335884
163.157447	5869.220000	1099.504883	131.051758
163.157447	5869.220000	1098.363281	22.238857
163.157447	5869.220000	1097.221680	161.654999
163.157447	5869.220000	1096.079102	88.974030
163.157447	5869.220000	1094.936523	110.579254
163.157447	5869.220000	1093.793945	89.127930
163.157447	5869.220000	1092.651367	121.290001
163.157447	5869.220000	1091.507813	77.763680
163.157447	5869.220000	1090.364258	88.235542
163.157447	5869.220000	1089.220703	36.994919
163.157447	5869.220000	1088.077148	30.716637
163.157447	5869.220000	1086.933594	43.001549
163.157447	5869.220000	1085.789063	52.156002
163.157447	5869.220000	1084.644531	106.213036
163.157447	5869.220000	1083.499023	-78.017586
163.157447	5869.220000	1082.354492	0.578332
163.157447	5869.220000	1081.208984	44.863190
163.157447	5869.220000	1080.063477	32.276798
163.157447	5869.220000	1078.917969	-26.463535
163.157447	5869.220000	1077.771484	11.718277
163.157447	5869.220000	1076.625977	43.447243
163.157447	5869.220000	1075.479492	85.960213
163.157447	5869.220000	1074.332031	36.105099
163.157447	5869.220000	1073.185547	44.085320
163.157447	5869.220000	1072.038086	31.670404
163.157447	5869.220000	1070.890625	81.144211
163.157447	5869.220000	1069.743164	36.502369
163.157447	5869.220000	1068.594727	35.920288
163.157447	5869.220000	1067.447266	78.767952
163.157447	5869.220000	1066.298828	107.337784
163.157447	5869.220000	1065.149414	18.530678
163.157447	5869.220000	1064.000977	-14.245266
163.157447	5869.220000	1062.851563	113.264259
163.157447	5869.220000	1061.702148	54.648827
163.157447	5869.220000	1060.552734	11.799093
163.157447	5869.220000	1059.402344	104.982216
163.157447	5869.220000	1058.252930	-16.817711
163.157447	5869.220000	1057.102539	66.508789
163.157447	5869.220000	1055.951172	68.228325
163.157447	5869.220000	1054.800781	-12.082679
163.157447	5869.220000	1053.649414	82.807037
163.157447	5869.220000	1052.498047	14.841833
163.157447	5869.220000	1051.346680	52.182873
163.157447	5869.220000	1050.194336	36.443226
163.157447	5869.220000	1049.042969	33.044819
163.157447	5869.220000	1047.890625	74.286491
163.157447	5869.220000	1046.738281	27.662430
163.157447	5869.220000	1045.584961	19.678749
163.157447	5869.220000	1044.431641	-1.588565
163.157447	5869.220000	1043.278320	-23.877268
163.157447	5869.220000	1042.125000	132.015564
163.157447	5869.220000	1040.971680	5.043579
163.157447	5869.220000	1039.817383	49.742897
163.157447	5869.220000	1038.663086	50.477615
163.157447	5869.220000	1037.508789	-23.595488
163.157447	5869.220000	1036.353516	78.836304
163.157447	5869.220000	1035.198242	-15.104598
163.157447	5869.220000	1034.042969	54.767399
163.157447	5869.220000	1032.887695	-124.499573
163.157447	5869.220000	1031.732422	52.129444
163.157447	5869.220000	1030.576172	28.492525
163.157447	5869.220000	1029.419922	57.173054
163.157447	5869.220000	1028.263672	-26.468582
163.157447	5869.220000	1027.106445	73.634933
163.157447	5869.220000	1025.949219	-55.677380
163.157447	5869.220000	1024.792969	12.072165
163.157447	5869.220000	1023.634766	54.184769
163.157447	5869.220000	1022.477539	20.270452
163.157447	5869.220000	1021.319336	65.909325
163.157447	5869.220000	1020.161133	-16.961916
163.157447	5869.220000	1019.002930	-58.579563
163.157447	5869.220000	1017.843750	54.348022
163.157447	5869.220000	1016.684570	24.643785
163.157447	5869.220000	1015.525391	76.326317
163.157447	5869.220000	1014.366211	59.747952
163.157447	5869.220000	1013.207031	-9.118361
163.157447	5869.220000	1012.046875	-12.373094
163.157447	5869.220000	1010.886719	101.501289
163.157447	5869.220000	1009.726563	-65.816940
163.157447	5869.220000	1008.565430	42.026802
163.157447	5869.220000	1007.404297	21.918242
163.157447	5869.220000	1006.243164	13.868401
163.157447	5869.220000	1005.082031	5.473027
163.157447	5869.220000	1003.920898	-41.450943
163.157447	5869.220000	1002.758789	23.599014
163.157447	5869.220000	1001.596680	146.144867
163.157447	5869.220000	1000.433594	91.887367
163.157447	5869.220000	999.271484	70.564774
163.157447	5869.220000	998.108398	42.537785
163.157447	5869.220000	996.945313	51.415295
163.157447	5869.220000	995.782227	73.480545
163.157447	5869.220000	994.618164	46.927937
163.157447	5869.220000	993.454102	-72.641205
163.157447	5869.220000	992.290039	62.393776
163.157447	5869.220000	991.125977	-10.275921
163.157447	5869.220000	989.960938	-56.386097
163.157447	5869.220000	988.796875	-31.464300
163.157447	5869.220000	987.630859	-97.973396
163.157447	5869.220000	986.465820	-17.624023
163.157447	5869.220000	985.300781	35.446159
163.157447	5869.220000	984.134766	-8.881968
163.157447	5869.220000	982.968750	-47.363728
163.157447	5869.220000	981.801758	3.706949
163.157447	5869.220000	980.635742	20.527662
163.157447	5869.220000	979.468750	23.275639
163.157447	5869.220000	978.301758	-38.481918
163.157447	5869.220000	977.133789	19.310411
163.157447	5869.220000	975.966797	8.858795
163.157447	5869.220000	974.798828	-78.456932
163.157447	5869.220000	973.630859	76.246132
163.157447	5869.220000	972.461914	36.277767
163.157447	5869.220000	971.293945	34.206242
163.157447	5869.220000	970.125000	-74.376724
163.157447	5869.220000	968.956055	-51.332371
163.157447	5869.220000	967.786133	-47.856285
163.157447	5869.220000	966.617188	-84.235161
163.157447	5869.220000	965.447266	20.746960
163.157447	5869.220000	964.276367	-51.039536
163.157447	5869.220000	963.106445	21.026146
163.157447	5869.220000	961.935547	-11.352997
163.157447	5869.220000	960.764648	-13.316255
163.157447	5869.220000	959.593750	92.372246
163.157447	5869.220000	958.422852	16.363657
163.157447	5869.220000	957.250977	-23.276403
163.157447	5869.220000	956.079102	81.922157
163.157447	5869.220000	954.907227	68.073624
163.157447	5869.220000	953.734375	-16.820856
163.157447	5869.220000	952.562500	1.643254
163.157447	5869.220000	951.389648	-101.249069
163.157447	5869.220000	950.215820	3.905277
163.157447	5869.220000	949.042969	69.708344
163.157447	5869.220000	947.869141	10.847678
163.157447	5869.220000	946.695313	100.002869
163.157447	5869.220000	945.521484	36.611198
163.157447	5869.220000	944.346680	50.366909
163.157447	5869.220000	943.172852	73.812752
163.157447	5869.220000	941.998047	-48.446518
163.157447	5869.220000	940.822266	-27.241930
163.157447	5869.220000	939.647461	-18.127155
163.157447	5869.220000	938.471680	0.672958
163.157447	5869.220000	937.295898	12.376828
163.157447	5869.220000	936.119141	-39.447788
163.157447	5869.220000	934.943359	40.309761
163.157447	5869.220000	933.766602	0.221976
163.157447	5869.220000	932.589844	-11.612351
163.157447	5869.220000	931.413086	42.286785
163.157447	5869.220000	930.235352	53.899967
163.157447	5869.220000	929.057617	-0.214040
163.157447	5869.220000	927.879883	32.517784
163.157447	5869.220000	926.702148	-5.145998
163.157447	5869.220000	925.523438	-2.936725
163.157447	5869.220000	924.344727	15.693388
163.157447	5869.220000	923.166016	-111.064232
163.157447	5869.220000	921.987305	38.860985
163.157447	5869.220000	920.807617	-33.945660
163.157447	5869.220000	919.627930	-33.564789
163.157447	5869.220000	919.497070	-5.912787
163.157447	5869.220000	918.331055	19.716621
163.157447	5869.220000	917.165039	-41.340626
163.157447	5869.220000	915.999023	42.831745
163.157447	5869.220000	914.833008	206.581161
163.157447	5869.220000	913.666016	42.507061
163.157447	5869.220000	912.499023	107.878685
163.157447	5869.220000	911.332031	30.471928
163.157447	5869.220000	910.165039	-53.925114
163.157447	5869.220000	908.997070	13.758179
163.157447	5869.220000	907.830078	60.362537
163.157447	5869.220000	906.661133	36.798523
163.157447	5869.220000	905.493164	158.182938
163.157447	5869.220000	904.325195	197.710434
163.157447	5869.220000	903.156250	108.694275
163.157447	5869.220000	901.987305	171.574387
163.157447	5869.220000	900.818359	164.350281
163.157447	5869.220000	899.648438	201.499298
163.157447	5869.220000	898.478516	147.569000
163.157447	5869.220000	897.308594	198.708115
163.157447	5869.220000	896.138672	256.825806
163.157447	5869.220000	894.968750	277.581482
163.157447	5869.220000	893.797852	163.011826
163.157447	5869.220000	892.626953	15.831169
163.157447	5869.220000	891.456055	265.157928
163.157447	5869.220000	890.284180	80.706444
163.157447	5869.220000	889.113281	213.358078
163.157447	5869.220000	887.941406	215.438034
163.157447	5869.220000	886.768555	252.467316
163.157447	5869.220000	885.596680	110.093369
163.157447	5869.220000	884.423828	-4.274130
163.157447	5869.220000	883.250977	90.988350
163.157447	5869.220000	882.078125	69.796593
163.157447	5869.220000	880.905273	48.611271
163.157447	5869.220000	879.731445	4.159454
163.157447	5869.220000	878.557617	-35.623077
163.157447	5869.220000	877.383789	89.779053
163.157447	5869.220000	876.209961	12.776495
163.157447	5869.220000	875.035156	-94.426903
163.157447	5869.220000	873.860352	-20.244967
163.157447	5869.220000	872.685547	32.983932
163.157447	5869.220000	871.510742	11.821795
163.157447	5869.220000	870.334961	27.841852
163.157447	5869.220000	869.159180	46.176189
163.157447	5869.220000	867.983398	18.049406
163.157447	5869.220000	866.807617	-54.187424
163.157447	5869.220000	865.630859	66.295013
163.157447	5869.220000	864.454102	-22.174646
163.157447	5869.220000	863.277344	82.002213
163.157447	5869.220000	862.100586	-85.324799
163.157447	5869.220000	860.922852	9.538854
163.157447	5869.220000	859.745117	64.934502
163.157447	5869.220000	858.567383	25.236895
163.157447	5869.220000	857.389648	27.281715
163.157447	5869.220000	856.210938	3.827461
163.157447	5869.220000	855.032227	184.303604
163.157447	5869.220000	853.853516	19.495039
163.157447	5869.220000	852.674805	-8.583346
163.157447	5869.220000	851.495117	42.087189
163.157447	5869.220000	850.315430	4.748867
163.157447	5869.220000	849.135742	43.816223
163.157447	5869.220000	847.956055	96.751404
163.157447	5869.220000	846.775391	-23.886086
163.157447	5869.220000	845.595703	47.543983
163.157447	5869.220000	844.415039	-107.734627
163.157447	5869.220000	843.233398	9.929416
163.157447	5869.220000	842.052734	51.243504
163.157447	5869.220000	840.871094	-16.107199
163.157447	5869.220000	839.689453	-30.276945
163.157447	5869.220000	838.506836	73.399712
163.157447	5869.220000	837.325195	38.420200
163.157447	5869.220000	836.142578	-12.715382
163.157447	5869.220000	834.959961	3.134616
163.157447	5869.220000	833.777344	-1.803503
163.157447	5869.220000	832.593750	-39.057915
163.157447	5869.220000	831.410156	-67.068741
163.157447	5869.220000	830.226563	-16.621883
163.157447	5869.220000	829.042969	-76.927330
163.157447	5869.220000	827.858398	38.073414
163.157447	5869.220000	826.673828	-70.648155
163.157447	5869.220000	825.489258	104.239014
163.157447	5869.220000	824.304688	60.081074
163.157447	5869.220000	823.120117	87.377045
163.157447	5869.220000	821.934570	45.538914
163.157447	5869.220000	820.749023	-14.713032
163.157447	5869.220000	819.562500	67.845695
163.157447	5869.220000	818.376953	81.290001
163.157447	5869.220000	817.190430	74.006844
163.157447	5869.220000	816.003906	46.009262
163.157447	5869.220000	814.817383	-4.991589
163.157447	5869.220000	813.629883	56.758305
163.157447	5869.220000	812.442383	-10.331294
163.157447	5869.220000	811.254883	32.990082
163.157447	5869.220000	810.067383	55.597168
163.157447	5869.220000	808.878906	-52.838062
163.157447	5869.220000	807.690430	54.807533
163.157447	5869.220000	806.501953	-14.526361
163.157447	5869.220000	805.313477	-33.293381
163.157447	5869.220000	804.124023	14.553186
163.157447	5869.220000	802.934570	-20.293673
163.157447	5869.220000	801.745117	22.931646
163.157447	5869.220000	800.555664	36.295040
163.157447	5869.220000	799.365234	-37.559132
163.157447	5869.220000	798.175781	65.289330
163.157447	5869.220000	796.985352	5.216809
163.157447	5869.220000	795.793945	82.778206
163.157447	5869.220000	794.603516	11.254341
163.157447	5869.220000	793.412109	-51.072910
163.157447	5869.220000	792.220703	-17.108923
163.157447	5869.220000	791.028320	81.003288
163.157447	5869.220000	789.836914	30.145144
163.157447	5869.220000	788.644531	27.409296
163.157447	5869.220000	787.452148	-41.745605
163.157447	5869.220000	786.258789	-16.996038
163.157447	5869.220000	785.066406	-22.021101
163.157447	5869.220000	783.873047	53.060165
163.157447	5869.220000	782.679688	15.978878
163.157447	5869.220000	781.485352	-53.120644
163.157447	5869.220000	780.291992	19.621340
163.157447	5869.220000	779.097656	-3.720144
163.157447	5869.220000	777.903320	-6.477927
163.157447	5869.220000	776.708008	25.050644
163.157447	5869.220000	775.512695	61.133083
163.157447	5869.220000	774.318359	-3.342960
163.157447	5869.220000	773.122070	89.835472
163.157447	5869.220000	771.926758	64.200745
163.157447	5869.220000	770.730469	75.110069
163.157447	5869.220000	769.534180	28.933273
163.157447	5869.220000	768.337891	80.924240
163.157447	5869.220000	767.141602	59.861027
163.157447	5869.220000	765.944336	4.577374
163.157447	5869.220000	764.747070	-75.780518
163.157447	5869.220000	763.549805	-44.353779
163.157447	5869.220000	762.351563	-44.867764
163.157447	5869.220000	761.154297	-63.624004
163.157447	5869.220000	759.956055	42.984894
163.157447	5869.220000	758.757813	46.997986
163.157447	5869.220000	757.558594	12.273394
163.157447	5869.220000	756.359375	121.065018
163.157447	5869.220000	755.160156	74.943886
163.157447	5869.220000	753.960938	126.745430
163.157447	5869.220000	752.761719	112.504074
163.157447	5869.220000	751.561523	23.157013
163.157447	5869.220000	750.361328	68.097580
163.157447	5869.220000	749.160156	17.463659
163.157447	5869.220000	747.959961	46.455997
163.157447	5869.220000	746.758789	25.402138
163.157447	5869.220000	745.557617	-43.393204
163.157447	5869.220000	744.356445	67.413223
163.157447	5869.220000	743.154297	-28.642750
163.157447	5869.220000	741.952148	73.016541
163.157447	5869.220000	740.750000	65.587135
163.157447	5869.220000	739.547852	53.613708
163.157447	5869.220000	738.344727	71.160873
163.157447	5869.220000	737.142578	-40.710205
163.157447	5869.220000	735.939453	10.887533
163.157447	5869.220000	734.735352	46.573456
163.157447	5869.220000	733.532227	100.391167
163.157447	5869.220000	732.328125	54.372490
163.157447	5869.220000	731.124023	40.119541
163.157447	5869.220000	729.918945	141.507233
163.157447	5869.220000	728.714844	118.164886
163.157447	5869.220000	727.509766	76.695824
163.157447	5869.220000	726.303711	12.579296
163.157447	5869.220000	725.098633	-17.531677
163.157447	5869.220000	723.892578	117.714996
163.157447	5869.220000	722.686523	67.203934
163.157447	5869.220000	721.480469	61.992027
163.157447	5869.220000	720.274414	20.559013
163.157447	5869.220000	719.067383	121.718735
163.157447	5869.220000	717.860352	44.078491
163.157447	5869.220000	716.653320	16.234966
163.157447	5869.220000	715.445313	-18.386923
163.157447	5869.220000	714.238281	17.100788
163.157447	5869.220000	713.030273	14.135339
163.157447	5869.220000	711.821289	15.687181
163.157447	5869.220000	710.613281	35.312759
163.157447	5869.220000	709.404297	36.850418
163.157447	5869.220000	708.195313	-9.054429
163.157447	5869.220000	706.986328	-84.303871
163.157447	5869.220000	705.776367	68.527237
163.157447	5869.220000	704.566406	-76.698395
163.157447	5869.220000	703.356445	30.917929
163.157447	5869.220000	702.146484	-26.242916
163.157447	5869.220000	700.935547	72.283997
163.157447	5869.220000	699.724609	28.662914
163.157447	5869.220000	698.513672	82.025688
163.157447	5869.220000	697.302734	-13.444807
163.157447	5869.220000	696.090820	24.116253
163.157447	5869.220000	694.878906	68.418053
163.157447	5869.220000	693.666992	-24.749842
163.157447	5869.220000	692.455078	28.545700
163.157447	5869.220000	691.242188	7.489312
163.157447	5869.220000	690.029297	-31.576994
163.157447	5869.220000	688.816406	111.726448
163.157447	5869.220000	687.602539	20.876007
163.157447	5869.220000	686.389648	78.585022
163.157447	5869.220000	685.175781	50.768623
163.157447	5869.220000	683.960938	-26.528009
163.157447	5869.220000	682.747070	19.896519
163.157447	5869.220000	681.532227	-25.890581
163.157447	5869.220000	680.317383	18.257669
163.157447	5869.220000	679.102539	60.135983
163.157447	5869.220000	677.886719	59.297859
163.157447	5869.220000	676.670898	42.729649
163.157447	5869.220000	675.455078	12.687978
163.157447	5869.220000	674.239258	20.830593
163.157447	5869.220000	673.022461	71.624084
163.157447	5869.220000	671.805664	64.029907
163.157447	5869.220000	670.588867	13.794678
163.157447	5869.220000	669.372070	-34.179459
163.157447	5869.220000	668.154297	52.459324
163.157447	5869.220000	666.936523	-8.967631
163.157447	5869.220000	665.718750	-41.222004
163.157447	5869.220000	664.500977	-17.419966
163.157447	5869.220000	663.282227	-9.321749
163.157447	5869.220000	662.063477	-97.589890
163.157447	5869.220000	660.844727	-17.791231
163.157447	5869.220000	659.625000	3.730725
163.157447	5869.220000	658.405273	45.395493
163.157447	5869.220000	657.185547	15.390619
163.157447	5869.220000	655.965820	90.606781
163.157447	5869.220000	654.745117	24.788361
163.157447	5869.220000	653.525391	97.726273
163.157447	5869.220000	652.303711	76.669945
163.157447	5869.220000	651.083008	71.276299
163.157447	5869.220000	649.861328	16.685183
163.157447	5869.220000	648.640625	35.892853
163.157447	5869.220000	647.417969	61.794704
163.157447	5869.220000	646.196289	156.960541
163.157447	5869.220000	644.973633	160.476730
163.157447	5869.220000	643.750977	150.585327
163.157447	5869.220000	642.528320	122.828621
163.157447	5869.220000	641.305664	16.930079
163.157447	5869.220000	640.082031	22.693630
163.157447	5869.220000	638.858398	68.626732
163.157447	5869.220000	637.634766	101.149124
163.157447	5869.220000	636.410156	122.499817
163.157447	5869.220000	635.185547	5.546850
163.157447	5869.220000	633.960938	-13.237045
163.157447	5869.220000	632.736328	63.856445
163.157447	5869.220000	631.510742	47.292400
163.157447	5869.220000	630.285156	32.961582
163.157447	5869.220000	629.059570	23.090870
163.157447	5869.220000	627.833984	-40.241787
163.157447	5869.220000	626.607422	43.445526
163.157447	5869.220000	625.380859	-15.415638
163.157447	5869.220000	624.154297	12.570541
163.157447	5869.220000	622.927734	16.059412
163.157447	5869.220000	621.700195	26.220629
163.157447	5869.220000	620.472656	-37.044277
163.157447	5869.220000	619.245117	-20.206421
163.157447	5869.220000	618.016602	-96.781456
163.157447	5869.220000	616.788086	-59.930580
163.157447	5869.220000	615.559570	36.923420
163.157447	5869.220000	614.331055	60.392685
163.157447	5869.220000	613.101563	68.296524
163.157447	5869.220000	611.872070	2.884390
163.157447	5869.220000	610.642578	-29.184715
163.157447	5869.220000	609.413086	-63.461735
163.157447	5869.220000	608.182617	-11.140540
163.157447	5869.220000	606.952148	16.741449
163.157447	5869.220000	605.721680	-39.718273
163.157447	5869.220000	604.491211	-102.811134
163.157447	5869.220000	603.259766	-1.727834
163.157447	5869.220000	602.028320	8.383134
163.157447	5869.220000	600.796875	-36.942997
163.157447	5869.220000	599.564453	70.710258
163.157447	5869.220000	598.332031	-14.505309
163.157447	5869.220000	597.099609	-37.640156
163.157447	5869.220000	595.867188	87.667374
163.157447	5869.220000	594.633789	37.940693
163.157447	5869.220000	593.400391	-44.981876
163.157447	5869.220000	592.166992	7.184903
163.157447	5869.220000	590.933594	34.980904
163.157447	5869.220000	589.699219	-16.904922
163.157447	5869.220000	588.464844	-20.091784
163.157447	5869.220000	587.230469	54.147453
163.157447	5869.220000	585.995117	8.926300
163.157447	5869.220000	584.760742	-36.274502
163.157447	5869.220000	583.525391	42.343521
163.157447	5869.220000	582.289063	-47.049137
163.157447	5869.220000	581.053711	-10.446110
163.157447	5869.220000	579.817383	19.513830
163.157447	5869.220000	578.581055	-83.066849
163.157447	5869.220000	577.343750	72.773262
163.157447	5869.220000	576.107422	21.008310
163.157447	5869.220000	574.870117	-8.659667
163.157447	5869.220000	573.631836	36.721809
163.157447	5869.220000	572.394531	135.040436
163.157447	5869.220000	571.156250	45.809315
163.157447	5869.220000	569.917969	36.016388
163.157447	5869.220000	568.679688	21.819206
163.157447	5869.220000	567.440430	58.334709
163.157447	5869.220000	566.202148	-46.226185
163.157447	5869.220000	564.961914	107.084129
163.157447	5869.220000	563.722656	15.780114
163.157447	5869.220000	562.482422	80.908073
163.157447	5869.220000	561.243164	71.134720
163.157447	5869.220000	560.001953	37.147919
163.157447	5869.220000	558.761719	80.223083
163.157447	5869.220000	557.520508	66.060577
163.157447	5869.220000	556.279297	78.310692
163.157447	5869.220000	555.038086	59.759624
163.157447	5869.220000	553.795898	113.798973
163.157447	5869.220000	552.554688	27.086390
163.157447	5869.220000	551.311523	-15.617728
163.157447	5869.220000	550.069336	-16.538752
163.157447	5869.220000	548.826172	57.258335
163.157447	5869.220000	547.583984	120.041748
163.157447	5869.220000	546.339844	61.988907
163.157447	5869.220000	545.096680	122.553841
163.157447	5869.220000	543.852539	27.205269
163.157447	5869.220000	542.608398	85.562180
163.157447	5869.220000	541.364258	38.551628
163.157447	5869.220000	540.119141	53.002228
163.157447	5869.220000	538.875000	74.031525
163.157447	5869.220000	537.628906	75.314758
163.157447	5869.220000	536.383789	61.251228
163.157447	5869.220000	535.137695	12.119238
163.157447	5869.220000	533.892578	-65.482758
163.157447	5869.220000	532.645508	14.732833
163.157447	5869.220000	531.399414	16.043661
163.157447	5869.220000	530.152344	12.976346
163.157447	5869.220000	528.905273	71.233315
163.157447	5869.220000	527.658203	-34.745483
163.157447	5869.220000	526.410156	51.961124
163.157447	5869.220000	525.163086	-1.435189
163.157447	5869.220000	523.914063	65.540955
163.157447	5869.220000	522.666016	-42.519894
163.157447	5869.220000	521.416992	31.004616
163.157447	5869.220000	520.167969	32.339565
163.157447	5869.220000	518.918945	110.195892
163.157447	5869.220000	517.669922	54.690536
163.157447	5869.220000	516.419922	3.582540
163.157447	5869.220000	515.169922	48.632614
163.157447	5869.220000	513.919922	-54.869709
163.157447	5869.220000	512.668945	46.961571
163.157447	5869.220000	511.417969	-87.057434
163.157447	5869.220000	510.166992	8.194815
163.157447	5869.220000	508.916016	-23.174526
163.157447	5869.220000	507.664063	19.660963
163.157447	5869.220000	506.412109	77.752472
163.157447	5869.220000	505.160156	-53.931789
163.157447	5869.220000	503.907227	-8.926968
163.157447	5869.220000	502.655273	-94.746658
163.157447	5869.220000	501.402344	0.386292
163.157447	5869.220000	500.148438	17.029688
163.157447	5869.220000	498.895508	-33.871597
163.157447	5869.220000	497.641602	11.095336
163.157447	5869.220000	496.387695	-41.955158
163.157447	5869.220000	495.132813	-108.044090
163.157447	5869.220000	493.878906	-43.490292
163.157447	5869.220000	492.624023	-20.313488
163.157447	5869.220000	491.368164	61.605362
163.157447	5869.220000	490.113281	-34.895378
163.157447	5869.220000	488.857422	23.071302
163.157447	5869.220000	487.601563	-3.791185
163.157447	5869.220000	486.344727	12.840854
163.157447	5869.220000	485.088867	-14.003832
163.157447	5869.220000	483.832031	-8.239021
163.157447	5869.220000	482.575195	47.495895
163.157447	5869.220000	481.317383	40.215019
163.157447	5869.220000	480.059570	-23.525990
163.157447	5869.220000	478.801758	-9.073726
163.157447	5869.220000	477.543945	44.447124
163.157447	5869.220000	476.285156	-4.058728
163.157447	5869.220000	475.027344	-4.806509
163.157447	5869.220000	473.767578	33.494411
163.157447	5869.220000	472.508789	-47.509972
163.157447	5869.220000	471.249023	-11.384365
163.157447	5869.220000	469.989258	22.557442
163.157447	5869.220000	468.729492	71.656288
163.157447	5869.220000	467.469727	70.891937
163.157447	5869.220000	466.208984	28.962482
163.157447	5869.220000	464.948242	19.540924
163.157447	5869.220000	463.686523	-80.833832
163.157447	5869.220000	462.425781	-25.276014
163.157447	5869.220000	461.164063	12.938182
163.157447	5869.220000	459.901367	59.790405
163.157447	5869.220000	458.639648	72.000153
163.157447	5869.220000	457.376953	49.589043
163.157447	5869.220000	456.114258	-26.885952
163.157447	5869.220000	454.851563	26.409573
163.157447	5869.220000	453.587891	49.411652
163.157447	5869.220000	452.324219	-7.572267
163.157447	5869.220000	451.060547	-21.317186
163.157447	5869.220000	449.796875	75.123322
163.157447	5869.220000	448.532227	72.156181
163.157447	5869.220000	447.267578	79.982613
163.157447	5869.220000	446.002930	96.436218
163.157447	5869.220000	444.737305	7.104065
163.157447	5869.220000	443.471680	112.036713
163.157447	5869.220000	442.206055	80.983253
163.157447	5869.220000	440.940430	103.865875
163.157447	5869.220000	439.673828	105.162941
163.157447	5869.220000	438.407227	18.043636
163.157447	5869.220000	437.140625	49.522640
163.157447	5869.220000	435.873047	1.230841
163.157447	5869.220000	434.605469	84.397232
163.157447	5869.220000	433.337891	-11.298500
163.157447	5869.220000	432.070313	-16.498463
163.157447	5869.220000	430.801758	-15.247137
163.157447	5869.220000	429.533203	46.275757
163.157447	5869.220000	428.264648	73.318954
163.157447	5869.220000	426.996094	59.447815
163.157447	5869.220000	425.726563	-12.524564
163.157447	5869.220000	424.457031	87.611252
163.157447	5869.220000	423.186523	67.250816
163.157447	5869.220000	421.916992	12.480371
163.157447	5869.220000	420.646484	37.258095
163.157447	5869.220000	419.375977	-13.216355
163.157447	5869.220000	418.104492	73.837250
163.157447	5869.220000	416.833008	55.565819
163.157447	5869.220000	415.561523	71.650085
163.157447	5869.220000	414.290039	-30.400131
163.157447	5869.220000	413.017578	-37.960728
163.157447	5869.220000	411.746094	12.416446
163.157447	5869.220000	410.472656	62.749321
163.157447	5869.220000	409.200195	143.076126
163.157447	5869.220000	407.926758	109.654900
163.157447	5869.220000	406.653320	39.765629
163.157447	5869.220000	405.379883	25.630180
163.157447	5869.220000	404.105469	54.348267
163.157447	5869.220000	402.831055	5.871503
163.157447	5869.220000	401.556641	-51.182289
163.157447	5869.220000	400.282227	35.294197
163.157447	5869.220000	399.006836	53.164932
163.157447	5869.220000	397.731445	66.715286
163.157447	5869.220000	396.456055	16.001984
163.157447	5869.220000	395.179688	3.805868
163.157447	5869.220000	393.903320	42.941864
163.157447	5869.220000	392.626953	-46.343166
163.157447	5869.220000	391.350586	-73.591934
163.157447	5869.220000	390.073242	3.924727
163.157447	5869.220000	388.795898	70.680458
163.157447	5869.220000	387.518555	6.973078
163.157447	5869.220000	386.240234	-24.688362
163.157447	5869.220000	384.961914	39.776016
163.157447	5869.220000	383.683594	29.402502
163.157447	5869.220000	382.405273	91.608223
163.157447	5869.220000	381.125977	-81.142639
163.157447	5869.220000	379.846680	-25.433010
163.157447	5869.220000	378.567383	62.222553
163.157447	5869.220000	377.287109	-10.252464
163.157447	5869.220000	376.006836	-14.473162
163.157447	5869.220000	374.726563	49.514832
163.157447	5869.220000	373.446289	21.725443
163.157447	5869.220000	372.165039	62.121483
163.157447	5869.220000	370.883789	38.498558
163.157447	5869.220000	369.602539	97.945976
163.157447	5869.220000	368.320313	18.816509
163.157447	5869.220000	367.039063	127.124809
163.157447	5869.220000	365.755859	20.219658
163.157447	5869.220000	364.473633	-18.560221
163.157447	5869.220000	363.190430	98.018051
163.157447	5869.220000	361.907227	131.476807
163.157447	5869.220000	360.624023	-26.653646
163.157447	5869.220000	359.340820	10.942654
163.157447	5869.220000	358.056641	-45.132801
163.157447	5869.220000	356.772461	-71.481361
163.157447	5869.220000	355.487305	2.033221
163.157447	5869.220000	354.202148	20.178802
163.157447	5869.220000	352.916992	10.616433
163.157447	5869.220000	351.631836	0.983223
163.157447	5869.220000	350.346680	-12.970947
163.157447	5869.220000	349.060547	26.093645
163.157447	5869.220000	347.774414	-36.855530
163.157447	5869.220000	346.487305	-38.300201
163.157447	5869.220000	345.200195	15.352901
163.157447	5869.220000	343.913086	-9.612032
163.157447	5869.220000	342.625977	22.624813
163.157447	5869.220000	341.338867	27.186453
163.157447	5869.220000	340.050781	71.942024
163.157447	5869.220000	338.762695	31.784332
163.157447	5869.220000	337.473633	-42.366165
163.157447	5869.220000	336.184570	84.733513
163.157447	5869.220000	334.895508	-15.014690
163.157447	5869.220000	333.606445	109.706680
163.157447	5869.220000	332.317383	66.971901
163.157447	5869.220000	331.027344	-7.610107
163.157447	5869.220000	329.736328	-99.203880
163.157447	5869.220000	328.446289	35.583893
163.157447	5869.220000	327.155273	11.509319
163.157447	5869.220000	325.864258	-6.321426
163.157447	5869.220000	324.573242	15.924565
163.157447	5869.220000	323.281250	29.582146
163.157447	5869.220000	321.989258	-3.393703
163.157447	5869.220000	320.697266	-30.135967
163.157447	5869.220000	319.405273	-16.841625
163.157447	5869.220000	318.112305	59.695782
163.157447	5869.220000	316.819336	85.379242
163.157447	5869.220000	315.526367	11.670887
163.157447	5869.220000	314.232422	-57.920223
163.157447	5869.220000	312.938477	34.913895
163.157447	5869.220000	311.644531	13.612100
163.157447	5869.220000	310.349609	72.349327
163.157447	5869.220000	309.054688	-4.083311
163.157447	5869.220000	307.759766	-8.924280
163.157447	5869.220000	306.464844	70.428261
163.157447	5869.220000	305.168945	120.078636
163.157447	5869.220000	303.873047	38.885666
163.157447	5869.220000	302.577148	24.999447
163.157447	5869.220000	301.281250	116.292961
163.157447	5869.220000	299.984375	7.293790
