#X		#Y		#Wave		#Intensity
29471.066915	-1339.733500	1999.980469	-37.686893
29471.066915	-1339.733500	1999.016602	-2.895294
29471.066915	-1339.733500	1998.052734	84.503464
29471.066915	-1339.733500	1997.087891	-48.885056
29471.066915	-1339.733500	1996.123047	-157.650604
29471.066915	-1339.733500	1995.158203	-68.398926
29471.066915	-1339.733500	1994.193359	109.788559
29471.066915	-1339.733500	1993.228516	17.803028
29471.066915	-1339.733500	1992.262695	74.221375
29471.066915	-1339.733500	1991.297852	61.119514
29471.066915	-1339.733500	1990.332031	-127.867142
29471.066915	-1339.733500	1989.366211	205.151093
29471.066915	-1339.733500	1988.399414	20.816528
29471.066915	-1339.733500	1987.433594	91.153534
29471.066915	-1339.733500	1986.466797	-21.701220
29471.066915	-1339.733500	1985.500977	97.748833
29471.066915	-1339.733500	1984.534180	34.065350
29471.066915	-1339.733500	1983.567383	59.235355
29471.066915	-1339.733500	1982.599609	178.160568
29471.066915	-1339.733500	1981.632813	42.403011
29471.066915	-1339.733500	1980.665039	-39.093334
29471.066915	-1339.733500	1979.697266	-95.998314
29471.066915	-1339.733500	1978.729492	-69.055511
29471.066915	-1339.733500	1977.761719	7.126180
29471.066915	-1339.733500	1976.792969	115.246124
29471.066915	-1339.733500	1975.825195	45.501419
29471.066915	-1339.733500	1974.856445	-184.727463
29471.066915	-1339.733500	1973.887695	19.224083
29471.066915	-1339.733500	1972.918945	141.584747
29471.066915	-1339.733500	1971.949219	138.016891
29471.066915	-1339.733500	1970.980469	181.186279
29471.066915	-1339.733500	1970.010742	157.675049
29471.066915	-1339.733500	1969.041016	232.662766
29471.066915	-1339.733500	1968.071289	176.911026
29471.066915	-1339.733500	1967.101563	47.164829
29471.066915	-1339.733500	1966.130859	18.375589
29471.066915	-1339.733500	1965.161133	19.058613
29471.066915	-1339.733500	1964.190430	164.943924
29471.066915	-1339.733500	1963.219727	-100.479073
29471.066915	-1339.733500	1962.249023	-58.185413
29471.066915	-1339.733500	1961.277344	16.007082
29471.066915	-1339.733500	1960.306641	-160.902267
29471.066915	-1339.733500	1959.334961	-37.670895
29471.066915	-1339.733500	1958.363281	-17.872692
29471.066915	-1339.733500	1957.391602	156.783646
29471.066915	-1339.733500	1956.419922	16.567909
29471.066915	-1339.733500	1955.447266	65.634171
29471.066915	-1339.733500	1954.474609	166.232849
29471.066915	-1339.733500	1953.501953	173.344528
29471.066915	-1339.733500	1952.529297	89.478996
29471.066915	-1339.733500	1951.556641	5.583553
29471.066915	-1339.733500	1950.583984	27.273371
29471.066915	-1339.733500	1949.610352	107.836647
29471.066915	-1339.733500	1948.636719	129.388168
29471.066915	-1339.733500	1947.663086	42.867210
29471.066915	-1339.733500	1946.689453	226.300873
29471.066915	-1339.733500	1945.715820	93.068787
29471.066915	-1339.733500	1944.741211	214.991852
29471.066915	-1339.733500	1943.767578	-114.520065
29471.066915	-1339.733500	1942.792969	127.473877
29471.066915	-1339.733500	1941.818359	30.953751
29471.066915	-1339.733500	1940.842773	-58.217876
29471.066915	-1339.733500	1939.868164	31.533108
29471.066915	-1339.733500	1938.892578	199.631409
29471.066915	-1339.733500	1937.916992	203.464325
29471.066915	-1339.733500	1936.941406	-20.567398
29471.066915	-1339.733500	1935.965820	-4.522092
29471.066915	-1339.733500	1934.990234	-98.715912
29471.066915	-1339.733500	1934.013672	103.345963
29471.066915	-1339.733500	1933.037109	-39.857349
29471.066915	-1339.733500	1932.060547	56.810997
29471.066915	-1339.733500	1931.083984	-35.005356
29471.066915	-1339.733500	1930.107422	-19.170607
29471.066915	-1339.733500	1929.129883	50.444496
29471.066915	-1339.733500	1928.153320	-43.852169
29471.066915	-1339.733500	1927.175781	8.569873
29471.066915	-1339.733500	1926.198242	38.943592
29471.066915	-1339.733500	1925.219727	179.273972
29471.066915	-1339.733500	1924.242188	72.701004
29471.066915	-1339.733500	1923.263672	34.557941
29471.066915	-1339.733500	1922.285156	25.722246
29471.066915	-1339.733500	1921.306641	-39.310238
29471.066915	-1339.733500	1920.328125	230.213120
29471.066915	-1339.733500	1919.349609	67.462906
29471.066915	-1339.733500	1918.370117	36.571648
29471.066915	-1339.733500	1917.391602	-43.139931
29471.066915	-1339.733500	1916.412109	-188.726791
29471.066915	-1339.733500	1915.431641	19.480473
29471.066915	-1339.733500	1914.452148	-69.997185
29471.066915	-1339.733500	1913.472656	145.390549
29471.066915	-1339.733500	1912.492188	-70.906693
29471.066915	-1339.733500	1911.511719	-116.488113
29471.066915	-1339.733500	1910.531250	-108.446106
29471.066915	-1339.733500	1909.550781	-34.624065
29471.066915	-1339.733500	1908.569336	-97.291283
29471.066915	-1339.733500	1907.588867	-13.787129
29471.066915	-1339.733500	1906.607422	33.136513
29471.066915	-1339.733500	1905.625977	109.249527
29471.066915	-1339.733500	1904.644531	70.887085
29471.066915	-1339.733500	1903.662109	-21.028898
29471.066915	-1339.733500	1902.680664	72.043083
29471.066915	-1339.733500	1901.698242	38.531551
29471.066915	-1339.733500	1900.715820	56.109642
29471.066915	-1339.733500	1899.733398	175.828247
29471.066915	-1339.733500	1898.750000	169.025085
29471.066915	-1339.733500	1897.767578	108.716309
29471.066915	-1339.733500	1896.784180	50.846779
29471.066915	-1339.733500	1895.800781	-106.669189
29471.066915	-1339.733500	1894.817383	73.649826
29471.066915	-1339.733500	1893.833984	110.536232
29471.066915	-1339.733500	1892.850586	23.501686
29471.066915	-1339.733500	1891.866211	36.066303
29471.066915	-1339.733500	1890.881836	24.326971
29471.066915	-1339.733500	1889.897461	19.862680
29471.066915	-1339.733500	1888.913086	-52.583530
29471.066915	-1339.733500	1887.927734	-57.062981
29471.066915	-1339.733500	1886.943359	47.638790
29471.066915	-1339.733500	1885.958008	-39.374695
29471.066915	-1339.733500	1884.972656	179.257095
29471.066915	-1339.733500	1883.987305	-29.037342
29471.066915	-1339.733500	1883.001953	-4.497504
29471.066915	-1339.733500	1882.015625	-30.892672
29471.066915	-1339.733500	1881.029297	139.032211
29471.066915	-1339.733500	1880.042969	47.155773
29471.066915	-1339.733500	1879.056641	-165.847488
29471.066915	-1339.733500	1878.070313	13.646138
29471.066915	-1339.733500	1877.083984	-170.243561
29471.066915	-1339.733500	1876.096680	-15.068276
29471.066915	-1339.733500	1875.109375	115.819626
29471.066915	-1339.733500	1874.122070	132.869980
29471.066915	-1339.733500	1873.134766	-92.121712
29471.066915	-1339.733500	1872.146484	159.633560
29471.066915	-1339.733500	1871.159180	-14.513750
29471.066915	-1339.733500	1870.170898	-111.216728
29471.066915	-1339.733500	1869.182617	-31.363831
29471.066915	-1339.733500	1868.194336	19.422421
29471.066915	-1339.733500	1867.205078	62.915234
29471.066915	-1339.733500	1866.216797	174.045319
29471.066915	-1339.733500	1865.227539	2.375107
29471.066915	-1339.733500	1864.238281	-46.034573
29471.066915	-1339.733500	1863.249023	19.085310
29471.066915	-1339.733500	1862.259766	11.701043
29471.066915	-1339.733500	1861.269531	11.537787
29471.066915	-1339.733500	1860.279297	88.604645
29471.066915	-1339.733500	1859.290039	49.755535
29471.066915	-1339.733500	1858.298828	-6.002151
29471.066915	-1339.733500	1857.308594	167.461777
29471.066915	-1339.733500	1856.318359	27.213207
29471.066915	-1339.733500	1855.327148	-72.008255
29471.066915	-1339.733500	1854.335938	-33.763714
29471.066915	-1339.733500	1853.344727	146.693314
29471.066915	-1339.733500	1852.353516	40.183548
29471.066915	-1339.733500	1851.362305	-39.803375
29471.066915	-1339.733500	1850.370117	-134.252640
29471.066915	-1339.733500	1849.377930	139.924179
29471.066915	-1339.733500	1848.385742	16.505754
29471.066915	-1339.733500	1847.393555	-53.913784
29471.066915	-1339.733500	1846.401367	-68.960052
29471.066915	-1339.733500	1845.408203	0.226302
29471.066915	-1339.733500	1844.415039	38.060005
29471.066915	-1339.733500	1843.421875	87.875381
29471.066915	-1339.733500	1842.428711	214.631775
29471.066915	-1339.733500	1841.435547	172.906647
29471.066915	-1339.733500	1840.441406	42.164669
29471.066915	-1339.733500	1839.448242	-21.231459
29471.066915	-1339.733500	1838.454102	47.592468
29471.066915	-1339.733500	1837.459961	-8.650755
29471.066915	-1339.733500	1836.464844	187.442795
29471.066915	-1339.733500	1835.470703	176.769348
29471.066915	-1339.733500	1834.475586	-52.571640
29471.066915	-1339.733500	1833.480469	-29.654327
29471.066915	-1339.733500	1832.485352	24.431765
29471.066915	-1339.733500	1831.490234	-17.592340
29471.066915	-1339.733500	1830.495117	91.598877
29471.066915	-1339.733500	1829.499023	90.289909
29471.066915	-1339.733500	1828.502930	62.538624
29471.066915	-1339.733500	1827.506836	181.109009
29471.066915	-1339.733500	1826.510742	-98.626526
29471.066915	-1339.733500	1825.513672	187.722748
29471.066915	-1339.733500	1824.517578	104.628242
29471.066915	-1339.733500	1823.520508	138.993134
29471.066915	-1339.733500	1822.523438	24.675385
29471.066915	-1339.733500	1821.526367	61.336452
29471.066915	-1339.733500	1820.529297	234.514755
29471.066915	-1339.733500	1819.531250	62.589058
29471.066915	-1339.733500	1818.533203	8.044447
29471.066915	-1339.733500	1817.535156	44.468182
29471.066915	-1339.733500	1816.537109	99.979744
29471.066915	-1339.733500	1815.539063	23.749399
29471.066915	-1339.733500	1814.540039	110.245499
29471.066915	-1339.733500	1813.541992	84.183716
29471.066915	-1339.733500	1812.542969	-71.125633
29471.066915	-1339.733500	1811.543945	-97.260544
29471.066915	-1339.733500	1810.543945	58.318432
29471.066915	-1339.733500	1809.544922	46.398685
29471.066915	-1339.733500	1808.544922	194.600677
29471.066915	-1339.733500	1807.544922	89.315384
29471.066915	-1339.733500	1806.544922	-56.617928
29471.066915	-1339.733500	1805.544922	260.982758
29471.066915	-1339.733500	1804.544922	-121.555992
29471.066915	-1339.733500	1803.543945	71.608597
29471.066915	-1339.733500	1802.542969	135.682281
29471.066915	-1339.733500	1801.541992	42.087337
29471.066915	-1339.733500	1800.541016	156.143524
29471.066915	-1339.733500	1799.539063	29.034212
29471.066915	-1339.733500	1798.538086	200.187805
29471.066915	-1339.733500	1797.536133	177.959824
29471.066915	-1339.733500	1796.534180	-99.556831
29471.066915	-1339.733500	1795.532227	123.786697
29471.066915	-1339.733500	1794.529297	6.001637
29471.066915	-1339.733500	1793.527344	0.242639
29471.066915	-1339.733500	1792.524414	-60.407833
29471.066915	-1339.733500	1791.521484	21.878805
29471.066915	-1339.733500	1790.518555	149.333496
29471.066915	-1339.733500	1789.514648	24.154671
29471.066915	-1339.733500	1788.511719	125.219345
29471.066915	-1339.733500	1787.507813	49.956051
29471.066915	-1339.733500	1786.503906	-32.493774
29471.066915	-1339.733500	1785.500000	101.627235
29471.066915	-1339.733500	1784.496094	145.187759
29471.066915	-1339.733500	1783.491211	7.813601
29471.066915	-1339.733500	1782.486328	17.916033
29471.066915	-1339.733500	1781.481445	104.052254
29471.066915	-1339.733500	1780.476563	-78.644363
29471.066915	-1339.733500	1779.471680	-47.358799
29471.066915	-1339.733500	1778.465820	-9.035889
29471.066915	-1339.733500	1777.460938	12.564356
29471.066915	-1339.733500	1776.455078	217.048691
29471.066915	-1339.733500	1775.449219	271.699066
29471.066915	-1339.733500	1774.442383	-63.319233
29471.066915	-1339.733500	1773.436523	-1.667968
29471.066915	-1339.733500	1772.429688	7.637005
29471.066915	-1339.733500	1771.422852	4.988334
29471.066915	-1339.733500	1770.416016	-54.705128
29471.066915	-1339.733500	1769.409180	99.126625
29471.066915	-1339.733500	1768.402344	8.432503
29471.066915	-1339.733500	1767.394531	-51.475231
29471.066915	-1339.733500	1766.386719	116.251572
29471.066915	-1339.733500	1765.378906	-48.154945
29471.066915	-1339.733500	1764.371094	-148.567108
29471.066915	-1339.733500	1763.362305	59.127850
29471.066915	-1339.733500	1762.354492	3.599072
29471.066915	-1339.733500	1761.345703	-4.606408
29471.066915	-1339.733500	1760.336914	34.488983
29471.066915	-1339.733500	1759.328125	-153.902069
29471.066915	-1339.733500	1758.318359	3.443211
29471.066915	-1339.733500	1757.308594	-121.115486
29471.066915	-1339.733500	1756.299805	-4.241612
29471.066915	-1339.733500	1755.290039	79.361984
29471.066915	-1339.733500	1754.279297	25.592363
29471.066915	-1339.733500	1753.269531	82.962936
29471.066915	-1339.733500	1752.258789	3.023345
29471.066915	-1339.733500	1751.249023	64.936737
29471.066915	-1339.733500	1750.238281	3.776873
29471.066915	-1339.733500	1749.226563	-126.012245
29471.066915	-1339.733500	1748.215820	-88.009148
29471.066915	-1339.733500	1747.204102	-73.745987
29471.066915	-1339.733500	1746.193359	-54.840977
29471.066915	-1339.733500	1745.181641	105.702728
29471.066915	-1339.733500	1744.168945	3.923904
29471.066915	-1339.733500	1743.157227	133.524185
29471.066915	-1339.733500	1742.144531	52.854458
29471.066915	-1339.733500	1741.132813	-150.609863
29471.066915	-1339.733500	1740.120117	-54.360947
29471.066915	-1339.733500	1739.106445	-99.821877
29471.066915	-1339.733500	1738.093750	31.595573
29471.066915	-1339.733500	1737.080078	-139.049454
29471.066915	-1339.733500	1736.067383	-90.388123
29471.066915	-1339.733500	1735.053711	94.913818
29471.066915	-1339.733500	1734.040039	-14.612950
29471.066915	-1339.733500	1733.025391	-8.703378
29471.066915	-1339.733500	1732.011719	-219.670563
29471.066915	-1339.733500	1730.997070	-34.839054
29471.066915	-1339.733500	1729.982422	-10.344785
29471.066915	-1339.733500	1728.967773	-122.542114
29471.066915	-1339.733500	1727.952148	-74.674149
29471.066915	-1339.733500	1726.937500	69.620689
29471.066915	-1339.733500	1725.921875	-49.856899
29471.066915	-1339.733500	1724.906250	7.124789
29471.066915	-1339.733500	1723.890625	-58.350063
29471.066915	-1339.733500	1722.875000	111.355461
29471.066915	-1339.733500	1721.858398	-198.899597
29471.066915	-1339.733500	1720.841797	74.055298
29471.066915	-1339.733500	1719.825195	62.340515
29471.066915	-1339.733500	1718.808594	-22.323977
29471.066915	-1339.733500	1717.791992	52.772049
29471.066915	-1339.733500	1716.774414	-86.081070
29471.066915	-1339.733500	1715.756836	82.789635
29471.066915	-1339.733500	1714.739258	21.327799
29471.066915	-1339.733500	1713.721680	65.481010
29471.066915	-1339.733500	1712.704102	3.878492
29471.066915	-1339.733500	1711.685547	172.257538
29471.066915	-1339.733500	1710.667969	-30.330124
29471.066915	-1339.733500	1709.649414	20.496943
29471.066915	-1339.733500	1708.630859	97.029488
29471.066915	-1339.733500	1707.611328	-51.744476
29471.066915	-1339.733500	1706.592773	-120.795021
29471.066915	-1339.733500	1705.573242	68.013611
29471.066915	-1339.733500	1704.553711	12.859233
29471.066915	-1339.733500	1703.534180	-35.324135
29471.066915	-1339.733500	1702.513672	-46.083946
29471.066915	-1339.733500	1701.494141	20.408371
29471.066915	-1339.733500	1700.473633	-9.257998
29471.066915	-1339.733500	1699.453125	209.267059
29471.066915	-1339.733500	1698.432617	29.553358
29471.066915	-1339.733500	1697.412109	83.948074
29471.066915	-1339.733500	1696.390625	23.536203
29471.066915	-1339.733500	1695.369141	94.127182
29471.066915	-1339.733500	1694.347656	75.699074
29471.066915	-1339.733500	1693.326172	160.135223
29471.066915	-1339.733500	1692.304688	120.499657
29471.066915	-1339.733500	1691.282227	150.946426
29471.066915	-1339.733500	1690.260742	288.867279
29471.066915	-1339.733500	1689.238281	134.451569
29471.066915	-1339.733500	1688.214844	15.066864
29471.066915	-1339.733500	1687.192383	236.821167
29471.066915	-1339.733500	1686.168945	136.005997
29471.066915	-1339.733500	1685.146484	259.403473
29471.066915	-1339.733500	1684.123047	237.880051
29471.066915	-1339.733500	1683.099609	148.582047
29471.066915	-1339.733500	1682.075195	112.927681
29471.066915	-1339.733500	1681.051758	84.231827
29471.066915	-1339.733500	1680.027344	69.465981
29471.066915	-1339.733500	1679.002930	322.941772
29471.066915	-1339.733500	1677.978516	335.990936
29471.066915	-1339.733500	1676.953125	348.955292
29471.066915	-1339.733500	1675.928711	508.759735
29471.066915	-1339.733500	1674.903320	325.724823
29471.066915	-1339.733500	1673.877930	249.913513
29471.066915	-1339.733500	1672.852539	446.722046
29471.066915	-1339.733500	1671.826172	433.683411
29471.066915	-1339.733500	1670.800781	502.131317
29471.066915	-1339.733500	1669.774414	658.981506
29471.066915	-1339.733500	1668.748047	349.991608
29471.066915	-1339.733500	1667.721680	427.530579
29471.066915	-1339.733500	1666.694336	532.898743
29471.066915	-1339.733500	1665.667969	505.527100
29471.066915	-1339.733500	1664.640625	657.256653
29471.066915	-1339.733500	1663.613281	671.615906
29471.066915	-1339.733500	1662.585938	827.792175
29471.066915	-1339.733500	1661.557617	904.773071
29471.066915	-1339.733500	1660.530273	858.456970
29471.066915	-1339.733500	1659.501953	935.291809
29471.066915	-1339.733500	1658.473633	733.151184
29471.066915	-1339.733500	1657.444336	914.423767
29471.066915	-1339.733500	1656.416016	877.207642
29471.066915	-1339.733500	1655.386719	872.458252
29471.066915	-1339.733500	1654.358398	965.211243
29471.066915	-1339.733500	1653.328125	974.264893
29471.066915	-1339.733500	1652.298828	869.529724
29471.066915	-1339.733500	1651.269531	855.305664
29471.066915	-1339.733500	1650.239258	989.538025
29471.066915	-1339.733500	1649.208984	1044.791138
29471.066915	-1339.733500	1648.178711	1197.399902
29471.066915	-1339.733500	1647.148438	1296.565430
29471.066915	-1339.733500	1646.117188	1205.500610
29471.066915	-1339.733500	1645.086914	1360.178223
29471.066915	-1339.733500	1644.055664	1366.401611
29471.066915	-1339.733500	1643.024414	1437.466919
29471.066915	-1339.733500	1641.992188	1469.064331
29471.066915	-1339.733500	1640.960938	1394.066284
29471.066915	-1339.733500	1639.928711	1291.254639
29471.066915	-1339.733500	1638.896484	1501.046631
29471.066915	-1339.733500	1637.864258	1576.445190
29471.066915	-1339.733500	1636.832031	1681.871338
29471.066915	-1339.733500	1635.798828	1578.928101
29471.066915	-1339.733500	1634.766602	1746.717041
29471.066915	-1339.733500	1633.733398	1895.888672
29471.066915	-1339.733500	1632.699219	1702.652954
29471.066915	-1339.733500	1631.666016	1759.217041
29471.066915	-1339.733500	1630.632813	1714.005371
29471.066915	-1339.733500	1629.598633	1735.802368
29471.066915	-1339.733500	1628.564453	1984.050293
29471.066915	-1339.733500	1627.530273	1860.165283
29471.066915	-1339.733500	1626.495117	2126.710205
29471.066915	-1339.733500	1625.460938	1935.815186
29471.066915	-1339.733500	1624.425781	2019.762451
29471.066915	-1339.733500	1623.390625	2212.170898
29471.066915	-1339.733500	1622.355469	2111.319580
29471.066915	-1339.733500	1621.319336	2322.045410
29471.066915	-1339.733500	1620.284180	2348.086914
29471.066915	-1339.733500	1619.248047	2286.419434
29471.066915	-1339.733500	1618.211914	2349.315430
29471.066915	-1339.733500	1617.174805	2181.544434
29471.066915	-1339.733500	1616.138672	2361.998779
29471.066915	-1339.733500	1615.101563	2268.031982
29471.066915	-1339.733500	1614.065430	2441.460693
29471.066915	-1339.733500	1613.027344	2280.653320
29471.066915	-1339.733500	1611.990234	2350.303223
29471.066915	-1339.733500	1610.953125	2498.234619
29471.066915	-1339.733500	1609.915039	2507.908203
29471.066915	-1339.733500	1608.876953	2697.169922
29471.066915	-1339.733500	1607.838867	2163.495605
29471.066915	-1339.733500	1606.800781	2338.933350
29471.066915	-1339.733500	1605.761719	2346.297607
29471.066915	-1339.733500	1604.723633	2595.252686
29471.066915	-1339.733500	1603.684570	2496.750000
29471.066915	-1339.733500	1602.644531	2501.765381
29471.066915	-1339.733500	1601.605469	2306.748047
29471.066915	-1339.733500	1600.566406	2500.333740
29471.066915	-1339.733500	1599.526367	2578.907959
29471.066915	-1339.733500	1598.486328	2459.825195
29471.066915	-1339.733500	1597.446289	2538.390137
29471.066915	-1339.733500	1596.405273	2577.866943
29471.066915	-1339.733500	1595.365234	2392.274170
29471.066915	-1339.733500	1594.324219	2493.782959
29471.066915	-1339.733500	1593.283203	2629.701172
29471.066915	-1339.733500	1592.242188	2334.049316
29471.066915	-1339.733500	1591.200195	2224.402588
29471.066915	-1339.733500	1590.159180	2385.575439
29471.066915	-1339.733500	1589.117188	2303.520996
29471.066915	-1339.733500	1588.075195	2494.451416
29471.066915	-1339.733500	1587.032227	2325.291992
29471.066915	-1339.733500	1585.990234	2468.036865
29471.066915	-1339.733500	1584.947266	2583.226318
29471.066915	-1339.733500	1583.904297	2634.222900
29471.066915	-1339.733500	1582.861328	2481.294678
29471.066915	-1339.733500	1581.818359	2550.667725
29471.066915	-1339.733500	1580.775391	2386.414795
29471.066915	-1339.733500	1579.731445	2513.067627
29471.066915	-1339.733500	1578.687500	2509.196289
29471.066915	-1339.733500	1577.643555	2702.216797
29471.066915	-1339.733500	1576.598633	2435.162598
29471.066915	-1339.733500	1575.554688	2614.456299
29471.066915	-1339.733500	1574.509766	2418.509521
29471.066915	-1339.733500	1573.464844	2423.955566
29471.066915	-1339.733500	1572.419922	2532.343262
29471.066915	-1339.733500	1571.374023	2622.421387
29471.066915	-1339.733500	1570.329102	2330.760986
29471.066915	-1339.733500	1569.283203	2377.495361
29471.066915	-1339.733500	1568.237305	2447.103271
29471.066915	-1339.733500	1567.191406	2212.871582
29471.066915	-1339.733500	1566.144531	2399.047119
29471.066915	-1339.733500	1565.098633	2087.358154
29471.066915	-1339.733500	1564.051758	2371.754639
29471.066915	-1339.733500	1563.004883	2190.391357
29471.066915	-1339.733500	1561.957031	2086.734375
29471.066915	-1339.733500	1560.910156	2183.989746
29471.066915	-1339.733500	1559.862305	2340.561035
29471.066915	-1339.733500	1558.814453	2050.042480
29471.066915	-1339.733500	1557.766602	1976.343750
29471.066915	-1339.733500	1556.718750	1984.813232
29471.066915	-1339.733500	1555.669922	1767.632813
29471.066915	-1339.733500	1554.621094	1924.386841
29471.066915	-1339.733500	1553.573242	1914.798096
29471.066915	-1339.733500	1552.523438	1763.989746
29471.066915	-1339.733500	1551.474609	1945.883911
29471.066915	-1339.733500	1550.424805	1804.357666
29471.066915	-1339.733500	1549.375000	1751.752075
29471.066915	-1339.733500	1548.325195	1453.363159
29471.066915	-1339.733500	1547.275391	1596.718262
29471.066915	-1339.733500	1546.225586	1806.075439
29471.066915	-1339.733500	1545.174805	1601.317993
29471.066915	-1339.733500	1544.124023	1439.929077
29471.066915	-1339.733500	1543.073242	1526.571045
29471.066915	-1339.733500	1542.022461	1556.403076
29471.066915	-1339.733500	1540.970703	1477.157349
29471.066915	-1339.733500	1539.919922	1520.767334
29471.066915	-1339.733500	1538.868164	1573.510864
29471.066915	-1339.733500	1537.815430	1617.208618
29471.066915	-1339.733500	1536.763672	1526.949707
29471.066915	-1339.733500	1535.710938	1205.133423
29471.066915	-1339.733500	1534.659180	1196.891602
29471.066915	-1339.733500	1533.606445	1261.369263
29471.066915	-1339.733500	1532.552734	1273.682861
29471.066915	-1339.733500	1531.500000	1106.804321
29471.066915	-1339.733500	1530.446289	1280.399536
29471.066915	-1339.733500	1529.393555	1100.138672
29471.066915	-1339.733500	1528.338867	944.959839
29471.066915	-1339.733500	1527.285156	1118.736328
29471.066915	-1339.733500	1526.231445	941.126099
29471.066915	-1339.733500	1525.176758	954.062561
29471.066915	-1339.733500	1524.122070	840.172913
29471.066915	-1339.733500	1523.067383	1107.070435
29471.066915	-1339.733500	1522.012695	941.272644
29471.066915	-1339.733500	1520.957031	956.812134
29471.066915	-1339.733500	1519.901367	929.414246
29471.066915	-1339.733500	1518.845703	859.103394
29471.066915	-1339.733500	1517.790039	1092.231079
29471.066915	-1339.733500	1516.734375	949.686829
29471.066915	-1339.733500	1515.677734	1144.419800
29471.066915	-1339.733500	1514.621094	931.976929
29471.066915	-1339.733500	1513.564453	798.877808
29471.066915	-1339.733500	1512.507813	498.594025
29471.066915	-1339.733500	1511.450195	854.168640
29471.066915	-1339.733500	1510.393555	972.370728
29471.066915	-1339.733500	1509.335938	591.165649
29471.066915	-1339.733500	1508.278320	668.896667
29471.066915	-1339.733500	1507.219727	787.355347
29471.066915	-1339.733500	1506.162109	650.655701
29471.066915	-1339.733500	1505.103516	514.108459
29471.066915	-1339.733500	1504.044922	343.855408
29471.066915	-1339.733500	1502.986328	480.767487
29471.066915	-1339.733500	1501.926758	335.621063
29471.066915	-1339.733500	1500.868164	576.491882
29471.066915	-1339.733500	1499.808594	219.546265
29471.066915	-1339.733500	1498.749023	410.936127
29471.066915	-1339.733500	1497.688477	363.321045
29471.066915	-1339.733500	1496.628906	137.731979
29471.066915	-1339.733500	1495.568359	374.437531
29471.066915	-1339.733500	1494.507813	284.378296
29471.066915	-1339.733500	1493.447266	248.548203
29471.066915	-1339.733500	1492.386719	233.123718
29471.066915	-1339.733500	1491.325195	395.749390
29471.066915	-1339.733500	1490.263672	236.407303
29471.066915	-1339.733500	1489.202148	-17.314920
29471.066915	-1339.733500	1488.140625	120.858795
29471.066915	-1339.733500	1487.079102	9.285556
29471.066915	-1339.733500	1486.016602	111.631905
29471.066915	-1339.733500	1484.954102	171.314880
29471.066915	-1339.733500	1483.891602	-113.034027
29471.066915	-1339.733500	1482.829102	-12.606554
29471.066915	-1339.733500	1481.765625	193.567963
29471.066915	-1339.733500	1480.702148	-245.341003
29471.066915	-1339.733500	1479.638672	167.817535
29471.066915	-1339.733500	1478.575195	59.656464
29471.066915	-1339.733500	1477.511719	39.289658
29471.066915	-1339.733500	1476.447266	3.373872
29471.066915	-1339.733500	1475.382813	-63.915234
29471.066915	-1339.733500	1474.318359	-133.136688
29471.066915	-1339.733500	1473.253906	-121.414940
29471.066915	-1339.733500	1472.189453	-6.373497
29471.066915	-1339.733500	1471.124023	155.772888
29471.066915	-1339.733500	1470.058594	-87.842781
29471.066915	-1339.733500	1468.993164	-73.490517
29471.066915	-1339.733500	1467.927734	-29.761629
29471.066915	-1339.733500	1466.861328	184.153015
29471.066915	-1339.733500	1465.794922	77.728661
29471.066915	-1339.733500	1464.728516	184.520432
29471.066915	-1339.733500	1463.662109	340.148895
29471.066915	-1339.733500	1462.594727	205.252762
29471.066915	-1339.733500	1461.528320	244.746429
29471.066915	-1339.733500	1460.460938	235.309341
29471.066915	-1339.733500	1459.393555	491.789917
29471.066915	-1339.733500	1458.326172	413.463928
29471.066915	-1339.733500	1457.257813	361.889618
29471.066915	-1339.733500	1456.189453	381.680664
29471.066915	-1339.733500	1455.121094	502.022888
29471.066915	-1339.733500	1454.052734	528.970398
29471.066915	-1339.733500	1452.984375	533.573303
29471.066915	-1339.733500	1451.915039	458.817108
29471.066915	-1339.733500	1450.845703	490.673279
29471.066915	-1339.733500	1449.776367	676.324646
29471.066915	-1339.733500	1448.707031	414.072266
29471.066915	-1339.733500	1447.636719	492.827972
29471.066915	-1339.733500	1446.567383	689.885254
29471.066915	-1339.733500	1445.497070	471.196503
29471.066915	-1339.733500	1444.425781	634.754517
29471.066915	-1339.733500	1443.355469	684.946655
29471.066915	-1339.733500	1442.285156	429.872467
29471.066915	-1339.733500	1441.213867	510.597809
29471.066915	-1339.733500	1440.142578	595.875793
29471.066915	-1339.733500	1439.070313	430.941498
29471.066915	-1339.733500	1437.999023	408.749268
29471.066915	-1339.733500	1436.926758	457.825775
29471.066915	-1339.733500	1435.854492	306.006561
29471.066915	-1339.733500	1434.782227	353.007599
29471.066915	-1339.733500	1433.709961	289.480316
29471.066915	-1339.733500	1432.636719	244.600006
29471.066915	-1339.733500	1431.563477	197.201584
29471.066915	-1339.733500	1430.490234	308.583984
29471.066915	-1339.733500	1429.416992	376.589050
29471.066915	-1339.733500	1428.343750	146.166031
29471.066915	-1339.733500	1427.269531	36.517162
29471.066915	-1339.733500	1426.195313	325.576263
29471.066915	-1339.733500	1425.121094	125.479134
29471.066915	-1339.733500	1424.046875	307.838989
29471.066915	-1339.733500	1422.971680	-1.825983
29471.066915	-1339.733500	1421.896484	9.894003
29471.066915	-1339.733500	1420.821289	152.928604
29471.066915	-1339.733500	1419.746094	189.457474
29471.066915	-1339.733500	1418.669922	161.248215
29471.066915	-1339.733500	1417.594727	-96.646599
29471.066915	-1339.733500	1416.518555	160.179565
29471.066915	-1339.733500	1415.442383	-81.056740
29471.066915	-1339.733500	1414.365234	68.150909
29471.066915	-1339.733500	1413.289063	276.035583
29471.066915	-1339.733500	1412.211914	98.675713
29471.066915	-1339.733500	1411.134766	-75.936325
29471.066915	-1339.733500	1410.057617	51.605553
29471.066915	-1339.733500	1408.979492	51.753670
29471.066915	-1339.733500	1407.902344	144.154724
29471.066915	-1339.733500	1406.824219	30.840618
29471.066915	-1339.733500	1405.746094	81.984596
29471.066915	-1339.733500	1404.666992	118.096115
29471.066915	-1339.733500	1403.588867	-16.679228
29471.066915	-1339.733500	1402.509766	142.691452
29471.066915	-1339.733500	1401.430664	174.888672
29471.066915	-1339.733500	1400.351563	171.931686
29471.066915	-1339.733500	1399.271484	188.250443
29471.066915	-1339.733500	1398.192383	53.974537
29471.066915	-1339.733500	1397.112305	32.014080
29471.066915	-1339.733500	1396.031250	136.991226
29471.066915	-1339.733500	1394.951172	315.504425
29471.066915	-1339.733500	1393.871094	-17.444824
29471.066915	-1339.733500	1392.790039	-48.808685
29471.066915	-1339.733500	1391.708984	-11.725324
29471.066915	-1339.733500	1390.626953	8.122894
29471.066915	-1339.733500	1389.545898	171.969803
29471.066915	-1339.733500	1388.463867	25.729469
29471.066915	-1339.733500	1387.381836	313.103973
29471.066915	-1339.733500	1386.299805	211.552856
29471.066915	-1339.733500	1385.217773	178.868652
29471.066915	-1339.733500	1384.134766	74.400940
29471.066915	-1339.733500	1383.051758	283.580719
29471.066915	-1339.733500	1381.968750	320.984711
29471.066915	-1339.733500	1380.885742	369.744202
29471.066915	-1339.733500	1379.802734	333.433960
29471.066915	-1339.733500	1378.718750	127.907997
29471.066915	-1339.733500	1377.634766	366.679657
29471.066915	-1339.733500	1376.550781	289.336334
29471.066915	-1339.733500	1375.465820	489.294891
29471.066915	-1339.733500	1374.381836	447.562836
29471.066915	-1339.733500	1373.296875	365.879822
29471.066915	-1339.733500	1372.211914	299.317139
29471.066915	-1339.733500	1371.126953	389.521698
29471.066915	-1339.733500	1370.041016	457.528046
29471.066915	-1339.733500	1368.955078	540.628784
29471.066915	-1339.733500	1367.869141	446.169006
29471.066915	-1339.733500	1366.783203	596.995728
29471.066915	-1339.733500	1365.697266	513.818237
29471.066915	-1339.733500	1364.610352	663.503784
29471.066915	-1339.733500	1363.523438	512.617676
29471.066915	-1339.733500	1362.436523	318.534271
29471.066915	-1339.733500	1361.349609	369.761658
29471.066915	-1339.733500	1360.261719	319.035614
29471.066915	-1339.733500	1359.174805	274.547638
29471.066915	-1339.733500	1358.086914	362.568939
29471.066915	-1339.733500	1356.998047	385.252502
29471.066915	-1339.733500	1355.910156	152.614227
29471.066915	-1339.733500	1354.821289	139.481674
29471.066915	-1339.733500	1353.732422	287.886780
29471.066915	-1339.733500	1352.643555	321.797546
29471.066915	-1339.733500	1351.554688	185.364578
29471.066915	-1339.733500	1350.464844	101.454483
29471.066915	-1339.733500	1349.375000	-92.683517
29471.066915	-1339.733500	1348.285156	147.246658
29471.066915	-1339.733500	1347.195313	154.067459
29471.066915	-1339.733500	1346.105469	93.768295
29471.066915	-1339.733500	1345.014648	47.807095
29471.066915	-1339.733500	1343.923828	238.464722
29471.066915	-1339.733500	1342.833008	41.814552
29471.066915	-1339.733500	1341.741211	129.453476
29471.066915	-1339.733500	1340.650391	168.786819
29471.066915	-1339.733500	1339.558594	139.799332
29471.066915	-1339.733500	1338.466797	-3.527510
29471.066915	-1339.733500	1337.374023	33.988503
29471.066915	-1339.733500	1336.282227	5.583870
29471.066915	-1339.733500	1335.189453	-6.770513
29471.066915	-1339.733500	1334.096680	47.810661
29471.066915	-1339.733500	1333.003906	93.869446
29471.066915	-1339.733500	1331.910156	66.606094
29471.066915	-1339.733500	1330.817383	18.009975
29471.066915	-1339.733500	1329.723633	73.653511
29471.066915	-1339.733500	1328.629883	95.250587
29471.066915	-1339.733500	1327.535156	-0.991363
29471.066915	-1339.733500	1326.441406	71.483620
29471.066915	-1339.733500	1325.346680	133.782852
29471.066915	-1339.733500	1324.251953	126.046585
29471.066915	-1339.733500	1323.156250	48.234531
29471.066915	-1339.733500	1322.061523	26.935081
29471.066915	-1339.733500	1320.965820	11.304122
29471.066915	-1339.733500	1319.870117	36.145542
29471.066915	-1339.733500	1318.774414	168.739563
29471.066915	-1339.733500	1317.678711	27.206278
29471.066915	-1339.733500	1316.582031	138.514679
29471.066915	-1339.733500	1315.485352	70.969238
29471.066915	-1339.733500	1314.388672	-16.587324
29471.066915	-1339.733500	1313.291016	8.615007
29471.066915	-1339.733500	1312.194336	43.375885
29471.066915	-1339.733500	1311.096680	-61.041847
29471.066915	-1339.733500	1309.999023	-217.228699
29471.066915	-1339.733500	1308.901367	-35.462101
29471.066915	-1339.733500	1307.802734	-27.177731
29471.066915	-1339.733500	1306.705078	51.313862
29471.066915	-1339.733500	1305.606445	13.218660
29471.066915	-1339.733500	1304.506836	-206.520844
29471.066915	-1339.733500	1303.408203	-171.721542
29471.066915	-1339.733500	1302.308594	52.034904
29471.066915	-1339.733500	1301.208984	-74.784088
29471.066915	-1339.733500	1300.109375	-97.330032
29471.066915	-1339.733500	1299.009766	120.914505
29471.066915	-1339.733500	1297.909180	113.168762
29471.066915	-1339.733500	1296.808594	123.075623
29471.066915	-1339.733500	1295.708008	298.381012
29471.066915	-1339.733500	1294.607422	242.804520
29471.066915	-1339.733500	1293.506836	165.637924
29471.066915	-1339.733500	1292.405273	293.544159
29471.066915	-1339.733500	1291.303711	332.806366
29471.066915	-1339.733500	1290.202148	158.278854
29471.066915	-1339.733500	1289.099609	248.953812
29471.066915	-1339.733500	1287.998047	296.136383
29471.066915	-1339.733500	1286.895508	369.419617
29471.066915	-1339.733500	1285.792969	264.172211
29471.066915	-1339.733500	1284.689453	225.029175
29471.066915	-1339.733500	1283.586914	392.073486
29471.066915	-1339.733500	1282.483398	364.070526
29471.066915	-1339.733500	1281.379883	305.305725
29471.066915	-1339.733500	1280.276367	332.594360
29471.066915	-1339.733500	1279.171875	379.775726
29471.066915	-1339.733500	1278.067383	471.430054
29471.066915	-1339.733500	1276.962891	430.652863
29471.066915	-1339.733500	1275.858398	350.805237
29471.066915	-1339.733500	1274.753906	399.625244
29471.066915	-1339.733500	1273.648438	276.645782
29471.066915	-1339.733500	1272.542969	421.086487
29471.066915	-1339.733500	1271.437500	279.423676
29471.066915	-1339.733500	1270.331055	284.149414
29471.066915	-1339.733500	1269.225586	249.422485
29471.066915	-1339.733500	1268.119141	84.382523
29471.066915	-1339.733500	1267.012695	101.078026
29471.066915	-1339.733500	1265.906250	93.143501
29471.066915	-1339.733500	1264.798828	-17.774509
29471.066915	-1339.733500	1263.691406	-117.181358
29471.066915	-1339.733500	1262.583984	61.900249
29471.066915	-1339.733500	1261.476563	28.160490
29471.066915	-1339.733500	1260.368164	-114.557686
29471.066915	-1339.733500	1259.260742	-110.634247
29471.066915	-1339.733500	1258.152344	-24.777555
29471.066915	-1339.733500	1257.043945	-66.971680
29471.066915	-1339.733500	1255.934570	-90.256363
29471.066915	-1339.733500	1254.825195	44.872536
29471.066915	-1339.733500	1253.716797	-18.429604
29471.066915	-1339.733500	1252.606445	-126.571358
29471.066915	-1339.733500	1251.497070	55.680546
29471.066915	-1339.733500	1250.387695	-89.261421
29471.066915	-1339.733500	1249.277344	-229.918304
29471.066915	-1339.733500	1248.166992	34.103546
29471.066915	-1339.733500	1247.055664	8.905197
29471.066915	-1339.733500	1245.945313	-116.140076
29471.066915	-1339.733500	1244.833984	41.775635
29471.066915	-1339.733500	1243.722656	54.818333
29471.066915	-1339.733500	1242.611328	-61.082546
29471.066915	-1339.733500	1241.499023	-27.715469
29471.066915	-1339.733500	1240.387695	-15.850893
29471.066915	-1339.733500	1239.275391	39.787045
29471.066915	-1339.733500	1238.162109	-80.212990
29471.066915	-1339.733500	1237.049805	81.359924
29471.066915	-1339.733500	1235.936523	-83.176292
29471.066915	-1339.733500	1234.823242	7.344248
29471.066915	-1339.733500	1233.709961	38.771900
29471.066915	-1339.733500	1232.596680	6.785147
29471.066915	-1339.733500	1231.482422	177.174728
29471.066915	-1339.733500	1230.369141	13.005957
29471.066915	-1339.733500	1229.253906	231.711090
29471.066915	-1339.733500	1228.139648	294.374054
29471.066915	-1339.733500	1227.025391	332.302155
29471.066915	-1339.733500	1225.910156	412.099701
29471.066915	-1339.733500	1224.794922	626.926636
29471.066915	-1339.733500	1223.679688	721.165588
29471.066915	-1339.733500	1222.563477	793.951050
29471.066915	-1339.733500	1221.447266	913.019226
29471.066915	-1339.733500	1220.331055	927.771240
29471.066915	-1339.733500	1219.214844	957.046814
29471.066915	-1339.733500	1218.098633	1074.815430
29471.066915	-1339.733500	1216.981445	1135.409912
29471.066915	-1339.733500	1215.864258	1196.708984
29471.066915	-1339.733500	1214.747070	1084.507324
29471.066915	-1339.733500	1213.629883	1172.766846
29471.066915	-1339.733500	1212.511719	1070.916870
29471.066915	-1339.733500	1211.393555	960.161377
29471.066915	-1339.733500	1210.275391	1030.651733
29471.066915	-1339.733500	1209.157227	818.727417
29471.066915	-1339.733500	1208.038086	729.817993
29471.066915	-1339.733500	1206.918945	704.488831
29471.066915	-1339.733500	1205.799805	606.405762
29471.066915	-1339.733500	1204.680664	674.009155
29471.066915	-1339.733500	1203.560547	600.003662
29471.066915	-1339.733500	1202.441406	380.378937
29471.066915	-1339.733500	1201.321289	433.194885
29471.066915	-1339.733500	1200.200195	325.529449
29471.066915	-1339.733500	1199.080078	300.396820
29471.066915	-1339.733500	1197.958984	458.752289
29471.066915	-1339.733500	1196.837891	338.088287
29471.066915	-1339.733500	1195.716797	194.712357
29471.066915	-1339.733500	1194.594727	338.054626
29471.066915	-1339.733500	1193.473633	267.228180
29471.066915	-1339.733500	1192.351563	334.520172
29471.066915	-1339.733500	1191.229492	312.200470
29471.066915	-1339.733500	1190.106445	349.706970
29471.066915	-1339.733500	1188.984375	319.943054
29471.066915	-1339.733500	1187.861328	174.348953
29471.066915	-1339.733500	1186.738281	509.142944
29471.066915	-1339.733500	1185.614258	434.091949
29471.066915	-1339.733500	1184.491211	357.168915
29471.066915	-1339.733500	1183.367188	583.850952
29471.066915	-1339.733500	1182.243164	570.442505
29471.066915	-1339.733500	1181.119141	714.038269
29471.066915	-1339.733500	1179.994141	773.410889
29471.066915	-1339.733500	1178.869141	843.241760
29471.066915	-1339.733500	1177.744141	868.015320
29471.066915	-1339.733500	1176.619141	738.989441
29471.066915	-1339.733500	1175.493164	578.568420
29471.066915	-1339.733500	1174.368164	570.643921
29471.066915	-1339.733500	1173.242188	456.077271
29471.066915	-1339.733500	1172.115234	448.148682
29471.066915	-1339.733500	1170.989258	407.096771
29471.066915	-1339.733500	1169.862305	460.127319
29471.066915	-1339.733500	1168.735352	505.570648
29471.066915	-1339.733500	1167.608398	374.488464
29471.066915	-1339.733500	1166.481445	407.901306
29471.066915	-1339.733500	1165.353516	322.720062
29471.066915	-1339.733500	1164.225586	310.620941
29471.066915	-1339.733500	1163.097656	298.022064
29471.066915	-1339.733500	1161.968750	135.957184
29471.066915	-1339.733500	1160.840820	283.172729
29471.066915	-1339.733500	1159.711914	192.291641
29471.066915	-1339.733500	1158.583008	211.487549
29471.066915	-1339.733500	1157.453125	191.148499
29471.066915	-1339.733500	1156.324219	-81.841904
29471.066915	-1339.733500	1155.194336	-92.814209
29471.066915	-1339.733500	1154.064453	-14.094551
29471.066915	-1339.733500	1152.933594	-127.136848
29471.066915	-1339.733500	1151.803711	-200.705460
29471.066915	-1339.733500	1150.672852	-36.395039
29471.066915	-1339.733500	1149.541992	-66.902519
29471.066915	-1339.733500	1148.411133	-41.503036
29471.066915	-1339.733500	1147.279297	-168.956406
29471.066915	-1339.733500	1146.147461	-167.971115
29471.066915	-1339.733500	1145.015625	-80.923805
29471.066915	-1339.733500	1143.883789	-45.691116
29471.066915	-1339.733500	1142.750977	18.128046
29471.066915	-1339.733500	1141.619141	48.082981
29471.066915	-1339.733500	1140.486328	29.053654
29471.066915	-1339.733500	1139.352539	30.153505
29471.066915	-1339.733500	1138.219727	-92.403694
29471.066915	-1339.733500	1137.085938	14.723582
29471.066915	-1339.733500	1135.952148	93.955444
29471.066915	-1339.733500	1134.818359	99.500290
29471.066915	-1339.733500	1133.683594	138.492203
29471.066915	-1339.733500	1132.549805	184.215942
29471.066915	-1339.733500	1131.415039	238.603271
29471.066915	-1339.733500	1130.279297	405.141754
29471.066915	-1339.733500	1129.144531	413.423187
29471.066915	-1339.733500	1128.008789	499.380005
29471.066915	-1339.733500	1126.873047	635.288330
29471.066915	-1339.733500	1125.737305	715.880127
29471.066915	-1339.733500	1124.601563	544.137329
29471.066915	-1339.733500	1123.464844	407.845856
29471.066915	-1339.733500	1122.328125	577.614197
29471.066915	-1339.733500	1121.191406	467.590363
29471.066915	-1339.733500	1120.054688	331.344269
29471.066915	-1339.733500	1118.916992	388.113647
29471.066915	-1339.733500	1117.779297	385.977173
29471.066915	-1339.733500	1116.641602	276.302551
29471.066915	-1339.733500	1115.503906	236.619675
29471.066915	-1339.733500	1114.365234	177.446381
29471.066915	-1339.733500	1113.226563	53.011028
29471.066915	-1339.733500	1112.087891	171.659927
29471.066915	-1339.733500	1110.949219	167.343903
29471.066915	-1339.733500	1109.809570	107.491669
29471.066915	-1339.733500	1108.669922	117.540909
29471.066915	-1339.733500	1107.530273	34.220787
29471.066915	-1339.733500	1106.390625	97.644295
29471.066915	-1339.733500	1105.250000	98.962547
29471.066915	-1339.733500	1104.109375	29.092083
29471.066915	-1339.733500	1102.968750	100.642975
29471.066915	-1339.733500	1101.828125	83.621819
29471.066915	-1339.733500	1100.686523	-9.693578
29471.066915	-1339.733500	1099.544922	232.618546
29471.066915	-1339.733500	1098.403320	80.526726
29471.066915	-1339.733500	1097.261719	169.350098
29471.066915	-1339.733500	1096.120117	161.834549
29471.066915	-1339.733500	1094.977539	60.968510
29471.066915	-1339.733500	1093.834961	86.984734
29471.066915	-1339.733500	1092.691406	112.660583
29471.066915	-1339.733500	1091.548828	59.555046
29471.066915	-1339.733500	1090.405273	59.411427
29471.066915	-1339.733500	1089.261719	60.026302
29471.066915	-1339.733500	1088.118164	11.212062
29471.066915	-1339.733500	1086.973633	78.673470
29471.066915	-1339.733500	1085.829102	-40.481106
29471.066915	-1339.733500	1084.684570	-12.181431
29471.066915	-1339.733500	1083.540039	119.223801
29471.066915	-1339.733500	1082.395508	-24.420748
29471.066915	-1339.733500	1081.250000	90.526871
29471.066915	-1339.733500	1080.104492	-42.024738
29471.066915	-1339.733500	1078.958984	-30.032614
29471.066915	-1339.733500	1077.812500	113.056107
29471.066915	-1339.733500	1076.666016	114.288002
29471.066915	-1339.733500	1075.519531	-27.054678
29471.066915	-1339.733500	1074.373047	186.892349
29471.066915	-1339.733500	1073.226563	64.888885
29471.066915	-1339.733500	1072.079102	52.133945
29471.066915	-1339.733500	1070.931641	73.489998
29471.066915	-1339.733500	1069.784180	-135.865158
29471.066915	-1339.733500	1068.635742	-73.288368
29471.066915	-1339.733500	1067.487305	144.280365
29471.066915	-1339.733500	1066.338867	-6.831707
29471.066915	-1339.733500	1065.190430	162.018112
29471.066915	-1339.733500	1064.041992	116.298706
29471.066915	-1339.733500	1062.892578	265.887268
29471.066915	-1339.733500	1061.743164	374.299286
29471.066915	-1339.733500	1060.593750	100.909981
29471.066915	-1339.733500	1059.443359	130.072861
29471.066915	-1339.733500	1058.292969	92.425797
29471.066915	-1339.733500	1057.142578	240.382065
29471.066915	-1339.733500	1055.992188	118.297340
29471.066915	-1339.733500	1054.841797	195.923798
29471.066915	-1339.733500	1053.690430	63.480862
29471.066915	-1339.733500	1052.539063	86.316795
29471.066915	-1339.733500	1051.387695	-51.604290
29471.066915	-1339.733500	1050.235352	21.784496
29471.066915	-1339.733500	1049.083984	47.457504
29471.066915	-1339.733500	1047.931641	-34.159805
29471.066915	-1339.733500	1046.778320	-7.623041
29471.066915	-1339.733500	1045.625977	99.455719
29471.066915	-1339.733500	1044.472656	103.566948
29471.066915	-1339.733500	1043.319336	275.211914
29471.066915	-1339.733500	1042.166016	192.849976
29471.066915	-1339.733500	1041.012695	104.382813
29471.066915	-1339.733500	1039.858398	34.606213
29471.066915	-1339.733500	1038.704102	203.053070
29471.066915	-1339.733500	1037.549805	22.258919
29471.066915	-1339.733500	1036.394531	250.033020
29471.066915	-1339.733500	1035.239258	140.080399
29471.066915	-1339.733500	1034.083984	131.520569
29471.066915	-1339.733500	1032.928711	153.819778
29471.066915	-1339.733500	1031.773438	123.043869
29471.066915	-1339.733500	1030.617188	146.336746
29471.066915	-1339.733500	1029.460938	133.036667
29471.066915	-1339.733500	1028.304688	19.430180
29471.066915	-1339.733500	1027.147461	252.293854
29471.066915	-1339.733500	1025.991211	9.261413
29471.066915	-1339.733500	1024.833984	110.073936
29471.066915	-1339.733500	1023.675781	-101.248772
29471.066915	-1339.733500	1022.518555	-91.303024
29471.066915	-1339.733500	1021.360352	-51.268040
29471.066915	-1339.733500	1020.202148	-69.261017
29471.066915	-1339.733500	1019.043945	-113.553902
29471.066915	-1339.733500	1017.884766	-177.000504
29471.066915	-1339.733500	1016.726563	-66.898567
29471.066915	-1339.733500	1015.567383	-88.113495
29471.066915	-1339.733500	1014.407227	-269.547760
29471.066915	-1339.733500	1013.248047	-60.242355
29471.066915	-1339.733500	1012.087891	-213.245178
29471.066915	-1339.733500	1010.927734	-60.383263
29471.066915	-1339.733500	1009.767578	-195.063278
29471.066915	-1339.733500	1008.606445	-158.423187
29471.066915	-1339.733500	1007.446289	-171.244965
29471.066915	-1339.733500	1006.285156	-131.445786
29471.066915	-1339.733500	1005.123047	132.334137
29471.066915	-1339.733500	1003.961914	-98.088638
29471.066915	-1339.733500	1002.799805	-106.603806
29471.066915	-1339.733500	1001.637695	75.661385
29471.066915	-1339.733500	1000.475586	-38.176247
29471.066915	-1339.733500	999.312500	54.826447
29471.066915	-1339.733500	998.149414	61.367599
29471.066915	-1339.733500	996.986328	187.262787
29471.066915	-1339.733500	995.823242	-43.220238
29471.066915	-1339.733500	994.659180	211.275009
29471.066915	-1339.733500	993.496094	12.792798
29471.066915	-1339.733500	992.332031	-65.745087
29471.066915	-1339.733500	991.166992	92.280998
29471.066915	-1339.733500	990.002930	2.187619
29471.066915	-1339.733500	988.837891	-121.364479
29471.066915	-1339.733500	987.672852	-18.209314
29471.066915	-1339.733500	986.506836	8.488277
29471.066915	-1339.733500	985.341797	66.558022
29471.066915	-1339.733500	984.175781	-32.173264
29471.066915	-1339.733500	983.009766	23.003616
29471.066915	-1339.733500	981.843750	113.303230
29471.066915	-1339.733500	980.676758	143.926712
29471.066915	-1339.733500	979.509766	19.325603
29471.066915	-1339.733500	978.342773	41.854137
29471.066915	-1339.733500	977.175781	77.443687
29471.066915	-1339.733500	976.007813	-85.548531
29471.066915	-1339.733500	974.839844	114.482056
29471.066915	-1339.733500	973.671875	31.294485
29471.066915	-1339.733500	972.503906	145.287430
29471.066915	-1339.733500	971.334961	-10.058058
29471.066915	-1339.733500	970.166016	149.185562
29471.066915	-1339.733500	968.997070	112.027344
29471.066915	-1339.733500	967.828125	63.527088
29471.066915	-1339.733500	966.658203	58.617832
29471.066915	-1339.733500	965.488281	183.267349
29471.066915	-1339.733500	964.318359	274.818176
29471.066915	-1339.733500	963.148438	369.742767
29471.066915	-1339.733500	961.977539	342.355774
29471.066915	-1339.733500	960.806641	403.924011
29471.066915	-1339.733500	959.635742	424.911133
29471.066915	-1339.733500	958.463867	615.788940
29471.066915	-1339.733500	957.292969	593.504639
29471.066915	-1339.733500	956.121094	639.261841
29471.066915	-1339.733500	954.948242	744.197998
29471.066915	-1339.733500	953.776367	837.948914
29471.066915	-1339.733500	952.603516	752.711182
29471.066915	-1339.733500	951.430664	652.054626
29471.066915	-1339.733500	950.257813	777.694885
29471.066915	-1339.733500	949.084961	733.329956
29471.066915	-1339.733500	947.911133	824.700806
29471.066915	-1339.733500	946.737305	594.108948
29471.066915	-1339.733500	945.563477	577.438843
29471.066915	-1339.733500	944.388672	578.277161
29471.066915	-1339.733500	943.213867	399.642181
29471.066915	-1339.733500	942.039063	460.367676
29471.066915	-1339.733500	940.864258	387.801056
29471.066915	-1339.733500	939.688477	612.804260
29471.066915	-1339.733500	938.513672	533.104797
29471.066915	-1339.733500	937.337891	494.572296
29471.066915	-1339.733500	936.161133	674.273743
29471.066915	-1339.733500	934.985352	719.930115
29471.066915	-1339.733500	933.808594	599.294495
29471.066915	-1339.733500	932.631836	610.286865
29471.066915	-1339.733500	931.454102	694.786377
29471.066915	-1339.733500	930.277344	658.185242
29471.066915	-1339.733500	929.099609	688.485229
29471.066915	-1339.733500	927.921875	617.355469
29471.066915	-1339.733500	926.743164	628.220032
29471.066915	-1339.733500	925.565430	369.299225
29471.066915	-1339.733500	924.386719	578.647522
29471.066915	-1339.733500	923.208008	628.263184
29471.066915	-1339.733500	922.028320	647.643433
29471.066915	-1339.733500	920.849609	595.818237
29471.066915	-1339.733500	919.669922	597.488464
29471.066915	-1339.733500	919.474609	693.036194
29471.066915	-1339.733500	918.309570	632.530579
29471.066915	-1339.733500	917.143555	608.667786
29471.066915	-1339.733500	915.977539	466.280121
29471.066915	-1339.733500	914.810547	479.045227
29471.066915	-1339.733500	913.644531	399.165314
29471.066915	-1339.733500	912.477539	233.161118
29471.066915	-1339.733500	911.310547	362.171631
29471.066915	-1339.733500	910.143555	189.748230
29471.066915	-1339.733500	908.975586	219.681839
29471.066915	-1339.733500	907.807617	359.324371
29471.066915	-1339.733500	906.639648	393.481049
29471.066915	-1339.733500	905.471680	414.702332
29471.066915	-1339.733500	904.303711	455.254425
29471.066915	-1339.733500	903.134766	330.229858
29471.066915	-1339.733500	901.965820	284.773560
29471.066915	-1339.733500	900.796875	368.268890
29471.066915	-1339.733500	899.626953	120.826424
29471.066915	-1339.733500	898.457031	242.964630
29471.066915	-1339.733500	897.287109	171.741669
29471.066915	-1339.733500	896.117188	16.790880
29471.066915	-1339.733500	894.947266	5.734875
29471.066915	-1339.733500	893.776367	48.335510
29471.066915	-1339.733500	892.605469	13.652755
29471.066915	-1339.733500	891.434570	249.317978
29471.066915	-1339.733500	890.262695	-38.534950
29471.066915	-1339.733500	889.091797	-131.111755
29471.066915	-1339.733500	887.919922	-56.404453
29471.066915	-1339.733500	886.748047	-80.350662
29471.066915	-1339.733500	885.575195	39.314804
29471.066915	-1339.733500	884.403320	21.774405
29471.066915	-1339.733500	883.230469	47.087299
29471.066915	-1339.733500	882.057617	93.805138
29471.066915	-1339.733500	880.883789	50.550961
29471.066915	-1339.733500	879.710938	99.380753
29471.066915	-1339.733500	878.537109	24.023050
29471.066915	-1339.733500	877.362305	79.253632
29471.066915	-1339.733500	876.188477	51.001041
29471.066915	-1339.733500	875.013672	46.292591
29471.066915	-1339.733500	873.839844	-1.197576
29471.066915	-1339.733500	872.664063	60.398659
29471.066915	-1339.733500	871.489258	51.408237
29471.066915	-1339.733500	870.313477	-143.559082
29471.066915	-1339.733500	869.138672	-7.172432
29471.066915	-1339.733500	867.962891	-56.745415
29471.066915	-1339.733500	866.786133	-65.706421
29471.066915	-1339.733500	865.610352	-96.024445
29471.066915	-1339.733500	864.433594	57.325775
29471.066915	-1339.733500	863.256836	-154.485107
29471.066915	-1339.733500	862.079102	-26.800037
29471.066915	-1339.733500	860.902344	4.794267
29471.066915	-1339.733500	859.724609	83.320084
29471.066915	-1339.733500	858.546875	127.681923
29471.066915	-1339.733500	857.368164	-43.393387
29471.066915	-1339.733500	856.190430	-1.152767
29471.066915	-1339.733500	855.011719	-18.622799
29471.066915	-1339.733500	853.833008	23.600979
29471.066915	-1339.733500	852.654297	-2.386526
29471.066915	-1339.733500	851.474609	88.828964
29471.066915	-1339.733500	850.294922	5.327643
29471.066915	-1339.733500	849.115234	-39.799023
29471.066915	-1339.733500	847.935547	27.953011
29471.066915	-1339.733500	846.754883	70.134697
29471.066915	-1339.733500	845.575195	33.545849
29471.066915	-1339.733500	844.393555	79.972382
29471.066915	-1339.733500	843.212891	111.489418
29471.066915	-1339.733500	842.032227	-76.105057
29471.066915	-1339.733500	840.850586	-104.110718
29471.066915	-1339.733500	839.668945	-61.931877
29471.066915	-1339.733500	838.486328	-79.290581
29471.066915	-1339.733500	837.304688	-9.495536
29471.066915	-1339.733500	836.122070	30.525200
29471.066915	-1339.733500	834.939453	25.917065
29471.066915	-1339.733500	833.756836	0.073607
29471.066915	-1339.733500	832.573242	-80.970924
29471.066915	-1339.733500	831.389648	63.088039
29471.066915	-1339.733500	830.206055	64.861786
29471.066915	-1339.733500	829.022461	85.739906
29471.066915	-1339.733500	827.838867	68.418129
29471.066915	-1339.733500	826.654297	322.662598
29471.066915	-1339.733500	825.469727	116.530724
29471.066915	-1339.733500	824.284180	347.340881
29471.066915	-1339.733500	823.099609	382.998474
29471.066915	-1339.733500	821.914063	384.730682
29471.066915	-1339.733500	820.728516	367.389771
29471.066915	-1339.733500	819.542969	193.261200
29471.066915	-1339.733500	818.356445	207.750717
29471.066915	-1339.733500	817.169922	237.063110
29471.066915	-1339.733500	815.983398	116.016998
29471.066915	-1339.733500	814.796875	-7.093856
29471.066915	-1339.733500	813.609375	147.137680
29471.066915	-1339.733500	812.422852	43.120777
29471.066915	-1339.733500	811.235352	171.891113
29471.066915	-1339.733500	810.046875	192.725266
29471.066915	-1339.733500	808.859375	92.998215
29471.066915	-1339.733500	807.670898	10.229958
29471.066915	-1339.733500	806.482422	-110.557472
29471.066915	-1339.733500	805.293945	49.820187
29471.066915	-1339.733500	804.104492	-136.434113
29471.066915	-1339.733500	802.915039	-104.996147
29471.066915	-1339.733500	801.725586	-98.920433
29471.066915	-1339.733500	800.536133	-181.548645
29471.066915	-1339.733500	799.345703	-101.560211
29471.066915	-1339.733500	798.155273	-211.599701
29471.066915	-1339.733500	796.964844	-142.195801
29471.066915	-1339.733500	795.774414	-60.162392
29471.066915	-1339.733500	794.583008	-98.419212
29471.066915	-1339.733500	793.392578	6.765998
29471.066915	-1339.733500	792.200195	61.293533
29471.066915	-1339.733500	791.008789	-12.820311
29471.066915	-1339.733500	789.816406	-19.452230
29471.066915	-1339.733500	788.625000	51.890743
29471.066915	-1339.733500	787.432617	19.951496
29471.066915	-1339.733500	786.239258	87.032753
29471.066915	-1339.733500	785.046875	-48.118626
29471.066915	-1339.733500	783.853516	54.732872
29471.066915	-1339.733500	782.660156	-126.688271
29471.066915	-1339.733500	781.465820	-114.389854
29471.066915	-1339.733500	780.272461	19.952160
29471.066915	-1339.733500	779.078125	-77.213455
29471.066915	-1339.733500	777.883789	145.397354
29471.066915	-1339.733500	776.688477	-61.138817
29471.066915	-1339.733500	775.494141	-143.540878
29471.066915	-1339.733500	774.298828	26.354193
29471.066915	-1339.733500	773.103516	257.120483
29471.066915	-1339.733500	771.907227	-104.820770
29471.066915	-1339.733500	770.711914	-2.310498
29471.066915	-1339.733500	769.515625	-13.285893
29471.066915	-1339.733500	768.318359	-116.675369
29471.066915	-1339.733500	767.122070	-35.267570
29471.066915	-1339.733500	765.924805	-6.390415
29471.066915	-1339.733500	764.727539	146.286041
29471.066915	-1339.733500	763.530273	97.439354
29471.066915	-1339.733500	762.333008	-1.756357
29471.066915	-1339.733500	761.134766	-25.419592
29471.066915	-1339.733500	759.936523	-53.287273
29471.066915	-1339.733500	758.738281	25.763432
29471.066915	-1339.733500	757.540039	-2.145631
29471.066915	-1339.733500	756.340820	110.350334
29471.066915	-1339.733500	755.141602	88.676559
29471.066915	-1339.733500	753.942383	142.403595
29471.066915	-1339.733500	752.742188	64.135429
29471.066915	-1339.733500	751.541992	90.574165
29471.066915	-1339.733500	750.341797	79.291809
29471.066915	-1339.733500	749.141602	139.153809
29471.066915	-1339.733500	747.941406	215.704346
29471.066915	-1339.733500	746.740234	308.932983
29471.066915	-1339.733500	745.539063	222.198166
29471.066915	-1339.733500	744.337891	246.312103
29471.066915	-1339.733500	743.135742	157.475235
29471.066915	-1339.733500	741.933594	145.992355
29471.066915	-1339.733500	740.731445	259.885590
29471.066915	-1339.733500	739.529297	306.829956
29471.066915	-1339.733500	738.326172	353.721069
29471.066915	-1339.733500	737.124023	112.309227
29471.066915	-1339.733500	735.919922	192.564011
29471.066915	-1339.733500	734.716797	91.103088
29471.066915	-1339.733500	733.513672	167.079849
29471.066915	-1339.733500	732.309570	186.637299
29471.066915	-1339.733500	731.105469	170.676163
29471.066915	-1339.733500	729.900391	2.393582
29471.066915	-1339.733500	728.696289	219.995819
29471.066915	-1339.733500	727.491211	-35.890617
29471.066915	-1339.733500	726.286133	25.182478
29471.066915	-1339.733500	725.080078	36.160648
29471.066915	-1339.733500	723.874023	-23.764193
29471.066915	-1339.733500	722.668945	89.223534
29471.066915	-1339.733500	721.461914	83.381821
29471.066915	-1339.733500	720.255859	31.677607
29471.066915	-1339.733500	719.048828	111.126579
29471.066915	-1339.733500	717.841797	51.015076
29471.066915	-1339.733500	716.634766	153.224121
29471.066915	-1339.733500	715.427734	30.602505
29471.066915	-1339.733500	714.219727	95.222900
29471.066915	-1339.733500	713.011719	207.605682
29471.066915	-1339.733500	711.803711	10.028376
29471.066915	-1339.733500	710.594727	267.816437
29471.066915	-1339.733500	709.385742	467.237976
29471.066915	-1339.733500	708.176758	344.384949
29471.066915	-1339.733500	706.967773	418.924072
29471.066915	-1339.733500	705.758789	424.820862
29471.066915	-1339.733500	704.548828	366.269745
29471.066915	-1339.733500	703.338867	367.904266
29471.066915	-1339.733500	702.127930	184.704895
29471.066915	-1339.733500	700.917969	414.581909
29471.066915	-1339.733500	699.707031	144.168854
29471.066915	-1339.733500	698.496094	253.496460
29471.066915	-1339.733500	697.285156	422.872589
29471.066915	-1339.733500	696.073242	258.209625
29471.066915	-1339.733500	694.861328	379.694733
29471.066915	-1339.733500	693.649414	353.876984
29471.066915	-1339.733500	692.436523	259.606659
29471.066915	-1339.733500	691.224609	353.879852
29471.066915	-1339.733500	690.011719	282.305450
29471.066915	-1339.733500	688.798828	357.757416
29471.066915	-1339.733500	687.584961	447.603912
29471.066915	-1339.733500	686.372070	268.186218
29471.066915	-1339.733500	685.158203	419.975128
29471.066915	-1339.733500	683.943359	507.471313
29471.066915	-1339.733500	682.729492	526.578979
29471.066915	-1339.733500	681.514648	678.003479
29471.066915	-1339.733500	680.299805	659.692932
29471.066915	-1339.733500	679.084961	674.401733
29471.066915	-1339.733500	677.869141	808.939026
29471.066915	-1339.733500	676.653320	796.591125
29471.066915	-1339.733500	675.437500	718.044006
29471.066915	-1339.733500	674.221680	817.138977
29471.066915	-1339.733500	673.004883	889.260254
29471.066915	-1339.733500	671.789063	1017.038269
29471.066915	-1339.733500	670.571289	1022.858887
29471.066915	-1339.733500	669.354492	925.383179
29471.066915	-1339.733500	668.136719	1079.666992
29471.066915	-1339.733500	666.919922	1159.523926
29471.066915	-1339.733500	665.701172	1072.156616
29471.066915	-1339.733500	664.483398	1178.634033
29471.066915	-1339.733500	663.264648	1371.596558
29471.066915	-1339.733500	662.045898	1475.742676
29471.066915	-1339.733500	660.827148	1505.556274
29471.066915	-1339.733500	659.608398	1873.259766
29471.066915	-1339.733500	658.388672	2178.910645
29471.066915	-1339.733500	657.168945	2558.511475
29471.066915	-1339.733500	655.949219	2839.010010
29471.066915	-1339.733500	654.728516	3189.316406
29471.066915	-1339.733500	653.507813	3323.228027
29471.066915	-1339.733500	652.287109	3578.438232
29471.066915	-1339.733500	651.066406	3594.748535
29471.066915	-1339.733500	649.844727	3615.081543
29471.066915	-1339.733500	648.623047	3285.639404
29471.066915	-1339.733500	647.401367	3065.249023
29471.066915	-1339.733500	646.179688	2855.148682
29471.066915	-1339.733500	644.957031	2408.649414
29471.066915	-1339.733500	643.734375	2178.053711
29471.066915	-1339.733500	642.511719	1918.704834
29471.066915	-1339.733500	641.289063	1517.631470
29471.066915	-1339.733500	640.065430	1484.291870
29471.066915	-1339.733500	638.841797	1181.876099
29471.066915	-1339.733500	637.618164	1119.711670
29471.066915	-1339.733500	636.393555	1032.855347
29471.066915	-1339.733500	635.168945	886.438843
29471.066915	-1339.733500	633.944336	904.140320
29471.066915	-1339.733500	632.719727	872.519531
29471.066915	-1339.733500	631.494141	775.198608
29471.066915	-1339.733500	630.269531	692.192932
29471.066915	-1339.733500	629.042969	420.532135
29471.066915	-1339.733500	627.817383	646.953918
29471.066915	-1339.733500	626.590820	653.935364
29471.066915	-1339.733500	625.365234	535.867554
29471.066915	-1339.733500	624.137695	540.656433
29471.066915	-1339.733500	622.911133	590.418457
29471.066915	-1339.733500	621.683594	734.256348
29471.066915	-1339.733500	620.456055	689.632263
29471.066915	-1339.733500	619.228516	632.669800
29471.066915	-1339.733500	618.000977	571.561035
29471.066915	-1339.733500	616.772461	641.317261
29471.066915	-1339.733500	615.543945	541.213562
29471.066915	-1339.733500	614.314453	690.534668
29471.066915	-1339.733500	613.085938	719.105774
29471.066915	-1339.733500	611.856445	671.958618
29471.066915	-1339.733500	610.626953	688.105835
29471.066915	-1339.733500	609.397461	730.732788
29471.066915	-1339.733500	608.166992	499.552002
29471.066915	-1339.733500	606.936523	562.472839
29471.066915	-1339.733500	605.706055	517.083130
29471.066915	-1339.733500	604.474609	359.364746
29471.066915	-1339.733500	603.244141	548.600159
29471.066915	-1339.733500	602.012695	517.312561
29471.066915	-1339.733500	600.780273	520.646545
29471.066915	-1339.733500	599.548828	446.415131
29471.066915	-1339.733500	598.316406	569.941223
29471.066915	-1339.733500	597.083984	475.209198
29471.066915	-1339.733500	595.851563	445.680237
29471.066915	-1339.733500	594.618164	754.379028
29471.066915	-1339.733500	593.384766	688.003113
29471.066915	-1339.733500	592.151367	778.443481
29471.066915	-1339.733500	590.917969	744.558899
29471.066915	-1339.733500	589.683594	633.254883
29471.066915	-1339.733500	588.449219	513.800537
29471.066915	-1339.733500	587.214844	500.176910
29471.066915	-1339.733500	585.979492	590.276794
29471.066915	-1339.733500	584.745117	521.612000
29471.066915	-1339.733500	583.509766	772.251831
29471.066915	-1339.733500	582.273438	906.820984
29471.066915	-1339.733500	581.038086	608.248474
29471.066915	-1339.733500	579.801758	899.218872
29471.066915	-1339.733500	578.565430	604.747925
29471.066915	-1339.733500	577.329102	531.824646
29471.066915	-1339.733500	576.091797	621.395630
29471.066915	-1339.733500	574.854492	737.293213
29471.066915	-1339.733500	573.617188	684.576965
29471.066915	-1339.733500	572.378906	621.693420
29471.066915	-1339.733500	571.141602	771.920105
29471.066915	-1339.733500	569.903320	790.151245
29471.066915	-1339.733500	568.664063	465.482605
29471.066915	-1339.733500	567.425781	678.435974
29471.066915	-1339.733500	566.186523	587.087280
29471.066915	-1339.733500	564.947266	706.609192
29471.066915	-1339.733500	563.708008	633.496033
29471.066915	-1339.733500	562.467773	708.330200
29471.066915	-1339.733500	561.227539	760.830383
29471.066915	-1339.733500	559.987305	778.857239
29471.066915	-1339.733500	558.747070	732.057434
29471.066915	-1339.733500	557.505859	642.741150
29471.066915	-1339.733500	556.264648	719.458130
29471.066915	-1339.733500	555.023438	688.868042
29471.066915	-1339.733500	553.781250	739.224365
29471.066915	-1339.733500	552.539063	730.890564
29471.066915	-1339.733500	551.296875	613.338684
29471.066915	-1339.733500	550.054688	398.774261
29471.066915	-1339.733500	548.811523	629.102356
29471.066915	-1339.733500	547.569336	471.244751
29471.066915	-1339.733500	546.325195	545.862976
29471.066915	-1339.733500	545.082031	489.137390
29471.066915	-1339.733500	543.837891	452.649170
29471.066915	-1339.733500	542.593750	412.157379
29471.066915	-1339.733500	541.349609	406.031769
29471.066915	-1339.733500	540.105469	298.996552
29471.066915	-1339.733500	538.860352	363.588837
29471.066915	-1339.733500	537.615234	458.452484
29471.066915	-1339.733500	536.369141	232.522141
29471.066915	-1339.733500	535.124023	260.879547
29471.066915	-1339.733500	533.877930	353.790070
29471.066915	-1339.733500	532.631836	468.879822
29471.066915	-1339.733500	531.384766	517.438171
29471.066915	-1339.733500	530.138672	431.000671
29471.066915	-1339.733500	528.891602	213.675797
29471.066915	-1339.733500	527.643555	266.428162
29471.066915	-1339.733500	526.396484	325.260925
29471.066915	-1339.733500	525.148438	357.941895
29471.066915	-1339.733500	523.900391	161.168274
29471.066915	-1339.733500	522.652344	177.891876
29471.066915	-1339.733500	521.403320	104.114388
29471.066915	-1339.733500	520.154297	72.685150
29471.066915	-1339.733500	518.905273	143.924149
29471.066915	-1339.733500	517.656250	94.544899
29471.066915	-1339.733500	516.406250	35.204536
29471.066915	-1339.733500	515.156250	-66.244934
29471.066915	-1339.733500	513.906250	47.469532
29471.066915	-1339.733500	512.655273	-73.871735
29471.066915	-1339.733500	511.404297	13.844751
29471.066915	-1339.733500	510.153320	-159.482071
29471.066915	-1339.733500	508.902344	-55.540169
29471.066915	-1339.733500	507.650391	-126.212128
29471.066915	-1339.733500	506.398438	1.948168
29471.066915	-1339.733500	505.146484	-18.343081
29471.066915	-1339.733500	503.893555	-229.123566
29471.066915	-1339.733500	502.641602	-30.516970
29471.066915	-1339.733500	501.388672	-28.423267
29471.066915	-1339.733500	500.134766	-36.251141
29471.066915	-1339.733500	498.881836	20.183661
29471.066915	-1339.733500	497.627930	114.780388
29471.066915	-1339.733500	496.374023	25.113056
29471.066915	-1339.733500	495.119141	149.943085
29471.066915	-1339.733500	493.865234	90.584648
29471.066915	-1339.733500	492.610352	153.512711
29471.066915	-1339.733500	491.355469	140.462753
29471.066915	-1339.733500	490.099609	29.464928
29471.066915	-1339.733500	488.843750	4.687010
29471.066915	-1339.733500	487.587891	-19.951448
29471.066915	-1339.733500	486.332031	21.556911
29471.066915	-1339.733500	485.075195	-274.789917
29471.066915	-1339.733500	483.818359	-206.992813
29471.066915	-1339.733500	482.561523	-85.119904
29471.066915	-1339.733500	481.304688	50.826069
29471.066915	-1339.733500	480.046875	21.005280
29471.066915	-1339.733500	478.789063	-2.670897
29471.066915	-1339.733500	477.531250	-18.210403
29471.066915	-1339.733500	476.272461	38.276436
29471.066915	-1339.733500	475.013672	96.876122
29471.066915	-1339.733500	473.754883	-22.045593
29471.066915	-1339.733500	472.496094	-164.720764
29471.066915	-1339.733500	471.236328	47.924824
29471.066915	-1339.733500	469.976563	-90.433426
29471.066915	-1339.733500	468.716797	-196.684189
29471.066915	-1339.733500	467.456055	76.066971
29471.066915	-1339.733500	466.196289	-27.897076
29471.066915	-1339.733500	464.935547	201.138321
29471.066915	-1339.733500	463.673828	79.538101
29471.066915	-1339.733500	462.413086	33.831085
29471.066915	-1339.733500	461.151367	167.525055
29471.066915	-1339.733500	459.889648	94.218117
29471.066915	-1339.733500	458.626953	90.754532
29471.066915	-1339.733500	457.364258	73.495491
29471.066915	-1339.733500	456.101563	54.388554
29471.066915	-1339.733500	454.838867	49.348858
29471.066915	-1339.733500	453.575195	308.982025
29471.066915	-1339.733500	452.312500	236.535400
29471.066915	-1339.733500	451.047852	140.387436
29471.066915	-1339.733500	449.784180	131.865433
29471.066915	-1339.733500	448.519531	330.147156
29471.066915	-1339.733500	447.254883	407.261230
29471.066915	-1339.733500	445.990234	166.624146
29471.066915	-1339.733500	444.725586	245.952042
29471.066915	-1339.733500	443.459961	112.893379
29471.066915	-1339.733500	442.194336	216.229294
29471.066915	-1339.733500	440.927734	121.146004
29471.066915	-1339.733500	439.662109	133.350433
29471.066915	-1339.733500	438.395508	-153.926605
29471.066915	-1339.733500	437.127930	72.717041
29471.066915	-1339.733500	435.861328	-31.822515
29471.066915	-1339.733500	434.593750	36.241657
29471.066915	-1339.733500	433.326172	11.181325
29471.066915	-1339.733500	432.058594	-53.443596
29471.066915	-1339.733500	430.790039	-3.070948
29471.066915	-1339.733500	429.521484	92.887268
29471.066915	-1339.733500	428.252930	333.413788
29471.066915	-1339.733500	426.984375	261.025146
29471.066915	-1339.733500	425.714844	228.282242
29471.066915	-1339.733500	424.445313	31.298811
29471.066915	-1339.733500	423.174805	50.088093
29471.066915	-1339.733500	421.905273	23.362909
29471.066915	-1339.733500	420.634766	307.160828
29471.066915	-1339.733500	419.364258	260.579346
29471.066915	-1339.733500	418.092773	213.984512
29471.066915	-1339.733500	416.822266	159.456726
29471.066915	-1339.733500	415.550781	81.182083
29471.066915	-1339.733500	414.278320	99.682716
29471.066915	-1339.733500	413.006836	-16.226706
29471.066915	-1339.733500	411.734375	51.482941
29471.066915	-1339.733500	410.461914	-60.619175
29471.066915	-1339.733500	409.188477	-87.911926
29471.066915	-1339.733500	407.916016	46.503990
29471.066915	-1339.733500	406.642578	208.334686
29471.066915	-1339.733500	405.368164	20.756804
29471.066915	-1339.733500	404.094727	89.475410
29471.066915	-1339.733500	402.820313	-13.588973
29471.066915	-1339.733500	401.545898	-18.252005
29471.066915	-1339.733500	400.270508	-11.323131
29471.066915	-1339.733500	398.996094	-20.412739
29471.066915	-1339.733500	397.720703	-134.190918
29471.066915	-1339.733500	396.444336	39.369167
29471.066915	-1339.733500	395.168945	177.095016
29471.066915	-1339.733500	393.892578	-18.311663
29471.066915	-1339.733500	392.616211	-56.513268
29471.066915	-1339.733500	391.339844	113.536613
29471.066915	-1339.733500	390.062500	139.475571
29471.066915	-1339.733500	388.785156	251.535446
29471.066915	-1339.733500	387.507813	247.061371
29471.066915	-1339.733500	386.229492	248.011948
29471.066915	-1339.733500	384.951172	242.566055
29471.066915	-1339.733500	383.672852	291.630035
29471.066915	-1339.733500	382.394531	389.245300
29471.066915	-1339.733500	381.115234	260.303192
29471.066915	-1339.733500	379.835938	187.768173
29471.066915	-1339.733500	378.556641	230.484833
29471.066915	-1339.733500	377.277344	280.366333
29471.066915	-1339.733500	375.997070	168.559494
29471.066915	-1339.733500	374.716797	201.288986
29471.066915	-1339.733500	373.435547	160.631317
29471.066915	-1339.733500	372.155273	301.626495
29471.066915	-1339.733500	370.874023	357.382721
29471.066915	-1339.733500	369.591797	320.073425
29471.066915	-1339.733500	368.310547	456.348999
29471.066915	-1339.733500	367.028320	542.605774
29471.066915	-1339.733500	365.746094	616.078674
29471.066915	-1339.733500	364.463867	657.145325
29471.066915	-1339.733500	363.180664	661.854126
29471.066915	-1339.733500	361.897461	698.737061
29471.066915	-1339.733500	360.614258	689.417542
29471.066915	-1339.733500	359.330078	598.632507
29471.066915	-1339.733500	358.045898	753.210022
29471.066915	-1339.733500	356.761719	810.557312
29471.066915	-1339.733500	355.477539	537.920349
29471.066915	-1339.733500	354.192383	567.111389
29471.066915	-1339.733500	352.907227	514.684326
29471.066915	-1339.733500	351.622070	722.725220
29471.066915	-1339.733500	350.336914	555.847290
29471.066915	-1339.733500	349.050781	569.130859
29471.066915	-1339.733500	347.764648	518.238403
29471.066915	-1339.733500	346.477539	588.669739
29471.066915	-1339.733500	345.191406	659.277283
29471.066915	-1339.733500	343.904297	708.469666
29471.066915	-1339.733500	342.616211	621.039429
29471.066915	-1339.733500	341.329102	717.102966
29471.066915	-1339.733500	340.041016	575.005310
29471.066915	-1339.733500	338.752930	598.627441
29471.066915	-1339.733500	337.463867	506.940247
29471.066915	-1339.733500	336.175781	592.479614
29471.066915	-1339.733500	334.886719	509.962738
29471.066915	-1339.733500	333.596680	448.458984
29471.066915	-1339.733500	332.307617	392.381073
29471.066915	-1339.733500	331.017578	528.564636
29471.066915	-1339.733500	329.727539	463.448883
29471.066915	-1339.733500	328.436523	531.939758
29471.066915	-1339.733500	327.146484	416.660889
29471.066915	-1339.733500	325.855469	539.885437
29471.066915	-1339.733500	324.563477	660.082214
29471.066915	-1339.733500	323.272461	536.052246
29471.066915	-1339.733500	321.980469	471.166565
29471.066915	-1339.733500	320.688477	298.124359
29471.066915	-1339.733500	319.395508	405.666504
29471.066915	-1339.733500	318.103516	556.516663
29471.066915	-1339.733500	316.810547	276.248627
29471.066915	-1339.733500	315.516602	336.359741
29471.066915	-1339.733500	314.223633	330.707367
29471.066915	-1339.733500	312.929688	-76.891937
29471.066915	-1339.733500	311.635742	6.933714
29471.066915	-1339.733500	310.340820	-4.564014
29471.066915	-1339.733500	309.045898	-270.489410
29471.066915	-1339.733500	307.750977	-129.135773
29471.066915	-1339.733500	306.456055	-46.456657
29471.066915	-1339.733500	305.160156	-10.991325
29471.066915	-1339.733500	303.865234	-86.616974
29471.066915	-1339.733500	302.568359	15.165879
29471.066915	-1339.733500	301.272461	125.807892
29471.066915	-1339.733500	299.975586	349.599945
29471.066915	-1339.733500	298.678711	481.091858
