#X		#Y		#Wave		#Intensity
618.667553	6067.535000	1999.946289	-20.920258
618.667553	6067.535000	1998.981445	69.232101
618.667553	6067.535000	1998.017578	-83.537109
618.667553	6067.535000	1997.052734	-110.251297
618.667553	6067.535000	1996.088867	-1.072854
618.667553	6067.535000	1995.124023	75.496262
618.667553	6067.535000	1994.159180	-83.612961
618.667553	6067.535000	1993.193359	143.291748
618.667553	6067.535000	1992.228516	15.723045
618.667553	6067.535000	1991.262695	16.595261
618.667553	6067.535000	1990.296875	-2.653055
618.667553	6067.535000	1989.331055	-89.015068
618.667553	6067.535000	1988.365234	-69.266342
618.667553	6067.535000	1987.398438	76.335091
618.667553	6067.535000	1986.432617	107.834946
618.667553	6067.535000	1985.465820	-95.846542
618.667553	6067.535000	1984.499023	-87.113739
618.667553	6067.535000	1983.532227	163.583084
618.667553	6067.535000	1982.565430	290.375488
618.667553	6067.535000	1981.597656	-151.394577
618.667553	6067.535000	1980.629883	-126.344948
618.667553	6067.535000	1979.662109	-165.746872
618.667553	6067.535000	1978.694336	9.484714
618.667553	6067.535000	1977.726563	322.702240
618.667553	6067.535000	1976.758789	77.724785
618.667553	6067.535000	1975.790039	-16.806190
618.667553	6067.535000	1974.821289	285.785858
618.667553	6067.535000	1973.852539	311.768768
618.667553	6067.535000	1972.883789	93.370239
618.667553	6067.535000	1971.915039	67.246468
618.667553	6067.535000	1970.945313	142.066605
618.667553	6067.535000	1969.975586	73.719292
618.667553	6067.535000	1969.005859	187.643539
618.667553	6067.535000	1968.036133	89.449127
618.667553	6067.535000	1967.066406	79.854050
618.667553	6067.535000	1966.096680	153.889664
618.667553	6067.535000	1965.125977	200.679520
618.667553	6067.535000	1964.155273	134.055679
618.667553	6067.535000	1963.184570	-119.773148
618.667553	6067.535000	1962.213867	99.011955
618.667553	6067.535000	1961.242188	-172.156860
618.667553	6067.535000	1960.271484	149.703842
618.667553	6067.535000	1959.299805	97.395081
618.667553	6067.535000	1958.328125	-26.315567
618.667553	6067.535000	1957.356445	211.456589
618.667553	6067.535000	1956.384766	55.643005
618.667553	6067.535000	1955.412109	91.567184
618.667553	6067.535000	1954.439453	112.659637
618.667553	6067.535000	1953.467773	64.870590
618.667553	6067.535000	1952.495117	240.627075
618.667553	6067.535000	1951.521484	-45.577717
618.667553	6067.535000	1950.548828	142.303513
618.667553	6067.535000	1949.575195	91.863136
618.667553	6067.535000	1948.601563	68.404449
618.667553	6067.535000	1947.627930	81.732910
618.667553	6067.535000	1946.654297	-84.145927
618.667553	6067.535000	1945.680664	-92.952225
618.667553	6067.535000	1944.706055	-104.242111
618.667553	6067.535000	1943.732422	-88.572952
618.667553	6067.535000	1942.757813	-104.818466
618.667553	6067.535000	1941.783203	229.556641
618.667553	6067.535000	1940.807617	-179.033539
618.667553	6067.535000	1939.833008	111.076073
618.667553	6067.535000	1938.857422	129.040543
618.667553	6067.535000	1937.881836	-110.280907
618.667553	6067.535000	1936.906250	-28.608299
618.667553	6067.535000	1935.930664	-71.883423
618.667553	6067.535000	1934.955078	205.648148
618.667553	6067.535000	1933.978516	32.575600
618.667553	6067.535000	1933.001953	114.151321
618.667553	6067.535000	1932.025391	315.624603
618.667553	6067.535000	1931.048828	20.289551
618.667553	6067.535000	1930.072266	-35.167202
618.667553	6067.535000	1929.094727	95.307045
618.667553	6067.535000	1928.118164	-21.262280
618.667553	6067.535000	1927.140625	33.386337
618.667553	6067.535000	1926.163086	61.136517
618.667553	6067.535000	1925.184570	137.777054
618.667553	6067.535000	1924.207031	92.219696
618.667553	6067.535000	1923.228516	-82.799614
618.667553	6067.535000	1922.250000	50.072136
618.667553	6067.535000	1921.271484	107.201569
618.667553	6067.535000	1920.292969	98.400543
618.667553	6067.535000	1919.314453	-8.032813
618.667553	6067.535000	1918.334961	-119.282661
618.667553	6067.535000	1917.355469	111.221329
618.667553	6067.535000	1916.375977	-161.002228
618.667553	6067.535000	1915.396484	123.156105
618.667553	6067.535000	1914.416992	-80.608429
618.667553	6067.535000	1913.436523	57.163418
618.667553	6067.535000	1912.457031	70.562614
618.667553	6067.535000	1911.476563	-125.668121
618.667553	6067.535000	1910.496094	-102.422974
618.667553	6067.535000	1909.515625	-20.665148
618.667553	6067.535000	1908.534180	51.350616
618.667553	6067.535000	1907.552734	50.294334
618.667553	6067.535000	1906.572266	-28.663210
618.667553	6067.535000	1905.590820	6.896589
618.667553	6067.535000	1904.608398	125.259399
618.667553	6067.535000	1903.626953	-48.491787
618.667553	6067.535000	1902.644531	-317.058380
618.667553	6067.535000	1901.663086	200.479248
618.667553	6067.535000	1900.680664	182.629745
618.667553	6067.535000	1899.698242	-66.254013
618.667553	6067.535000	1898.714844	13.308510
618.667553	6067.535000	1897.732422	-174.584808
618.667553	6067.535000	1896.749023	-12.297294
618.667553	6067.535000	1895.765625	-3.159962
618.667553	6067.535000	1894.782227	-57.168961
618.667553	6067.535000	1893.798828	114.840652
618.667553	6067.535000	1892.814453	51.190220
618.667553	6067.535000	1891.831055	-158.124664
618.667553	6067.535000	1890.846680	-75.924110
618.667553	6067.535000	1889.862305	8.712351
618.667553	6067.535000	1888.877930	-151.813217
618.667553	6067.535000	1887.892578	-23.433371
618.667553	6067.535000	1886.908203	51.552982
618.667553	6067.535000	1885.922852	-111.204338
618.667553	6067.535000	1884.937500	-19.175837
618.667553	6067.535000	1883.952148	-203.611969
618.667553	6067.535000	1882.965820	-230.338791
618.667553	6067.535000	1881.980469	79.949692
618.667553	6067.535000	1880.994141	-60.666775
618.667553	6067.535000	1880.007813	29.019674
618.667553	6067.535000	1879.021484	46.020172
618.667553	6067.535000	1878.035156	-138.012573
618.667553	6067.535000	1877.047852	-67.637024
618.667553	6067.535000	1876.061523	-43.264526
618.667553	6067.535000	1875.074219	29.551117
618.667553	6067.535000	1874.086914	368.636566
618.667553	6067.535000	1873.098633	46.923576
618.667553	6067.535000	1872.111328	-59.285625
618.667553	6067.535000	1871.123047	-42.044708
618.667553	6067.535000	1870.135742	-94.928604
618.667553	6067.535000	1869.147461	-96.979164
618.667553	6067.535000	1868.158203	-169.121948
618.667553	6067.535000	1867.169922	92.393074
618.667553	6067.535000	1866.180664	42.044670
618.667553	6067.535000	1865.192383	-85.590118
618.667553	6067.535000	1864.203125	91.271240
618.667553	6067.535000	1863.213867	12.032022
618.667553	6067.535000	1862.223633	275.796936
618.667553	6067.535000	1861.234375	-13.485099
618.667553	6067.535000	1860.244141	-63.629135
618.667553	6067.535000	1859.253906	101.093155
618.667553	6067.535000	1858.263672	120.969849
618.667553	6067.535000	1857.273438	3.320246
618.667553	6067.535000	1856.282227	206.585037
618.667553	6067.535000	1855.291992	6.984304
618.667553	6067.535000	1854.300781	24.510769
618.667553	6067.535000	1853.309570	58.919930
618.667553	6067.535000	1852.317383	64.400520
618.667553	6067.535000	1851.326172	81.939079
618.667553	6067.535000	1850.333984	-78.838799
618.667553	6067.535000	1849.342773	23.061190
618.667553	6067.535000	1848.350586	132.157242
618.667553	6067.535000	1847.357422	2.789083
618.667553	6067.535000	1846.365234	169.647247
618.667553	6067.535000	1845.372070	83.663033
618.667553	6067.535000	1844.379883	41.039616
618.667553	6067.535000	1843.386719	104.322563
618.667553	6067.535000	1842.393555	213.296494
618.667553	6067.535000	1841.399414	-89.136978
618.667553	6067.535000	1840.406250	156.926468
618.667553	6067.535000	1839.412109	143.181778
618.667553	6067.535000	1838.417969	-120.609856
618.667553	6067.535000	1837.423828	-76.614639
618.667553	6067.535000	1836.429688	70.701462
618.667553	6067.535000	1835.434570	8.900154
618.667553	6067.535000	1834.440430	-146.584885
618.667553	6067.535000	1833.445313	5.439258
618.667553	6067.535000	1832.450195	-5.912697
618.667553	6067.535000	1831.454102	73.970726
618.667553	6067.535000	1830.458984	100.993973
618.667553	6067.535000	1829.462891	-30.421595
618.667553	6067.535000	1828.466797	85.372948
618.667553	6067.535000	1827.470703	93.137207
618.667553	6067.535000	1826.474609	331.170807
618.667553	6067.535000	1825.478516	-23.312508
618.667553	6067.535000	1824.481445	135.481232
618.667553	6067.535000	1823.484375	135.957870
618.667553	6067.535000	1822.487305	23.749105
618.667553	6067.535000	1821.490234	24.199518
618.667553	6067.535000	1820.493164	-32.882439
618.667553	6067.535000	1819.495117	-8.516348
618.667553	6067.535000	1818.498047	130.785736
618.667553	6067.535000	1817.500000	-137.108963
618.667553	6067.535000	1816.500977	-55.357883
618.667553	6067.535000	1815.502930	-7.183844
618.667553	6067.535000	1814.504883	146.252930
618.667553	6067.535000	1813.505859	290.025482
618.667553	6067.535000	1812.506836	278.195313
618.667553	6067.535000	1811.507813	156.299362
618.667553	6067.535000	1810.508789	-257.367462
618.667553	6067.535000	1809.508789	-32.469582
618.667553	6067.535000	1808.508789	32.125950
618.667553	6067.535000	1807.508789	96.657341
618.667553	6067.535000	1806.508789	87.039581
618.667553	6067.535000	1805.508789	41.543129
618.667553	6067.535000	1804.508789	41.410145
618.667553	6067.535000	1803.507813	222.757324
618.667553	6067.535000	1802.506836	227.278397
618.667553	6067.535000	1801.505859	93.272186
618.667553	6067.535000	1800.504883	150.239670
618.667553	6067.535000	1799.502930	-12.435985
618.667553	6067.535000	1798.501953	237.716202
618.667553	6067.535000	1797.500000	113.159790
618.667553	6067.535000	1796.498047	60.158154
618.667553	6067.535000	1795.496094	-81.113846
618.667553	6067.535000	1794.493164	163.887894
618.667553	6067.535000	1793.491211	253.786270
618.667553	6067.535000	1792.488281	40.891071
618.667553	6067.535000	1791.485352	-88.572105
618.667553	6067.535000	1790.482422	184.616577
618.667553	6067.535000	1789.478516	112.232460
618.667553	6067.535000	1788.475586	104.123634
618.667553	6067.535000	1787.471680	234.071091
618.667553	6067.535000	1786.467773	94.878868
618.667553	6067.535000	1785.463867	215.136993
618.667553	6067.535000	1784.459961	313.869080
618.667553	6067.535000	1783.455078	79.377571
618.667553	6067.535000	1782.450195	78.053673
618.667553	6067.535000	1781.445313	148.021637
618.667553	6067.535000	1780.440430	229.789536
618.667553	6067.535000	1779.435547	66.563652
618.667553	6067.535000	1778.429688	48.340504
618.667553	6067.535000	1777.424805	132.258682
618.667553	6067.535000	1776.418945	332.513031
618.667553	6067.535000	1775.413086	123.979729
618.667553	6067.535000	1774.406250	-94.046150
618.667553	6067.535000	1773.400391	32.307018
618.667553	6067.535000	1772.393555	182.284393
618.667553	6067.535000	1771.386719	279.904999
618.667553	6067.535000	1770.379883	235.002228
618.667553	6067.535000	1769.373047	16.805973
618.667553	6067.535000	1768.365234	180.617844
618.667553	6067.535000	1767.358398	182.984192
618.667553	6067.535000	1766.350586	50.082058
618.667553	6067.535000	1765.342773	9.637989
618.667553	6067.535000	1764.334961	-170.748917
618.667553	6067.535000	1763.326172	-2.693302
618.667553	6067.535000	1762.318359	-36.223270
618.667553	6067.535000	1761.309570	287.978210
618.667553	6067.535000	1760.300781	256.616638
618.667553	6067.535000	1759.291016	168.339844
618.667553	6067.535000	1758.282227	188.957260
618.667553	6067.535000	1757.272461	162.130127
618.667553	6067.535000	1756.262695	265.432495
618.667553	6067.535000	1755.252930	186.370789
618.667553	6067.535000	1754.243164	126.190742
618.667553	6067.535000	1753.233398	20.999447
618.667553	6067.535000	1752.222656	-51.119209
618.667553	6067.535000	1751.211914	-2.676684
618.667553	6067.535000	1750.201172	-22.906677
618.667553	6067.535000	1749.190430	-7.749904
618.667553	6067.535000	1748.179688	40.409573
618.667553	6067.535000	1747.167969	-29.696220
618.667553	6067.535000	1746.156250	72.622894
618.667553	6067.535000	1745.144531	-18.890156
618.667553	6067.535000	1744.132813	-13.615454
618.667553	6067.535000	1743.121094	-81.630341
618.667553	6067.535000	1742.108398	98.192390
618.667553	6067.535000	1741.095703	32.369556
618.667553	6067.535000	1740.083008	-12.272812
618.667553	6067.535000	1739.070313	-14.510246
618.667553	6067.535000	1738.057617	-42.782314
618.667553	6067.535000	1737.043945	-59.341030
618.667553	6067.535000	1736.030273	-165.591949
618.667553	6067.535000	1735.016602	-0.739265
618.667553	6067.535000	1734.002930	67.311714
618.667553	6067.535000	1732.989258	45.689838
618.667553	6067.535000	1731.974609	-206.948044
618.667553	6067.535000	1730.959961	-35.495296
618.667553	6067.535000	1729.945313	-97.392357
618.667553	6067.535000	1728.930664	-279.463409
618.667553	6067.535000	1727.916016	-11.811958
618.667553	6067.535000	1726.900391	114.394318
618.667553	6067.535000	1725.885742	-124.360680
618.667553	6067.535000	1724.870117	25.179367
618.667553	6067.535000	1723.853516	-30.129257
618.667553	6067.535000	1722.837891	15.657853
618.667553	6067.535000	1721.822266	160.122910
618.667553	6067.535000	1720.805664	55.181824
618.667553	6067.535000	1719.789063	-54.506969
618.667553	6067.535000	1718.772461	7.353581
618.667553	6067.535000	1717.754883	-22.556175
618.667553	6067.535000	1716.738281	76.699440
618.667553	6067.535000	1715.720703	67.760185
618.667553	6067.535000	1714.703125	166.783035
618.667553	6067.535000	1713.685547	117.737968
618.667553	6067.535000	1712.667969	176.630112
618.667553	6067.535000	1711.649414	181.415787
618.667553	6067.535000	1710.630859	-65.013290
618.667553	6067.535000	1709.612305	-55.657784
618.667553	6067.535000	1708.593750	94.377144
618.667553	6067.535000	1707.575195	61.308598
618.667553	6067.535000	1706.555664	-110.204269
618.667553	6067.535000	1705.536133	-14.432370
618.667553	6067.535000	1704.516602	-246.982773
618.667553	6067.535000	1703.497070	-3.723243
618.667553	6067.535000	1702.477539	26.110260
618.667553	6067.535000	1701.457031	-197.195496
618.667553	6067.535000	1700.437500	-153.444321
618.667553	6067.535000	1699.416992	-30.168623
618.667553	6067.535000	1698.395508	-17.083996
618.667553	6067.535000	1697.375000	-39.194950
618.667553	6067.535000	1696.354492	-152.664032
618.667553	6067.535000	1695.333008	101.243423
618.667553	6067.535000	1694.311523	-152.765015
618.667553	6067.535000	1693.290039	-41.812855
618.667553	6067.535000	1692.267578	-113.426369
618.667553	6067.535000	1691.246094	48.765869
618.667553	6067.535000	1690.223633	37.796688
618.667553	6067.535000	1689.201172	64.156326
618.667553	6067.535000	1688.178711	183.913696
618.667553	6067.535000	1687.155273	79.220978
618.667553	6067.535000	1686.132813	-23.160994
618.667553	6067.535000	1685.109375	-29.821115
618.667553	6067.535000	1684.085938	-94.934761
618.667553	6067.535000	1683.062500	131.760422
618.667553	6067.535000	1682.039063	-141.269119
618.667553	6067.535000	1681.014648	-3.496547
618.667553	6067.535000	1679.990234	143.486069
618.667553	6067.535000	1678.965820	143.356171
618.667553	6067.535000	1677.941406	38.189625
618.667553	6067.535000	1676.916992	224.513489
618.667553	6067.535000	1675.891602	-53.323399
618.667553	6067.535000	1674.866211	65.192741
618.667553	6067.535000	1673.840820	-33.169781
618.667553	6067.535000	1672.815430	36.224525
618.667553	6067.535000	1671.790039	112.515076
618.667553	6067.535000	1670.763672	368.070984
618.667553	6067.535000	1669.737305	90.117279
618.667553	6067.535000	1668.710938	93.963379
618.667553	6067.535000	1667.684570	-41.942699
618.667553	6067.535000	1666.658203	75.856880
618.667553	6067.535000	1665.630859	326.190948
618.667553	6067.535000	1664.603516	278.540741
618.667553	6067.535000	1663.576172	175.015518
618.667553	6067.535000	1662.548828	352.902222
618.667553	6067.535000	1661.520508	293.457214
618.667553	6067.535000	1660.493164	289.786438
618.667553	6067.535000	1659.464844	225.612717
618.667553	6067.535000	1658.436523	293.878632
618.667553	6067.535000	1657.408203	245.881927
618.667553	6067.535000	1656.378906	221.069214
618.667553	6067.535000	1655.350586	365.783264
618.667553	6067.535000	1654.321289	240.992554
618.667553	6067.535000	1653.291992	376.242493
618.667553	6067.535000	1652.261719	311.739319
618.667553	6067.535000	1651.232422	395.761719
618.667553	6067.535000	1650.202148	342.781799
618.667553	6067.535000	1649.171875	540.338318
618.667553	6067.535000	1648.141602	547.562988
618.667553	6067.535000	1647.111328	580.249878
618.667553	6067.535000	1646.080078	779.811951
618.667553	6067.535000	1645.049805	555.024536
618.667553	6067.535000	1644.018555	833.230408
618.667553	6067.535000	1642.987305	784.538940
618.667553	6067.535000	1641.955078	694.110046
618.667553	6067.535000	1640.923828	872.392334
618.667553	6067.535000	1639.891602	730.946960
618.667553	6067.535000	1638.859375	1094.307251
618.667553	6067.535000	1637.827148	1019.933350
618.667553	6067.535000	1636.794922	922.404236
618.667553	6067.535000	1635.761719	1021.573181
618.667553	6067.535000	1634.729492	1122.992676
618.667553	6067.535000	1633.696289	1020.755615
618.667553	6067.535000	1632.662109	918.514526
618.667553	6067.535000	1631.628906	1158.527100
618.667553	6067.535000	1630.594727	1201.887085
618.667553	6067.535000	1629.561523	926.223511
618.667553	6067.535000	1628.527344	1045.816650
618.667553	6067.535000	1627.493164	855.714111
618.667553	6067.535000	1626.458008	871.250183
618.667553	6067.535000	1625.423828	893.693665
618.667553	6067.535000	1624.388672	906.856018
618.667553	6067.535000	1623.353516	1074.678345
618.667553	6067.535000	1622.318359	983.875488
618.667553	6067.535000	1621.282227	1031.549561
618.667553	6067.535000	1620.247070	1023.816101
618.667553	6067.535000	1619.210938	919.159241
618.667553	6067.535000	1618.174805	1125.910889
618.667553	6067.535000	1617.137695	1178.041992
618.667553	6067.535000	1616.101563	1163.283691
618.667553	6067.535000	1615.064453	1007.884521
618.667553	6067.535000	1614.027344	1124.494873
618.667553	6067.535000	1612.990234	1029.047363
618.667553	6067.535000	1611.953125	1164.012817
618.667553	6067.535000	1610.916016	1001.772217
618.667553	6067.535000	1609.877930	1235.684326
618.667553	6067.535000	1608.839844	946.822388
618.667553	6067.535000	1607.801758	1017.189270
618.667553	6067.535000	1606.763672	912.596680
618.667553	6067.535000	1605.724609	1178.518677
618.667553	6067.535000	1604.685547	958.876892
618.667553	6067.535000	1603.646484	1093.561157
618.667553	6067.535000	1602.607422	1092.499390
618.667553	6067.535000	1601.568359	912.083313
618.667553	6067.535000	1600.528320	1246.689331
618.667553	6067.535000	1599.489258	1289.268066
618.667553	6067.535000	1598.449219	1318.032227
618.667553	6067.535000	1597.408203	1153.777710
618.667553	6067.535000	1596.368164	1283.638062
618.667553	6067.535000	1595.327148	1238.892334
618.667553	6067.535000	1594.287109	1359.510498
618.667553	6067.535000	1593.246094	1351.514038
618.667553	6067.535000	1592.204102	1026.757568
618.667553	6067.535000	1591.163086	1418.159546
618.667553	6067.535000	1590.121094	1410.171753
618.667553	6067.535000	1589.079102	1438.903564
618.667553	6067.535000	1588.037109	1550.204712
618.667553	6067.535000	1586.995117	1558.286011
618.667553	6067.535000	1585.953125	1486.136230
618.667553	6067.535000	1584.910156	1464.447998
618.667553	6067.535000	1583.867188	1584.875488
618.667553	6067.535000	1582.824219	1320.331909
618.667553	6067.535000	1581.781250	1530.120972
618.667553	6067.535000	1580.737305	1382.532593
618.667553	6067.535000	1579.693359	1470.890381
618.667553	6067.535000	1578.649414	1289.072510
618.667553	6067.535000	1577.605469	1398.061523
618.667553	6067.535000	1576.561523	1291.902344
618.667553	6067.535000	1575.516602	1485.550903
618.667553	6067.535000	1574.472656	1354.304810
618.667553	6067.535000	1573.427734	1461.003418
618.667553	6067.535000	1572.381836	1519.655762
618.667553	6067.535000	1571.336914	1374.838379
618.667553	6067.535000	1570.291016	1102.085327
618.667553	6067.535000	1569.246094	1485.418335
618.667553	6067.535000	1568.200195	1123.700684
618.667553	6067.535000	1567.153320	1360.711792
618.667553	6067.535000	1566.107422	1394.387329
618.667553	6067.535000	1565.060547	1439.494873
618.667553	6067.535000	1564.013672	1537.136353
618.667553	6067.535000	1562.966797	1194.199219
618.667553	6067.535000	1561.919922	1269.107422
618.667553	6067.535000	1560.872070	1396.499023
618.667553	6067.535000	1559.825195	1601.464478
618.667553	6067.535000	1558.777344	1345.617554
618.667553	6067.535000	1557.729492	1292.885742
618.667553	6067.535000	1556.680664	1210.568481
618.667553	6067.535000	1555.632813	1240.042847
618.667553	6067.535000	1554.583984	1114.556885
618.667553	6067.535000	1553.535156	1283.129517
618.667553	6067.535000	1552.486328	1299.038330
618.667553	6067.535000	1551.436523	1399.261475
618.667553	6067.535000	1550.387695	1123.733154
618.667553	6067.535000	1549.337891	1321.966675
618.667553	6067.535000	1548.288086	848.599731
618.667553	6067.535000	1547.238281	1040.088501
618.667553	6067.535000	1546.187500	999.434021
618.667553	6067.535000	1545.136719	1095.362793
618.667553	6067.535000	1544.086914	1113.979370
618.667553	6067.535000	1543.035156	1098.514282
618.667553	6067.535000	1541.984375	1044.469238
618.667553	6067.535000	1540.933594	1167.830688
618.667553	6067.535000	1539.881836	1129.816528
618.667553	6067.535000	1538.830078	1339.580811
618.667553	6067.535000	1537.778320	1263.048462
618.667553	6067.535000	1536.725586	1254.750000
618.667553	6067.535000	1535.673828	1314.662842
618.667553	6067.535000	1534.621094	1420.023560
618.667553	6067.535000	1533.568359	1523.139038
618.667553	6067.535000	1532.515625	1660.329590
618.667553	6067.535000	1531.461914	1765.754883
618.667553	6067.535000	1530.409180	1528.612671
618.667553	6067.535000	1529.355469	1629.626099
618.667553	6067.535000	1528.301758	1522.015015
618.667553	6067.535000	1527.247070	1208.162109
618.667553	6067.535000	1526.193359	1137.095459
618.667553	6067.535000	1525.138672	599.191162
618.667553	6067.535000	1524.083984	594.134521
618.667553	6067.535000	1523.029297	512.121582
618.667553	6067.535000	1521.974609	489.115143
618.667553	6067.535000	1520.918945	631.523804
618.667553	6067.535000	1519.863281	441.084167
618.667553	6067.535000	1518.807617	420.597839
618.667553	6067.535000	1517.751953	307.395691
618.667553	6067.535000	1516.696289	504.362183
618.667553	6067.535000	1515.639648	361.928864
618.667553	6067.535000	1514.583008	199.276230
618.667553	6067.535000	1513.526367	165.690186
618.667553	6067.535000	1512.469727	387.728088
618.667553	6067.535000	1511.412109	315.846130
618.667553	6067.535000	1510.355469	409.095123
618.667553	6067.535000	1509.297852	511.425812
618.667553	6067.535000	1508.240234	471.455719
618.667553	6067.535000	1507.181641	298.298523
618.667553	6067.535000	1506.124023	254.046356
618.667553	6067.535000	1505.065430	322.802948
618.667553	6067.535000	1504.006836	260.675659
618.667553	6067.535000	1502.948242	160.290146
618.667553	6067.535000	1501.888672	75.827888
618.667553	6067.535000	1500.830078	278.056824
618.667553	6067.535000	1499.770508	128.369614
618.667553	6067.535000	1498.710938	44.244247
618.667553	6067.535000	1497.650391	-53.288849
618.667553	6067.535000	1496.590820	117.612709
618.667553	6067.535000	1495.530273	40.581535
618.667553	6067.535000	1494.469727	-54.351089
618.667553	6067.535000	1493.409180	-72.538109
618.667553	6067.535000	1492.348633	-41.059055
618.667553	6067.535000	1491.287109	-164.911301
618.667553	6067.535000	1490.225586	-83.692871
618.667553	6067.535000	1489.164063	114.668037
618.667553	6067.535000	1488.102539	306.297943
618.667553	6067.535000	1487.041016	317.909241
618.667553	6067.535000	1485.978516	372.363373
618.667553	6067.535000	1484.916016	73.767876
618.667553	6067.535000	1483.853516	155.382965
618.667553	6067.535000	1482.791016	-113.667816
618.667553	6067.535000	1481.727539	199.797623
618.667553	6067.535000	1480.664063	-167.824570
618.667553	6067.535000	1479.600586	-99.220482
618.667553	6067.535000	1478.537109	-266.438507
618.667553	6067.535000	1477.473633	-53.883514
618.667553	6067.535000	1476.409180	-9.737179
618.667553	6067.535000	1475.344727	-5.893955
618.667553	6067.535000	1474.280273	31.598694
618.667553	6067.535000	1473.215820	55.874935
618.667553	6067.535000	1472.151367	122.853111
618.667553	6067.535000	1471.085938	-2.951731
618.667553	6067.535000	1470.020508	124.654274
618.667553	6067.535000	1468.955078	131.273041
618.667553	6067.535000	1467.888672	-16.478559
618.667553	6067.535000	1466.823242	187.641388
618.667553	6067.535000	1465.756836	40.066612
618.667553	6067.535000	1464.690430	-82.485161
618.667553	6067.535000	1463.624023	-137.712875
618.667553	6067.535000	1462.556641	24.279171
618.667553	6067.535000	1461.490234	324.194672
618.667553	6067.535000	1460.422852	298.572815
618.667553	6067.535000	1459.355469	407.118073
618.667553	6067.535000	1458.287109	195.549789
618.667553	6067.535000	1457.219727	411.827545
618.667553	6067.535000	1456.151367	618.154541
618.667553	6067.535000	1455.083008	684.295166
618.667553	6067.535000	1454.014648	399.441162
618.667553	6067.535000	1452.945313	678.380615
618.667553	6067.535000	1451.876953	1215.331787
618.667553	6067.535000	1450.807617	798.260681
618.667553	6067.535000	1449.738281	762.300171
618.667553	6067.535000	1448.668945	877.656616
618.667553	6067.535000	1447.598633	755.845093
618.667553	6067.535000	1446.528320	526.227905
618.667553	6067.535000	1445.458008	381.198700
618.667553	6067.535000	1444.387695	231.826889
618.667553	6067.535000	1443.317383	125.732727
618.667553	6067.535000	1442.246094	107.351784
618.667553	6067.535000	1441.174805	256.736145
618.667553	6067.535000	1440.103516	238.919052
618.667553	6067.535000	1439.032227	83.718918
618.667553	6067.535000	1437.960938	267.993225
618.667553	6067.535000	1436.888672	347.402649
618.667553	6067.535000	1435.816406	242.485992
618.667553	6067.535000	1434.744141	371.576263
618.667553	6067.535000	1433.670898	338.499481
618.667553	6067.535000	1432.598633	259.189606
618.667553	6067.535000	1431.525391	323.567383
618.667553	6067.535000	1430.452148	399.556732
618.667553	6067.535000	1429.378906	333.018921
618.667553	6067.535000	1428.304688	39.277550
618.667553	6067.535000	1427.231445	272.233215
618.667553	6067.535000	1426.157227	260.405334
618.667553	6067.535000	1425.083008	128.534622
618.667553	6067.535000	1424.007813	318.957764
618.667553	6067.535000	1422.933594	134.093964
618.667553	6067.535000	1421.858398	290.083588
618.667553	6067.535000	1420.783203	399.797760
618.667553	6067.535000	1419.708008	583.939392
618.667553	6067.535000	1418.631836	626.562561
618.667553	6067.535000	1417.555664	648.128784
618.667553	6067.535000	1416.479492	753.055908
618.667553	6067.535000	1415.403320	992.209900
618.667553	6067.535000	1414.327148	1111.427490
618.667553	6067.535000	1413.250000	1407.372559
618.667553	6067.535000	1412.173828	1536.919067
618.667553	6067.535000	1411.096680	2039.019165
618.667553	6067.535000	1410.018555	2305.066162
618.667553	6067.535000	1408.941406	2592.364258
618.667553	6067.535000	1407.863281	2910.229492
618.667553	6067.535000	1406.785156	2841.019287
618.667553	6067.535000	1405.707031	2949.830566
618.667553	6067.535000	1404.628906	2919.855957
618.667553	6067.535000	1403.549805	3052.377686
618.667553	6067.535000	1402.470703	2640.028320
618.667553	6067.535000	1401.391602	2405.627197
618.667553	6067.535000	1400.312500	2224.989990
618.667553	6067.535000	1399.233398	2069.187988
618.667553	6067.535000	1398.153320	1986.484863
618.667553	6067.535000	1397.073242	1741.195557
618.667553	6067.535000	1395.993164	1785.401611
618.667553	6067.535000	1394.913086	1642.773682
618.667553	6067.535000	1393.832031	1499.664795
618.667553	6067.535000	1392.750977	1772.040771
618.667553	6067.535000	1391.669922	1326.335693
618.667553	6067.535000	1390.588867	1463.890991
618.667553	6067.535000	1389.506836	1328.717407
618.667553	6067.535000	1388.425781	1172.164429
618.667553	6067.535000	1387.343750	1040.866333
618.667553	6067.535000	1386.261719	1338.210083
618.667553	6067.535000	1385.178711	1314.786621
618.667553	6067.535000	1384.096680	1334.498535
618.667553	6067.535000	1383.013672	1165.446533
618.667553	6067.535000	1381.930664	1295.396973
618.667553	6067.535000	1380.846680	1452.670044
618.667553	6067.535000	1379.763672	1026.440552
618.667553	6067.535000	1378.679688	880.649109
618.667553	6067.535000	1377.595703	960.631836
618.667553	6067.535000	1376.511719	920.255432
618.667553	6067.535000	1375.427734	1025.683472
618.667553	6067.535000	1374.342773	1138.316650
618.667553	6067.535000	1373.257813	1326.059937
618.667553	6067.535000	1372.172852	1349.754883
618.667553	6067.535000	1371.087891	1294.498291
618.667553	6067.535000	1370.001953	1355.590820
618.667553	6067.535000	1368.916992	1390.019897
618.667553	6067.535000	1367.831055	1248.508911
618.667553	6067.535000	1366.744141	1233.325195
618.667553	6067.535000	1365.658203	1327.000610
618.667553	6067.535000	1364.571289	1354.454468
618.667553	6067.535000	1363.484375	1275.142822
618.667553	6067.535000	1362.397461	1275.936157
618.667553	6067.535000	1361.310547	1296.082764
618.667553	6067.535000	1360.222656	1221.711182
618.667553	6067.535000	1359.135742	956.431946
618.667553	6067.535000	1358.047852	1260.636230
618.667553	6067.535000	1356.958984	1152.192871
618.667553	6067.535000	1355.871094	767.645630
618.667553	6067.535000	1354.782227	1104.501343
618.667553	6067.535000	1353.693359	886.848877
618.667553	6067.535000	1352.604492	1103.186646
618.667553	6067.535000	1351.515625	801.187866
618.667553	6067.535000	1350.425781	935.021423
618.667553	6067.535000	1349.335938	1182.827759
618.667553	6067.535000	1348.246094	755.077881
618.667553	6067.535000	1347.156250	821.022949
618.667553	6067.535000	1346.066406	691.799072
618.667553	6067.535000	1344.975586	795.752380
618.667553	6067.535000	1343.884766	913.753235
618.667553	6067.535000	1342.793945	1063.281372
618.667553	6067.535000	1341.702148	770.495728
618.667553	6067.535000	1340.611328	864.832275
618.667553	6067.535000	1339.519531	606.638794
618.667553	6067.535000	1338.427734	628.690552
618.667553	6067.535000	1337.334961	647.892822
618.667553	6067.535000	1336.243164	557.921143
618.667553	6067.535000	1335.150391	676.541016
618.667553	6067.535000	1334.057617	486.185516
618.667553	6067.535000	1332.964844	326.631134
618.667553	6067.535000	1331.871094	435.298218
618.667553	6067.535000	1330.778320	397.629089
618.667553	6067.535000	1329.684570	493.827484
618.667553	6067.535000	1328.590820	98.440262
618.667553	6067.535000	1327.496094	157.428024
618.667553	6067.535000	1326.402344	222.505997
618.667553	6067.535000	1325.307617	138.796356
618.667553	6067.535000	1324.212891	-130.734344
618.667553	6067.535000	1323.117188	76.939163
618.667553	6067.535000	1322.022461	248.463181
618.667553	6067.535000	1320.926758	25.457502
618.667553	6067.535000	1319.831055	94.240906
618.667553	6067.535000	1318.735352	-76.621025
618.667553	6067.535000	1317.638672	66.175621
618.667553	6067.535000	1316.542969	54.272541
618.667553	6067.535000	1315.446289	75.869270
618.667553	6067.535000	1314.349609	182.830139
618.667553	6067.535000	1313.251953	146.901688
618.667553	6067.535000	1312.155273	155.648911
618.667553	6067.535000	1311.057617	125.071632
618.667553	6067.535000	1309.959961	-4.179934
618.667553	6067.535000	1308.862305	116.317169
618.667553	6067.535000	1307.763672	117.157417
618.667553	6067.535000	1306.665039	51.522064
618.667553	6067.535000	1305.566406	50.455170
618.667553	6067.535000	1304.467773	82.433403
618.667553	6067.535000	1303.369141	61.965649
618.667553	6067.535000	1302.269531	151.026520
618.667553	6067.535000	1301.169922	95.645630
618.667553	6067.535000	1300.070313	63.306454
618.667553	6067.535000	1298.970703	229.014954
618.667553	6067.535000	1297.870117	11.539869
618.667553	6067.535000	1296.769531	166.842239
618.667553	6067.535000	1295.668945	23.512943
618.667553	6067.535000	1294.568359	176.953445
618.667553	6067.535000	1293.466797	-44.440350
618.667553	6067.535000	1292.366211	-38.138668
618.667553	6067.535000	1291.264648	91.643410
618.667553	6067.535000	1290.162109	-186.698395
618.667553	6067.535000	1289.060547	-74.871895
618.667553	6067.535000	1287.958008	-3.585049
618.667553	6067.535000	1286.855469	-55.604847
618.667553	6067.535000	1285.752930	-55.652893
618.667553	6067.535000	1284.650391	9.234746
618.667553	6067.535000	1283.546875	-94.729256
618.667553	6067.535000	1282.444336	-232.188751
618.667553	6067.535000	1281.339844	-13.537966
618.667553	6067.535000	1280.236328	23.137955
618.667553	6067.535000	1279.132813	-173.683624
618.667553	6067.535000	1278.028320	-80.404106
618.667553	6067.535000	1276.923828	-158.219559
618.667553	6067.535000	1275.819336	-226.872086
618.667553	6067.535000	1274.713867	-72.237602
618.667553	6067.535000	1273.608398	-105.535728
618.667553	6067.535000	1272.503906	-164.498901
618.667553	6067.535000	1271.397461	18.474739
618.667553	6067.535000	1270.291992	21.926031
618.667553	6067.535000	1269.185547	-18.327332
618.667553	6067.535000	1268.080078	90.707558
618.667553	6067.535000	1266.972656	8.223755
618.667553	6067.535000	1265.866211	56.213867
618.667553	6067.535000	1264.759766	-103.046448
618.667553	6067.535000	1263.652344	-207.039230
618.667553	6067.535000	1262.544922	-31.822311
618.667553	6067.535000	1261.436523	-112.766350
618.667553	6067.535000	1260.329102	-200.218674
618.667553	6067.535000	1259.220703	-157.185303
618.667553	6067.535000	1258.112305	-120.075706
618.667553	6067.535000	1257.003906	-122.955261
618.667553	6067.535000	1255.895508	-115.208672
618.667553	6067.535000	1254.786133	-38.710365
618.667553	6067.535000	1253.676758	-92.022255
618.667553	6067.535000	1252.567383	66.288345
618.667553	6067.535000	1251.458008	6.530096
618.667553	6067.535000	1250.347656	77.659691
618.667553	6067.535000	1249.237305	211.099533
618.667553	6067.535000	1248.126953	155.598694
618.667553	6067.535000	1247.016602	253.097717
618.667553	6067.535000	1245.905273	341.337524
618.667553	6067.535000	1244.793945	297.331238
618.667553	6067.535000	1243.682617	502.305542
618.667553	6067.535000	1242.571289	513.548645
618.667553	6067.535000	1241.459961	531.402344
618.667553	6067.535000	1240.347656	702.814697
618.667553	6067.535000	1239.235352	730.610352
618.667553	6067.535000	1238.123047	616.684875
618.667553	6067.535000	1237.009766	659.091858
618.667553	6067.535000	1235.897461	697.709900
618.667553	6067.535000	1234.784180	585.944702
618.667553	6067.535000	1233.670898	685.101440
618.667553	6067.535000	1232.556641	635.711121
618.667553	6067.535000	1231.443359	705.690430
618.667553	6067.535000	1230.329102	652.536072
618.667553	6067.535000	1229.214844	607.190735
618.667553	6067.535000	1228.099609	626.027405
618.667553	6067.535000	1226.985352	625.277100
618.667553	6067.535000	1225.870117	633.213928
618.667553	6067.535000	1224.754883	579.676147
618.667553	6067.535000	1223.639648	577.114990
618.667553	6067.535000	1222.523438	378.316528
618.667553	6067.535000	1221.408203	472.054871
618.667553	6067.535000	1220.291992	533.694824
618.667553	6067.535000	1219.174805	450.540222
618.667553	6067.535000	1218.058594	435.707031
618.667553	6067.535000	1216.941406	303.419464
618.667553	6067.535000	1215.824219	271.733582
618.667553	6067.535000	1214.707031	176.179810
618.667553	6067.535000	1213.589844	169.042542
618.667553	6067.535000	1212.471680	146.645813
618.667553	6067.535000	1211.353516	113.202995
618.667553	6067.535000	1210.235352	95.211342
618.667553	6067.535000	1209.117188	4.519654
618.667553	6067.535000	1207.998047	1.845543
618.667553	6067.535000	1206.878906	139.321365
618.667553	6067.535000	1205.759766	46.837944
618.667553	6067.535000	1204.640625	6.356409
618.667553	6067.535000	1203.520508	299.813080
618.667553	6067.535000	1202.401367	174.698242
618.667553	6067.535000	1201.281250	463.526886
618.667553	6067.535000	1200.160156	739.625366
618.667553	6067.535000	1199.040039	856.158813
618.667553	6067.535000	1197.918945	1277.840454
618.667553	6067.535000	1196.797852	1712.906372
618.667553	6067.535000	1195.676758	1908.333252
618.667553	6067.535000	1194.555664	1829.244385
618.667553	6067.535000	1193.433594	1616.534058
618.667553	6067.535000	1192.311523	1419.556641
618.667553	6067.535000	1191.189453	1052.843384
618.667553	6067.535000	1190.066406	654.880493
618.667553	6067.535000	1188.944336	441.229980
618.667553	6067.535000	1187.821289	198.162247
618.667553	6067.535000	1186.698242	66.980972
618.667553	6067.535000	1185.574219	50.883953
618.667553	6067.535000	1184.451172	42.290897
618.667553	6067.535000	1183.327148	-10.024008
618.667553	6067.535000	1182.203125	45.911961
618.667553	6067.535000	1181.078125	31.394163
618.667553	6067.535000	1179.954102	-21.843004
618.667553	6067.535000	1178.829102	124.313324
618.667553	6067.535000	1177.704102	-17.810482
618.667553	6067.535000	1176.579102	67.577896
618.667553	6067.535000	1175.453125	218.979767
618.667553	6067.535000	1174.327148	119.219635
618.667553	6067.535000	1173.201172	261.103516
618.667553	6067.535000	1172.075195	206.904251
618.667553	6067.535000	1170.949219	222.156357
618.667553	6067.535000	1169.822266	218.980164
618.667553	6067.535000	1168.695313	170.757004
618.667553	6067.535000	1167.568359	297.796814
618.667553	6067.535000	1166.440430	386.236481
618.667553	6067.535000	1165.313477	394.946991
618.667553	6067.535000	1164.185547	206.822678
618.667553	6067.535000	1163.057617	141.603516
618.667553	6067.535000	1161.928711	134.663513
618.667553	6067.535000	1160.800781	294.915985
618.667553	6067.535000	1159.671875	128.356613
618.667553	6067.535000	1158.541992	153.677109
618.667553	6067.535000	1157.413086	-87.590813
618.667553	6067.535000	1156.283203	92.676247
618.667553	6067.535000	1155.154297	-22.407797
618.667553	6067.535000	1154.023438	-131.161789
618.667553	6067.535000	1152.893555	33.233082
618.667553	6067.535000	1151.763672	12.951435
618.667553	6067.535000	1150.632813	-19.375204
618.667553	6067.535000	1149.501953	-19.067894
618.667553	6067.535000	1148.370117	90.152275
618.667553	6067.535000	1147.239258	83.519943
618.667553	6067.535000	1146.107422	258.448853
618.667553	6067.535000	1144.975586	336.866211
618.667553	6067.535000	1143.843750	342.996124
618.667553	6067.535000	1142.710938	211.726730
618.667553	6067.535000	1141.578125	114.938469
618.667553	6067.535000	1140.445313	-30.325134
618.667553	6067.535000	1139.312500	10.454038
618.667553	6067.535000	1138.178711	113.287964
618.667553	6067.535000	1137.045898	51.193394
618.667553	6067.535000	1135.912109	-276.931305
618.667553	6067.535000	1134.777344	-25.912861
618.667553	6067.535000	1133.643555	-121.030106
618.667553	6067.535000	1132.508789	-20.669125
618.667553	6067.535000	1131.374023	-31.218523
618.667553	6067.535000	1130.239258	238.654343
618.667553	6067.535000	1129.104492	300.438354
618.667553	6067.535000	1127.968750	94.633430
618.667553	6067.535000	1126.833008	339.324799
618.667553	6067.535000	1125.697266	139.520920
618.667553	6067.535000	1124.560547	92.234253
618.667553	6067.535000	1123.424805	146.808945
618.667553	6067.535000	1122.288086	281.103241
618.667553	6067.535000	1121.151367	115.234863
618.667553	6067.535000	1120.013672	90.130203
618.667553	6067.535000	1118.876953	28.910192
618.667553	6067.535000	1117.739258	-66.088791
618.667553	6067.535000	1116.601563	73.890877
618.667553	6067.535000	1115.462891	-19.337889
618.667553	6067.535000	1114.324219	3.266822
618.667553	6067.535000	1113.186523	-22.512615
618.667553	6067.535000	1112.046875	-38.787037
618.667553	6067.535000	1110.908203	-85.720520
618.667553	6067.535000	1109.769531	-106.384018
618.667553	6067.535000	1108.629883	-36.813526
618.667553	6067.535000	1107.490234	-12.161107
618.667553	6067.535000	1106.349609	-119.730431
618.667553	6067.535000	1105.209961	-15.759571
618.667553	6067.535000	1104.069336	171.467545
618.667553	6067.535000	1102.928711	183.011017
618.667553	6067.535000	1101.787109	229.513275
618.667553	6067.535000	1100.646484	138.408569
618.667553	6067.535000	1099.504883	299.926239
618.667553	6067.535000	1098.363281	244.734085
618.667553	6067.535000	1097.221680	104.834854
618.667553	6067.535000	1096.079102	-12.978878
618.667553	6067.535000	1094.936523	55.263584
618.667553	6067.535000	1093.793945	78.460533
618.667553	6067.535000	1092.651367	205.670441
618.667553	6067.535000	1091.507813	112.997231
618.667553	6067.535000	1090.364258	240.386429
618.667553	6067.535000	1089.220703	185.978546
618.667553	6067.535000	1088.077148	245.720764
618.667553	6067.535000	1086.933594	279.775085
618.667553	6067.535000	1085.789063	280.553802
618.667553	6067.535000	1084.644531	262.746857
618.667553	6067.535000	1083.499023	218.453003
618.667553	6067.535000	1082.354492	308.872009
618.667553	6067.535000	1081.208984	297.745239
618.667553	6067.535000	1080.063477	226.646729
618.667553	6067.535000	1078.917969	66.423111
618.667553	6067.535000	1077.771484	72.947258
618.667553	6067.535000	1076.625977	61.433228
618.667553	6067.535000	1075.479492	175.421677
618.667553	6067.535000	1074.332031	84.379204
618.667553	6067.535000	1073.185547	71.906944
618.667553	6067.535000	1072.038086	55.810867
618.667553	6067.535000	1070.890625	123.725067
618.667553	6067.535000	1069.743164	41.344868
618.667553	6067.535000	1068.594727	2.931407
618.667553	6067.535000	1067.447266	180.457504
618.667553	6067.535000	1066.298828	176.491302
618.667553	6067.535000	1065.149414	123.043388
618.667553	6067.535000	1064.000977	290.084015
618.667553	6067.535000	1062.851563	275.559937
618.667553	6067.535000	1061.702148	272.662323
618.667553	6067.535000	1060.552734	121.603210
618.667553	6067.535000	1059.402344	149.791748
618.667553	6067.535000	1058.252930	32.665573
618.667553	6067.535000	1057.102539	49.286121
618.667553	6067.535000	1055.951172	64.352524
618.667553	6067.535000	1054.800781	89.028351
618.667553	6067.535000	1053.649414	-37.806931
618.667553	6067.535000	1052.498047	49.765957
618.667553	6067.535000	1051.346680	0.035203
618.667553	6067.535000	1050.194336	83.559013
618.667553	6067.535000	1049.042969	-86.075607
618.667553	6067.535000	1047.890625	-156.887177
618.667553	6067.535000	1046.738281	-78.205139
618.667553	6067.535000	1045.584961	-142.018356
618.667553	6067.535000	1044.431641	-162.709869
618.667553	6067.535000	1043.278320	-235.705322
618.667553	6067.535000	1042.125000	-37.607090
618.667553	6067.535000	1040.971680	-64.286110
618.667553	6067.535000	1039.817383	-188.294968
618.667553	6067.535000	1038.663086	-162.796692
618.667553	6067.535000	1037.508789	16.983328
618.667553	6067.535000	1036.353516	-106.793793
618.667553	6067.535000	1035.198242	-73.984230
618.667553	6067.535000	1034.042969	-45.360268
618.667553	6067.535000	1032.887695	80.972824
618.667553	6067.535000	1031.732422	26.130476
618.667553	6067.535000	1030.576172	99.534325
618.667553	6067.535000	1029.419922	131.948578
618.667553	6067.535000	1028.263672	1.443780
618.667553	6067.535000	1027.106445	-81.477539
618.667553	6067.535000	1025.949219	-21.614462
618.667553	6067.535000	1024.792969	-89.335182
618.667553	6067.535000	1023.634766	-41.685558
618.667553	6067.535000	1022.477539	-11.915167
618.667553	6067.535000	1021.319336	-200.150345
618.667553	6067.535000	1020.161133	61.776905
618.667553	6067.535000	1019.002930	-185.743515
618.667553	6067.535000	1017.843750	-93.430161
618.667553	6067.535000	1016.684570	-218.406845
618.667553	6067.535000	1015.525391	-154.041458
618.667553	6067.535000	1014.366211	-17.902113
618.667553	6067.535000	1013.207031	-70.695564
618.667553	6067.535000	1012.046875	-13.522428
618.667553	6067.535000	1010.886719	-109.223045
618.667553	6067.535000	1009.726563	-135.153580
618.667553	6067.535000	1008.565430	59.095963
618.667553	6067.535000	1007.404297	-32.047031
618.667553	6067.535000	1006.243164	-68.106674
618.667553	6067.535000	1005.082031	27.899736
618.667553	6067.535000	1003.920898	-90.374168
618.667553	6067.535000	1002.758789	231.190353
618.667553	6067.535000	1001.596680	-11.067895
618.667553	6067.535000	1000.433594	-124.010735
618.667553	6067.535000	999.271484	-153.443939
618.667553	6067.535000	998.108398	50.396801
618.667553	6067.535000	996.945313	-44.558689
618.667553	6067.535000	995.782227	77.583458
618.667553	6067.535000	994.618164	-17.390348
618.667553	6067.535000	993.454102	33.694000
618.667553	6067.535000	992.290039	160.896393
618.667553	6067.535000	991.125977	36.762100
618.667553	6067.535000	989.960938	-21.105274
618.667553	6067.535000	988.796875	117.007904
618.667553	6067.535000	987.630859	112.254494
618.667553	6067.535000	986.465820	21.439335
618.667553	6067.535000	985.300781	1.272473
618.667553	6067.535000	984.134766	33.378799
618.667553	6067.535000	982.968750	63.252186
618.667553	6067.535000	981.801758	94.201035
618.667553	6067.535000	980.635742	20.287273
618.667553	6067.535000	979.468750	2.111695
618.667553	6067.535000	978.301758	-95.562111
618.667553	6067.535000	977.133789	101.840691
618.667553	6067.535000	975.966797	186.233948
618.667553	6067.535000	974.798828	178.860687
618.667553	6067.535000	973.630859	-32.133488
618.667553	6067.535000	972.461914	127.700134
618.667553	6067.535000	971.293945	-56.340492
618.667553	6067.535000	970.125000	-96.493111
618.667553	6067.535000	968.956055	-45.088528
618.667553	6067.535000	967.786133	51.098179
618.667553	6067.535000	966.617188	-63.836849
618.667553	6067.535000	965.447266	59.374176
618.667553	6067.535000	964.276367	-273.286072
618.667553	6067.535000	963.106445	13.655731
618.667553	6067.535000	961.935547	-24.017221
618.667553	6067.535000	960.764648	125.473930
618.667553	6067.535000	959.593750	-37.901703
618.667553	6067.535000	958.422852	-45.610542
618.667553	6067.535000	957.250977	217.363983
618.667553	6067.535000	956.079102	126.828217
618.667553	6067.535000	954.907227	133.730789
618.667553	6067.535000	953.734375	103.717049
618.667553	6067.535000	952.562500	66.833290
618.667553	6067.535000	951.389648	151.131546
618.667553	6067.535000	950.215820	161.382568
618.667553	6067.535000	949.042969	10.150462
618.667553	6067.535000	947.869141	160.428436
618.667553	6067.535000	946.695313	73.465538
618.667553	6067.535000	945.521484	194.874420
618.667553	6067.535000	944.346680	29.089254
618.667553	6067.535000	943.172852	127.165642
618.667553	6067.535000	941.998047	4.083782
618.667553	6067.535000	940.822266	101.643745
618.667553	6067.535000	939.647461	49.823223
618.667553	6067.535000	938.471680	54.948891
618.667553	6067.535000	937.295898	14.727079
618.667553	6067.535000	936.119141	164.316299
618.667553	6067.535000	934.943359	-86.766426
618.667553	6067.535000	933.766602	34.418591
618.667553	6067.535000	932.589844	-86.301109
618.667553	6067.535000	931.413086	259.651978
618.667553	6067.535000	930.235352	172.101257
618.667553	6067.535000	929.057617	164.936844
618.667553	6067.535000	927.879883	160.233337
618.667553	6067.535000	926.702148	110.511551
618.667553	6067.535000	925.523438	98.605522
618.667553	6067.535000	924.344727	-216.266388
618.667553	6067.535000	923.166016	103.182312
618.667553	6067.535000	921.987305	192.968536
618.667553	6067.535000	920.807617	93.431084
618.667553	6067.535000	919.627930	95.249352
618.667553	6067.535000	919.497070	110.003983
618.667553	6067.535000	918.331055	-114.895683
618.667553	6067.535000	917.165039	-15.823898
618.667553	6067.535000	915.999023	-61.018639
618.667553	6067.535000	914.833008	123.019440
618.667553	6067.535000	913.666016	63.575199
618.667553	6067.535000	912.499023	53.734451
618.667553	6067.535000	911.332031	-152.173386
618.667553	6067.535000	910.165039	7.995526
618.667553	6067.535000	908.997070	-51.499435
618.667553	6067.535000	907.830078	-68.513046
618.667553	6067.535000	906.661133	-33.627266
618.667553	6067.535000	905.493164	-71.931435
618.667553	6067.535000	904.325195	-44.196484
618.667553	6067.535000	903.156250	-77.824326
618.667553	6067.535000	901.987305	-135.047302
618.667553	6067.535000	900.818359	102.424904
618.667553	6067.535000	899.648438	-44.438606
618.667553	6067.535000	898.478516	-49.871075
618.667553	6067.535000	897.308594	-1.138846
618.667553	6067.535000	896.138672	141.773972
618.667553	6067.535000	894.968750	112.671364
618.667553	6067.535000	893.797852	163.615067
618.667553	6067.535000	892.626953	139.174652
618.667553	6067.535000	891.456055	307.726379
618.667553	6067.535000	890.284180	297.333832
618.667553	6067.535000	889.113281	338.680084
618.667553	6067.535000	887.941406	5.966294
618.667553	6067.535000	886.768555	54.360634
618.667553	6067.535000	885.596680	90.951515
618.667553	6067.535000	884.423828	-53.514103
618.667553	6067.535000	883.250977	51.195606
618.667553	6067.535000	882.078125	-97.953308
618.667553	6067.535000	880.905273	218.122375
618.667553	6067.535000	879.731445	200.492889
618.667553	6067.535000	878.557617	79.513199
618.667553	6067.535000	877.383789	106.483299
618.667553	6067.535000	876.209961	107.594803
618.667553	6067.535000	875.035156	-36.833130
618.667553	6067.535000	873.860352	93.320145
618.667553	6067.535000	872.685547	-29.978392
618.667553	6067.535000	871.510742	67.235313
618.667553	6067.535000	870.334961	-177.999939
618.667553	6067.535000	869.159180	-113.666000
618.667553	6067.535000	867.983398	-9.530262
618.667553	6067.535000	866.807617	26.572470
618.667553	6067.535000	865.630859	-197.455811
618.667553	6067.535000	864.454102	-67.664268
618.667553	6067.535000	863.277344	10.521456
618.667553	6067.535000	862.100586	154.222610
618.667553	6067.535000	860.922852	-102.515335
618.667553	6067.535000	859.745117	59.832710
618.667553	6067.535000	858.567383	53.590122
618.667553	6067.535000	857.389648	-4.149216
618.667553	6067.535000	856.210938	104.208893
618.667553	6067.535000	855.032227	116.606598
618.667553	6067.535000	853.853516	86.886787
618.667553	6067.535000	852.674805	131.971451
618.667553	6067.535000	851.495117	300.899994
618.667553	6067.535000	850.315430	165.934952
618.667553	6067.535000	849.135742	439.885986
618.667553	6067.535000	847.956055	641.287354
618.667553	6067.535000	846.775391	669.757507
618.667553	6067.535000	845.595703	674.844971
618.667553	6067.535000	844.415039	409.101929
618.667553	6067.535000	843.233398	243.812592
618.667553	6067.535000	842.052734	253.589035
618.667553	6067.535000	840.871094	247.009705
618.667553	6067.535000	839.689453	280.066711
618.667553	6067.535000	838.506836	159.168411
618.667553	6067.535000	837.325195	140.891800
618.667553	6067.535000	836.142578	173.888458
618.667553	6067.535000	834.959961	97.308708
618.667553	6067.535000	833.777344	174.534439
618.667553	6067.535000	832.593750	254.037354
618.667553	6067.535000	831.410156	128.511795
618.667553	6067.535000	830.226563	107.812263
618.667553	6067.535000	829.042969	84.773750
618.667553	6067.535000	827.858398	280.539734
618.667553	6067.535000	826.673828	36.334892
618.667553	6067.535000	825.489258	22.570347
618.667553	6067.535000	824.304688	-193.604492
618.667553	6067.535000	823.120117	125.248856
618.667553	6067.535000	821.934570	78.856781
618.667553	6067.535000	820.749023	-88.433929
618.667553	6067.535000	819.562500	2.340384
618.667553	6067.535000	818.376953	95.380249
618.667553	6067.535000	817.190430	11.774118
618.667553	6067.535000	816.003906	-85.756180
618.667553	6067.535000	814.817383	-4.431389
618.667553	6067.535000	813.629883	-125.180527
618.667553	6067.535000	812.442383	-18.385246
618.667553	6067.535000	811.254883	53.528625
618.667553	6067.535000	810.067383	-139.161621
618.667553	6067.535000	808.878906	-48.733734
618.667553	6067.535000	807.690430	32.356476
618.667553	6067.535000	806.501953	-264.637146
618.667553	6067.535000	805.313477	94.668114
618.667553	6067.535000	804.124023	157.067703
618.667553	6067.535000	802.934570	-37.850220
618.667553	6067.535000	801.745117	-42.693146
618.667553	6067.535000	800.555664	137.787842
618.667553	6067.535000	799.365234	128.233810
618.667553	6067.535000	798.175781	192.769577
618.667553	6067.535000	796.985352	-73.841255
618.667553	6067.535000	795.793945	30.016394
618.667553	6067.535000	794.603516	45.862000
618.667553	6067.535000	793.412109	-84.098587
618.667553	6067.535000	792.220703	-183.953827
618.667553	6067.535000	791.028320	-131.135086
618.667553	6067.535000	789.836914	-113.047577
618.667553	6067.535000	788.644531	-108.863533
618.667553	6067.535000	787.452148	-97.769981
618.667553	6067.535000	786.258789	98.178558
618.667553	6067.535000	785.066406	-114.947380
618.667553	6067.535000	783.873047	-50.798725
618.667553	6067.535000	782.679688	8.680728
618.667553	6067.535000	781.485352	12.691256
618.667553	6067.535000	780.291992	-61.817577
618.667553	6067.535000	779.097656	34.484600
618.667553	6067.535000	777.903320	45.337639
618.667553	6067.535000	776.708008	-130.724274
618.667553	6067.535000	775.512695	62.339500
618.667553	6067.535000	774.318359	52.349014
618.667553	6067.535000	773.122070	-59.118401
618.667553	6067.535000	771.926758	-94.490021
618.667553	6067.535000	770.730469	102.913841
618.667553	6067.535000	769.534180	35.211090
618.667553	6067.535000	768.337891	55.055843
618.667553	6067.535000	767.141602	77.170586
618.667553	6067.535000	765.944336	103.854912
618.667553	6067.535000	764.747070	59.125244
618.667553	6067.535000	763.549805	203.147400
618.667553	6067.535000	762.351563	68.604713
618.667553	6067.535000	761.154297	104.364334
618.667553	6067.535000	759.956055	100.971786
618.667553	6067.535000	758.757813	10.152554
618.667553	6067.535000	757.558594	-119.750954
618.667553	6067.535000	756.359375	86.036598
618.667553	6067.535000	755.160156	27.371462
618.667553	6067.535000	753.960938	173.234894
618.667553	6067.535000	752.761719	-14.148698
618.667553	6067.535000	751.561523	-42.979973
618.667553	6067.535000	750.361328	107.311417
618.667553	6067.535000	749.160156	117.442734
618.667553	6067.535000	747.959961	251.509140
618.667553	6067.535000	746.758789	-23.063499
618.667553	6067.535000	745.557617	-74.959595
618.667553	6067.535000	744.356445	146.154617
618.667553	6067.535000	743.154297	-31.976355
618.667553	6067.535000	741.952148	99.535362
618.667553	6067.535000	740.750000	221.789200
618.667553	6067.535000	739.547852	34.490997
618.667553	6067.535000	738.344727	-24.414646
618.667553	6067.535000	737.142578	-74.161247
618.667553	6067.535000	735.939453	-162.866318
618.667553	6067.535000	734.735352	23.287256
618.667553	6067.535000	733.532227	124.603233
618.667553	6067.535000	732.328125	-64.923737
618.667553	6067.535000	731.124023	-153.686798
618.667553	6067.535000	729.918945	-148.616501
618.667553	6067.535000	728.714844	-139.004639
618.667553	6067.535000	727.509766	-81.391884
618.667553	6067.535000	726.303711	-85.591003
618.667553	6067.535000	725.098633	-144.698273
618.667553	6067.535000	723.892578	-110.085602
618.667553	6067.535000	722.686523	123.332596
618.667553	6067.535000	721.480469	-114.130371
618.667553	6067.535000	720.274414	46.010666
618.667553	6067.535000	719.067383	-47.501263
618.667553	6067.535000	717.860352	-156.994522
618.667553	6067.535000	716.653320	-163.730026
618.667553	6067.535000	715.445313	-28.966764
618.667553	6067.535000	714.238281	-129.371811
618.667553	6067.535000	713.030273	-190.981583
618.667553	6067.535000	711.821289	-47.280678
618.667553	6067.535000	710.613281	-134.042450
618.667553	6067.535000	709.404297	155.460220
618.667553	6067.535000	708.195313	95.976341
618.667553	6067.535000	706.986328	43.319260
618.667553	6067.535000	705.776367	36.224903
618.667553	6067.535000	704.566406	161.249023
618.667553	6067.535000	703.356445	-48.683678
618.667553	6067.535000	702.146484	87.620033
618.667553	6067.535000	700.935547	242.043442
618.667553	6067.535000	699.724609	-56.673958
618.667553	6067.535000	698.513672	-22.994186
618.667553	6067.535000	697.302734	204.063141
618.667553	6067.535000	696.090820	73.786476
618.667553	6067.535000	694.878906	-63.296455
618.667553	6067.535000	693.666992	-136.682816
618.667553	6067.535000	692.455078	-48.643169
618.667553	6067.535000	691.242188	189.352051
618.667553	6067.535000	690.029297	-93.251312
618.667553	6067.535000	688.816406	90.042747
618.667553	6067.535000	687.602539	-26.659077
618.667553	6067.535000	686.389648	133.753922
618.667553	6067.535000	685.175781	105.577148
618.667553	6067.535000	683.960938	249.919861
618.667553	6067.535000	682.747070	162.637100
618.667553	6067.535000	681.532227	186.550507
618.667553	6067.535000	680.317383	108.313187
618.667553	6067.535000	679.102539	286.405640
618.667553	6067.535000	677.886719	389.537842
618.667553	6067.535000	676.670898	302.118896
618.667553	6067.535000	675.455078	448.200592
618.667553	6067.535000	674.239258	451.389435
618.667553	6067.535000	673.022461	418.278137
618.667553	6067.535000	671.805664	348.892151
618.667553	6067.535000	670.588867	404.079193
618.667553	6067.535000	669.372070	178.388184
618.667553	6067.535000	668.154297	287.846313
618.667553	6067.535000	666.936523	256.871796
618.667553	6067.535000	665.718750	284.714722
618.667553	6067.535000	664.500977	38.717945
618.667553	6067.535000	663.282227	52.941830
618.667553	6067.535000	662.063477	-36.919895
618.667553	6067.535000	660.844727	56.382908
618.667553	6067.535000	659.625000	13.955441
618.667553	6067.535000	658.405273	111.649765
618.667553	6067.535000	657.185547	69.153526
618.667553	6067.535000	655.965820	121.530388
618.667553	6067.535000	654.745117	205.470444
618.667553	6067.535000	653.525391	68.013924
618.667553	6067.535000	652.303711	-15.237061
618.667553	6067.535000	651.083008	-100.744545
618.667553	6067.535000	649.861328	208.719040
618.667553	6067.535000	648.640625	114.101425
618.667553	6067.535000	647.417969	1.431190
618.667553	6067.535000	646.196289	112.077713
618.667553	6067.535000	644.973633	168.515472
618.667553	6067.535000	643.750977	10.705384
618.667553	6067.535000	642.528320	-120.023178
618.667553	6067.535000	641.305664	15.199234
618.667553	6067.535000	640.082031	-5.143533
618.667553	6067.535000	638.858398	-43.533779
618.667553	6067.535000	637.634766	35.174343
618.667553	6067.535000	636.410156	86.788857
618.667553	6067.535000	635.185547	172.118591
618.667553	6067.535000	633.960938	52.555508
618.667553	6067.535000	632.736328	63.528709
618.667553	6067.535000	631.510742	92.459450
618.667553	6067.535000	630.285156	58.362759
618.667553	6067.535000	629.059570	51.236118
618.667553	6067.535000	627.833984	-27.868286
618.667553	6067.535000	626.607422	-77.750916
618.667553	6067.535000	625.380859	52.153202
618.667553	6067.535000	624.154297	-251.694534
618.667553	6067.535000	622.927734	-29.761414
618.667553	6067.535000	621.700195	-19.082323
618.667553	6067.535000	620.472656	72.402969
618.667553	6067.535000	619.245117	163.820953
618.667553	6067.535000	618.016602	-77.032204
618.667553	6067.535000	616.788086	68.179199
618.667553	6067.535000	615.559570	67.464508
618.667553	6067.535000	614.331055	84.668999
618.667553	6067.535000	613.101563	-46.180706
618.667553	6067.535000	611.872070	114.487549
618.667553	6067.535000	610.642578	8.296434
618.667553	6067.535000	609.413086	128.494614
618.667553	6067.535000	608.182617	295.669189
618.667553	6067.535000	606.952148	444.829010
618.667553	6067.535000	605.721680	293.764771
618.667553	6067.535000	604.491211	136.024933
618.667553	6067.535000	603.259766	179.826523
618.667553	6067.535000	602.028320	304.171631
618.667553	6067.535000	600.796875	406.065826
618.667553	6067.535000	599.564453	429.581604
618.667553	6067.535000	598.332031	497.809967
618.667553	6067.535000	597.099609	418.381531
618.667553	6067.535000	595.867188	383.691589
618.667553	6067.535000	594.633789	480.892639
618.667553	6067.535000	593.400391	189.134476
618.667553	6067.535000	592.166992	574.570190
618.667553	6067.535000	590.933594	385.658508
618.667553	6067.535000	589.699219	359.865570
618.667553	6067.535000	588.464844	162.117462
618.667553	6067.535000	587.230469	203.340836
618.667553	6067.535000	585.995117	139.617950
618.667553	6067.535000	584.760742	17.890245
618.667553	6067.535000	583.525391	132.716965
618.667553	6067.535000	582.289063	173.866547
618.667553	6067.535000	581.053711	315.359589
618.667553	6067.535000	579.817383	338.600067
618.667553	6067.535000	578.581055	299.402954
618.667553	6067.535000	577.343750	108.648407
618.667553	6067.535000	576.107422	283.437195
618.667553	6067.535000	574.870117	382.394958
618.667553	6067.535000	573.631836	452.345886
618.667553	6067.535000	572.394531	119.186653
618.667553	6067.535000	571.156250	414.041962
618.667553	6067.535000	569.917969	316.989594
618.667553	6067.535000	568.679688	598.326294
618.667553	6067.535000	567.440430	381.121887
618.667553	6067.535000	566.202148	375.357941
618.667553	6067.535000	564.961914	391.832520
618.667553	6067.535000	563.722656	403.863800
618.667553	6067.535000	562.482422	449.239655
618.667553	6067.535000	561.243164	439.041351
618.667553	6067.535000	560.001953	424.402954
618.667553	6067.535000	558.761719	247.595718
618.667553	6067.535000	557.520508	90.863678
618.667553	6067.535000	556.279297	331.734741
618.667553	6067.535000	555.038086	141.771484
618.667553	6067.535000	553.795898	173.884537
618.667553	6067.535000	552.554688	214.880615
618.667553	6067.535000	551.311523	80.572784
618.667553	6067.535000	550.069336	46.174412
618.667553	6067.535000	548.826172	155.971756
618.667553	6067.535000	547.583984	188.132706
618.667553	6067.535000	546.339844	138.262558
618.667553	6067.535000	545.096680	64.057846
618.667553	6067.535000	543.852539	-81.011429
618.667553	6067.535000	542.608398	268.081543
618.667553	6067.535000	541.364258	149.659988
618.667553	6067.535000	540.119141	130.968826
618.667553	6067.535000	538.875000	54.747890
618.667553	6067.535000	537.628906	29.494509
618.667553	6067.535000	536.383789	90.599091
618.667553	6067.535000	535.137695	235.787796
618.667553	6067.535000	533.892578	-48.231983
618.667553	6067.535000	532.645508	70.440689
618.667553	6067.535000	531.399414	-29.821682
618.667553	6067.535000	530.152344	168.452347
618.667553	6067.535000	528.905273	21.857603
618.667553	6067.535000	527.658203	120.660645
618.667553	6067.535000	526.410156	-8.117065
618.667553	6067.535000	525.163086	64.215797
618.667553	6067.535000	523.914063	-4.794763
618.667553	6067.535000	522.666016	113.948647
618.667553	6067.535000	521.416992	283.450043
618.667553	6067.535000	520.167969	-26.010496
618.667553	6067.535000	518.918945	-28.582527
618.667553	6067.535000	517.669922	17.424236
618.667553	6067.535000	516.419922	-20.363119
618.667553	6067.535000	515.169922	-223.476257
618.667553	6067.535000	513.919922	-69.298203
618.667553	6067.535000	512.668945	-67.234032
618.667553	6067.535000	511.417969	-201.756027
618.667553	6067.535000	510.166992	36.179508
618.667553	6067.535000	508.916016	18.537100
618.667553	6067.535000	507.664063	115.468376
618.667553	6067.535000	506.412109	-216.952316
618.667553	6067.535000	505.160156	-80.287834
618.667553	6067.535000	503.907227	-190.133606
618.667553	6067.535000	502.655273	8.180444
618.667553	6067.535000	501.402344	-81.734337
618.667553	6067.535000	500.148438	-17.598061
618.667553	6067.535000	498.895508	-17.204859
618.667553	6067.535000	497.641602	-232.216690
618.667553	6067.535000	496.387695	-207.493378
618.667553	6067.535000	495.132813	-206.903717
618.667553	6067.535000	493.878906	-179.889786
618.667553	6067.535000	492.624023	-198.965897
618.667553	6067.535000	491.368164	-402.459839
618.667553	6067.535000	490.113281	-228.147079
618.667553	6067.535000	488.857422	-176.789856
618.667553	6067.535000	487.601563	-11.272019
618.667553	6067.535000	486.344727	-168.330521
618.667553	6067.535000	485.088867	-7.161334
618.667553	6067.535000	483.832031	-58.760868
618.667553	6067.535000	482.575195	-112.476273
618.667553	6067.535000	481.317383	-56.495689
618.667553	6067.535000	480.059570	25.818888
618.667553	6067.535000	478.801758	-38.672489
618.667553	6067.535000	477.543945	-144.709442
618.667553	6067.535000	476.285156	-7.504566
618.667553	6067.535000	475.027344	74.947121
618.667553	6067.535000	473.767578	-13.371244
618.667553	6067.535000	472.508789	137.012100
618.667553	6067.535000	471.249023	2.861740
618.667553	6067.535000	469.989258	70.130249
618.667553	6067.535000	468.729492	-72.595314
618.667553	6067.535000	467.469727	5.696830
618.667553	6067.535000	466.208984	-58.133888
618.667553	6067.535000	464.948242	153.576538
618.667553	6067.535000	463.686523	105.134682
618.667553	6067.535000	462.425781	15.241271
618.667553	6067.535000	461.164063	-41.799068
618.667553	6067.535000	459.901367	-61.638996
618.667553	6067.535000	458.639648	209.029129
618.667553	6067.535000	457.376953	136.823334
618.667553	6067.535000	456.114258	156.370636
618.667553	6067.535000	454.851563	261.062805
618.667553	6067.535000	453.587891	88.629768
618.667553	6067.535000	452.324219	121.367073
618.667553	6067.535000	451.060547	-11.639486
618.667553	6067.535000	449.796875	14.623516
618.667553	6067.535000	448.532227	139.003860
618.667553	6067.535000	447.267578	152.194000
618.667553	6067.535000	446.002930	167.578094
618.667553	6067.535000	444.737305	241.798569
618.667553	6067.535000	443.471680	96.001541
618.667553	6067.535000	442.206055	117.968285
618.667553	6067.535000	440.940430	438.223114
618.667553	6067.535000	439.673828	114.009514
618.667553	6067.535000	438.407227	257.851959
618.667553	6067.535000	437.140625	168.815384
618.667553	6067.535000	435.873047	34.129189
618.667553	6067.535000	434.605469	443.225616
618.667553	6067.535000	433.337891	254.158401
618.667553	6067.535000	432.070313	221.685272
618.667553	6067.535000	430.801758	182.685394
618.667553	6067.535000	429.533203	61.103119
618.667553	6067.535000	428.264648	221.979843
618.667553	6067.535000	426.996094	91.692787
618.667553	6067.535000	425.726563	132.982681
618.667553	6067.535000	424.457031	169.869446
618.667553	6067.535000	423.186523	260.958649
618.667553	6067.535000	421.916992	43.785236
618.667553	6067.535000	420.646484	13.243770
618.667553	6067.535000	419.375977	232.119217
618.667553	6067.535000	418.104492	123.337509
618.667553	6067.535000	416.833008	214.013382
618.667553	6067.535000	415.561523	438.975525
618.667553	6067.535000	414.290039	208.597382
618.667553	6067.535000	413.017578	389.936615
618.667553	6067.535000	411.746094	129.139771
618.667553	6067.535000	410.472656	178.077179
618.667553	6067.535000	409.200195	207.389542
618.667553	6067.535000	407.926758	275.531555
618.667553	6067.535000	406.653320	269.915680
618.667553	6067.535000	405.379883	192.744888
618.667553	6067.535000	404.105469	115.456436
618.667553	6067.535000	402.831055	137.548294
618.667553	6067.535000	401.556641	194.067444
618.667553	6067.535000	400.282227	336.875031
618.667553	6067.535000	399.006836	228.668594
618.667553	6067.535000	397.731445	165.701416
618.667553	6067.535000	396.456055	72.304596
618.667553	6067.535000	395.179688	84.587463
618.667553	6067.535000	393.903320	113.918182
618.667553	6067.535000	392.626953	192.667084
618.667553	6067.535000	391.350586	206.365341
618.667553	6067.535000	390.073242	-119.084633
618.667553	6067.535000	388.795898	248.055939
618.667553	6067.535000	387.518555	157.358383
618.667553	6067.535000	386.240234	152.682541
618.667553	6067.535000	384.961914	136.919235
618.667553	6067.535000	383.683594	-49.491035
618.667553	6067.535000	382.405273	231.625336
618.667553	6067.535000	381.125977	163.125916
618.667553	6067.535000	379.846680	12.416794
618.667553	6067.535000	378.567383	348.259430
618.667553	6067.535000	377.287109	102.038834
618.667553	6067.535000	376.006836	374.470398
618.667553	6067.535000	374.726563	17.732552
618.667553	6067.535000	373.446289	50.295296
618.667553	6067.535000	372.165039	103.904160
618.667553	6067.535000	370.883789	12.874941
618.667553	6067.535000	369.602539	11.741964
618.667553	6067.535000	368.320313	-71.620644
618.667553	6067.535000	367.039063	-67.305336
618.667553	6067.535000	365.755859	71.874115
618.667553	6067.535000	364.473633	-178.539536
618.667553	6067.535000	363.190430	118.470985
618.667553	6067.535000	361.907227	-4.134220
618.667553	6067.535000	360.624023	-95.085365
618.667553	6067.535000	359.340820	-130.801575
618.667553	6067.535000	358.056641	-36.217377
618.667553	6067.535000	356.772461	-124.785690
618.667553	6067.535000	355.487305	15.575544
618.667553	6067.535000	354.202148	114.393929
618.667553	6067.535000	352.916992	103.037086
618.667553	6067.535000	351.631836	217.440567
618.667553	6067.535000	350.346680	101.601913
618.667553	6067.535000	349.060547	255.063721
618.667553	6067.535000	347.774414	56.165462
618.667553	6067.535000	346.487305	152.144653
618.667553	6067.535000	345.200195	204.350693
618.667553	6067.535000	343.913086	-14.226311
618.667553	6067.535000	342.625977	-23.816507
618.667553	6067.535000	341.338867	106.913887
618.667553	6067.535000	340.050781	150.959854
618.667553	6067.535000	338.762695	-15.735755
618.667553	6067.535000	337.473633	81.834946
618.667553	6067.535000	336.184570	-76.242287
618.667553	6067.535000	334.895508	-141.279114
618.667553	6067.535000	333.606445	-117.642479
618.667553	6067.535000	332.317383	-112.292671
618.667553	6067.535000	331.027344	-153.057220
618.667553	6067.535000	329.736328	-160.893616
618.667553	6067.535000	328.446289	-90.940918
618.667553	6067.535000	327.155273	-99.240891
618.667553	6067.535000	325.864258	-224.176544
618.667553	6067.535000	324.573242	-8.900473
618.667553	6067.535000	323.281250	23.427572
618.667553	6067.535000	321.989258	-35.329334
618.667553	6067.535000	320.697266	70.838211
618.667553	6067.535000	319.405273	-187.138214
618.667553	6067.535000	318.112305	188.811615
618.667553	6067.535000	316.819336	66.271049
618.667553	6067.535000	315.526367	-25.894960
618.667553	6067.535000	314.232422	72.025330
618.667553	6067.535000	312.938477	-132.223267
618.667553	6067.535000	311.644531	-8.016350
618.667553	6067.535000	310.349609	114.268486
618.667553	6067.535000	309.054688	64.310150
618.667553	6067.535000	307.759766	23.102732
618.667553	6067.535000	306.464844	16.133671
618.667553	6067.535000	305.168945	119.874756
618.667553	6067.535000	303.873047	170.463257
618.667553	6067.535000	302.577148	121.097961
618.667553	6067.535000	301.281250	35.582310
618.667553	6067.535000	299.984375	105.149788
