#X		#Y		#Wave		#Intensity
423.448936	6363.783333	1999.946289	-14.342021
423.448936	6363.783333	1998.981445	85.092224
423.448936	6363.783333	1998.017578	31.920235
423.448936	6363.783333	1997.052734	102.764061
423.448936	6363.783333	1996.088867	34.924568
423.448936	6363.783333	1995.124023	-40.236927
423.448936	6363.783333	1994.159180	-31.077778
423.448936	6363.783333	1993.193359	-133.274826
423.448936	6363.783333	1992.228516	19.654457
423.448936	6363.783333	1991.262695	48.834023
423.448936	6363.783333	1990.296875	-119.916840
423.448936	6363.783333	1989.331055	23.245470
423.448936	6363.783333	1988.365234	161.474152
423.448936	6363.783333	1987.398438	47.416374
423.448936	6363.783333	1986.432617	69.484314
423.448936	6363.783333	1985.465820	192.979843
423.448936	6363.783333	1984.499023	-61.749519
423.448936	6363.783333	1983.532227	-4.895997
423.448936	6363.783333	1982.565430	54.462002
423.448936	6363.783333	1981.597656	-26.985216
423.448936	6363.783333	1980.629883	106.564415
423.448936	6363.783333	1979.662109	-14.281823
423.448936	6363.783333	1978.694336	-6.629479
423.448936	6363.783333	1977.726563	-73.003983
423.448936	6363.783333	1976.758789	-6.014215
423.448936	6363.783333	1975.790039	-146.323807
423.448936	6363.783333	1974.821289	172.423508
423.448936	6363.783333	1973.852539	175.299622
423.448936	6363.783333	1972.883789	17.877481
423.448936	6363.783333	1971.915039	-77.798729
423.448936	6363.783333	1970.945313	1.658522
423.448936	6363.783333	1969.975586	2.227090
423.448936	6363.783333	1969.005859	140.852646
423.448936	6363.783333	1968.036133	173.486725
423.448936	6363.783333	1967.066406	223.380768
423.448936	6363.783333	1966.096680	120.546471
423.448936	6363.783333	1965.125977	-65.968575
423.448936	6363.783333	1964.155273	38.183659
423.448936	6363.783333	1963.184570	112.771828
423.448936	6363.783333	1962.213867	71.655434
423.448936	6363.783333	1961.242188	-58.030785
423.448936	6363.783333	1960.271484	46.112217
423.448936	6363.783333	1959.299805	201.895813
423.448936	6363.783333	1958.328125	0.967459
423.448936	6363.783333	1957.356445	100.162888
423.448936	6363.783333	1956.384766	-68.684059
423.448936	6363.783333	1955.412109	-21.119047
423.448936	6363.783333	1954.439453	173.914139
423.448936	6363.783333	1953.467773	-9.570790
423.448936	6363.783333	1952.495117	-148.754745
423.448936	6363.783333	1951.521484	24.103991
423.448936	6363.783333	1950.548828	79.010033
423.448936	6363.783333	1949.575195	-45.364372
423.448936	6363.783333	1948.601563	2.175285
423.448936	6363.783333	1947.627930	37.425503
423.448936	6363.783333	1946.654297	94.752144
423.448936	6363.783333	1945.680664	147.150497
423.448936	6363.783333	1944.706055	32.699295
423.448936	6363.783333	1943.732422	107.164528
423.448936	6363.783333	1942.757813	-12.144137
423.448936	6363.783333	1941.783203	-143.671188
423.448936	6363.783333	1940.807617	-86.383202
423.448936	6363.783333	1939.833008	-114.908600
423.448936	6363.783333	1938.857422	104.086754
423.448936	6363.783333	1937.881836	63.275677
423.448936	6363.783333	1936.906250	118.014023
423.448936	6363.783333	1935.930664	-89.346718
423.448936	6363.783333	1934.955078	124.559105
423.448936	6363.783333	1933.978516	105.784065
423.448936	6363.783333	1933.001953	33.153938
423.448936	6363.783333	1932.025391	14.386505
423.448936	6363.783333	1931.048828	-99.815582
423.448936	6363.783333	1930.072266	104.065300
423.448936	6363.783333	1929.094727	-32.144787
423.448936	6363.783333	1928.118164	156.953491
423.448936	6363.783333	1927.140625	138.131836
423.448936	6363.783333	1926.163086	-115.385803
423.448936	6363.783333	1925.184570	34.481045
423.448936	6363.783333	1924.207031	44.983910
423.448936	6363.783333	1923.228516	40.811001
423.448936	6363.783333	1922.250000	-87.959648
423.448936	6363.783333	1921.271484	22.662882
423.448936	6363.783333	1920.292969	11.132901
423.448936	6363.783333	1919.314453	165.617142
423.448936	6363.783333	1918.334961	95.451973
423.448936	6363.783333	1917.355469	247.394760
423.448936	6363.783333	1916.375977	43.004864
423.448936	6363.783333	1915.396484	9.455894
423.448936	6363.783333	1914.416992	151.530869
423.448936	6363.783333	1913.436523	-57.647709
423.448936	6363.783333	1912.457031	-22.929382
423.448936	6363.783333	1911.476563	97.086319
423.448936	6363.783333	1910.496094	63.485065
423.448936	6363.783333	1909.515625	34.755009
423.448936	6363.783333	1908.534180	-50.019440
423.448936	6363.783333	1907.552734	-61.696381
423.448936	6363.783333	1906.572266	126.335403
423.448936	6363.783333	1905.590820	-106.999321
423.448936	6363.783333	1904.608398	-18.883764
423.448936	6363.783333	1903.626953	-33.054325
423.448936	6363.783333	1902.644531	64.718407
423.448936	6363.783333	1901.663086	-12.760875
423.448936	6363.783333	1900.680664	41.147854
423.448936	6363.783333	1899.698242	-48.492416
423.448936	6363.783333	1898.714844	-57.860512
423.448936	6363.783333	1897.732422	39.745403
423.448936	6363.783333	1896.749023	115.418861
423.448936	6363.783333	1895.765625	25.767395
423.448936	6363.783333	1894.782227	149.986328
423.448936	6363.783333	1893.798828	-22.279793
423.448936	6363.783333	1892.814453	-73.036003
423.448936	6363.783333	1891.831055	126.375809
423.448936	6363.783333	1890.846680	196.994843
423.448936	6363.783333	1889.862305	-118.459908
423.448936	6363.783333	1888.877930	49.243542
423.448936	6363.783333	1887.892578	51.834480
423.448936	6363.783333	1886.908203	1.025894
423.448936	6363.783333	1885.922852	-40.075756
423.448936	6363.783333	1884.937500	20.697353
423.448936	6363.783333	1883.952148	11.103120
423.448936	6363.783333	1882.965820	-25.175112
423.448936	6363.783333	1881.980469	91.272598
423.448936	6363.783333	1880.994141	142.218109
423.448936	6363.783333	1880.007813	47.729252
423.448936	6363.783333	1879.021484	125.285629
423.448936	6363.783333	1878.035156	88.943497
423.448936	6363.783333	1877.047852	-32.169521
423.448936	6363.783333	1876.061523	176.074493
423.448936	6363.783333	1875.074219	197.803680
423.448936	6363.783333	1874.086914	139.630432
423.448936	6363.783333	1873.098633	187.949417
423.448936	6363.783333	1872.111328	-0.892600
423.448936	6363.783333	1871.123047	90.952682
423.448936	6363.783333	1870.135742	226.288635
423.448936	6363.783333	1869.147461	-66.486206
423.448936	6363.783333	1868.158203	-168.153961
423.448936	6363.783333	1867.169922	102.488739
423.448936	6363.783333	1866.180664	138.568390
423.448936	6363.783333	1865.192383	58.628731
423.448936	6363.783333	1864.203125	251.721024
423.448936	6363.783333	1863.213867	128.281540
423.448936	6363.783333	1862.223633	-21.692636
423.448936	6363.783333	1861.234375	-26.739178
423.448936	6363.783333	1860.244141	43.044147
423.448936	6363.783333	1859.253906	124.857826
423.448936	6363.783333	1858.263672	-97.453751
423.448936	6363.783333	1857.273438	88.085655
423.448936	6363.783333	1856.282227	-141.398499
423.448936	6363.783333	1855.291992	29.583601
423.448936	6363.783333	1854.300781	157.081009
423.448936	6363.783333	1853.309570	60.287472
423.448936	6363.783333	1852.317383	305.827911
423.448936	6363.783333	1851.326172	81.280571
423.448936	6363.783333	1850.333984	88.138802
423.448936	6363.783333	1849.342773	176.900848
423.448936	6363.783333	1848.350586	137.949631
423.448936	6363.783333	1847.357422	70.100243
423.448936	6363.783333	1846.365234	-55.522087
423.448936	6363.783333	1845.372070	33.154991
423.448936	6363.783333	1844.379883	-29.852133
423.448936	6363.783333	1843.386719	80.425812
423.448936	6363.783333	1842.393555	270.053741
423.448936	6363.783333	1841.399414	79.506111
423.448936	6363.783333	1840.406250	-86.925735
423.448936	6363.783333	1839.412109	35.263546
423.448936	6363.783333	1838.417969	159.802002
423.448936	6363.783333	1837.423828	10.246902
423.448936	6363.783333	1836.429688	182.793259
423.448936	6363.783333	1835.434570	-41.220798
423.448936	6363.783333	1834.440430	20.738388
423.448936	6363.783333	1833.445313	56.242455
423.448936	6363.783333	1832.450195	53.299267
423.448936	6363.783333	1831.454102	-98.522583
423.448936	6363.783333	1830.458984	-19.828558
423.448936	6363.783333	1829.462891	142.833771
423.448936	6363.783333	1828.466797	75.049461
423.448936	6363.783333	1827.470703	-31.106153
423.448936	6363.783333	1826.474609	93.062393
423.448936	6363.783333	1825.478516	8.514232
423.448936	6363.783333	1824.481445	-18.458958
423.448936	6363.783333	1823.484375	98.421249
423.448936	6363.783333	1822.487305	116.971405
423.448936	6363.783333	1821.490234	51.626221
423.448936	6363.783333	1820.493164	22.241302
423.448936	6363.783333	1819.495117	-35.888290
423.448936	6363.783333	1818.498047	-0.586638
423.448936	6363.783333	1817.500000	147.249893
423.448936	6363.783333	1816.500977	-68.917625
423.448936	6363.783333	1815.502930	78.863586
423.448936	6363.783333	1814.504883	32.714748
423.448936	6363.783333	1813.505859	29.650112
423.448936	6363.783333	1812.506836	-136.111908
423.448936	6363.783333	1811.507813	-117.625885
423.448936	6363.783333	1810.508789	-10.662194
423.448936	6363.783333	1809.508789	101.037041
423.448936	6363.783333	1808.508789	50.119446
423.448936	6363.783333	1807.508789	32.679859
423.448936	6363.783333	1806.508789	161.020630
423.448936	6363.783333	1805.508789	-6.972854
423.448936	6363.783333	1804.508789	-127.130089
423.448936	6363.783333	1803.507813	48.922497
423.448936	6363.783333	1802.506836	-68.821762
423.448936	6363.783333	1801.505859	59.392612
423.448936	6363.783333	1800.504883	118.328903
423.448936	6363.783333	1799.502930	-11.310237
423.448936	6363.783333	1798.501953	166.919296
423.448936	6363.783333	1797.500000	-67.661285
423.448936	6363.783333	1796.498047	-58.855015
423.448936	6363.783333	1795.496094	102.574997
423.448936	6363.783333	1794.493164	-24.575348
423.448936	6363.783333	1793.491211	22.349493
423.448936	6363.783333	1792.488281	31.115526
423.448936	6363.783333	1791.485352	-33.999729
423.448936	6363.783333	1790.482422	-127.685158
423.448936	6363.783333	1789.478516	12.110481
423.448936	6363.783333	1788.475586	42.293232
423.448936	6363.783333	1787.471680	-18.027180
423.448936	6363.783333	1786.467773	207.367188
423.448936	6363.783333	1785.463867	54.199078
423.448936	6363.783333	1784.459961	20.079866
423.448936	6363.783333	1783.455078	-128.243423
423.448936	6363.783333	1782.450195	-31.478128
423.448936	6363.783333	1781.445313	-46.543140
423.448936	6363.783333	1780.440430	16.871656
423.448936	6363.783333	1779.435547	25.573938
423.448936	6363.783333	1778.429688	-60.818691
423.448936	6363.783333	1777.424805	33.451881
423.448936	6363.783333	1776.418945	20.750202
423.448936	6363.783333	1775.413086	-65.599831
423.448936	6363.783333	1774.406250	19.105808
423.448936	6363.783333	1773.400391	-24.467546
423.448936	6363.783333	1772.393555	-27.662397
423.448936	6363.783333	1771.386719	-4.743709
423.448936	6363.783333	1770.379883	6.295878
423.448936	6363.783333	1769.373047	233.283554
423.448936	6363.783333	1768.365234	-11.980990
423.448936	6363.783333	1767.358398	-19.931034
423.448936	6363.783333	1766.350586	74.104561
423.448936	6363.783333	1765.342773	-106.971207
423.448936	6363.783333	1764.334961	-124.389748
423.448936	6363.783333	1763.326172	123.681816
423.448936	6363.783333	1762.318359	68.301895
423.448936	6363.783333	1761.309570	50.851101
423.448936	6363.783333	1760.300781	-6.868171
423.448936	6363.783333	1759.291016	37.281162
423.448936	6363.783333	1758.282227	67.203705
423.448936	6363.783333	1757.272461	-40.215565
423.448936	6363.783333	1756.262695	-64.741631
423.448936	6363.783333	1755.252930	19.612829
423.448936	6363.783333	1754.243164	-163.466141
423.448936	6363.783333	1753.233398	169.291977
423.448936	6363.783333	1752.222656	-1.923522
423.448936	6363.783333	1751.211914	16.124840
423.448936	6363.783333	1750.201172	-79.334427
423.448936	6363.783333	1749.190430	-35.276901
423.448936	6363.783333	1748.179688	-163.785599
423.448936	6363.783333	1747.167969	-122.096985
423.448936	6363.783333	1746.156250	-73.338364
423.448936	6363.783333	1745.144531	-17.513647
423.448936	6363.783333	1744.132813	12.307835
423.448936	6363.783333	1743.121094	-54.702053
423.448936	6363.783333	1742.108398	-100.440933
423.448936	6363.783333	1741.095703	80.443871
423.448936	6363.783333	1740.083008	74.813210
423.448936	6363.783333	1739.070313	-15.762634
423.448936	6363.783333	1738.057617	72.988800
423.448936	6363.783333	1737.043945	48.485794
423.448936	6363.783333	1736.030273	-110.430687
423.448936	6363.783333	1735.016602	34.868740
423.448936	6363.783333	1734.002930	-46.196510
423.448936	6363.783333	1732.989258	-84.808090
423.448936	6363.783333	1731.974609	3.839475
423.448936	6363.783333	1730.959961	38.263916
423.448936	6363.783333	1729.945313	75.028198
423.448936	6363.783333	1728.930664	31.701637
423.448936	6363.783333	1727.916016	70.803749
423.448936	6363.783333	1726.900391	20.426619
423.448936	6363.783333	1725.885742	-18.163801
423.448936	6363.783333	1724.870117	16.209852
423.448936	6363.783333	1723.853516	-74.134575
423.448936	6363.783333	1722.837891	26.099632
423.448936	6363.783333	1721.822266	34.566570
423.448936	6363.783333	1720.805664	17.159586
423.448936	6363.783333	1719.789063	-98.987862
423.448936	6363.783333	1718.772461	165.705246
423.448936	6363.783333	1717.754883	58.968697
423.448936	6363.783333	1716.738281	-122.918869
423.448936	6363.783333	1715.720703	28.853693
423.448936	6363.783333	1714.703125	103.054596
423.448936	6363.783333	1713.685547	69.200417
423.448936	6363.783333	1712.667969	23.616316
423.448936	6363.783333	1711.649414	-59.512859
423.448936	6363.783333	1710.630859	-1.792907
423.448936	6363.783333	1709.612305	-7.455303
423.448936	6363.783333	1708.593750	78.380783
423.448936	6363.783333	1707.575195	75.045403
423.448936	6363.783333	1706.555664	-71.349861
423.448936	6363.783333	1705.536133	42.575542
423.448936	6363.783333	1704.516602	-108.452354
423.448936	6363.783333	1703.497070	-39.102036
423.448936	6363.783333	1702.477539	-126.790031
423.448936	6363.783333	1701.457031	139.337921
423.448936	6363.783333	1700.437500	-56.112347
423.448936	6363.783333	1699.416992	78.738625
423.448936	6363.783333	1698.395508	87.086113
423.448936	6363.783333	1697.375000	168.004715
423.448936	6363.783333	1696.354492	87.380440
423.448936	6363.783333	1695.333008	23.163721
423.448936	6363.783333	1694.311523	-55.069576
423.448936	6363.783333	1693.290039	-133.276993
423.448936	6363.783333	1692.267578	-124.918739
423.448936	6363.783333	1691.246094	40.111553
423.448936	6363.783333	1690.223633	22.708433
423.448936	6363.783333	1689.201172	47.384308
423.448936	6363.783333	1688.178711	-91.550301
423.448936	6363.783333	1687.155273	148.103073
423.448936	6363.783333	1686.132813	-37.528164
423.448936	6363.783333	1685.109375	40.847477
423.448936	6363.783333	1684.085938	98.173080
423.448936	6363.783333	1683.062500	113.444725
423.448936	6363.783333	1682.039063	93.690697
423.448936	6363.783333	1681.014648	43.597752
423.448936	6363.783333	1679.990234	30.856049
423.448936	6363.783333	1678.965820	34.447990
423.448936	6363.783333	1677.941406	66.025902
423.448936	6363.783333	1676.916992	132.571213
423.448936	6363.783333	1675.891602	136.129059
423.448936	6363.783333	1674.866211	-21.175816
423.448936	6363.783333	1673.840820	-113.160805
423.448936	6363.783333	1672.815430	102.494392
423.448936	6363.783333	1671.790039	82.740929
423.448936	6363.783333	1670.763672	191.111237
423.448936	6363.783333	1669.737305	124.758408
423.448936	6363.783333	1668.710938	172.528137
423.448936	6363.783333	1667.684570	87.572746
423.448936	6363.783333	1666.658203	135.323883
423.448936	6363.783333	1665.630859	89.961418
423.448936	6363.783333	1664.603516	72.533974
423.448936	6363.783333	1663.576172	62.089394
423.448936	6363.783333	1662.548828	165.612045
423.448936	6363.783333	1661.520508	-58.795326
423.448936	6363.783333	1660.493164	58.652996
423.448936	6363.783333	1659.464844	257.409576
423.448936	6363.783333	1658.436523	74.936096
423.448936	6363.783333	1657.408203	203.895676
423.448936	6363.783333	1656.378906	84.220131
423.448936	6363.783333	1655.350586	175.956940
423.448936	6363.783333	1654.321289	86.514702
423.448936	6363.783333	1653.291992	124.804352
423.448936	6363.783333	1652.261719	146.823151
423.448936	6363.783333	1651.232422	150.265091
423.448936	6363.783333	1650.202148	214.031891
423.448936	6363.783333	1649.171875	43.446648
423.448936	6363.783333	1648.141602	227.820892
423.448936	6363.783333	1647.111328	379.651703
423.448936	6363.783333	1646.080078	188.252731
423.448936	6363.783333	1645.049805	82.699852
423.448936	6363.783333	1644.018555	350.347900
423.448936	6363.783333	1642.987305	168.323685
423.448936	6363.783333	1641.955078	303.778748
423.448936	6363.783333	1640.923828	170.471603
423.448936	6363.783333	1639.891602	275.759033
423.448936	6363.783333	1638.859375	441.206299
423.448936	6363.783333	1637.827148	275.526367
423.448936	6363.783333	1636.794922	362.204590
423.448936	6363.783333	1635.761719	365.532196
423.448936	6363.783333	1634.729492	299.443451
423.448936	6363.783333	1633.696289	353.668182
423.448936	6363.783333	1632.662109	363.921295
423.448936	6363.783333	1631.628906	334.858765
423.448936	6363.783333	1630.594727	284.994598
423.448936	6363.783333	1629.561523	406.199677
423.448936	6363.783333	1628.527344	268.514313
423.448936	6363.783333	1627.493164	505.198181
423.448936	6363.783333	1626.458008	450.703644
423.448936	6363.783333	1625.423828	405.468933
423.448936	6363.783333	1624.388672	369.483643
423.448936	6363.783333	1623.353516	506.670532
423.448936	6363.783333	1622.318359	339.097046
423.448936	6363.783333	1621.282227	393.143219
423.448936	6363.783333	1620.247070	417.171173
423.448936	6363.783333	1619.210938	641.895142
423.448936	6363.783333	1618.174805	465.186035
423.448936	6363.783333	1617.137695	588.336121
423.448936	6363.783333	1616.101563	506.233887
423.448936	6363.783333	1615.064453	472.568085
423.448936	6363.783333	1614.027344	632.514465
423.448936	6363.783333	1612.990234	587.310425
423.448936	6363.783333	1611.953125	452.270416
423.448936	6363.783333	1610.916016	699.650391
423.448936	6363.783333	1609.877930	698.208435
423.448936	6363.783333	1608.839844	600.057678
423.448936	6363.783333	1607.801758	842.651428
423.448936	6363.783333	1606.763672	652.441833
423.448936	6363.783333	1605.724609	512.929077
423.448936	6363.783333	1604.685547	709.375916
423.448936	6363.783333	1603.646484	682.616333
423.448936	6363.783333	1602.607422	678.863342
423.448936	6363.783333	1601.568359	737.195190
423.448936	6363.783333	1600.528320	747.222351
423.448936	6363.783333	1599.489258	594.053162
423.448936	6363.783333	1598.449219	707.513123
423.448936	6363.783333	1597.408203	722.129578
423.448936	6363.783333	1596.368164	665.529541
423.448936	6363.783333	1595.327148	553.828430
423.448936	6363.783333	1594.287109	864.681458
423.448936	6363.783333	1593.246094	576.206055
423.448936	6363.783333	1592.204102	762.979553
423.448936	6363.783333	1591.163086	676.586853
423.448936	6363.783333	1590.121094	592.520325
423.448936	6363.783333	1589.079102	708.065247
423.448936	6363.783333	1588.037109	658.427673
423.448936	6363.783333	1586.995117	806.018005
423.448936	6363.783333	1585.953125	740.332336
423.448936	6363.783333	1584.910156	527.968628
423.448936	6363.783333	1583.867188	592.992310
423.448936	6363.783333	1582.824219	536.550964
423.448936	6363.783333	1581.781250	587.802856
423.448936	6363.783333	1580.737305	499.317627
423.448936	6363.783333	1579.693359	454.377472
423.448936	6363.783333	1578.649414	459.825348
423.448936	6363.783333	1577.605469	659.842957
423.448936	6363.783333	1576.561523	532.510559
423.448936	6363.783333	1575.516602	643.197510
423.448936	6363.783333	1574.472656	545.660583
423.448936	6363.783333	1573.427734	578.536865
423.448936	6363.783333	1572.381836	375.855774
423.448936	6363.783333	1571.336914	545.939453
423.448936	6363.783333	1570.291016	631.376282
423.448936	6363.783333	1569.246094	362.532196
423.448936	6363.783333	1568.200195	466.256348
423.448936	6363.783333	1567.153320	599.639709
423.448936	6363.783333	1566.107422	433.752411
423.448936	6363.783333	1565.060547	331.874207
423.448936	6363.783333	1564.013672	307.670166
423.448936	6363.783333	1562.966797	534.585693
423.448936	6363.783333	1561.919922	309.509674
423.448936	6363.783333	1560.872070	463.319366
423.448936	6363.783333	1559.825195	354.706970
423.448936	6363.783333	1558.777344	287.197357
423.448936	6363.783333	1557.729492	561.801331
423.448936	6363.783333	1556.680664	387.117828
423.448936	6363.783333	1555.632813	533.941589
423.448936	6363.783333	1554.583984	218.028946
423.448936	6363.783333	1553.535156	228.108459
423.448936	6363.783333	1552.486328	283.755463
423.448936	6363.783333	1551.436523	323.439117
423.448936	6363.783333	1550.387695	308.454041
423.448936	6363.783333	1549.337891	227.447327
423.448936	6363.783333	1548.288086	230.709000
423.448936	6363.783333	1547.238281	211.213806
423.448936	6363.783333	1546.187500	253.172165
423.448936	6363.783333	1545.136719	245.066406
423.448936	6363.783333	1544.086914	314.311493
423.448936	6363.783333	1543.035156	306.207214
423.448936	6363.783333	1541.984375	325.399414
423.448936	6363.783333	1540.933594	312.763550
423.448936	6363.783333	1539.881836	172.852875
423.448936	6363.783333	1538.830078	103.452385
423.448936	6363.783333	1537.778320	199.944122
423.448936	6363.783333	1536.725586	382.725067
423.448936	6363.783333	1535.673828	354.225433
423.448936	6363.783333	1534.621094	171.336670
423.448936	6363.783333	1533.568359	242.794983
423.448936	6363.783333	1532.515625	198.473587
423.448936	6363.783333	1531.461914	315.300812
423.448936	6363.783333	1530.409180	130.326843
423.448936	6363.783333	1529.355469	451.299713
423.448936	6363.783333	1528.301758	393.396973
423.448936	6363.783333	1527.247070	169.991287
423.448936	6363.783333	1526.193359	284.486359
423.448936	6363.783333	1525.138672	181.343124
423.448936	6363.783333	1524.083984	304.871948
423.448936	6363.783333	1523.029297	217.645248
423.448936	6363.783333	1521.974609	234.668152
423.448936	6363.783333	1520.918945	102.210831
423.448936	6363.783333	1519.863281	234.754471
423.448936	6363.783333	1518.807617	152.178177
423.448936	6363.783333	1517.751953	80.963593
423.448936	6363.783333	1516.696289	45.996647
423.448936	6363.783333	1515.639648	20.104246
423.448936	6363.783333	1514.583008	-5.766655
423.448936	6363.783333	1513.526367	153.848007
423.448936	6363.783333	1512.469727	5.874213
423.448936	6363.783333	1511.412109	-22.204842
423.448936	6363.783333	1510.355469	1.730019
423.448936	6363.783333	1509.297852	-105.410660
423.448936	6363.783333	1508.240234	-38.513981
423.448936	6363.783333	1507.181641	-84.585938
423.448936	6363.783333	1506.124023	-230.002594
423.448936	6363.783333	1505.065430	105.636955
423.448936	6363.783333	1504.006836	-8.126713
423.448936	6363.783333	1502.948242	-92.487732
423.448936	6363.783333	1501.888672	-77.502823
423.448936	6363.783333	1500.830078	-114.403625
423.448936	6363.783333	1499.770508	-11.411201
423.448936	6363.783333	1498.710938	-170.078766
423.448936	6363.783333	1497.650391	-103.167091
423.448936	6363.783333	1496.590820	13.334252
423.448936	6363.783333	1495.530273	89.228752
423.448936	6363.783333	1494.469727	-42.229275
423.448936	6363.783333	1493.409180	56.210388
423.448936	6363.783333	1492.348633	-63.893471
423.448936	6363.783333	1491.287109	-192.944107
423.448936	6363.783333	1490.225586	54.137959
423.448936	6363.783333	1489.164063	-47.834583
423.448936	6363.783333	1488.102539	-59.710163
423.448936	6363.783333	1487.041016	-55.809872
423.448936	6363.783333	1485.978516	-4.643319
423.448936	6363.783333	1484.916016	-108.664322
423.448936	6363.783333	1483.853516	75.190788
423.448936	6363.783333	1482.791016	-141.239899
423.448936	6363.783333	1481.727539	-11.334085
423.448936	6363.783333	1480.664063	-38.784920
423.448936	6363.783333	1479.600586	-66.214279
423.448936	6363.783333	1478.537109	-68.891495
423.448936	6363.783333	1477.473633	-132.205032
423.448936	6363.783333	1476.409180	217.751648
423.448936	6363.783333	1475.344727	-2.727371
423.448936	6363.783333	1474.280273	-0.848932
423.448936	6363.783333	1473.215820	95.276810
423.448936	6363.783333	1472.151367	83.864891
423.448936	6363.783333	1471.085938	-64.541313
423.448936	6363.783333	1470.020508	53.978138
423.448936	6363.783333	1468.955078	-109.771873
423.448936	6363.783333	1467.888672	44.493294
423.448936	6363.783333	1466.823242	46.641472
423.448936	6363.783333	1465.756836	216.605057
423.448936	6363.783333	1464.690430	93.204269
423.448936	6363.783333	1463.624023	72.930527
423.448936	6363.783333	1462.556641	120.135933
423.448936	6363.783333	1461.490234	180.272110
423.448936	6363.783333	1460.422852	336.310730
423.448936	6363.783333	1459.355469	240.434174
423.448936	6363.783333	1458.287109	-5.579535
423.448936	6363.783333	1457.219727	255.861664
423.448936	6363.783333	1456.151367	370.049896
423.448936	6363.783333	1455.083008	158.113785
423.448936	6363.783333	1454.014648	108.532028
423.448936	6363.783333	1452.945313	284.840546
423.448936	6363.783333	1451.876953	361.162415
423.448936	6363.783333	1450.807617	180.296814
423.448936	6363.783333	1449.738281	232.046082
423.448936	6363.783333	1448.668945	277.155518
423.448936	6363.783333	1447.598633	178.938492
423.448936	6363.783333	1446.528320	366.485321
423.448936	6363.783333	1445.458008	202.751297
423.448936	6363.783333	1444.387695	218.050034
423.448936	6363.783333	1443.317383	286.774292
423.448936	6363.783333	1442.246094	280.478729
423.448936	6363.783333	1441.174805	210.729187
423.448936	6363.783333	1440.103516	369.123474
423.448936	6363.783333	1439.032227	296.562134
423.448936	6363.783333	1437.960938	259.084412
423.448936	6363.783333	1436.888672	307.955048
423.448936	6363.783333	1435.816406	238.464310
423.448936	6363.783333	1434.744141	284.854584
423.448936	6363.783333	1433.670898	136.991272
423.448936	6363.783333	1432.598633	284.750488
423.448936	6363.783333	1431.525391	162.915619
423.448936	6363.783333	1430.452148	140.556168
423.448936	6363.783333	1429.378906	138.496475
423.448936	6363.783333	1428.304688	305.720245
423.448936	6363.783333	1427.231445	31.346483
423.448936	6363.783333	1426.157227	68.067070
423.448936	6363.783333	1425.083008	176.881012
423.448936	6363.783333	1424.007813	72.273071
423.448936	6363.783333	1422.933594	119.317139
423.448936	6363.783333	1421.858398	160.221878
423.448936	6363.783333	1420.783203	-16.898584
423.448936	6363.783333	1419.708008	18.358244
423.448936	6363.783333	1418.631836	69.238968
423.448936	6363.783333	1417.555664	207.100800
423.448936	6363.783333	1416.479492	156.428238
423.448936	6363.783333	1415.403320	-25.098915
423.448936	6363.783333	1414.327148	243.159119
423.448936	6363.783333	1413.250000	227.220566
423.448936	6363.783333	1412.173828	141.618698
423.448936	6363.783333	1411.096680	249.472855
423.448936	6363.783333	1410.018555	243.274460
423.448936	6363.783333	1408.941406	137.202103
423.448936	6363.783333	1407.863281	103.030602
423.448936	6363.783333	1406.785156	209.535797
423.448936	6363.783333	1405.707031	207.271515
423.448936	6363.783333	1404.628906	137.256393
423.448936	6363.783333	1403.549805	169.120239
423.448936	6363.783333	1402.470703	178.180771
423.448936	6363.783333	1401.391602	324.993774
423.448936	6363.783333	1400.312500	224.161819
423.448936	6363.783333	1399.233398	251.619629
423.448936	6363.783333	1398.153320	266.567413
423.448936	6363.783333	1397.073242	186.125458
423.448936	6363.783333	1395.993164	308.212830
423.448936	6363.783333	1394.913086	297.634247
423.448936	6363.783333	1393.832031	264.859650
423.448936	6363.783333	1392.750977	268.353882
423.448936	6363.783333	1391.669922	279.180542
423.448936	6363.783333	1390.588867	315.784973
423.448936	6363.783333	1389.506836	174.341278
423.448936	6363.783333	1388.425781	211.538635
423.448936	6363.783333	1387.343750	231.493713
423.448936	6363.783333	1386.261719	133.781586
423.448936	6363.783333	1385.178711	323.675049
423.448936	6363.783333	1384.096680	301.105286
423.448936	6363.783333	1383.013672	368.035797
423.448936	6363.783333	1381.930664	163.335510
423.448936	6363.783333	1380.846680	144.047867
423.448936	6363.783333	1379.763672	278.667206
423.448936	6363.783333	1378.679688	253.279419
423.448936	6363.783333	1377.595703	189.293274
423.448936	6363.783333	1376.511719	283.041840
423.448936	6363.783333	1375.427734	221.095459
423.448936	6363.783333	1374.342773	189.865875
423.448936	6363.783333	1373.257813	187.739334
423.448936	6363.783333	1372.172852	212.907227
423.448936	6363.783333	1371.087891	208.497543
423.448936	6363.783333	1370.001953	301.529541
423.448936	6363.783333	1368.916992	287.204010
423.448936	6363.783333	1367.831055	268.644501
423.448936	6363.783333	1366.744141	297.259308
423.448936	6363.783333	1365.658203	216.387665
423.448936	6363.783333	1364.571289	321.276367
423.448936	6363.783333	1363.484375	299.005646
423.448936	6363.783333	1362.397461	231.798157
423.448936	6363.783333	1361.310547	309.763275
423.448936	6363.783333	1360.222656	357.359039
423.448936	6363.783333	1359.135742	219.513153
423.448936	6363.783333	1358.047852	320.223724
423.448936	6363.783333	1356.958984	339.060181
423.448936	6363.783333	1355.871094	324.314270
423.448936	6363.783333	1354.782227	322.278290
423.448936	6363.783333	1353.693359	436.722534
423.448936	6363.783333	1352.604492	382.332550
423.448936	6363.783333	1351.515625	343.101501
423.448936	6363.783333	1350.425781	347.483734
423.448936	6363.783333	1349.335938	439.301239
423.448936	6363.783333	1348.246094	405.266907
423.448936	6363.783333	1347.156250	369.918732
423.448936	6363.783333	1346.066406	370.103394
423.448936	6363.783333	1344.975586	347.871094
423.448936	6363.783333	1343.884766	369.832703
423.448936	6363.783333	1342.793945	506.828033
423.448936	6363.783333	1341.702148	484.560699
423.448936	6363.783333	1340.611328	450.441681
423.448936	6363.783333	1339.519531	417.278687
423.448936	6363.783333	1338.427734	356.992981
423.448936	6363.783333	1337.334961	370.570557
423.448936	6363.783333	1336.243164	358.006073
423.448936	6363.783333	1335.150391	341.876068
423.448936	6363.783333	1334.057617	350.402405
423.448936	6363.783333	1332.964844	343.011841
423.448936	6363.783333	1331.871094	286.527283
423.448936	6363.783333	1330.778320	303.058472
423.448936	6363.783333	1329.684570	282.388184
423.448936	6363.783333	1328.590820	264.319214
423.448936	6363.783333	1327.496094	108.187378
423.448936	6363.783333	1326.402344	85.271034
423.448936	6363.783333	1325.307617	211.808304
423.448936	6363.783333	1324.212891	106.053017
423.448936	6363.783333	1323.117188	99.612579
423.448936	6363.783333	1322.022461	-15.897980
423.448936	6363.783333	1320.926758	134.148331
423.448936	6363.783333	1319.831055	139.431030
423.448936	6363.783333	1318.735352	183.871887
423.448936	6363.783333	1317.638672	264.036407
423.448936	6363.783333	1316.542969	247.256134
423.448936	6363.783333	1315.446289	229.556747
423.448936	6363.783333	1314.349609	266.293427
423.448936	6363.783333	1313.251953	437.742706
423.448936	6363.783333	1312.155273	295.450684
423.448936	6363.783333	1311.057617	210.949219
423.448936	6363.783333	1309.959961	302.710480
423.448936	6363.783333	1308.862305	301.395416
423.448936	6363.783333	1307.763672	392.672394
423.448936	6363.783333	1306.665039	484.017365
423.448936	6363.783333	1305.566406	400.132355
423.448936	6363.783333	1304.467773	435.460541
423.448936	6363.783333	1303.369141	448.841675
423.448936	6363.783333	1302.269531	396.480255
423.448936	6363.783333	1301.169922	621.696899
423.448936	6363.783333	1300.070313	698.279480
423.448936	6363.783333	1298.970703	724.034485
423.448936	6363.783333	1297.870117	571.979126
423.448936	6363.783333	1296.769531	725.231689
423.448936	6363.783333	1295.668945	898.021423
423.448936	6363.783333	1294.568359	1042.619751
423.448936	6363.783333	1293.466797	952.283997
423.448936	6363.783333	1292.366211	1149.830933
423.448936	6363.783333	1291.264648	975.058716
423.448936	6363.783333	1290.162109	898.628540
423.448936	6363.783333	1289.060547	930.797119
423.448936	6363.783333	1287.958008	667.174500
423.448936	6363.783333	1286.855469	750.645386
423.448936	6363.783333	1285.752930	689.045471
423.448936	6363.783333	1284.650391	709.582642
423.448936	6363.783333	1283.546875	691.040833
423.448936	6363.783333	1282.444336	416.743073
423.448936	6363.783333	1281.339844	477.364136
423.448936	6363.783333	1280.236328	378.261078
423.448936	6363.783333	1279.132813	441.962036
423.448936	6363.783333	1278.028320	472.446472
423.448936	6363.783333	1276.923828	521.583191
423.448936	6363.783333	1275.819336	556.677612
423.448936	6363.783333	1274.713867	513.615601
423.448936	6363.783333	1273.608398	438.821411
423.448936	6363.783333	1272.503906	613.176453
423.448936	6363.783333	1271.397461	585.753601
423.448936	6363.783333	1270.291992	627.430664
423.448936	6363.783333	1269.185547	532.739319
423.448936	6363.783333	1268.080078	517.156189
423.448936	6363.783333	1266.972656	407.983917
423.448936	6363.783333	1265.866211	329.936951
423.448936	6363.783333	1264.759766	289.701965
423.448936	6363.783333	1263.652344	296.719604
423.448936	6363.783333	1262.544922	246.070267
423.448936	6363.783333	1261.436523	292.468079
423.448936	6363.783333	1260.329102	362.664703
423.448936	6363.783333	1259.220703	427.845551
423.448936	6363.783333	1258.112305	240.558624
423.448936	6363.783333	1257.003906	201.608414
423.448936	6363.783333	1255.895508	117.732918
423.448936	6363.783333	1254.786133	149.316299
423.448936	6363.783333	1253.676758	172.661423
423.448936	6363.783333	1252.567383	130.335419
423.448936	6363.783333	1251.458008	93.826302
423.448936	6363.783333	1250.347656	83.092506
423.448936	6363.783333	1249.237305	58.290337
423.448936	6363.783333	1248.126953	12.111910
423.448936	6363.783333	1247.016602	60.032539
423.448936	6363.783333	1245.905273	-44.451675
423.448936	6363.783333	1244.793945	21.446838
423.448936	6363.783333	1243.682617	19.678488
423.448936	6363.783333	1242.571289	137.028641
423.448936	6363.783333	1241.459961	48.056595
423.448936	6363.783333	1240.347656	64.434784
423.448936	6363.783333	1239.235352	21.430677
423.448936	6363.783333	1238.123047	-50.253376
423.448936	6363.783333	1237.009766	11.309011
423.448936	6363.783333	1235.897461	78.869698
423.448936	6363.783333	1234.784180	141.132339
423.448936	6363.783333	1233.670898	134.435104
423.448936	6363.783333	1232.556641	-50.985981
423.448936	6363.783333	1231.443359	59.620804
423.448936	6363.783333	1230.329102	127.299080
423.448936	6363.783333	1229.214844	48.231678
423.448936	6363.783333	1228.099609	115.716675
423.448936	6363.783333	1226.985352	107.376289
423.448936	6363.783333	1225.870117	40.798187
423.448936	6363.783333	1224.754883	56.932720
423.448936	6363.783333	1223.639648	100.143364
423.448936	6363.783333	1222.523438	-89.661407
423.448936	6363.783333	1221.408203	-28.679317
423.448936	6363.783333	1220.291992	-38.035000
423.448936	6363.783333	1219.174805	90.532509
423.448936	6363.783333	1218.058594	43.327847
423.448936	6363.783333	1216.941406	26.541883
423.448936	6363.783333	1215.824219	4.367058
423.448936	6363.783333	1214.707031	-6.938635
423.448936	6363.783333	1213.589844	10.506332
423.448936	6363.783333	1212.471680	18.992851
423.448936	6363.783333	1211.353516	-13.272032
423.448936	6363.783333	1210.235352	51.904243
423.448936	6363.783333	1209.117188	67.068237
423.448936	6363.783333	1207.998047	14.004042
423.448936	6363.783333	1206.878906	-43.423138
423.448936	6363.783333	1205.759766	94.191177
423.448936	6363.783333	1204.640625	-122.046890
423.448936	6363.783333	1203.520508	-36.650097
423.448936	6363.783333	1202.401367	-49.089466
423.448936	6363.783333	1201.281250	-140.778854
423.448936	6363.783333	1200.160156	-129.282547
423.448936	6363.783333	1199.040039	-13.392383
423.448936	6363.783333	1197.918945	-31.205313
423.448936	6363.783333	1196.797852	81.836670
423.448936	6363.783333	1195.676758	-41.028469
423.448936	6363.783333	1194.555664	71.950417
423.448936	6363.783333	1193.433594	100.795784
423.448936	6363.783333	1192.311523	115.948418
423.448936	6363.783333	1191.189453	-34.986530
423.448936	6363.783333	1190.066406	111.737534
423.448936	6363.783333	1188.944336	-18.125965
423.448936	6363.783333	1187.821289	-60.373074
423.448936	6363.783333	1186.698242	-57.197796
423.448936	6363.783333	1185.574219	66.211899
423.448936	6363.783333	1184.451172	8.202682
423.448936	6363.783333	1183.327148	-52.027828
423.448936	6363.783333	1182.203125	38.160347
423.448936	6363.783333	1181.078125	-21.698107
423.448936	6363.783333	1179.954102	-82.050468
423.448936	6363.783333	1178.829102	-126.781639
423.448936	6363.783333	1177.704102	74.490067
423.448936	6363.783333	1176.579102	45.887363
423.448936	6363.783333	1175.453125	-32.013535
423.448936	6363.783333	1174.327148	-8.611732
423.448936	6363.783333	1173.201172	72.800461
423.448936	6363.783333	1172.075195	-11.373455
423.448936	6363.783333	1170.949219	-10.883799
423.448936	6363.783333	1169.822266	68.457451
423.448936	6363.783333	1168.695313	31.838604
423.448936	6363.783333	1167.568359	33.503967
423.448936	6363.783333	1166.440430	-133.622589
423.448936	6363.783333	1165.313477	-70.204185
423.448936	6363.783333	1164.185547	-106.839081
423.448936	6363.783333	1163.057617	71.864662
423.448936	6363.783333	1161.928711	57.197105
423.448936	6363.783333	1160.800781	-11.338346
423.448936	6363.783333	1159.671875	-108.686638
423.448936	6363.783333	1158.541992	-69.791939
423.448936	6363.783333	1157.413086	-185.815857
423.448936	6363.783333	1156.283203	-198.428940
423.448936	6363.783333	1155.154297	-78.531532
423.448936	6363.783333	1154.023438	-145.491684
423.448936	6363.783333	1152.893555	0.475036
423.448936	6363.783333	1151.763672	-91.187523
423.448936	6363.783333	1150.632813	-40.265011
423.448936	6363.783333	1149.501953	29.596466
423.448936	6363.783333	1148.370117	-50.241295
423.448936	6363.783333	1147.239258	-164.146835
423.448936	6363.783333	1146.107422	-102.988541
423.448936	6363.783333	1144.975586	-114.063377
423.448936	6363.783333	1143.843750	142.528275
423.448936	6363.783333	1142.710938	-38.815701
423.448936	6363.783333	1141.578125	-57.082653
423.448936	6363.783333	1140.445313	-55.442307
423.448936	6363.783333	1139.312500	-47.910088
423.448936	6363.783333	1138.178711	103.702896
423.448936	6363.783333	1137.045898	-91.151436
423.448936	6363.783333	1135.912109	-68.962692
423.448936	6363.783333	1134.777344	24.277126
423.448936	6363.783333	1133.643555	71.356895
423.448936	6363.783333	1132.508789	-84.493797
423.448936	6363.783333	1131.374023	115.213844
423.448936	6363.783333	1130.239258	-45.248978
423.448936	6363.783333	1129.104492	36.175575
423.448936	6363.783333	1127.968750	185.342834
423.448936	6363.783333	1126.833008	11.325123
423.448936	6363.783333	1125.697266	159.004028
423.448936	6363.783333	1124.560547	102.994102
423.448936	6363.783333	1123.424805	127.144508
423.448936	6363.783333	1122.288086	231.248611
423.448936	6363.783333	1121.151367	105.354904
423.448936	6363.783333	1120.013672	-0.637434
423.448936	6363.783333	1118.876953	68.587158
423.448936	6363.783333	1117.739258	-24.083788
423.448936	6363.783333	1116.601563	70.066711
423.448936	6363.783333	1115.462891	82.448074
423.448936	6363.783333	1114.324219	66.814903
423.448936	6363.783333	1113.186523	-2.823250
423.448936	6363.783333	1112.046875	-70.559479
423.448936	6363.783333	1110.908203	-99.676178
423.448936	6363.783333	1109.769531	-124.532982
423.448936	6363.783333	1108.629883	-164.768875
423.448936	6363.783333	1107.490234	131.434296
423.448936	6363.783333	1106.349609	81.627975
423.448936	6363.783333	1105.209961	-62.332893
423.448936	6363.783333	1104.069336	223.653275
423.448936	6363.783333	1102.928711	17.272898
423.448936	6363.783333	1101.787109	120.784363
423.448936	6363.783333	1100.646484	73.957802
423.448936	6363.783333	1099.504883	82.805328
423.448936	6363.783333	1098.363281	146.091049
423.448936	6363.783333	1097.221680	111.468094
423.448936	6363.783333	1096.079102	216.409134
423.448936	6363.783333	1094.936523	194.615845
423.448936	6363.783333	1093.793945	252.754990
423.448936	6363.783333	1092.651367	7.123762
423.448936	6363.783333	1091.507813	29.905218
423.448936	6363.783333	1090.364258	-59.935219
423.448936	6363.783333	1089.220703	26.775589
423.448936	6363.783333	1088.077148	166.897308
423.448936	6363.783333	1086.933594	44.762287
423.448936	6363.783333	1085.789063	37.006641
423.448936	6363.783333	1084.644531	35.412292
423.448936	6363.783333	1083.499023	14.690049
423.448936	6363.783333	1082.354492	164.008545
423.448936	6363.783333	1081.208984	31.543005
423.448936	6363.783333	1080.063477	-164.166290
423.448936	6363.783333	1078.917969	-6.196169
423.448936	6363.783333	1077.771484	-32.448200
423.448936	6363.783333	1076.625977	9.958362
423.448936	6363.783333	1075.479492	-21.306326
423.448936	6363.783333	1074.332031	-7.567679
423.448936	6363.783333	1073.185547	135.830078
423.448936	6363.783333	1072.038086	193.493027
423.448936	6363.783333	1070.890625	-9.456326
423.448936	6363.783333	1069.743164	155.862244
423.448936	6363.783333	1068.594727	79.030891
423.448936	6363.783333	1067.447266	70.997627
423.448936	6363.783333	1066.298828	278.616394
423.448936	6363.783333	1065.149414	58.989498
423.448936	6363.783333	1064.000977	-75.546738
423.448936	6363.783333	1062.851563	122.981148
423.448936	6363.783333	1061.702148	133.331573
423.448936	6363.783333	1060.552734	44.601086
423.448936	6363.783333	1059.402344	-89.505219
423.448936	6363.783333	1058.252930	42.677788
423.448936	6363.783333	1057.102539	56.500813
423.448936	6363.783333	1055.951172	-41.631050
423.448936	6363.783333	1054.800781	74.525589
423.448936	6363.783333	1053.649414	69.418488
423.448936	6363.783333	1052.498047	99.592392
423.448936	6363.783333	1051.346680	38.034515
423.448936	6363.783333	1050.194336	-15.303627
423.448936	6363.783333	1049.042969	55.913376
423.448936	6363.783333	1047.890625	283.278107
423.448936	6363.783333	1046.738281	119.805656
423.448936	6363.783333	1045.584961	150.200394
423.448936	6363.783333	1044.431641	101.124435
423.448936	6363.783333	1043.278320	136.957092
423.448936	6363.783333	1042.125000	7.356482
423.448936	6363.783333	1040.971680	-25.448940
423.448936	6363.783333	1039.817383	155.510239
423.448936	6363.783333	1038.663086	118.808365
423.448936	6363.783333	1037.508789	156.917526
423.448936	6363.783333	1036.353516	116.246567
423.448936	6363.783333	1035.198242	-45.217033
423.448936	6363.783333	1034.042969	167.515442
423.448936	6363.783333	1032.887695	-4.870010
423.448936	6363.783333	1031.732422	76.780846
423.448936	6363.783333	1030.576172	13.949475
423.448936	6363.783333	1029.419922	3.527329
423.448936	6363.783333	1028.263672	88.747765
423.448936	6363.783333	1027.106445	50.949120
423.448936	6363.783333	1025.949219	82.994598
423.448936	6363.783333	1024.792969	-59.993237
423.448936	6363.783333	1023.634766	-23.974979
423.448936	6363.783333	1022.477539	4.229148
423.448936	6363.783333	1021.319336	105.196129
423.448936	6363.783333	1020.161133	11.579803
423.448936	6363.783333	1019.002930	13.003213
423.448936	6363.783333	1017.843750	75.799171
423.448936	6363.783333	1016.684570	-69.951149
423.448936	6363.783333	1015.525391	-120.866409
423.448936	6363.783333	1014.366211	17.498217
423.448936	6363.783333	1013.207031	-10.926125
423.448936	6363.783333	1012.046875	-72.715897
423.448936	6363.783333	1010.886719	-92.629150
423.448936	6363.783333	1009.726563	24.095348
423.448936	6363.783333	1008.565430	56.339088
423.448936	6363.783333	1007.404297	35.671246
423.448936	6363.783333	1006.243164	12.452672
423.448936	6363.783333	1005.082031	13.046667
423.448936	6363.783333	1003.920898	26.416632
423.448936	6363.783333	1002.758789	29.102154
423.448936	6363.783333	1001.596680	-1.476880
423.448936	6363.783333	1000.433594	30.071129
423.448936	6363.783333	999.271484	168.473312
423.448936	6363.783333	998.108398	6.603627
423.448936	6363.783333	996.945313	-111.966560
423.448936	6363.783333	995.782227	-19.925682
423.448936	6363.783333	994.618164	-30.610764
423.448936	6363.783333	993.454102	161.928543
423.448936	6363.783333	992.290039	43.243546
423.448936	6363.783333	991.125977	15.983232
423.448936	6363.783333	989.960938	207.411087
423.448936	6363.783333	988.796875	-110.868393
423.448936	6363.783333	987.630859	29.148485
423.448936	6363.783333	986.465820	10.216949
423.448936	6363.783333	985.300781	92.886604
423.448936	6363.783333	984.134766	67.094177
423.448936	6363.783333	982.968750	81.054893
423.448936	6363.783333	981.801758	-6.148572
423.448936	6363.783333	980.635742	17.751225
423.448936	6363.783333	979.468750	16.359503
423.448936	6363.783333	978.301758	17.184549
423.448936	6363.783333	977.133789	80.878304
423.448936	6363.783333	975.966797	18.005758
423.448936	6363.783333	974.798828	169.965424
423.448936	6363.783333	973.630859	27.084034
423.448936	6363.783333	972.461914	122.616486
423.448936	6363.783333	971.293945	68.667999
423.448936	6363.783333	970.125000	39.371765
423.448936	6363.783333	968.956055	75.683052
423.448936	6363.783333	967.786133	181.156952
423.448936	6363.783333	966.617188	-66.923386
423.448936	6363.783333	965.447266	67.856812
423.448936	6363.783333	964.276367	-64.834946
423.448936	6363.783333	963.106445	-84.480522
423.448936	6363.783333	961.935547	-133.724335
423.448936	6363.783333	960.764648	34.439800
423.448936	6363.783333	959.593750	5.813766
423.448936	6363.783333	958.422852	-13.569613
423.448936	6363.783333	957.250977	39.771843
423.448936	6363.783333	956.079102	61.778011
423.448936	6363.783333	954.907227	-8.991409
423.448936	6363.783333	953.734375	-66.989853
423.448936	6363.783333	952.562500	30.354429
423.448936	6363.783333	951.389648	-211.116043
423.448936	6363.783333	950.215820	-23.308434
423.448936	6363.783333	949.042969	-45.573727
423.448936	6363.783333	947.869141	162.493973
423.448936	6363.783333	946.695313	61.307362
423.448936	6363.783333	945.521484	54.227913
423.448936	6363.783333	944.346680	-101.010445
423.448936	6363.783333	943.172852	40.595505
423.448936	6363.783333	941.998047	140.873337
423.448936	6363.783333	940.822266	-85.886345
423.448936	6363.783333	939.647461	-108.069359
423.448936	6363.783333	938.471680	166.265030
423.448936	6363.783333	937.295898	-27.330627
423.448936	6363.783333	936.119141	14.196301
423.448936	6363.783333	934.943359	114.428421
423.448936	6363.783333	933.766602	217.390320
423.448936	6363.783333	932.589844	110.551582
423.448936	6363.783333	931.413086	31.833267
423.448936	6363.783333	930.235352	78.418793
423.448936	6363.783333	929.057617	224.619614
423.448936	6363.783333	927.879883	117.750824
423.448936	6363.783333	926.702148	240.857986
423.448936	6363.783333	925.523438	179.983810
423.448936	6363.783333	924.344727	205.976959
423.448936	6363.783333	923.166016	76.147629
423.448936	6363.783333	921.987305	15.275754
423.448936	6363.783333	920.807617	71.845901
423.448936	6363.783333	919.627930	73.641342
423.448936	6363.783333	919.497070	108.156235
423.448936	6363.783333	918.331055	6.410768
423.448936	6363.783333	917.165039	-51.940151
423.448936	6363.783333	915.999023	-163.854385
423.448936	6363.783333	914.833008	20.093508
423.448936	6363.783333	913.666016	130.004669
423.448936	6363.783333	912.499023	61.402256
423.448936	6363.783333	911.332031	-47.971424
423.448936	6363.783333	910.165039	-14.618649
423.448936	6363.783333	908.997070	33.989883
423.448936	6363.783333	907.830078	-6.593667
423.448936	6363.783333	906.661133	171.837921
423.448936	6363.783333	905.493164	-95.401779
423.448936	6363.783333	904.325195	37.115456
423.448936	6363.783333	903.156250	39.760174
423.448936	6363.783333	901.987305	151.804184
423.448936	6363.783333	900.818359	-69.491631
423.448936	6363.783333	899.648438	67.929756
423.448936	6363.783333	898.478516	42.522324
423.448936	6363.783333	897.308594	118.808678
423.448936	6363.783333	896.138672	-46.444920
423.448936	6363.783333	894.968750	83.165482
423.448936	6363.783333	893.797852	-59.178173
423.448936	6363.783333	892.626953	131.319489
423.448936	6363.783333	891.456055	171.866104
423.448936	6363.783333	890.284180	27.002487
423.448936	6363.783333	889.113281	29.436529
423.448936	6363.783333	887.941406	64.853645
423.448936	6363.783333	886.768555	133.232941
423.448936	6363.783333	885.596680	64.549980
423.448936	6363.783333	884.423828	163.310883
423.448936	6363.783333	883.250977	99.691032
423.448936	6363.783333	882.078125	124.834579
423.448936	6363.783333	880.905273	144.880829
423.448936	6363.783333	879.731445	177.578461
423.448936	6363.783333	878.557617	-10.232107
423.448936	6363.783333	877.383789	57.924858
423.448936	6363.783333	876.209961	72.841476
423.448936	6363.783333	875.035156	6.691656
423.448936	6363.783333	873.860352	105.144493
423.448936	6363.783333	872.685547	46.579998
423.448936	6363.783333	871.510742	-34.755608
423.448936	6363.783333	870.334961	12.989259
423.448936	6363.783333	869.159180	53.110210
423.448936	6363.783333	867.983398	151.379822
423.448936	6363.783333	866.807617	-10.898056
423.448936	6363.783333	865.630859	51.917149
423.448936	6363.783333	864.454102	3.459478
423.448936	6363.783333	863.277344	192.592819
423.448936	6363.783333	862.100586	85.977432
423.448936	6363.783333	860.922852	85.504349
423.448936	6363.783333	859.745117	112.802773
423.448936	6363.783333	858.567383	-97.314217
423.448936	6363.783333	857.389648	-80.116035
423.448936	6363.783333	856.210938	156.684280
423.448936	6363.783333	855.032227	-18.017916
423.448936	6363.783333	853.853516	6.683721
423.448936	6363.783333	852.674805	-49.368912
423.448936	6363.783333	851.495117	-7.040264
423.448936	6363.783333	850.315430	118.477158
423.448936	6363.783333	849.135742	87.610687
423.448936	6363.783333	847.956055	36.577209
423.448936	6363.783333	846.775391	-1.846162
423.448936	6363.783333	845.595703	-55.385265
423.448936	6363.783333	844.415039	54.834812
423.448936	6363.783333	843.233398	-46.573582
423.448936	6363.783333	842.052734	35.874229
423.448936	6363.783333	840.871094	123.311386
423.448936	6363.783333	839.689453	31.982948
423.448936	6363.783333	838.506836	-162.501541
423.448936	6363.783333	837.325195	-34.857056
423.448936	6363.783333	836.142578	143.035309
423.448936	6363.783333	834.959961	122.151581
423.448936	6363.783333	833.777344	116.351219
423.448936	6363.783333	832.593750	-88.066856
423.448936	6363.783333	831.410156	67.020393
423.448936	6363.783333	830.226563	252.187744
423.448936	6363.783333	829.042969	32.757011
423.448936	6363.783333	827.858398	29.434309
423.448936	6363.783333	826.673828	-1.524966
423.448936	6363.783333	825.489258	-14.906415
423.448936	6363.783333	824.304688	-20.763218
423.448936	6363.783333	823.120117	121.454468
423.448936	6363.783333	821.934570	42.776905
423.448936	6363.783333	820.749023	4.262262
423.448936	6363.783333	819.562500	-127.056786
423.448936	6363.783333	818.376953	-55.199612
423.448936	6363.783333	817.190430	94.342941
423.448936	6363.783333	816.003906	45.775551
423.448936	6363.783333	814.817383	-123.084389
423.448936	6363.783333	813.629883	11.310895
423.448936	6363.783333	812.442383	138.123123
423.448936	6363.783333	811.254883	1.875731
423.448936	6363.783333	810.067383	-226.982529
423.448936	6363.783333	808.878906	14.934915
423.448936	6363.783333	807.690430	106.551048
423.448936	6363.783333	806.501953	148.064590
423.448936	6363.783333	805.313477	71.949181
423.448936	6363.783333	804.124023	0.856960
423.448936	6363.783333	802.934570	64.841805
423.448936	6363.783333	801.745117	-16.245228
423.448936	6363.783333	800.555664	-149.811386
423.448936	6363.783333	799.365234	-5.884729
423.448936	6363.783333	798.175781	-81.943863
423.448936	6363.783333	796.985352	21.909178
423.448936	6363.783333	795.793945	118.213882
423.448936	6363.783333	794.603516	22.161146
423.448936	6363.783333	793.412109	-38.906319
423.448936	6363.783333	792.220703	-89.974632
423.448936	6363.783333	791.028320	-210.919601
423.448936	6363.783333	789.836914	129.823257
423.448936	6363.783333	788.644531	-78.462509
423.448936	6363.783333	787.452148	-2.315726
423.448936	6363.783333	786.258789	58.824261
423.448936	6363.783333	785.066406	164.806183
423.448936	6363.783333	783.873047	123.655685
423.448936	6363.783333	782.679688	-69.521004
423.448936	6363.783333	781.485352	-192.859573
423.448936	6363.783333	780.291992	-106.893562
423.448936	6363.783333	779.097656	18.876722
423.448936	6363.783333	777.903320	-91.990822
423.448936	6363.783333	776.708008	-3.647548
423.448936	6363.783333	775.512695	54.775494
423.448936	6363.783333	774.318359	-71.001129
423.448936	6363.783333	773.122070	-0.174112
423.448936	6363.783333	771.926758	-58.747131
423.448936	6363.783333	770.730469	-10.362284
423.448936	6363.783333	769.534180	-73.908875
423.448936	6363.783333	768.337891	16.695030
423.448936	6363.783333	767.141602	60.022083
423.448936	6363.783333	765.944336	309.577057
423.448936	6363.783333	764.747070	196.270462
423.448936	6363.783333	763.549805	229.554840
423.448936	6363.783333	762.351563	121.251328
423.448936	6363.783333	761.154297	40.291035
423.448936	6363.783333	759.956055	53.683998
423.448936	6363.783333	758.757813	-39.667030
423.448936	6363.783333	757.558594	187.111771
423.448936	6363.783333	756.359375	123.513000
423.448936	6363.783333	755.160156	193.868088
423.448936	6363.783333	753.960938	-75.567230
423.448936	6363.783333	752.761719	121.218132
423.448936	6363.783333	751.561523	107.201912
423.448936	6363.783333	750.361328	18.826000
423.448936	6363.783333	749.160156	59.318108
423.448936	6363.783333	747.959961	146.846893
423.448936	6363.783333	746.758789	28.748255
423.448936	6363.783333	745.557617	170.692154
423.448936	6363.783333	744.356445	124.402580
423.448936	6363.783333	743.154297	139.996796
423.448936	6363.783333	741.952148	-20.137930
423.448936	6363.783333	740.750000	77.095421
423.448936	6363.783333	739.547852	8.533116
423.448936	6363.783333	738.344727	-37.758892
423.448936	6363.783333	737.142578	14.857502
423.448936	6363.783333	735.939453	-43.812313
423.448936	6363.783333	734.735352	265.796875
423.448936	6363.783333	733.532227	68.680710
423.448936	6363.783333	732.328125	66.806068
423.448936	6363.783333	731.124023	178.537399
423.448936	6363.783333	729.918945	21.020603
423.448936	6363.783333	728.714844	9.225528
423.448936	6363.783333	727.509766	128.247879
423.448936	6363.783333	726.303711	67.036156
423.448936	6363.783333	725.098633	23.103258
423.448936	6363.783333	723.892578	109.919304
423.448936	6363.783333	722.686523	11.694508
423.448936	6363.783333	721.480469	31.856426
423.448936	6363.783333	720.274414	5.146574
423.448936	6363.783333	719.067383	-19.108124
423.448936	6363.783333	717.860352	-26.121712
423.448936	6363.783333	716.653320	-50.400719
423.448936	6363.783333	715.445313	-104.251091
423.448936	6363.783333	714.238281	-7.865718
423.448936	6363.783333	713.030273	49.060677
423.448936	6363.783333	711.821289	-34.383270
423.448936	6363.783333	710.613281	-68.586655
423.448936	6363.783333	709.404297	-78.190582
423.448936	6363.783333	708.195313	138.532425
423.448936	6363.783333	706.986328	-70.395332
423.448936	6363.783333	705.776367	-18.579281
423.448936	6363.783333	704.566406	-97.120483
423.448936	6363.783333	703.356445	-74.864342
423.448936	6363.783333	702.146484	-28.064465
423.448936	6363.783333	700.935547	-202.453766
423.448936	6363.783333	699.724609	8.902402
423.448936	6363.783333	698.513672	87.514099
423.448936	6363.783333	697.302734	-133.517792
423.448936	6363.783333	696.090820	-84.419395
423.448936	6363.783333	694.878906	8.816241
423.448936	6363.783333	693.666992	190.335434
423.448936	6363.783333	692.455078	28.254686
423.448936	6363.783333	691.242188	62.460091
423.448936	6363.783333	690.029297	35.312222
423.448936	6363.783333	688.816406	209.216171
423.448936	6363.783333	687.602539	147.675644
423.448936	6363.783333	686.389648	-19.255819
423.448936	6363.783333	685.175781	-129.783035
423.448936	6363.783333	683.960938	-66.344719
423.448936	6363.783333	682.747070	55.828613
423.448936	6363.783333	681.532227	82.414841
423.448936	6363.783333	680.317383	77.133591
423.448936	6363.783333	679.102539	27.765451
423.448936	6363.783333	677.886719	-26.504862
423.448936	6363.783333	676.670898	146.778183
423.448936	6363.783333	675.455078	26.399586
423.448936	6363.783333	674.239258	8.768356
423.448936	6363.783333	673.022461	-92.024620
423.448936	6363.783333	671.805664	-48.560337
423.448936	6363.783333	670.588867	14.411546
423.448936	6363.783333	669.372070	94.434814
423.448936	6363.783333	668.154297	76.664246
423.448936	6363.783333	666.936523	-51.050877
423.448936	6363.783333	665.718750	126.536858
423.448936	6363.783333	664.500977	-13.401301
423.448936	6363.783333	663.282227	115.220001
423.448936	6363.783333	662.063477	148.570953
423.448936	6363.783333	660.844727	-71.898384
423.448936	6363.783333	659.625000	107.796219
423.448936	6363.783333	658.405273	121.523758
423.448936	6363.783333	657.185547	98.636642
423.448936	6363.783333	655.965820	178.128906
423.448936	6363.783333	654.745117	145.427094
423.448936	6363.783333	653.525391	176.073746
423.448936	6363.783333	652.303711	128.704132
423.448936	6363.783333	651.083008	-3.936351
423.448936	6363.783333	649.861328	75.337906
423.448936	6363.783333	648.640625	-1.291635
423.448936	6363.783333	647.417969	129.009186
423.448936	6363.783333	646.196289	105.884560
423.448936	6363.783333	644.973633	68.136108
423.448936	6363.783333	643.750977	35.238140
423.448936	6363.783333	642.528320	194.485031
423.448936	6363.783333	641.305664	86.121323
423.448936	6363.783333	640.082031	172.282822
423.448936	6363.783333	638.858398	107.660721
423.448936	6363.783333	637.634766	111.085068
423.448936	6363.783333	636.410156	99.894707
423.448936	6363.783333	635.185547	137.264832
423.448936	6363.783333	633.960938	31.285242
423.448936	6363.783333	632.736328	114.727417
423.448936	6363.783333	631.510742	30.581978
423.448936	6363.783333	630.285156	198.878723
423.448936	6363.783333	629.059570	301.548798
423.448936	6363.783333	627.833984	98.433548
423.448936	6363.783333	626.607422	-14.876911
423.448936	6363.783333	625.380859	199.235748
423.448936	6363.783333	624.154297	442.321838
423.448936	6363.783333	622.927734	418.609894
423.448936	6363.783333	621.700195	305.196838
423.448936	6363.783333	620.472656	262.071716
423.448936	6363.783333	619.245117	306.149139
423.448936	6363.783333	618.016602	342.906830
423.448936	6363.783333	616.788086	50.273834
423.448936	6363.783333	615.559570	186.272217
423.448936	6363.783333	614.331055	24.445992
423.448936	6363.783333	613.101563	39.321159
423.448936	6363.783333	611.872070	141.262466
423.448936	6363.783333	610.642578	107.661598
423.448936	6363.783333	609.413086	115.158325
423.448936	6363.783333	608.182617	-78.079346
423.448936	6363.783333	606.952148	4.331529
423.448936	6363.783333	605.721680	108.428665
423.448936	6363.783333	604.491211	40.879196
423.448936	6363.783333	603.259766	111.035645
423.448936	6363.783333	602.028320	53.111641
423.448936	6363.783333	600.796875	60.384678
423.448936	6363.783333	599.564453	-77.245392
423.448936	6363.783333	598.332031	-57.942299
423.448936	6363.783333	597.099609	65.099312
423.448936	6363.783333	595.867188	132.561264
423.448936	6363.783333	594.633789	81.754486
423.448936	6363.783333	593.400391	108.118874
423.448936	6363.783333	592.166992	103.095078
423.448936	6363.783333	590.933594	-70.716110
423.448936	6363.783333	589.699219	3.779383
423.448936	6363.783333	588.464844	104.721291
423.448936	6363.783333	587.230469	75.489243
423.448936	6363.783333	585.995117	128.136261
423.448936	6363.783333	584.760742	45.871964
423.448936	6363.783333	583.525391	64.737190
423.448936	6363.783333	582.289063	-101.794701
423.448936	6363.783333	581.053711	-22.793236
423.448936	6363.783333	579.817383	-23.261623
423.448936	6363.783333	578.581055	24.357088
423.448936	6363.783333	577.343750	33.441998
423.448936	6363.783333	576.107422	198.804153
423.448936	6363.783333	574.870117	20.269293
423.448936	6363.783333	573.631836	94.165817
423.448936	6363.783333	572.394531	103.122780
423.448936	6363.783333	571.156250	44.773460
423.448936	6363.783333	569.917969	39.270699
423.448936	6363.783333	568.679688	137.014252
423.448936	6363.783333	567.440430	78.617012
423.448936	6363.783333	566.202148	317.895721
423.448936	6363.783333	564.961914	175.431030
423.448936	6363.783333	563.722656	186.578079
423.448936	6363.783333	562.482422	92.135979
423.448936	6363.783333	561.243164	323.915314
423.448936	6363.783333	560.001953	85.554108
423.448936	6363.783333	558.761719	137.374573
423.448936	6363.783333	557.520508	81.282639
423.448936	6363.783333	556.279297	178.568604
423.448936	6363.783333	555.038086	-16.516651
423.448936	6363.783333	553.795898	154.962906
423.448936	6363.783333	552.554688	125.176491
423.448936	6363.783333	551.311523	57.065094
423.448936	6363.783333	550.069336	118.238853
423.448936	6363.783333	548.826172	124.315437
423.448936	6363.783333	547.583984	132.767410
423.448936	6363.783333	546.339844	50.279770
423.448936	6363.783333	545.096680	-3.483968
423.448936	6363.783333	543.852539	208.194855
423.448936	6363.783333	542.608398	-3.413775
423.448936	6363.783333	541.364258	198.580231
423.448936	6363.783333	540.119141	156.705551
423.448936	6363.783333	538.875000	-107.369255
423.448936	6363.783333	537.628906	25.188025
423.448936	6363.783333	536.383789	16.768225
423.448936	6363.783333	535.137695	-48.973137
423.448936	6363.783333	533.892578	-19.205326
423.448936	6363.783333	532.645508	-120.742722
423.448936	6363.783333	531.399414	-69.526405
423.448936	6363.783333	530.152344	105.709404
423.448936	6363.783333	528.905273	-160.407272
423.448936	6363.783333	527.658203	-99.716843
423.448936	6363.783333	526.410156	-160.661407
423.448936	6363.783333	525.163086	-152.460449
423.448936	6363.783333	523.914063	10.625698
423.448936	6363.783333	522.666016	-5.064637
423.448936	6363.783333	521.416992	-94.607582
423.448936	6363.783333	520.167969	-60.276470
423.448936	6363.783333	518.918945	-28.350208
423.448936	6363.783333	517.669922	-227.365997
423.448936	6363.783333	516.419922	-45.491642
423.448936	6363.783333	515.169922	-142.115234
423.448936	6363.783333	513.919922	-238.704666
423.448936	6363.783333	512.668945	-9.399445
423.448936	6363.783333	511.417969	-13.249321
423.448936	6363.783333	510.166992	-0.460983
423.448936	6363.783333	508.916016	-39.978935
423.448936	6363.783333	507.664063	-186.432983
423.448936	6363.783333	506.412109	6.940098
423.448936	6363.783333	505.160156	-208.361374
423.448936	6363.783333	503.907227	44.294476
423.448936	6363.783333	502.655273	-56.956867
423.448936	6363.783333	501.402344	8.004468
423.448936	6363.783333	500.148438	-83.717789
423.448936	6363.783333	498.895508	-33.024319
423.448936	6363.783333	497.641602	-41.671295
423.448936	6363.783333	496.387695	-111.987907
423.448936	6363.783333	495.132813	69.088242
423.448936	6363.783333	493.878906	-124.516472
423.448936	6363.783333	492.624023	-102.339058
423.448936	6363.783333	491.368164	-63.588940
423.448936	6363.783333	490.113281	209.713425
423.448936	6363.783333	488.857422	-42.997372
423.448936	6363.783333	487.601563	64.387291
423.448936	6363.783333	486.344727	-76.904861
423.448936	6363.783333	485.088867	-33.483742
423.448936	6363.783333	483.832031	78.549454
423.448936	6363.783333	482.575195	-36.635719
423.448936	6363.783333	481.317383	25.656591
423.448936	6363.783333	480.059570	12.228683
423.448936	6363.783333	478.801758	-43.763924
423.448936	6363.783333	477.543945	-38.265846
423.448936	6363.783333	476.285156	40.498215
423.448936	6363.783333	475.027344	138.132431
423.448936	6363.783333	473.767578	84.495949
423.448936	6363.783333	472.508789	28.517830
423.448936	6363.783333	471.249023	-17.999237
423.448936	6363.783333	469.989258	105.504044
423.448936	6363.783333	468.729492	285.602783
423.448936	6363.783333	467.469727	57.301697
423.448936	6363.783333	466.208984	69.774628
423.448936	6363.783333	464.948242	150.648560
423.448936	6363.783333	463.686523	78.159698
423.448936	6363.783333	462.425781	154.258484
423.448936	6363.783333	461.164063	8.688984
423.448936	6363.783333	459.901367	186.093292
423.448936	6363.783333	458.639648	205.516418
423.448936	6363.783333	457.376953	316.800354
423.448936	6363.783333	456.114258	161.835419
423.448936	6363.783333	454.851563	141.160370
423.448936	6363.783333	453.587891	127.535278
423.448936	6363.783333	452.324219	163.331192
423.448936	6363.783333	451.060547	104.946091
423.448936	6363.783333	449.796875	95.977089
423.448936	6363.783333	448.532227	199.906021
423.448936	6363.783333	447.267578	122.654984
423.448936	6363.783333	446.002930	172.392120
423.448936	6363.783333	444.737305	240.881699
423.448936	6363.783333	443.471680	245.844406
423.448936	6363.783333	442.206055	116.819733
423.448936	6363.783333	440.940430	131.134171
423.448936	6363.783333	439.673828	44.392342
423.448936	6363.783333	438.407227	157.268753
423.448936	6363.783333	437.140625	260.660431
423.448936	6363.783333	435.873047	82.259949
423.448936	6363.783333	434.605469	23.583408
423.448936	6363.783333	433.337891	56.392254
423.448936	6363.783333	432.070313	-2.359799
423.448936	6363.783333	430.801758	91.305374
423.448936	6363.783333	429.533203	51.208744
423.448936	6363.783333	428.264648	140.008759
423.448936	6363.783333	426.996094	141.977997
423.448936	6363.783333	425.726563	239.951324
423.448936	6363.783333	424.457031	211.290924
423.448936	6363.783333	423.186523	128.685257
423.448936	6363.783333	421.916992	177.183624
423.448936	6363.783333	420.646484	199.815262
423.448936	6363.783333	419.375977	138.075821
423.448936	6363.783333	418.104492	99.667618
423.448936	6363.783333	416.833008	224.966949
423.448936	6363.783333	415.561523	55.350159
423.448936	6363.783333	414.290039	68.128456
423.448936	6363.783333	413.017578	-43.148613
423.448936	6363.783333	411.746094	163.453918
423.448936	6363.783333	410.472656	182.846680
423.448936	6363.783333	409.200195	24.509876
423.448936	6363.783333	407.926758	78.704994
423.448936	6363.783333	406.653320	-61.134716
423.448936	6363.783333	405.379883	9.115737
423.448936	6363.783333	404.105469	132.877487
423.448936	6363.783333	402.831055	249.422897
423.448936	6363.783333	401.556641	15.686953
423.448936	6363.783333	400.282227	36.205956
423.448936	6363.783333	399.006836	-137.088531
423.448936	6363.783333	397.731445	167.616562
423.448936	6363.783333	396.456055	131.560562
423.448936	6363.783333	395.179688	95.312119
423.448936	6363.783333	393.903320	100.822731
423.448936	6363.783333	392.626953	236.605957
423.448936	6363.783333	391.350586	64.580910
423.448936	6363.783333	390.073242	-63.355770
423.448936	6363.783333	388.795898	62.348206
423.448936	6363.783333	387.518555	187.744995
423.448936	6363.783333	386.240234	80.048317
423.448936	6363.783333	384.961914	225.790207
423.448936	6363.783333	383.683594	19.858492
423.448936	6363.783333	382.405273	297.568939
423.448936	6363.783333	381.125977	37.618721
423.448936	6363.783333	379.846680	56.488323
423.448936	6363.783333	378.567383	42.480991
423.448936	6363.783333	377.287109	-34.616905
423.448936	6363.783333	376.006836	66.892746
423.448936	6363.783333	374.726563	-66.637405
423.448936	6363.783333	373.446289	-28.605022
423.448936	6363.783333	372.165039	64.748070
423.448936	6363.783333	370.883789	-271.836243
423.448936	6363.783333	369.602539	71.404526
423.448936	6363.783333	368.320313	140.229111
423.448936	6363.783333	367.039063	299.083282
423.448936	6363.783333	365.755859	313.577393
423.448936	6363.783333	364.473633	244.123764
423.448936	6363.783333	363.190430	160.295792
423.448936	6363.783333	361.907227	240.591949
423.448936	6363.783333	360.624023	165.064301
423.448936	6363.783333	359.340820	216.480377
423.448936	6363.783333	358.056641	144.537857
423.448936	6363.783333	356.772461	81.328934
423.448936	6363.783333	355.487305	140.278152
423.448936	6363.783333	354.202148	184.714035
423.448936	6363.783333	352.916992	122.046608
423.448936	6363.783333	351.631836	232.327103
423.448936	6363.783333	350.346680	182.272339
423.448936	6363.783333	349.060547	-14.171281
423.448936	6363.783333	347.774414	124.096390
423.448936	6363.783333	346.487305	88.170158
423.448936	6363.783333	345.200195	197.152191
423.448936	6363.783333	343.913086	60.362503
423.448936	6363.783333	342.625977	26.829590
423.448936	6363.783333	341.338867	-157.639191
423.448936	6363.783333	340.050781	-153.490494
423.448936	6363.783333	338.762695	-32.430382
423.448936	6363.783333	337.473633	11.503320
423.448936	6363.783333	336.184570	47.599827
423.448936	6363.783333	334.895508	61.992977
423.448936	6363.783333	333.606445	-23.766916
423.448936	6363.783333	332.317383	-158.894730
423.448936	6363.783333	331.027344	-69.001945
423.448936	6363.783333	329.736328	40.546646
423.448936	6363.783333	328.446289	-12.325967
423.448936	6363.783333	327.155273	16.673208
423.448936	6363.783333	325.864258	37.637260
423.448936	6363.783333	324.573242	-2.440299
423.448936	6363.783333	323.281250	-214.122879
423.448936	6363.783333	321.989258	51.995689
423.448936	6363.783333	320.697266	8.299580
423.448936	6363.783333	319.405273	53.111794
423.448936	6363.783333	318.112305	-163.438217
423.448936	6363.783333	316.819336	-139.682571
423.448936	6363.783333	315.526367	-66.707573
423.448936	6363.783333	314.232422	-31.998281
423.448936	6363.783333	312.938477	-125.188751
423.448936	6363.783333	311.644531	276.646301
423.448936	6363.783333	310.349609	-42.506241
423.448936	6363.783333	309.054688	50.463745
423.448936	6363.783333	307.759766	102.751709
423.448936	6363.783333	306.464844	38.561161
423.448936	6363.783333	305.168945	-11.250942
423.448936	6363.783333	303.873047	22.173088
423.448936	6363.783333	302.577148	85.953293
423.448936	6363.783333	301.281250	177.730408
423.448936	6363.783333	299.984375	253.805923
