#X		#Y		#Wave		#Intensity
29683.635957	-1283.451833	1999.980469	35.111073
29683.635957	-1283.451833	1999.016602	-117.059692
29683.635957	-1283.451833	1998.052734	-22.521305
29683.635957	-1283.451833	1997.087891	29.639620
29683.635957	-1283.451833	1996.123047	84.043159
29683.635957	-1283.451833	1995.158203	-0.506990
29683.635957	-1283.451833	1994.193359	-144.672562
29683.635957	-1283.451833	1993.228516	18.075518
29683.635957	-1283.451833	1992.262695	14.692627
29683.635957	-1283.451833	1991.297852	13.591089
29683.635957	-1283.451833	1990.332031	101.406662
29683.635957	-1283.451833	1989.366211	33.118191
29683.635957	-1283.451833	1988.399414	-8.102745
29683.635957	-1283.451833	1987.433594	-17.328012
29683.635957	-1283.451833	1986.466797	-14.347958
29683.635957	-1283.451833	1985.500977	32.972130
29683.635957	-1283.451833	1984.534180	33.148685
29683.635957	-1283.451833	1983.567383	-38.508289
29683.635957	-1283.451833	1982.599609	13.276795
29683.635957	-1283.451833	1981.632813	20.418909
29683.635957	-1283.451833	1980.665039	59.534012
29683.635957	-1283.451833	1979.697266	-104.032417
29683.635957	-1283.451833	1978.729492	112.616165
29683.635957	-1283.451833	1977.761719	188.323456
29683.635957	-1283.451833	1976.792969	81.210472
29683.635957	-1283.451833	1975.825195	-43.264618
29683.635957	-1283.451833	1974.856445	-19.755983
29683.635957	-1283.451833	1973.887695	-13.642363
29683.635957	-1283.451833	1972.918945	-84.110176
29683.635957	-1283.451833	1971.949219	-23.950003
29683.635957	-1283.451833	1970.980469	55.805462
29683.635957	-1283.451833	1970.010742	-32.208900
29683.635957	-1283.451833	1969.041016	-21.696785
29683.635957	-1283.451833	1968.071289	72.503197
29683.635957	-1283.451833	1967.101563	75.409782
29683.635957	-1283.451833	1966.130859	-67.116722
29683.635957	-1283.451833	1965.161133	105.583679
29683.635957	-1283.451833	1964.190430	29.420694
29683.635957	-1283.451833	1963.219727	-0.016687
29683.635957	-1283.451833	1962.249023	-54.138252
29683.635957	-1283.451833	1961.277344	41.815975
29683.635957	-1283.451833	1960.306641	26.927902
29683.635957	-1283.451833	1959.334961	29.196966
29683.635957	-1283.451833	1958.363281	201.121933
29683.635957	-1283.451833	1957.391602	195.844986
29683.635957	-1283.451833	1956.419922	180.670319
29683.635957	-1283.451833	1955.447266	49.895264
29683.635957	-1283.451833	1954.474609	0.222259
29683.635957	-1283.451833	1953.501953	68.470985
29683.635957	-1283.451833	1952.529297	134.182755
29683.635957	-1283.451833	1951.556641	-36.015244
29683.635957	-1283.451833	1950.583984	5.027088
29683.635957	-1283.451833	1949.610352	158.967270
29683.635957	-1283.451833	1948.636719	-97.217819
29683.635957	-1283.451833	1947.663086	68.867378
29683.635957	-1283.451833	1946.689453	136.675964
29683.635957	-1283.451833	1945.715820	42.464733
29683.635957	-1283.451833	1944.741211	129.800903
29683.635957	-1283.451833	1943.767578	20.832327
29683.635957	-1283.451833	1942.792969	29.588465
29683.635957	-1283.451833	1941.818359	1.527126
29683.635957	-1283.451833	1940.842773	91.119522
29683.635957	-1283.451833	1939.868164	85.055107
29683.635957	-1283.451833	1938.892578	52.006454
29683.635957	-1283.451833	1937.916992	-32.511047
29683.635957	-1283.451833	1936.941406	47.109562
29683.635957	-1283.451833	1935.965820	82.588974
29683.635957	-1283.451833	1934.990234	-41.141232
29683.635957	-1283.451833	1934.013672	62.850636
29683.635957	-1283.451833	1933.037109	120.273727
29683.635957	-1283.451833	1932.060547	-37.720753
29683.635957	-1283.451833	1931.083984	144.459747
29683.635957	-1283.451833	1930.107422	20.737347
29683.635957	-1283.451833	1929.129883	46.256824
29683.635957	-1283.451833	1928.153320	-128.789383
29683.635957	-1283.451833	1927.175781	38.541313
29683.635957	-1283.451833	1926.198242	22.442808
29683.635957	-1283.451833	1925.219727	104.109993
29683.635957	-1283.451833	1924.242188	171.073624
29683.635957	-1283.451833	1923.263672	52.307819
29683.635957	-1283.451833	1922.285156	133.896027
29683.635957	-1283.451833	1921.306641	100.651161
29683.635957	-1283.451833	1920.328125	165.092148
29683.635957	-1283.451833	1919.349609	90.335548
29683.635957	-1283.451833	1918.370117	10.719531
29683.635957	-1283.451833	1917.391602	-161.613937
29683.635957	-1283.451833	1916.412109	180.988617
29683.635957	-1283.451833	1915.431641	-40.113667
29683.635957	-1283.451833	1914.452148	-87.947868
29683.635957	-1283.451833	1913.472656	83.726868
29683.635957	-1283.451833	1912.492188	9.063456
29683.635957	-1283.451833	1911.511719	-26.566351
29683.635957	-1283.451833	1910.531250	49.940071
29683.635957	-1283.451833	1909.550781	111.797134
29683.635957	-1283.451833	1908.569336	180.941833
29683.635957	-1283.451833	1907.588867	81.973892
29683.635957	-1283.451833	1906.607422	117.004524
29683.635957	-1283.451833	1905.625977	-72.010216
29683.635957	-1283.451833	1904.644531	-71.044014
29683.635957	-1283.451833	1903.662109	-40.863605
29683.635957	-1283.451833	1902.680664	-10.689738
29683.635957	-1283.451833	1901.698242	12.176620
29683.635957	-1283.451833	1900.715820	-57.410172
29683.635957	-1283.451833	1899.733398	28.709862
29683.635957	-1283.451833	1898.750000	126.962303
29683.635957	-1283.451833	1897.767578	-20.399164
29683.635957	-1283.451833	1896.784180	-116.647720
29683.635957	-1283.451833	1895.800781	-88.893013
29683.635957	-1283.451833	1894.817383	19.053650
29683.635957	-1283.451833	1893.833984	22.488831
29683.635957	-1283.451833	1892.850586	35.646584
29683.635957	-1283.451833	1891.866211	-65.347885
29683.635957	-1283.451833	1890.881836	-13.311392
29683.635957	-1283.451833	1889.897461	19.289389
29683.635957	-1283.451833	1888.913086	229.088333
29683.635957	-1283.451833	1887.927734	26.228680
29683.635957	-1283.451833	1886.943359	107.356804
29683.635957	-1283.451833	1885.958008	11.358176
29683.635957	-1283.451833	1884.972656	-26.382486
29683.635957	-1283.451833	1883.987305	-34.998962
29683.635957	-1283.451833	1883.001953	-55.728561
29683.635957	-1283.451833	1882.015625	3.557253
29683.635957	-1283.451833	1881.029297	53.133232
29683.635957	-1283.451833	1880.042969	44.537907
29683.635957	-1283.451833	1879.056641	-51.271263
29683.635957	-1283.451833	1878.070313	-38.027260
29683.635957	-1283.451833	1877.083984	-61.110538
29683.635957	-1283.451833	1876.096680	68.377899
29683.635957	-1283.451833	1875.109375	42.876259
29683.635957	-1283.451833	1874.122070	51.279442
29683.635957	-1283.451833	1873.134766	-37.120209
29683.635957	-1283.451833	1872.146484	126.170044
29683.635957	-1283.451833	1871.159180	-95.256615
29683.635957	-1283.451833	1870.170898	99.440399
29683.635957	-1283.451833	1869.182617	-8.223181
29683.635957	-1283.451833	1868.194336	84.844742
29683.635957	-1283.451833	1867.205078	-68.695648
29683.635957	-1283.451833	1866.216797	7.441610
29683.635957	-1283.451833	1865.227539	105.304131
29683.635957	-1283.451833	1864.238281	-7.064102
29683.635957	-1283.451833	1863.249023	-73.488525
29683.635957	-1283.451833	1862.259766	-77.088531
29683.635957	-1283.451833	1861.269531	-150.709793
29683.635957	-1283.451833	1860.279297	77.484581
29683.635957	-1283.451833	1859.290039	-25.095322
29683.635957	-1283.451833	1858.298828	-6.965541
29683.635957	-1283.451833	1857.308594	44.941662
29683.635957	-1283.451833	1856.318359	-9.315128
29683.635957	-1283.451833	1855.327148	-22.545486
29683.635957	-1283.451833	1854.335938	210.210449
29683.635957	-1283.451833	1853.344727	35.405029
29683.635957	-1283.451833	1852.353516	-9.157393
29683.635957	-1283.451833	1851.362305	6.552664
29683.635957	-1283.451833	1850.370117	34.307148
29683.635957	-1283.451833	1849.377930	42.777802
29683.635957	-1283.451833	1848.385742	-16.201721
29683.635957	-1283.451833	1847.393555	139.187576
29683.635957	-1283.451833	1846.401367	-52.224075
29683.635957	-1283.451833	1845.408203	-24.483109
29683.635957	-1283.451833	1844.415039	-40.080402
29683.635957	-1283.451833	1843.421875	134.446579
29683.635957	-1283.451833	1842.428711	34.608711
29683.635957	-1283.451833	1841.435547	100.797729
29683.635957	-1283.451833	1840.441406	3.404686
29683.635957	-1283.451833	1839.448242	165.760162
29683.635957	-1283.451833	1838.454102	-138.384155
29683.635957	-1283.451833	1837.459961	-19.338982
29683.635957	-1283.451833	1836.464844	46.783287
29683.635957	-1283.451833	1835.470703	84.040794
29683.635957	-1283.451833	1834.475586	145.304825
29683.635957	-1283.451833	1833.480469	213.747559
29683.635957	-1283.451833	1832.485352	-1.229025
29683.635957	-1283.451833	1831.490234	84.012390
29683.635957	-1283.451833	1830.495117	34.777088
29683.635957	-1283.451833	1829.499023	64.761719
29683.635957	-1283.451833	1828.502930	46.732735
29683.635957	-1283.451833	1827.506836	59.894825
29683.635957	-1283.451833	1826.510742	-46.899357
29683.635957	-1283.451833	1825.513672	83.782646
29683.635957	-1283.451833	1824.517578	-130.900818
29683.635957	-1283.451833	1823.520508	62.066414
29683.635957	-1283.451833	1822.523438	-6.328461
29683.635957	-1283.451833	1821.526367	212.886841
29683.635957	-1283.451833	1820.529297	168.431656
29683.635957	-1283.451833	1819.531250	32.945423
29683.635957	-1283.451833	1818.533203	48.401711
29683.635957	-1283.451833	1817.535156	27.918787
29683.635957	-1283.451833	1816.537109	12.220889
29683.635957	-1283.451833	1815.539063	116.212433
29683.635957	-1283.451833	1814.540039	145.955658
29683.635957	-1283.451833	1813.541992	65.596924
29683.635957	-1283.451833	1812.542969	121.631203
29683.635957	-1283.451833	1811.543945	26.928616
29683.635957	-1283.451833	1810.543945	116.404396
29683.635957	-1283.451833	1809.544922	52.796814
29683.635957	-1283.451833	1808.544922	-70.570168
29683.635957	-1283.451833	1807.544922	26.001284
29683.635957	-1283.451833	1806.544922	79.504456
29683.635957	-1283.451833	1805.544922	51.732464
29683.635957	-1283.451833	1804.544922	12.010639
29683.635957	-1283.451833	1803.543945	65.438210
29683.635957	-1283.451833	1802.542969	121.216988
29683.635957	-1283.451833	1801.541992	14.602010
29683.635957	-1283.451833	1800.541016	-96.763512
29683.635957	-1283.451833	1799.539063	183.309937
29683.635957	-1283.451833	1798.538086	-23.530346
29683.635957	-1283.451833	1797.536133	101.311798
29683.635957	-1283.451833	1796.534180	71.042198
29683.635957	-1283.451833	1795.532227	143.314819
29683.635957	-1283.451833	1794.529297	165.467072
29683.635957	-1283.451833	1793.527344	113.688927
29683.635957	-1283.451833	1792.524414	-50.115532
29683.635957	-1283.451833	1791.521484	22.045778
29683.635957	-1283.451833	1790.518555	44.124214
29683.635957	-1283.451833	1789.514648	75.701233
29683.635957	-1283.451833	1788.511719	-66.618904
29683.635957	-1283.451833	1787.507813	126.850418
29683.635957	-1283.451833	1786.503906	-86.893707
29683.635957	-1283.451833	1785.500000	-29.217779
29683.635957	-1283.451833	1784.496094	28.413578
29683.635957	-1283.451833	1783.491211	83.620781
29683.635957	-1283.451833	1782.486328	-3.956413
29683.635957	-1283.451833	1781.481445	29.782318
29683.635957	-1283.451833	1780.476563	187.146790
29683.635957	-1283.451833	1779.471680	4.423358
29683.635957	-1283.451833	1778.465820	45.201611
29683.635957	-1283.451833	1777.460938	57.419819
29683.635957	-1283.451833	1776.455078	67.231964
29683.635957	-1283.451833	1775.449219	-8.514977
29683.635957	-1283.451833	1774.442383	96.270927
29683.635957	-1283.451833	1773.436523	113.119957
29683.635957	-1283.451833	1772.429688	-81.393654
29683.635957	-1283.451833	1771.422852	-142.913071
29683.635957	-1283.451833	1770.416016	182.460938
29683.635957	-1283.451833	1769.409180	-19.151711
29683.635957	-1283.451833	1768.402344	230.096451
29683.635957	-1283.451833	1767.394531	230.137543
29683.635957	-1283.451833	1766.386719	80.728981
29683.635957	-1283.451833	1765.378906	68.888161
29683.635957	-1283.451833	1764.371094	47.541180
29683.635957	-1283.451833	1763.362305	-7.012219
29683.635957	-1283.451833	1762.354492	-28.391058
29683.635957	-1283.451833	1761.345703	-52.160271
29683.635957	-1283.451833	1760.336914	-102.008568
29683.635957	-1283.451833	1759.328125	-5.009823
29683.635957	-1283.451833	1758.318359	139.285995
29683.635957	-1283.451833	1757.308594	-40.881031
29683.635957	-1283.451833	1756.299805	27.558414
29683.635957	-1283.451833	1755.290039	-24.766550
29683.635957	-1283.451833	1754.279297	-53.437656
29683.635957	-1283.451833	1753.269531	-13.513340
29683.635957	-1283.451833	1752.258789	-99.004753
29683.635957	-1283.451833	1751.249023	35.456539
29683.635957	-1283.451833	1750.238281	87.075600
29683.635957	-1283.451833	1749.226563	62.991909
29683.635957	-1283.451833	1748.215820	102.709351
29683.635957	-1283.451833	1747.204102	26.582245
29683.635957	-1283.451833	1746.193359	118.213715
29683.635957	-1283.451833	1745.181641	-7.554713
29683.635957	-1283.451833	1744.168945	-1.042013
29683.635957	-1283.451833	1743.157227	-27.619495
29683.635957	-1283.451833	1742.144531	-25.886694
29683.635957	-1283.451833	1741.132813	74.959526
29683.635957	-1283.451833	1740.120117	121.453804
29683.635957	-1283.451833	1739.106445	-1.994290
29683.635957	-1283.451833	1738.093750	11.408792
29683.635957	-1283.451833	1737.080078	130.917267
29683.635957	-1283.451833	1736.067383	-44.432011
29683.635957	-1283.451833	1735.053711	-49.982586
29683.635957	-1283.451833	1734.040039	-41.417435
29683.635957	-1283.451833	1733.025391	-117.736763
29683.635957	-1283.451833	1732.011719	48.662415
29683.635957	-1283.451833	1730.997070	64.180031
29683.635957	-1283.451833	1729.982422	8.994090
29683.635957	-1283.451833	1728.967773	151.630020
29683.635957	-1283.451833	1727.952148	94.032303
29683.635957	-1283.451833	1726.937500	24.657291
29683.635957	-1283.451833	1725.921875	18.828970
29683.635957	-1283.451833	1724.906250	27.092697
29683.635957	-1283.451833	1723.890625	-136.436218
29683.635957	-1283.451833	1722.875000	45.873623
29683.635957	-1283.451833	1721.858398	77.555481
29683.635957	-1283.451833	1720.841797	-31.895460
29683.635957	-1283.451833	1719.825195	-56.695904
29683.635957	-1283.451833	1718.808594	-109.723190
29683.635957	-1283.451833	1717.791992	-9.999195
29683.635957	-1283.451833	1716.774414	-95.972717
29683.635957	-1283.451833	1715.756836	-59.780731
29683.635957	-1283.451833	1714.739258	-54.166267
29683.635957	-1283.451833	1713.721680	35.958191
29683.635957	-1283.451833	1712.704102	107.236336
29683.635957	-1283.451833	1711.685547	-16.385237
29683.635957	-1283.451833	1710.667969	82.982399
29683.635957	-1283.451833	1709.649414	-5.445438
29683.635957	-1283.451833	1708.630859	75.052902
29683.635957	-1283.451833	1707.611328	80.427856
29683.635957	-1283.451833	1706.592773	-83.080360
29683.635957	-1283.451833	1705.573242	30.126202
29683.635957	-1283.451833	1704.553711	-100.548058
29683.635957	-1283.451833	1703.534180	143.819885
29683.635957	-1283.451833	1702.513672	22.489450
29683.635957	-1283.451833	1701.494141	-70.703156
29683.635957	-1283.451833	1700.473633	28.196707
29683.635957	-1283.451833	1699.453125	84.874367
29683.635957	-1283.451833	1698.432617	10.372497
29683.635957	-1283.451833	1697.412109	-33.691986
29683.635957	-1283.451833	1696.390625	-47.339581
29683.635957	-1283.451833	1695.369141	11.539954
29683.635957	-1283.451833	1694.347656	51.652893
29683.635957	-1283.451833	1693.326172	-60.335491
29683.635957	-1283.451833	1692.304688	35.858234
29683.635957	-1283.451833	1691.282227	38.447376
29683.635957	-1283.451833	1690.260742	26.985516
29683.635957	-1283.451833	1689.238281	-56.965252
29683.635957	-1283.451833	1688.214844	-0.684032
29683.635957	-1283.451833	1687.192383	15.831147
29683.635957	-1283.451833	1686.168945	39.320972
29683.635957	-1283.451833	1685.146484	39.423264
29683.635957	-1283.451833	1684.123047	179.617874
29683.635957	-1283.451833	1683.099609	111.931404
29683.635957	-1283.451833	1682.075195	79.260590
29683.635957	-1283.451833	1681.051758	-0.096915
29683.635957	-1283.451833	1680.027344	62.895264
29683.635957	-1283.451833	1679.002930	-9.477409
29683.635957	-1283.451833	1677.978516	37.119835
29683.635957	-1283.451833	1676.953125	-16.610672
29683.635957	-1283.451833	1675.928711	151.176804
29683.635957	-1283.451833	1674.903320	125.378319
29683.635957	-1283.451833	1673.877930	113.553375
29683.635957	-1283.451833	1672.852539	136.668610
29683.635957	-1283.451833	1671.826172	185.379883
29683.635957	-1283.451833	1670.800781	208.431564
29683.635957	-1283.451833	1669.774414	180.212250
29683.635957	-1283.451833	1668.748047	235.813751
29683.635957	-1283.451833	1667.721680	316.984497
29683.635957	-1283.451833	1666.694336	130.416367
29683.635957	-1283.451833	1665.667969	195.248001
29683.635957	-1283.451833	1664.640625	297.261383
29683.635957	-1283.451833	1663.613281	208.457611
29683.635957	-1283.451833	1662.585938	203.402481
29683.635957	-1283.451833	1661.557617	286.695587
29683.635957	-1283.451833	1660.530273	328.093384
29683.635957	-1283.451833	1659.501953	299.719025
29683.635957	-1283.451833	1658.473633	199.292465
29683.635957	-1283.451833	1657.444336	373.075378
29683.635957	-1283.451833	1656.416016	432.942993
29683.635957	-1283.451833	1655.386719	302.303497
29683.635957	-1283.451833	1654.358398	378.388153
29683.635957	-1283.451833	1653.328125	308.144684
29683.635957	-1283.451833	1652.298828	302.917603
29683.635957	-1283.451833	1651.269531	286.074554
29683.635957	-1283.451833	1650.239258	417.733063
29683.635957	-1283.451833	1649.208984	268.601013
29683.635957	-1283.451833	1648.178711	486.012360
29683.635957	-1283.451833	1647.148438	371.688141
29683.635957	-1283.451833	1646.117188	431.295715
29683.635957	-1283.451833	1645.086914	428.279907
29683.635957	-1283.451833	1644.055664	557.365601
29683.635957	-1283.451833	1643.024414	547.349182
29683.635957	-1283.451833	1641.992188	470.132324
29683.635957	-1283.451833	1640.960938	587.522705
29683.635957	-1283.451833	1639.928711	505.676880
29683.635957	-1283.451833	1638.896484	521.107971
29683.635957	-1283.451833	1637.864258	564.305603
29683.635957	-1283.451833	1636.832031	563.500305
29683.635957	-1283.451833	1635.798828	558.055115
29683.635957	-1283.451833	1634.766602	626.649292
29683.635957	-1283.451833	1633.733398	732.219238
29683.635957	-1283.451833	1632.699219	726.720276
29683.635957	-1283.451833	1631.666016	582.475891
29683.635957	-1283.451833	1630.632813	692.599243
29683.635957	-1283.451833	1629.598633	638.552429
29683.635957	-1283.451833	1628.564453	748.608521
29683.635957	-1283.451833	1627.530273	805.472534
29683.635957	-1283.451833	1626.495117	682.113525
29683.635957	-1283.451833	1625.460938	759.749023
29683.635957	-1283.451833	1624.425781	828.110535
29683.635957	-1283.451833	1623.390625	672.485840
29683.635957	-1283.451833	1622.355469	775.458740
29683.635957	-1283.451833	1621.319336	857.614136
29683.635957	-1283.451833	1620.284180	766.679810
29683.635957	-1283.451833	1619.248047	712.687988
29683.635957	-1283.451833	1618.211914	847.856689
29683.635957	-1283.451833	1617.174805	784.641663
29683.635957	-1283.451833	1616.138672	869.019348
29683.635957	-1283.451833	1615.101563	685.953613
29683.635957	-1283.451833	1614.065430	622.813477
29683.635957	-1283.451833	1613.027344	702.560852
29683.635957	-1283.451833	1611.990234	687.823975
29683.635957	-1283.451833	1610.953125	709.950867
29683.635957	-1283.451833	1609.915039	738.977478
29683.635957	-1283.451833	1608.876953	749.575256
29683.635957	-1283.451833	1607.838867	808.517639
29683.635957	-1283.451833	1606.800781	690.214661
29683.635957	-1283.451833	1605.761719	843.500244
29683.635957	-1283.451833	1604.723633	697.637695
29683.635957	-1283.451833	1603.684570	749.659973
29683.635957	-1283.451833	1602.644531	790.164734
29683.635957	-1283.451833	1601.605469	924.940613
29683.635957	-1283.451833	1600.566406	687.239441
29683.635957	-1283.451833	1599.526367	759.933777
29683.635957	-1283.451833	1598.486328	616.589966
29683.635957	-1283.451833	1597.446289	726.047791
29683.635957	-1283.451833	1596.405273	787.228088
29683.635957	-1283.451833	1595.365234	761.122131
29683.635957	-1283.451833	1594.324219	856.734680
29683.635957	-1283.451833	1593.283203	731.921631
29683.635957	-1283.451833	1592.242188	818.342163
29683.635957	-1283.451833	1591.200195	725.732605
29683.635957	-1283.451833	1590.159180	718.070251
29683.635957	-1283.451833	1589.117188	754.005249
29683.635957	-1283.451833	1588.075195	867.920654
29683.635957	-1283.451833	1587.032227	708.918091
29683.635957	-1283.451833	1585.990234	655.458740
29683.635957	-1283.451833	1584.947266	608.906616
29683.635957	-1283.451833	1583.904297	720.520264
29683.635957	-1283.451833	1582.861328	667.129211
29683.635957	-1283.451833	1581.818359	668.754944
29683.635957	-1283.451833	1580.775391	729.947632
29683.635957	-1283.451833	1579.731445	656.018921
29683.635957	-1283.451833	1578.687500	657.690857
29683.635957	-1283.451833	1577.643555	659.378784
29683.635957	-1283.451833	1576.598633	699.986816
29683.635957	-1283.451833	1575.554688	491.187103
29683.635957	-1283.451833	1574.509766	648.523682
29683.635957	-1283.451833	1573.464844	613.683594
29683.635957	-1283.451833	1572.419922	681.785034
29683.635957	-1283.451833	1571.374023	562.390808
29683.635957	-1283.451833	1570.329102	571.080078
29683.635957	-1283.451833	1569.283203	742.053833
29683.635957	-1283.451833	1568.237305	622.778870
29683.635957	-1283.451833	1567.191406	423.611053
29683.635957	-1283.451833	1566.144531	452.955078
29683.635957	-1283.451833	1565.098633	527.987671
29683.635957	-1283.451833	1564.051758	493.413300
29683.635957	-1283.451833	1563.004883	518.228455
29683.635957	-1283.451833	1561.957031	387.853119
29683.635957	-1283.451833	1560.910156	545.077515
29683.635957	-1283.451833	1559.862305	455.862213
29683.635957	-1283.451833	1558.814453	514.973145
29683.635957	-1283.451833	1557.766602	339.186554
29683.635957	-1283.451833	1556.718750	427.989136
29683.635957	-1283.451833	1555.669922	592.008484
29683.635957	-1283.451833	1554.621094	591.885437
29683.635957	-1283.451833	1553.573242	509.755829
29683.635957	-1283.451833	1552.523438	641.842041
29683.635957	-1283.451833	1551.474609	582.564941
29683.635957	-1283.451833	1550.424805	669.091187
29683.635957	-1283.451833	1549.375000	514.251282
29683.635957	-1283.451833	1548.325195	639.514893
29683.635957	-1283.451833	1547.275391	532.597168
29683.635957	-1283.451833	1546.225586	530.430237
29683.635957	-1283.451833	1545.174805	605.647095
29683.635957	-1283.451833	1544.124023	489.785858
29683.635957	-1283.451833	1543.073242	515.007019
29683.635957	-1283.451833	1542.022461	631.202942
29683.635957	-1283.451833	1540.970703	481.393707
29683.635957	-1283.451833	1539.919922	488.511505
29683.635957	-1283.451833	1538.868164	488.837738
29683.635957	-1283.451833	1537.815430	511.913879
29683.635957	-1283.451833	1536.763672	437.337433
29683.635957	-1283.451833	1535.710938	351.464722
29683.635957	-1283.451833	1534.659180	383.738342
29683.635957	-1283.451833	1533.606445	164.031357
29683.635957	-1283.451833	1532.552734	328.041412
29683.635957	-1283.451833	1531.500000	371.746613
29683.635957	-1283.451833	1530.446289	392.777924
29683.635957	-1283.451833	1529.393555	252.776398
29683.635957	-1283.451833	1528.338867	282.963074
29683.635957	-1283.451833	1527.285156	245.148224
29683.635957	-1283.451833	1526.231445	264.062195
29683.635957	-1283.451833	1525.176758	183.268875
29683.635957	-1283.451833	1524.122070	365.427185
29683.635957	-1283.451833	1523.067383	214.479752
29683.635957	-1283.451833	1522.012695	317.346802
29683.635957	-1283.451833	1520.957031	180.130478
29683.635957	-1283.451833	1519.901367	280.772705
29683.635957	-1283.451833	1518.845703	227.461761
29683.635957	-1283.451833	1517.790039	262.488434
29683.635957	-1283.451833	1516.734375	229.646912
29683.635957	-1283.451833	1515.677734	190.067352
29683.635957	-1283.451833	1514.621094	157.329666
29683.635957	-1283.451833	1513.564453	344.034698
29683.635957	-1283.451833	1512.507813	191.509354
29683.635957	-1283.451833	1511.450195	398.559174
29683.635957	-1283.451833	1510.393555	239.382919
29683.635957	-1283.451833	1509.335938	335.684265
29683.635957	-1283.451833	1508.278320	375.500366
29683.635957	-1283.451833	1507.219727	320.459229
29683.635957	-1283.451833	1506.162109	358.086884
29683.635957	-1283.451833	1505.103516	402.513550
29683.635957	-1283.451833	1504.044922	417.614685
29683.635957	-1283.451833	1502.986328	184.451004
29683.635957	-1283.451833	1501.926758	362.163849
29683.635957	-1283.451833	1500.868164	264.572296
29683.635957	-1283.451833	1499.808594	194.131668
29683.635957	-1283.451833	1498.749023	157.594116
29683.635957	-1283.451833	1497.688477	211.314972
29683.635957	-1283.451833	1496.628906	-28.037416
29683.635957	-1283.451833	1495.568359	16.769936
29683.635957	-1283.451833	1494.507813	-48.827904
29683.635957	-1283.451833	1493.447266	-53.517780
29683.635957	-1283.451833	1492.386719	86.017868
29683.635957	-1283.451833	1491.325195	-31.226244
29683.635957	-1283.451833	1490.263672	-8.761516
29683.635957	-1283.451833	1489.202148	-56.055080
29683.635957	-1283.451833	1488.140625	-53.763031
29683.635957	-1283.451833	1487.079102	-13.166965
29683.635957	-1283.451833	1486.016602	-134.550278
29683.635957	-1283.451833	1484.954102	9.620788
29683.635957	-1283.451833	1483.891602	-136.368469
29683.635957	-1283.451833	1482.829102	104.534332
29683.635957	-1283.451833	1481.765625	-41.324665
29683.635957	-1283.451833	1480.702148	-164.596451
29683.635957	-1283.451833	1479.638672	-42.812653
29683.635957	-1283.451833	1478.575195	-107.505867
29683.635957	-1283.451833	1477.511719	-5.906939
29683.635957	-1283.451833	1476.447266	14.804101
29683.635957	-1283.451833	1475.382813	46.811478
29683.635957	-1283.451833	1474.318359	-35.596634
29683.635957	-1283.451833	1473.253906	-32.646702
29683.635957	-1283.451833	1472.189453	-13.920180
29683.635957	-1283.451833	1471.124023	-15.466529
29683.635957	-1283.451833	1470.058594	270.266876
29683.635957	-1283.451833	1468.993164	136.568710
29683.635957	-1283.451833	1467.927734	168.885788
29683.635957	-1283.451833	1466.861328	147.332886
29683.635957	-1283.451833	1465.794922	244.565475
29683.635957	-1283.451833	1464.728516	142.684189
29683.635957	-1283.451833	1463.662109	262.160278
29683.635957	-1283.451833	1462.594727	216.460709
29683.635957	-1283.451833	1461.528320	286.854828
29683.635957	-1283.451833	1460.460938	207.630112
29683.635957	-1283.451833	1459.393555	135.201004
29683.635957	-1283.451833	1458.326172	91.948372
29683.635957	-1283.451833	1457.257813	307.708557
29683.635957	-1283.451833	1456.189453	206.285995
29683.635957	-1283.451833	1455.121094	140.645050
29683.635957	-1283.451833	1454.052734	164.453217
29683.635957	-1283.451833	1452.984375	108.202675
29683.635957	-1283.451833	1451.915039	217.104477
29683.635957	-1283.451833	1450.845703	167.078522
29683.635957	-1283.451833	1449.776367	280.251282
29683.635957	-1283.451833	1448.707031	283.757477
29683.635957	-1283.451833	1447.636719	243.593033
29683.635957	-1283.451833	1446.567383	225.623077
29683.635957	-1283.451833	1445.497070	216.645599
29683.635957	-1283.451833	1444.425781	202.792999
29683.635957	-1283.451833	1443.355469	255.859863
29683.635957	-1283.451833	1442.285156	177.504761
29683.635957	-1283.451833	1441.213867	198.629532
29683.635957	-1283.451833	1440.142578	306.308868
29683.635957	-1283.451833	1439.070313	234.737732
29683.635957	-1283.451833	1437.999023	170.883530
29683.635957	-1283.451833	1436.926758	367.478516
29683.635957	-1283.451833	1435.854492	236.739258
29683.635957	-1283.451833	1434.782227	251.370758
29683.635957	-1283.451833	1433.709961	285.104889
29683.635957	-1283.451833	1432.636719	224.432724
29683.635957	-1283.451833	1431.563477	143.861145
29683.635957	-1283.451833	1430.490234	39.594692
29683.635957	-1283.451833	1429.416992	235.200134
29683.635957	-1283.451833	1428.343750	28.866863
29683.635957	-1283.451833	1427.269531	1.903499
29683.635957	-1283.451833	1426.195313	83.226875
29683.635957	-1283.451833	1425.121094	36.436012
29683.635957	-1283.451833	1424.046875	46.293488
29683.635957	-1283.451833	1422.971680	200.746780
29683.635957	-1283.451833	1421.896484	157.213989
29683.635957	-1283.451833	1420.821289	8.564607
29683.635957	-1283.451833	1419.746094	66.453308
29683.635957	-1283.451833	1418.669922	31.136799
29683.635957	-1283.451833	1417.594727	79.384987
29683.635957	-1283.451833	1416.518555	114.756874
29683.635957	-1283.451833	1415.442383	36.331902
29683.635957	-1283.451833	1414.365234	83.067131
29683.635957	-1283.451833	1413.289063	82.744308
29683.635957	-1283.451833	1412.211914	189.311935
29683.635957	-1283.451833	1411.134766	25.628073
29683.635957	-1283.451833	1410.057617	3.392740
29683.635957	-1283.451833	1408.979492	161.732147
29683.635957	-1283.451833	1407.902344	140.412949
29683.635957	-1283.451833	1406.824219	168.365479
29683.635957	-1283.451833	1405.746094	139.586258
29683.635957	-1283.451833	1404.666992	230.231888
29683.635957	-1283.451833	1403.588867	98.341644
29683.635957	-1283.451833	1402.509766	-3.302256
29683.635957	-1283.451833	1401.430664	-27.082893
29683.635957	-1283.451833	1400.351563	165.056168
29683.635957	-1283.451833	1399.271484	119.299103
29683.635957	-1283.451833	1398.192383	184.229156
29683.635957	-1283.451833	1397.112305	65.692917
29683.635957	-1283.451833	1396.031250	209.356781
29683.635957	-1283.451833	1394.951172	196.264236
29683.635957	-1283.451833	1393.871094	274.561859
29683.635957	-1283.451833	1392.790039	223.571289
29683.635957	-1283.451833	1391.708984	222.465164
29683.635957	-1283.451833	1390.626953	285.318085
29683.635957	-1283.451833	1389.545898	177.553452
29683.635957	-1283.451833	1388.463867	114.800186
29683.635957	-1283.451833	1387.381836	288.993500
29683.635957	-1283.451833	1386.299805	249.862152
29683.635957	-1283.451833	1385.217773	262.651978
29683.635957	-1283.451833	1384.134766	122.717552
29683.635957	-1283.451833	1383.051758	129.943146
29683.635957	-1283.451833	1381.968750	194.050644
29683.635957	-1283.451833	1380.885742	173.943130
29683.635957	-1283.451833	1379.802734	86.376167
29683.635957	-1283.451833	1378.718750	265.569763
29683.635957	-1283.451833	1377.634766	85.099861
29683.635957	-1283.451833	1376.550781	107.818222
29683.635957	-1283.451833	1375.465820	52.769150
29683.635957	-1283.451833	1374.381836	107.668427
29683.635957	-1283.451833	1373.296875	171.417938
29683.635957	-1283.451833	1372.211914	150.186707
29683.635957	-1283.451833	1371.126953	197.243469
29683.635957	-1283.451833	1370.041016	200.645386
29683.635957	-1283.451833	1368.955078	120.276680
29683.635957	-1283.451833	1367.869141	18.807463
29683.635957	-1283.451833	1366.783203	120.890755
29683.635957	-1283.451833	1365.697266	203.620010
29683.635957	-1283.451833	1364.610352	148.137009
29683.635957	-1283.451833	1363.523438	101.029388
29683.635957	-1283.451833	1362.436523	340.857880
29683.635957	-1283.451833	1361.349609	199.259872
29683.635957	-1283.451833	1360.261719	226.572098
29683.635957	-1283.451833	1359.174805	61.309128
29683.635957	-1283.451833	1358.086914	127.396729
29683.635957	-1283.451833	1356.998047	91.893257
29683.635957	-1283.451833	1355.910156	130.640747
29683.635957	-1283.451833	1354.821289	244.995789
29683.635957	-1283.451833	1353.732422	174.144836
29683.635957	-1283.451833	1352.643555	89.142265
29683.635957	-1283.451833	1351.554688	105.729416
29683.635957	-1283.451833	1350.464844	116.872185
29683.635957	-1283.451833	1349.375000	73.089905
29683.635957	-1283.451833	1348.285156	44.439854
29683.635957	-1283.451833	1347.195313	132.545700
29683.635957	-1283.451833	1346.105469	176.486694
29683.635957	-1283.451833	1345.014648	113.570175
29683.635957	-1283.451833	1343.923828	192.268921
29683.635957	-1283.451833	1342.833008	249.028381
29683.635957	-1283.451833	1341.741211	158.514847
29683.635957	-1283.451833	1340.650391	183.443024
29683.635957	-1283.451833	1339.558594	158.292389
29683.635957	-1283.451833	1338.466797	388.169830
29683.635957	-1283.451833	1337.374023	103.940483
29683.635957	-1283.451833	1336.282227	114.848145
29683.635957	-1283.451833	1335.189453	157.938858
29683.635957	-1283.451833	1334.096680	118.509384
29683.635957	-1283.451833	1333.003906	264.341553
29683.635957	-1283.451833	1331.910156	203.358276
29683.635957	-1283.451833	1330.817383	194.502243
29683.635957	-1283.451833	1329.723633	81.796837
29683.635957	-1283.451833	1328.629883	83.462486
29683.635957	-1283.451833	1327.535156	154.705841
29683.635957	-1283.451833	1326.441406	99.075394
29683.635957	-1283.451833	1325.346680	140.445755
29683.635957	-1283.451833	1324.251953	74.268730
29683.635957	-1283.451833	1323.156250	35.352577
29683.635957	-1283.451833	1322.061523	-78.774879
29683.635957	-1283.451833	1320.965820	65.860756
29683.635957	-1283.451833	1319.870117	154.509018
29683.635957	-1283.451833	1318.774414	104.124611
29683.635957	-1283.451833	1317.678711	130.707138
29683.635957	-1283.451833	1316.582031	124.753952
29683.635957	-1283.451833	1315.485352	170.537964
29683.635957	-1283.451833	1314.388672	50.102234
29683.635957	-1283.451833	1313.291016	207.053070
29683.635957	-1283.451833	1312.194336	297.472595
29683.635957	-1283.451833	1311.096680	332.986938
29683.635957	-1283.451833	1309.999023	396.734100
29683.635957	-1283.451833	1308.901367	348.027649
29683.635957	-1283.451833	1307.802734	381.635101
29683.635957	-1283.451833	1306.705078	292.016876
29683.635957	-1283.451833	1305.606445	259.182495
29683.635957	-1283.451833	1304.506836	155.188751
29683.635957	-1283.451833	1303.408203	177.837250
29683.635957	-1283.451833	1302.308594	228.096115
29683.635957	-1283.451833	1301.208984	198.512436
29683.635957	-1283.451833	1300.109375	204.757202
29683.635957	-1283.451833	1299.009766	140.688400
29683.635957	-1283.451833	1297.909180	228.030731
29683.635957	-1283.451833	1296.808594	218.318985
29683.635957	-1283.451833	1295.708008	151.314468
29683.635957	-1283.451833	1294.607422	179.128128
29683.635957	-1283.451833	1293.506836	220.005630
29683.635957	-1283.451833	1292.405273	30.187876
29683.635957	-1283.451833	1291.303711	103.177338
29683.635957	-1283.451833	1290.202148	48.520988
29683.635957	-1283.451833	1289.099609	36.176517
29683.635957	-1283.451833	1287.998047	21.803526
29683.635957	-1283.451833	1286.895508	-46.754459
29683.635957	-1283.451833	1285.792969	-17.832397
29683.635957	-1283.451833	1284.689453	62.806744
29683.635957	-1283.451833	1283.586914	41.769745
29683.635957	-1283.451833	1282.483398	96.789383
29683.635957	-1283.451833	1281.379883	67.503304
29683.635957	-1283.451833	1280.276367	69.808083
29683.635957	-1283.451833	1279.171875	112.026749
29683.635957	-1283.451833	1278.067383	112.342812
29683.635957	-1283.451833	1276.962891	4.807155
29683.635957	-1283.451833	1275.858398	45.147896
29683.635957	-1283.451833	1274.753906	71.697159
29683.635957	-1283.451833	1273.648438	-24.027681
29683.635957	-1283.451833	1272.542969	48.460594
29683.635957	-1283.451833	1271.437500	43.243134
29683.635957	-1283.451833	1270.331055	75.580009
29683.635957	-1283.451833	1269.225586	163.086609
29683.635957	-1283.451833	1268.119141	154.830368
29683.635957	-1283.451833	1267.012695	86.041138
29683.635957	-1283.451833	1265.906250	123.761505
29683.635957	-1283.451833	1264.798828	154.979111
29683.635957	-1283.451833	1263.691406	211.548294
29683.635957	-1283.451833	1262.583984	82.918411
29683.635957	-1283.451833	1261.476563	144.912292
29683.635957	-1283.451833	1260.368164	79.415550
29683.635957	-1283.451833	1259.260742	98.870171
29683.635957	-1283.451833	1258.152344	90.969635
29683.635957	-1283.451833	1257.043945	85.636162
29683.635957	-1283.451833	1255.934570	77.471176
29683.635957	-1283.451833	1254.825195	-97.061584
29683.635957	-1283.451833	1253.716797	-71.873886
29683.635957	-1283.451833	1252.606445	-75.488792
29683.635957	-1283.451833	1251.497070	-88.104698
29683.635957	-1283.451833	1250.387695	-27.016155
29683.635957	-1283.451833	1249.277344	-135.394196
29683.635957	-1283.451833	1248.166992	-74.417656
29683.635957	-1283.451833	1247.055664	-73.145256
29683.635957	-1283.451833	1245.945313	-134.078339
29683.635957	-1283.451833	1244.833984	-72.793465
29683.635957	-1283.451833	1243.722656	-107.208710
29683.635957	-1283.451833	1242.611328	-67.021698
29683.635957	-1283.451833	1241.499023	-40.564606
29683.635957	-1283.451833	1240.387695	-102.148300
29683.635957	-1283.451833	1239.275391	-8.583242
29683.635957	-1283.451833	1238.162109	-122.713066
29683.635957	-1283.451833	1237.049805	-43.743137
29683.635957	-1283.451833	1235.936523	-48.054745
29683.635957	-1283.451833	1234.823242	-4.808603
29683.635957	-1283.451833	1233.709961	-91.406433
29683.635957	-1283.451833	1232.596680	-107.862740
29683.635957	-1283.451833	1231.482422	-24.175735
29683.635957	-1283.451833	1230.369141	-76.476501
29683.635957	-1283.451833	1229.253906	7.324499
29683.635957	-1283.451833	1228.139648	-30.986485
29683.635957	-1283.451833	1227.025391	12.769096
29683.635957	-1283.451833	1225.910156	-217.386002
29683.635957	-1283.451833	1224.794922	-93.192017
29683.635957	-1283.451833	1223.679688	-24.585308
29683.635957	-1283.451833	1222.563477	-100.870781
29683.635957	-1283.451833	1221.447266	-58.175842
29683.635957	-1283.451833	1220.331055	-21.942230
29683.635957	-1283.451833	1219.214844	13.366851
29683.635957	-1283.451833	1218.098633	-43.449604
29683.635957	-1283.451833	1216.981445	-40.852779
29683.635957	-1283.451833	1215.864258	-75.114075
29683.635957	-1283.451833	1214.747070	65.111420
29683.635957	-1283.451833	1213.629883	-4.626810
29683.635957	-1283.451833	1212.511719	-16.483826
29683.635957	-1283.451833	1211.393555	3.771956
29683.635957	-1283.451833	1210.275391	16.409277
29683.635957	-1283.451833	1209.157227	76.380470
29683.635957	-1283.451833	1208.038086	98.839035
29683.635957	-1283.451833	1206.918945	-8.909667
29683.635957	-1283.451833	1205.799805	49.753704
29683.635957	-1283.451833	1204.680664	93.539314
29683.635957	-1283.451833	1203.560547	105.330093
29683.635957	-1283.451833	1202.441406	32.647388
29683.635957	-1283.451833	1201.321289	100.182648
29683.635957	-1283.451833	1200.200195	60.649422
29683.635957	-1283.451833	1199.080078	12.830370
29683.635957	-1283.451833	1197.958984	26.788937
29683.635957	-1283.451833	1196.837891	46.357002
29683.635957	-1283.451833	1195.716797	1.776490
29683.635957	-1283.451833	1194.594727	72.661690
29683.635957	-1283.451833	1193.473633	-1.936019
29683.635957	-1283.451833	1192.351563	44.891888
29683.635957	-1283.451833	1191.229492	-73.559242
29683.635957	-1283.451833	1190.106445	8.943480
29683.635957	-1283.451833	1188.984375	-25.503014
29683.635957	-1283.451833	1187.861328	-31.659752
29683.635957	-1283.451833	1186.738281	33.483044
29683.635957	-1283.451833	1185.614258	14.228039
29683.635957	-1283.451833	1184.491211	35.741150
29683.635957	-1283.451833	1183.367188	-33.222656
29683.635957	-1283.451833	1182.243164	4.693643
29683.635957	-1283.451833	1181.119141	-19.747967
29683.635957	-1283.451833	1179.994141	-113.356232
29683.635957	-1283.451833	1178.869141	-55.569462
29683.635957	-1283.451833	1177.744141	-104.350769
29683.635957	-1283.451833	1176.619141	-30.405455
29683.635957	-1283.451833	1175.493164	-69.488113
29683.635957	-1283.451833	1174.368164	-111.227386
29683.635957	-1283.451833	1173.242188	27.663122
29683.635957	-1283.451833	1172.115234	5.552780
29683.635957	-1283.451833	1170.989258	45.601154
29683.635957	-1283.451833	1169.862305	1.411434
29683.635957	-1283.451833	1168.735352	92.478111
29683.635957	-1283.451833	1167.608398	23.430889
29683.635957	-1283.451833	1166.481445	-76.223587
29683.635957	-1283.451833	1165.353516	-91.786942
29683.635957	-1283.451833	1164.225586	-35.977966
29683.635957	-1283.451833	1163.097656	-4.896932
29683.635957	-1283.451833	1161.968750	21.930361
29683.635957	-1283.451833	1160.840820	-42.271191
29683.635957	-1283.451833	1159.711914	20.412796
29683.635957	-1283.451833	1158.583008	91.415009
29683.635957	-1283.451833	1157.453125	12.088490
29683.635957	-1283.451833	1156.324219	33.985466
29683.635957	-1283.451833	1155.194336	-17.822617
29683.635957	-1283.451833	1154.064453	-17.237436
29683.635957	-1283.451833	1152.933594	-135.165298
29683.635957	-1283.451833	1151.803711	-28.512308
29683.635957	-1283.451833	1150.672852	-58.474243
29683.635957	-1283.451833	1149.541992	-63.644585
29683.635957	-1283.451833	1148.411133	41.973606
29683.635957	-1283.451833	1147.279297	-15.519243
29683.635957	-1283.451833	1146.147461	11.762966
29683.635957	-1283.451833	1145.015625	42.989548
29683.635957	-1283.451833	1143.883789	18.773176
29683.635957	-1283.451833	1142.750977	65.619965
29683.635957	-1283.451833	1141.619141	80.093506
29683.635957	-1283.451833	1140.486328	129.936600
29683.635957	-1283.451833	1139.352539	58.330688
29683.635957	-1283.451833	1138.219727	103.459656
29683.635957	-1283.451833	1137.085938	8.930406
29683.635957	-1283.451833	1135.952148	100.221077
29683.635957	-1283.451833	1134.818359	130.027863
29683.635957	-1283.451833	1133.683594	146.227325
29683.635957	-1283.451833	1132.549805	182.864899
29683.635957	-1283.451833	1131.415039	120.687439
29683.635957	-1283.451833	1130.279297	321.976501
29683.635957	-1283.451833	1129.144531	281.718140
29683.635957	-1283.451833	1128.008789	244.139038
29683.635957	-1283.451833	1126.873047	239.371338
29683.635957	-1283.451833	1125.737305	132.526794
29683.635957	-1283.451833	1124.601563	161.268433
29683.635957	-1283.451833	1123.464844	135.372543
29683.635957	-1283.451833	1122.328125	107.888382
29683.635957	-1283.451833	1121.191406	80.335426
29683.635957	-1283.451833	1120.054688	-10.971916
29683.635957	-1283.451833	1118.916992	132.884644
29683.635957	-1283.451833	1117.779297	150.232788
29683.635957	-1283.451833	1116.641602	89.481186
29683.635957	-1283.451833	1115.503906	117.762131
29683.635957	-1283.451833	1114.365234	42.761383
29683.635957	-1283.451833	1113.226563	103.981071
29683.635957	-1283.451833	1112.087891	29.051056
29683.635957	-1283.451833	1110.949219	49.990368
29683.635957	-1283.451833	1109.809570	40.576977
29683.635957	-1283.451833	1108.669922	17.496706
29683.635957	-1283.451833	1107.530273	21.218792
29683.635957	-1283.451833	1106.390625	86.077698
29683.635957	-1283.451833	1105.250000	36.302006
29683.635957	-1283.451833	1104.109375	178.020020
29683.635957	-1283.451833	1102.968750	168.010086
29683.635957	-1283.451833	1101.828125	156.708725
29683.635957	-1283.451833	1100.686523	247.591003
29683.635957	-1283.451833	1099.544922	220.506546
29683.635957	-1283.451833	1098.403320	271.933899
29683.635957	-1283.451833	1097.261719	205.838409
29683.635957	-1283.451833	1096.120117	164.435913
29683.635957	-1283.451833	1094.977539	132.115448
29683.635957	-1283.451833	1093.834961	103.637901
29683.635957	-1283.451833	1092.691406	115.256035
29683.635957	-1283.451833	1091.548828	-20.986269
29683.635957	-1283.451833	1090.405273	123.525337
29683.635957	-1283.451833	1089.261719	-18.793360
29683.635957	-1283.451833	1088.118164	-17.094172
29683.635957	-1283.451833	1086.973633	30.473696
29683.635957	-1283.451833	1085.829102	-1.287660
29683.635957	-1283.451833	1084.684570	-11.482185
29683.635957	-1283.451833	1083.540039	91.226608
29683.635957	-1283.451833	1082.395508	81.153717
29683.635957	-1283.451833	1081.250000	114.537537
29683.635957	-1283.451833	1080.104492	76.819443
29683.635957	-1283.451833	1078.958984	113.599136
29683.635957	-1283.451833	1077.812500	126.013359
29683.635957	-1283.451833	1076.666016	261.985046
29683.635957	-1283.451833	1075.519531	75.557213
29683.635957	-1283.451833	1074.373047	130.472168
29683.635957	-1283.451833	1073.226563	199.632324
29683.635957	-1283.451833	1072.079102	231.457047
29683.635957	-1283.451833	1070.931641	214.336685
29683.635957	-1283.451833	1069.784180	96.571609
29683.635957	-1283.451833	1068.635742	109.712975
29683.635957	-1283.451833	1067.487305	138.255676
29683.635957	-1283.451833	1066.338867	77.071411
29683.635957	-1283.451833	1065.190430	105.376099
29683.635957	-1283.451833	1064.041992	112.099533
29683.635957	-1283.451833	1062.892578	186.287857
29683.635957	-1283.451833	1061.743164	100.022560
29683.635957	-1283.451833	1060.593750	139.482452
29683.635957	-1283.451833	1059.443359	172.533936
29683.635957	-1283.451833	1058.292969	147.636002
29683.635957	-1283.451833	1057.142578	140.862991
29683.635957	-1283.451833	1055.992188	190.608078
29683.635957	-1283.451833	1054.841797	139.921692
29683.635957	-1283.451833	1053.690430	56.699448
29683.635957	-1283.451833	1052.539063	50.418015
29683.635957	-1283.451833	1051.387695	128.907608
29683.635957	-1283.451833	1050.235352	78.126755
29683.635957	-1283.451833	1049.083984	136.155365
29683.635957	-1283.451833	1047.931641	43.451862
29683.635957	-1283.451833	1046.778320	70.930374
29683.635957	-1283.451833	1045.625977	118.617714
29683.635957	-1283.451833	1044.472656	-38.043434
29683.635957	-1283.451833	1043.319336	178.433563
29683.635957	-1283.451833	1042.166016	76.947281
29683.635957	-1283.451833	1041.012695	122.702965
29683.635957	-1283.451833	1039.858398	97.310829
29683.635957	-1283.451833	1038.704102	105.454369
29683.635957	-1283.451833	1037.549805	163.626434
29683.635957	-1283.451833	1036.394531	178.998215
29683.635957	-1283.451833	1035.239258	89.852402
29683.635957	-1283.451833	1034.083984	166.987503
29683.635957	-1283.451833	1032.928711	58.447628
29683.635957	-1283.451833	1031.773438	154.605011
29683.635957	-1283.451833	1030.617188	52.249897
29683.635957	-1283.451833	1029.460938	91.648979
29683.635957	-1283.451833	1028.304688	37.280457
29683.635957	-1283.451833	1027.147461	115.739204
29683.635957	-1283.451833	1025.991211	38.943874
29683.635957	-1283.451833	1024.833984	141.815491
29683.635957	-1283.451833	1023.675781	97.055321
29683.635957	-1283.451833	1022.518555	60.003052
29683.635957	-1283.451833	1021.360352	-9.889166
29683.635957	-1283.451833	1020.202148	2.572284
29683.635957	-1283.451833	1019.043945	-8.967887
29683.635957	-1283.451833	1017.884766	-32.578514
29683.635957	-1283.451833	1016.726563	-6.060361
29683.635957	-1283.451833	1015.567383	7.191379
29683.635957	-1283.451833	1014.407227	-79.756271
29683.635957	-1283.451833	1013.248047	-58.716164
29683.635957	-1283.451833	1012.087891	62.221573
29683.635957	-1283.451833	1010.927734	-29.455345
29683.635957	-1283.451833	1009.767578	55.421246
29683.635957	-1283.451833	1008.606445	-66.777199
29683.635957	-1283.451833	1007.446289	-123.895096
29683.635957	-1283.451833	1006.285156	-0.312773
29683.635957	-1283.451833	1005.123047	-40.949032
29683.635957	-1283.451833	1003.961914	-28.543705
29683.635957	-1283.451833	1002.799805	33.268391
29683.635957	-1283.451833	1001.637695	-53.229961
29683.635957	-1283.451833	1000.475586	81.610847
29683.635957	-1283.451833	999.312500	-11.254846
29683.635957	-1283.451833	998.149414	28.127674
29683.635957	-1283.451833	996.986328	36.084282
29683.635957	-1283.451833	995.823242	54.662048
29683.635957	-1283.451833	994.659180	23.400223
29683.635957	-1283.451833	993.496094	-8.457340
29683.635957	-1283.451833	992.332031	25.008955
29683.635957	-1283.451833	991.166992	42.417427
29683.635957	-1283.451833	990.002930	44.292290
29683.635957	-1283.451833	988.837891	0.854811
29683.635957	-1283.451833	987.672852	95.573990
29683.635957	-1283.451833	986.506836	59.112522
29683.635957	-1283.451833	985.341797	43.441010
29683.635957	-1283.451833	984.175781	54.493023
29683.635957	-1283.451833	983.009766	33.203922
29683.635957	-1283.451833	981.843750	46.378105
29683.635957	-1283.451833	980.676758	29.992641
29683.635957	-1283.451833	979.509766	-61.689915
29683.635957	-1283.451833	978.342773	76.382393
29683.635957	-1283.451833	977.175781	11.696089
29683.635957	-1283.451833	976.007813	-3.932454
29683.635957	-1283.451833	974.839844	-58.378326
29683.635957	-1283.451833	973.671875	-75.507545
29683.635957	-1283.451833	972.503906	-16.601168
29683.635957	-1283.451833	971.334961	-64.932709
29683.635957	-1283.451833	970.166016	8.148177
29683.635957	-1283.451833	968.997070	18.900469
29683.635957	-1283.451833	967.828125	13.415180
29683.635957	-1283.451833	966.658203	-94.119827
29683.635957	-1283.451833	965.488281	82.034210
29683.635957	-1283.451833	964.318359	-38.598103
29683.635957	-1283.451833	963.148438	-63.720676
29683.635957	-1283.451833	961.977539	-72.117867
29683.635957	-1283.451833	960.806641	7.672279
29683.635957	-1283.451833	959.635742	54.557175
29683.635957	-1283.451833	958.463867	59.263660
29683.635957	-1283.451833	957.292969	38.408905
29683.635957	-1283.451833	956.121094	24.048452
29683.635957	-1283.451833	954.948242	7.402668
29683.635957	-1283.451833	953.776367	-94.412689
29683.635957	-1283.451833	952.603516	-12.974470
29683.635957	-1283.451833	951.430664	76.144691
29683.635957	-1283.451833	950.257813	27.106096
29683.635957	-1283.451833	949.084961	31.798107
29683.635957	-1283.451833	947.911133	45.067101
29683.635957	-1283.451833	946.737305	73.282845
29683.635957	-1283.451833	945.563477	-26.911905
29683.635957	-1283.451833	944.388672	48.120209
29683.635957	-1283.451833	943.213867	148.680618
29683.635957	-1283.451833	942.039063	80.680618
29683.635957	-1283.451833	940.864258	-23.600811
29683.635957	-1283.451833	939.688477	-10.480935
29683.635957	-1283.451833	938.513672	6.800733
29683.635957	-1283.451833	937.337891	13.452760
29683.635957	-1283.451833	936.161133	124.659851
29683.635957	-1283.451833	934.985352	80.118080
29683.635957	-1283.451833	933.808594	186.935867
29683.635957	-1283.451833	932.631836	-55.962265
29683.635957	-1283.451833	931.454102	210.807053
29683.635957	-1283.451833	930.277344	281.433105
29683.635957	-1283.451833	929.099609	130.173645
29683.635957	-1283.451833	927.921875	149.539673
29683.635957	-1283.451833	926.743164	45.249470
29683.635957	-1283.451833	925.565430	-27.042315
29683.635957	-1283.451833	924.386719	83.938637
29683.635957	-1283.451833	923.208008	60.654984
29683.635957	-1283.451833	922.028320	3.288836
29683.635957	-1283.451833	920.849609	14.089141
29683.635957	-1283.451833	919.669922	15.087474
29683.635957	-1283.451833	919.474609	159.188705
29683.635957	-1283.451833	918.309570	189.087784
29683.635957	-1283.451833	917.143555	97.649643
29683.635957	-1283.451833	915.977539	-87.388130
29683.635957	-1283.451833	914.810547	-31.944056
29683.635957	-1283.451833	913.644531	-125.427109
29683.635957	-1283.451833	912.477539	2.296996
29683.635957	-1283.451833	911.310547	38.534927
29683.635957	-1283.451833	910.143555	-35.790115
29683.635957	-1283.451833	908.975586	-8.071294
29683.635957	-1283.451833	907.807617	-52.617893
29683.635957	-1283.451833	906.639648	-90.777962
29683.635957	-1283.451833	905.471680	-18.475716
29683.635957	-1283.451833	904.303711	47.420273
29683.635957	-1283.451833	903.134766	-92.666298
29683.635957	-1283.451833	901.965820	19.909893
29683.635957	-1283.451833	900.796875	-94.656494
29683.635957	-1283.451833	899.626953	-30.939108
29683.635957	-1283.451833	898.457031	20.018177
29683.635957	-1283.451833	897.287109	-75.402489
29683.635957	-1283.451833	896.117188	-24.466663
29683.635957	-1283.451833	894.947266	11.602582
29683.635957	-1283.451833	893.776367	24.335819
29683.635957	-1283.451833	892.605469	-26.520058
29683.635957	-1283.451833	891.434570	11.633152
29683.635957	-1283.451833	890.262695	9.516433
29683.635957	-1283.451833	889.091797	58.228024
29683.635957	-1283.451833	887.919922	5.271834
29683.635957	-1283.451833	886.748047	-3.207289
29683.635957	-1283.451833	885.575195	85.683487
29683.635957	-1283.451833	884.403320	32.740654
29683.635957	-1283.451833	883.230469	110.999825
29683.635957	-1283.451833	882.057617	72.873917
29683.635957	-1283.451833	880.883789	0.920275
29683.635957	-1283.451833	879.710938	-9.686645
29683.635957	-1283.451833	878.537109	-75.260155
29683.635957	-1283.451833	877.362305	24.058395
29683.635957	-1283.451833	876.188477	62.047226
29683.635957	-1283.451833	875.013672	218.335876
29683.635957	-1283.451833	873.839844	-66.937347
29683.635957	-1283.451833	872.664063	-5.732825
29683.635957	-1283.451833	871.489258	82.892281
29683.635957	-1283.451833	870.313477	15.255692
29683.635957	-1283.451833	869.138672	53.175442
29683.635957	-1283.451833	867.962891	10.887209
29683.635957	-1283.451833	866.786133	103.640976
29683.635957	-1283.451833	865.610352	-92.633156
29683.635957	-1283.451833	864.433594	-16.775963
29683.635957	-1283.451833	863.256836	33.743893
29683.635957	-1283.451833	862.079102	-19.056629
29683.635957	-1283.451833	860.902344	8.250398
29683.635957	-1283.451833	859.724609	75.579773
29683.635957	-1283.451833	858.546875	-118.364082
29683.635957	-1283.451833	857.368164	16.359360
29683.635957	-1283.451833	856.190430	-11.133487
29683.635957	-1283.451833	855.011719	-7.036262
29683.635957	-1283.451833	853.833008	-11.365731
29683.635957	-1283.451833	852.654297	26.395153
29683.635957	-1283.451833	851.474609	-64.219368
29683.635957	-1283.451833	850.294922	-81.169426
29683.635957	-1283.451833	849.115234	-79.187233
29683.635957	-1283.451833	847.935547	-115.062416
29683.635957	-1283.451833	846.754883	25.680162
29683.635957	-1283.451833	845.575195	48.645237
29683.635957	-1283.451833	844.393555	-90.225586
29683.635957	-1283.451833	843.212891	-31.534945
29683.635957	-1283.451833	842.032227	-29.593603
29683.635957	-1283.451833	840.850586	77.357956
29683.635957	-1283.451833	839.668945	9.970933
29683.635957	-1283.451833	838.486328	-109.879196
29683.635957	-1283.451833	837.304688	43.185780
29683.635957	-1283.451833	836.122070	101.746445
29683.635957	-1283.451833	834.939453	21.800219
29683.635957	-1283.451833	833.756836	-70.705490
29683.635957	-1283.451833	832.573242	27.674818
29683.635957	-1283.451833	831.389648	-33.351730
29683.635957	-1283.451833	830.206055	-27.273760
29683.635957	-1283.451833	829.022461	-4.436595
29683.635957	-1283.451833	827.838867	-19.334974
29683.635957	-1283.451833	826.654297	179.469971
29683.635957	-1283.451833	825.469727	82.835037
29683.635957	-1283.451833	824.284180	23.930515
29683.635957	-1283.451833	823.099609	63.453049
29683.635957	-1283.451833	821.914063	17.123713
29683.635957	-1283.451833	820.728516	41.967762
29683.635957	-1283.451833	819.542969	-117.348671
29683.635957	-1283.451833	818.356445	16.288267
29683.635957	-1283.451833	817.169922	62.012489
29683.635957	-1283.451833	815.983398	-47.041134
29683.635957	-1283.451833	814.796875	-61.970890
29683.635957	-1283.451833	813.609375	-22.552357
29683.635957	-1283.451833	812.422852	-125.274124
29683.635957	-1283.451833	811.235352	-79.605919
29683.635957	-1283.451833	810.046875	-21.429995
29683.635957	-1283.451833	808.859375	-23.857464
29683.635957	-1283.451833	807.670898	-78.497513
29683.635957	-1283.451833	806.482422	-145.650528
29683.635957	-1283.451833	805.293945	-41.621593
29683.635957	-1283.451833	804.104492	68.616600
29683.635957	-1283.451833	802.915039	13.967052
29683.635957	-1283.451833	801.725586	-86.562347
29683.635957	-1283.451833	800.536133	25.674217
29683.635957	-1283.451833	799.345703	-31.046211
29683.635957	-1283.451833	798.155273	-4.362365
29683.635957	-1283.451833	796.964844	-50.651134
29683.635957	-1283.451833	795.774414	-17.742775
29683.635957	-1283.451833	794.583008	-76.530952
29683.635957	-1283.451833	793.392578	-12.406878
29683.635957	-1283.451833	792.200195	51.680969
29683.635957	-1283.451833	791.008789	19.950466
29683.635957	-1283.451833	789.816406	-9.696133
29683.635957	-1283.451833	788.625000	-91.375076
29683.635957	-1283.451833	787.432617	-50.259586
29683.635957	-1283.451833	786.239258	-104.873322
29683.635957	-1283.451833	785.046875	85.965118
29683.635957	-1283.451833	783.853516	-53.941711
29683.635957	-1283.451833	782.660156	-62.816200
29683.635957	-1283.451833	781.465820	32.236198
29683.635957	-1283.451833	780.272461	27.478504
29683.635957	-1283.451833	779.078125	99.590378
29683.635957	-1283.451833	777.883789	-21.542139
29683.635957	-1283.451833	776.688477	23.522085
29683.635957	-1283.451833	775.494141	-80.958977
29683.635957	-1283.451833	774.298828	-81.604103
29683.635957	-1283.451833	773.103516	-11.689062
29683.635957	-1283.451833	771.907227	118.365150
29683.635957	-1283.451833	770.711914	18.043400
29683.635957	-1283.451833	769.515625	19.394054
29683.635957	-1283.451833	768.318359	-97.487190
29683.635957	-1283.451833	767.122070	-58.819756
29683.635957	-1283.451833	765.924805	42.009357
29683.635957	-1283.451833	764.727539	97.181709
29683.635957	-1283.451833	763.530273	92.220039
29683.635957	-1283.451833	762.333008	97.602623
29683.635957	-1283.451833	761.134766	51.181797
29683.635957	-1283.451833	759.936523	-49.081764
29683.635957	-1283.451833	758.738281	-76.852112
29683.635957	-1283.451833	757.540039	-23.894356
29683.635957	-1283.451833	756.340820	57.998993
29683.635957	-1283.451833	755.141602	-33.975254
29683.635957	-1283.451833	753.942383	64.400444
29683.635957	-1283.451833	752.742188	13.794243
29683.635957	-1283.451833	751.541992	31.432524
29683.635957	-1283.451833	750.341797	-43.993530
29683.635957	-1283.451833	749.141602	118.306870
29683.635957	-1283.451833	747.941406	197.854492
29683.635957	-1283.451833	746.740234	140.979019
29683.635957	-1283.451833	745.539063	42.791691
29683.635957	-1283.451833	744.337891	89.200485
29683.635957	-1283.451833	743.135742	46.777225
29683.635957	-1283.451833	741.933594	-12.164411
29683.635957	-1283.451833	740.731445	85.766220
29683.635957	-1283.451833	739.529297	113.471481
29683.635957	-1283.451833	738.326172	85.437447
29683.635957	-1283.451833	737.124023	108.963249
29683.635957	-1283.451833	735.919922	-7.782278
29683.635957	-1283.451833	734.716797	162.104843
29683.635957	-1283.451833	733.513672	22.676815
29683.635957	-1283.451833	732.309570	29.618624
29683.635957	-1283.451833	731.105469	-41.768360
29683.635957	-1283.451833	729.900391	18.702753
29683.635957	-1283.451833	728.696289	85.305473
29683.635957	-1283.451833	727.491211	1.526079
29683.635957	-1283.451833	726.286133	10.407724
29683.635957	-1283.451833	725.080078	23.378923
29683.635957	-1283.451833	723.874023	5.449670
29683.635957	-1283.451833	722.668945	90.384438
29683.635957	-1283.451833	721.461914	35.370434
29683.635957	-1283.451833	720.255859	83.192207
29683.635957	-1283.451833	719.048828	13.759120
29683.635957	-1283.451833	717.841797	-28.943880
29683.635957	-1283.451833	716.634766	-92.208740
29683.635957	-1283.451833	715.427734	19.203861
29683.635957	-1283.451833	714.219727	40.141453
29683.635957	-1283.451833	713.011719	122.668922
29683.635957	-1283.451833	711.803711	55.213326
29683.635957	-1283.451833	710.594727	-1.974285
29683.635957	-1283.451833	709.385742	94.799942
29683.635957	-1283.451833	708.176758	203.821976
29683.635957	-1283.451833	706.967773	329.186829
29683.635957	-1283.451833	705.758789	237.005203
29683.635957	-1283.451833	704.548828	150.987015
29683.635957	-1283.451833	703.338867	103.941483
29683.635957	-1283.451833	702.127930	155.300201
29683.635957	-1283.451833	700.917969	136.915314
29683.635957	-1283.451833	699.707031	141.052963
29683.635957	-1283.451833	698.496094	169.748520
29683.635957	-1283.451833	697.285156	77.538002
29683.635957	-1283.451833	696.073242	73.406601
29683.635957	-1283.451833	694.861328	163.442017
29683.635957	-1283.451833	693.649414	44.589428
29683.635957	-1283.451833	692.436523	5.583012
29683.635957	-1283.451833	691.224609	66.839256
29683.635957	-1283.451833	690.011719	21.647923
29683.635957	-1283.451833	688.798828	80.769211
29683.635957	-1283.451833	687.584961	137.789261
29683.635957	-1283.451833	686.372070	14.824485
29683.635957	-1283.451833	685.158203	20.668369
29683.635957	-1283.451833	683.943359	112.319283
29683.635957	-1283.451833	682.729492	193.685760
29683.635957	-1283.451833	681.514648	203.482574
29683.635957	-1283.451833	680.299805	274.520386
29683.635957	-1283.451833	679.084961	243.392899
29683.635957	-1283.451833	677.869141	118.328674
29683.635957	-1283.451833	676.653320	242.319153
29683.635957	-1283.451833	675.437500	153.981445
29683.635957	-1283.451833	674.221680	190.113358
29683.635957	-1283.451833	673.004883	154.799347
29683.635957	-1283.451833	671.789063	64.403015
29683.635957	-1283.451833	670.571289	80.044006
29683.635957	-1283.451833	669.354492	89.532295
29683.635957	-1283.451833	668.136719	149.940063
29683.635957	-1283.451833	666.919922	124.704384
29683.635957	-1283.451833	665.701172	150.379684
29683.635957	-1283.451833	664.483398	23.242571
29683.635957	-1283.451833	663.264648	105.888000
29683.635957	-1283.451833	662.045898	43.904449
29683.635957	-1283.451833	660.827148	71.484314
29683.635957	-1283.451833	659.608398	125.479164
29683.635957	-1283.451833	658.388672	55.295502
29683.635957	-1283.451833	657.168945	94.965286
29683.635957	-1283.451833	655.949219	108.146271
29683.635957	-1283.451833	654.728516	41.980732
29683.635957	-1283.451833	653.507813	187.252686
29683.635957	-1283.451833	652.287109	100.708763
29683.635957	-1283.451833	651.066406	46.685932
29683.635957	-1283.451833	649.844727	112.528557
29683.635957	-1283.451833	648.623047	56.429470
29683.635957	-1283.451833	647.401367	95.777412
29683.635957	-1283.451833	646.179688	208.175003
29683.635957	-1283.451833	644.957031	-8.380132
29683.635957	-1283.451833	643.734375	61.304955
29683.635957	-1283.451833	642.511719	29.469137
29683.635957	-1283.451833	641.289063	147.745819
29683.635957	-1283.451833	640.065430	-42.370842
29683.635957	-1283.451833	638.841797	167.064163
29683.635957	-1283.451833	637.618164	-55.477848
29683.635957	-1283.451833	636.393555	40.291660
29683.635957	-1283.451833	635.168945	14.392022
29683.635957	-1283.451833	633.944336	41.154446
29683.635957	-1283.451833	632.719727	25.333977
29683.635957	-1283.451833	631.494141	-6.715004
29683.635957	-1283.451833	630.269531	-48.902912
29683.635957	-1283.451833	629.042969	62.754879
29683.635957	-1283.451833	627.817383	-72.598434
29683.635957	-1283.451833	626.590820	2.532762
29683.635957	-1283.451833	625.365234	18.931625
29683.635957	-1283.451833	624.137695	63.608913
29683.635957	-1283.451833	622.911133	83.972763
29683.635957	-1283.451833	621.683594	138.669525
29683.635957	-1283.451833	620.456055	116.498207
29683.635957	-1283.451833	619.228516	15.486388
29683.635957	-1283.451833	618.000977	15.521041
29683.635957	-1283.451833	616.772461	96.334312
29683.635957	-1283.451833	615.543945	138.709671
29683.635957	-1283.451833	614.314453	104.302116
29683.635957	-1283.451833	613.085938	31.525160
29683.635957	-1283.451833	611.856445	126.285149
29683.635957	-1283.451833	610.626953	162.454544
29683.635957	-1283.451833	609.397461	61.382774
29683.635957	-1283.451833	608.166992	2.687641
29683.635957	-1283.451833	606.936523	-124.579109
29683.635957	-1283.451833	605.706055	64.750328
29683.635957	-1283.451833	604.474609	80.602325
29683.635957	-1283.451833	603.244141	84.332672
29683.635957	-1283.451833	602.012695	-77.200874
29683.635957	-1283.451833	600.780273	-75.506302
29683.635957	-1283.451833	599.548828	30.905119
29683.635957	-1283.451833	598.316406	-33.925831
29683.635957	-1283.451833	597.083984	22.049383
29683.635957	-1283.451833	595.851563	73.952240
29683.635957	-1283.451833	594.618164	-45.253860
29683.635957	-1283.451833	593.384766	-114.129211
29683.635957	-1283.451833	592.151367	86.562935
29683.635957	-1283.451833	590.917969	-2.465584
29683.635957	-1283.451833	589.683594	-9.037051
29683.635957	-1283.451833	588.449219	-51.812737
29683.635957	-1283.451833	587.214844	-46.351280
29683.635957	-1283.451833	585.979492	27.408796
29683.635957	-1283.451833	584.745117	-39.513523
29683.635957	-1283.451833	583.509766	40.202030
29683.635957	-1283.451833	582.273438	-48.826439
29683.635957	-1283.451833	581.038086	32.829327
29683.635957	-1283.451833	579.801758	14.063271
29683.635957	-1283.451833	578.565430	-20.767159
29683.635957	-1283.451833	577.329102	-133.851913
29683.635957	-1283.451833	576.091797	7.864111
29683.635957	-1283.451833	574.854492	-10.947154
29683.635957	-1283.451833	573.617188	-21.744186
29683.635957	-1283.451833	572.378906	43.628181
29683.635957	-1283.451833	571.141602	-3.281947
29683.635957	-1283.451833	569.903320	-4.097841
29683.635957	-1283.451833	568.664063	27.127279
29683.635957	-1283.451833	567.425781	-37.817696
29683.635957	-1283.451833	566.186523	53.456619
29683.635957	-1283.451833	564.947266	-105.595970
29683.635957	-1283.451833	563.708008	27.670080
29683.635957	-1283.451833	562.467773	44.786873
29683.635957	-1283.451833	561.227539	71.891823
29683.635957	-1283.451833	559.987305	72.969368
29683.635957	-1283.451833	558.747070	22.036161
29683.635957	-1283.451833	557.505859	77.095474
29683.635957	-1283.451833	556.264648	-21.816788
29683.635957	-1283.451833	555.023438	39.210564
29683.635957	-1283.451833	553.781250	98.204231
29683.635957	-1283.451833	552.539063	49.277775
29683.635957	-1283.451833	551.296875	170.156342
29683.635957	-1283.451833	550.054688	93.266289
29683.635957	-1283.451833	548.811523	84.289093
29683.635957	-1283.451833	547.569336	151.171539
29683.635957	-1283.451833	546.325195	166.125916
29683.635957	-1283.451833	545.082031	133.185196
29683.635957	-1283.451833	543.837891	98.258659
29683.635957	-1283.451833	542.593750	69.329002
29683.635957	-1283.451833	541.349609	114.193169
29683.635957	-1283.451833	540.105469	121.158340
29683.635957	-1283.451833	538.860352	-47.288342
29683.635957	-1283.451833	537.615234	-76.164665
29683.635957	-1283.451833	536.369141	130.072174
29683.635957	-1283.451833	535.124023	75.278580
29683.635957	-1283.451833	533.877930	-106.951073
29683.635957	-1283.451833	532.631836	73.282867
29683.635957	-1283.451833	531.384766	-94.929924
29683.635957	-1283.451833	530.138672	-6.319986
29683.635957	-1283.451833	528.891602	-148.566879
29683.635957	-1283.451833	527.643555	-207.195984
29683.635957	-1283.451833	526.396484	-108.661995
29683.635957	-1283.451833	525.148438	-34.029732
29683.635957	-1283.451833	523.900391	-58.829292
29683.635957	-1283.451833	522.652344	-35.906410
29683.635957	-1283.451833	521.403320	0.921855
29683.635957	-1283.451833	520.154297	7.939793
29683.635957	-1283.451833	518.905273	-8.874130
29683.635957	-1283.451833	517.656250	4.118208
29683.635957	-1283.451833	516.406250	-52.383667
29683.635957	-1283.451833	515.156250	-96.941238
29683.635957	-1283.451833	513.906250	110.589432
29683.635957	-1283.451833	512.655273	2.536768
29683.635957	-1283.451833	511.404297	-79.668587
29683.635957	-1283.451833	510.153320	4.780832
29683.635957	-1283.451833	508.902344	-55.553600
29683.635957	-1283.451833	507.650391	-6.811749
29683.635957	-1283.451833	506.398438	139.046783
29683.635957	-1283.451833	505.146484	27.230782
29683.635957	-1283.451833	503.893555	-82.546127
29683.635957	-1283.451833	502.641602	-202.164047
29683.635957	-1283.451833	501.388672	-46.438187
29683.635957	-1283.451833	500.134766	-51.150528
29683.635957	-1283.451833	498.881836	-30.109537
29683.635957	-1283.451833	497.627930	-20.941935
29683.635957	-1283.451833	496.374023	-142.360992
29683.635957	-1283.451833	495.119141	-55.993477
29683.635957	-1283.451833	493.865234	-110.076752
29683.635957	-1283.451833	492.610352	-55.364002
29683.635957	-1283.451833	491.355469	-18.454391
29683.635957	-1283.451833	490.099609	8.567743
29683.635957	-1283.451833	488.843750	-134.359253
29683.635957	-1283.451833	487.587891	76.451103
29683.635957	-1283.451833	486.332031	-113.808899
29683.635957	-1283.451833	485.075195	-31.438015
29683.635957	-1283.451833	483.818359	21.294411
29683.635957	-1283.451833	482.561523	6.899919
29683.635957	-1283.451833	481.304688	112.916870
29683.635957	-1283.451833	480.046875	53.148956
29683.635957	-1283.451833	478.789063	-14.471208
29683.635957	-1283.451833	477.531250	63.905178
29683.635957	-1283.451833	476.272461	-106.205872
29683.635957	-1283.451833	475.013672	-37.679516
29683.635957	-1283.451833	473.754883	70.250893
29683.635957	-1283.451833	472.496094	57.935955
29683.635957	-1283.451833	471.236328	67.306587
29683.635957	-1283.451833	469.976563	53.045536
29683.635957	-1283.451833	468.716797	36.830883
29683.635957	-1283.451833	467.456055	-18.749807
29683.635957	-1283.451833	466.196289	106.808929
29683.635957	-1283.451833	464.935547	104.391273
29683.635957	-1283.451833	463.673828	101.978859
29683.635957	-1283.451833	462.413086	-10.591012
29683.635957	-1283.451833	461.151367	24.402149
29683.635957	-1283.451833	459.889648	-3.540545
29683.635957	-1283.451833	458.626953	70.759933
29683.635957	-1283.451833	457.364258	48.717655
29683.635957	-1283.451833	456.101563	24.720142
29683.635957	-1283.451833	454.838867	106.826729
29683.635957	-1283.451833	453.575195	-5.571386
29683.635957	-1283.451833	452.312500	49.007107
29683.635957	-1283.451833	451.047852	34.831444
29683.635957	-1283.451833	449.784180	199.292603
29683.635957	-1283.451833	448.519531	124.236946
29683.635957	-1283.451833	447.254883	-39.093369
29683.635957	-1283.451833	445.990234	42.853203
29683.635957	-1283.451833	444.725586	5.111532
29683.635957	-1283.451833	443.459961	28.156672
29683.635957	-1283.451833	442.194336	45.293987
29683.635957	-1283.451833	440.927734	66.322578
29683.635957	-1283.451833	439.662109	24.616228
29683.635957	-1283.451833	438.395508	-19.056612
29683.635957	-1283.451833	437.127930	68.499039
29683.635957	-1283.451833	435.861328	16.949781
29683.635957	-1283.451833	434.593750	51.538795
29683.635957	-1283.451833	433.326172	125.230133
29683.635957	-1283.451833	432.058594	-6.637973
29683.635957	-1283.451833	430.790039	66.959259
29683.635957	-1283.451833	429.521484	154.177063
29683.635957	-1283.451833	428.252930	161.125854
29683.635957	-1283.451833	426.984375	48.747478
29683.635957	-1283.451833	425.714844	147.500259
29683.635957	-1283.451833	424.445313	103.476654
29683.635957	-1283.451833	423.174805	221.603943
29683.635957	-1283.451833	421.905273	159.884735
29683.635957	-1283.451833	420.634766	199.695160
29683.635957	-1283.451833	419.364258	102.723579
29683.635957	-1283.451833	418.092773	83.816055
29683.635957	-1283.451833	416.822266	60.941917
29683.635957	-1283.451833	415.550781	96.542831
29683.635957	-1283.451833	414.278320	159.358170
29683.635957	-1283.451833	413.006836	38.694637
29683.635957	-1283.451833	411.734375	42.807610
29683.635957	-1283.451833	410.461914	35.123741
29683.635957	-1283.451833	409.188477	27.338324
29683.635957	-1283.451833	407.916016	111.059387
29683.635957	-1283.451833	406.642578	-52.843594
29683.635957	-1283.451833	405.368164	91.018127
29683.635957	-1283.451833	404.094727	-2.926538
29683.635957	-1283.451833	402.820313	126.982910
29683.635957	-1283.451833	401.545898	21.127281
29683.635957	-1283.451833	400.270508	12.500014
29683.635957	-1283.451833	398.996094	27.090248
29683.635957	-1283.451833	397.720703	121.291451
29683.635957	-1283.451833	396.444336	51.892578
29683.635957	-1283.451833	395.168945	-4.020350
29683.635957	-1283.451833	393.892578	-9.528706
29683.635957	-1283.451833	392.616211	58.660038
29683.635957	-1283.451833	391.339844	43.064499
29683.635957	-1283.451833	390.062500	81.688004
29683.635957	-1283.451833	388.785156	104.556328
29683.635957	-1283.451833	387.507813	43.692924
29683.635957	-1283.451833	386.229492	13.707526
29683.635957	-1283.451833	384.951172	61.171680
29683.635957	-1283.451833	383.672852	17.160524
29683.635957	-1283.451833	382.394531	-13.483917
29683.635957	-1283.451833	381.115234	101.145912
29683.635957	-1283.451833	379.835938	137.882675
29683.635957	-1283.451833	378.556641	17.256767
29683.635957	-1283.451833	377.277344	22.439955
29683.635957	-1283.451833	375.997070	81.610619
29683.635957	-1283.451833	374.716797	150.154556
29683.635957	-1283.451833	373.435547	59.476307
29683.635957	-1283.451833	372.155273	36.336864
29683.635957	-1283.451833	370.874023	49.678158
29683.635957	-1283.451833	369.591797	8.456025
29683.635957	-1283.451833	368.310547	-118.262611
29683.635957	-1283.451833	367.028320	54.717342
29683.635957	-1283.451833	365.746094	-14.628486
29683.635957	-1283.451833	364.463867	-30.148691
29683.635957	-1283.451833	363.180664	15.837025
29683.635957	-1283.451833	361.897461	-31.420767
29683.635957	-1283.451833	360.614258	-46.201115
29683.635957	-1283.451833	359.330078	66.167221
29683.635957	-1283.451833	358.045898	29.242039
29683.635957	-1283.451833	356.761719	98.150688
29683.635957	-1283.451833	355.477539	54.525650
29683.635957	-1283.451833	354.192383	-24.332985
29683.635957	-1283.451833	352.907227	0.619097
29683.635957	-1283.451833	351.622070	-88.842949
29683.635957	-1283.451833	350.336914	-16.662525
29683.635957	-1283.451833	349.050781	-53.120373
29683.635957	-1283.451833	347.764648	8.275849
29683.635957	-1283.451833	346.477539	-31.231672
29683.635957	-1283.451833	345.191406	57.910568
29683.635957	-1283.451833	343.904297	-34.825382
29683.635957	-1283.451833	342.616211	20.267151
29683.635957	-1283.451833	341.329102	-92.937775
29683.635957	-1283.451833	340.041016	163.162903
29683.635957	-1283.451833	338.752930	60.201397
29683.635957	-1283.451833	337.463867	-60.750797
29683.635957	-1283.451833	336.175781	-216.992355
29683.635957	-1283.451833	334.886719	-25.481815
29683.635957	-1283.451833	333.596680	-27.273493
29683.635957	-1283.451833	332.307617	-110.619492
29683.635957	-1283.451833	331.017578	-92.772316
29683.635957	-1283.451833	329.727539	-79.580093
29683.635957	-1283.451833	328.436523	-82.620529
29683.635957	-1283.451833	327.146484	-107.627380
29683.635957	-1283.451833	325.855469	-77.769707
29683.635957	-1283.451833	324.563477	-27.697620
29683.635957	-1283.451833	323.272461	34.916359
29683.635957	-1283.451833	321.980469	102.309120
29683.635957	-1283.451833	320.688477	-61.726784
29683.635957	-1283.451833	319.395508	55.537258
29683.635957	-1283.451833	318.103516	73.877960
29683.635957	-1283.451833	316.810547	81.561363
29683.635957	-1283.451833	315.516602	-25.043539
29683.635957	-1283.451833	314.223633	-94.285210
29683.635957	-1283.451833	312.929688	-30.379745
29683.635957	-1283.451833	311.635742	61.129074
29683.635957	-1283.451833	310.340820	70.893135
29683.635957	-1283.451833	309.045898	41.135429
29683.635957	-1283.451833	307.750977	-74.134941
29683.635957	-1283.451833	306.456055	-48.829769
29683.635957	-1283.451833	305.160156	59.433533
29683.635957	-1283.451833	303.865234	-138.087723
29683.635957	-1283.451833	302.568359	23.000553
29683.635957	-1283.451833	301.272461	83.162193
29683.635957	-1283.451833	299.975586	72.973312
29683.635957	-1283.451833	298.678711	248.863831
