#X		#Y		#Wave		#Intensity
29472.030957	-1348.792333	1999.980469	-218.042999
29472.030957	-1348.792333	1999.016602	-138.554031
29472.030957	-1348.792333	1998.052734	-99.570518
29472.030957	-1348.792333	1997.087891	-103.653534
29472.030957	-1348.792333	1996.123047	47.445793
29472.030957	-1348.792333	1995.158203	34.104851
29472.030957	-1348.792333	1994.193359	121.453499
29472.030957	-1348.792333	1993.228516	-161.035110
29472.030957	-1348.792333	1992.262695	-87.704964
29472.030957	-1348.792333	1991.297852	93.715782
29472.030957	-1348.792333	1990.332031	214.910522
29472.030957	-1348.792333	1989.366211	90.345146
29472.030957	-1348.792333	1988.399414	-64.580040
29472.030957	-1348.792333	1987.433594	19.778477
29472.030957	-1348.792333	1986.466797	78.699997
29472.030957	-1348.792333	1985.500977	-36.145603
29472.030957	-1348.792333	1984.534180	-52.697411
29472.030957	-1348.792333	1983.567383	-168.727844
29472.030957	-1348.792333	1982.599609	40.892483
29472.030957	-1348.792333	1981.632813	76.899445
29472.030957	-1348.792333	1980.665039	137.038895
29472.030957	-1348.792333	1979.697266	48.423183
29472.030957	-1348.792333	1978.729492	295.158051
29472.030957	-1348.792333	1977.761719	77.134979
29472.030957	-1348.792333	1976.792969	70.995483
29472.030957	-1348.792333	1975.825195	69.327293
29472.030957	-1348.792333	1974.856445	-48.769867
29472.030957	-1348.792333	1973.887695	-46.369240
29472.030957	-1348.792333	1972.918945	138.143478
29472.030957	-1348.792333	1971.949219	55.831673
29472.030957	-1348.792333	1970.980469	219.741730
29472.030957	-1348.792333	1970.010742	-151.752319
29472.030957	-1348.792333	1969.041016	26.190807
29472.030957	-1348.792333	1968.071289	122.402451
29472.030957	-1348.792333	1967.101563	119.693123
29472.030957	-1348.792333	1966.130859	205.350632
29472.030957	-1348.792333	1965.161133	162.606232
29472.030957	-1348.792333	1964.190430	102.347466
29472.030957	-1348.792333	1963.219727	-123.122345
29472.030957	-1348.792333	1962.249023	0.782069
29472.030957	-1348.792333	1961.277344	-148.804749
29472.030957	-1348.792333	1960.306641	-32.807629
29472.030957	-1348.792333	1959.334961	46.010414
29472.030957	-1348.792333	1958.363281	50.794273
29472.030957	-1348.792333	1957.391602	303.767395
29472.030957	-1348.792333	1956.419922	-124.651733
29472.030957	-1348.792333	1955.447266	-68.790550
29472.030957	-1348.792333	1954.474609	6.545370
29472.030957	-1348.792333	1953.501953	160.335175
29472.030957	-1348.792333	1952.529297	-42.352394
29472.030957	-1348.792333	1951.556641	32.491531
29472.030957	-1348.792333	1950.583984	151.390213
29472.030957	-1348.792333	1949.610352	221.001099
29472.030957	-1348.792333	1948.636719	3.215158
29472.030957	-1348.792333	1947.663086	104.527557
29472.030957	-1348.792333	1946.689453	286.701721
29472.030957	-1348.792333	1945.715820	54.021366
29472.030957	-1348.792333	1944.741211	159.908829
29472.030957	-1348.792333	1943.767578	165.127228
29472.030957	-1348.792333	1942.792969	37.837883
29472.030957	-1348.792333	1941.818359	165.551804
29472.030957	-1348.792333	1940.842773	-5.929911
29472.030957	-1348.792333	1939.868164	-76.883720
29472.030957	-1348.792333	1938.892578	16.338682
29472.030957	-1348.792333	1937.916992	6.590366
29472.030957	-1348.792333	1936.941406	141.358994
29472.030957	-1348.792333	1935.965820	40.930801
29472.030957	-1348.792333	1934.990234	111.947319
29472.030957	-1348.792333	1934.013672	-22.739292
29472.030957	-1348.792333	1933.037109	-32.530830
29472.030957	-1348.792333	1932.060547	290.541718
29472.030957	-1348.792333	1931.083984	241.560440
29472.030957	-1348.792333	1930.107422	131.449997
29472.030957	-1348.792333	1929.129883	-61.775265
29472.030957	-1348.792333	1928.153320	-83.700874
29472.030957	-1348.792333	1927.175781	-78.700508
29472.030957	-1348.792333	1926.198242	119.463173
29472.030957	-1348.792333	1925.219727	29.157427
29472.030957	-1348.792333	1924.242188	197.979294
29472.030957	-1348.792333	1923.263672	41.805653
29472.030957	-1348.792333	1922.285156	68.955986
29472.030957	-1348.792333	1921.306641	-16.206266
29472.030957	-1348.792333	1920.328125	196.639175
29472.030957	-1348.792333	1919.349609	62.762630
29472.030957	-1348.792333	1918.370117	195.063721
29472.030957	-1348.792333	1917.391602	105.289879
29472.030957	-1348.792333	1916.412109	83.927956
29472.030957	-1348.792333	1915.431641	-0.802962
29472.030957	-1348.792333	1914.452148	180.455032
29472.030957	-1348.792333	1913.472656	-13.862006
29472.030957	-1348.792333	1912.492188	-176.345184
29472.030957	-1348.792333	1911.511719	-160.729202
29472.030957	-1348.792333	1910.531250	-149.918976
29472.030957	-1348.792333	1909.550781	-258.450409
29472.030957	-1348.792333	1908.569336	-120.784004
29472.030957	-1348.792333	1907.588867	9.608884
29472.030957	-1348.792333	1906.607422	312.951477
29472.030957	-1348.792333	1905.625977	-53.410187
29472.030957	-1348.792333	1904.644531	-222.343750
29472.030957	-1348.792333	1903.662109	-57.649807
29472.030957	-1348.792333	1902.680664	21.888281
29472.030957	-1348.792333	1901.698242	-12.897677
29472.030957	-1348.792333	1900.715820	-15.962489
29472.030957	-1348.792333	1899.733398	58.892982
29472.030957	-1348.792333	1898.750000	248.095490
29472.030957	-1348.792333	1897.767578	-61.146580
29472.030957	-1348.792333	1896.784180	-90.628113
29472.030957	-1348.792333	1895.800781	-32.516823
29472.030957	-1348.792333	1894.817383	-78.845558
29472.030957	-1348.792333	1893.833984	-176.101395
29472.030957	-1348.792333	1892.850586	-183.362320
29472.030957	-1348.792333	1891.866211	-137.117752
29472.030957	-1348.792333	1890.881836	-56.817600
29472.030957	-1348.792333	1889.897461	98.791901
29472.030957	-1348.792333	1888.913086	-114.553162
29472.030957	-1348.792333	1887.927734	-170.000519
29472.030957	-1348.792333	1886.943359	-9.388577
29472.030957	-1348.792333	1885.958008	102.705246
29472.030957	-1348.792333	1884.972656	110.522438
29472.030957	-1348.792333	1883.987305	1.994945
29472.030957	-1348.792333	1883.001953	131.195236
29472.030957	-1348.792333	1882.015625	-13.538155
29472.030957	-1348.792333	1881.029297	35.747574
29472.030957	-1348.792333	1880.042969	-179.071625
29472.030957	-1348.792333	1879.056641	-124.811256
29472.030957	-1348.792333	1878.070313	-60.826962
29472.030957	-1348.792333	1877.083984	-84.005692
29472.030957	-1348.792333	1876.096680	-78.073471
29472.030957	-1348.792333	1875.109375	-33.356583
29472.030957	-1348.792333	1874.122070	52.539066
29472.030957	-1348.792333	1873.134766	46.479198
29472.030957	-1348.792333	1872.146484	-15.195868
29472.030957	-1348.792333	1871.159180	-171.154755
29472.030957	-1348.792333	1870.170898	-322.188049
29472.030957	-1348.792333	1869.182617	-66.848274
29472.030957	-1348.792333	1868.194336	4.666547
29472.030957	-1348.792333	1867.205078	78.594078
29472.030957	-1348.792333	1866.216797	-130.264221
29472.030957	-1348.792333	1865.227539	35.536488
29472.030957	-1348.792333	1864.238281	56.329018
29472.030957	-1348.792333	1863.249023	-130.615189
29472.030957	-1348.792333	1862.259766	-107.354813
29472.030957	-1348.792333	1861.269531	-185.517563
29472.030957	-1348.792333	1860.279297	-10.143946
29472.030957	-1348.792333	1859.290039	-105.175919
29472.030957	-1348.792333	1858.298828	48.395134
29472.030957	-1348.792333	1857.308594	-12.837368
29472.030957	-1348.792333	1856.318359	17.620760
29472.030957	-1348.792333	1855.327148	-178.675797
29472.030957	-1348.792333	1854.335938	-22.824423
29472.030957	-1348.792333	1853.344727	113.664711
29472.030957	-1348.792333	1852.353516	78.927902
29472.030957	-1348.792333	1851.362305	282.790894
29472.030957	-1348.792333	1850.370117	-67.694832
29472.030957	-1348.792333	1849.377930	-51.865948
29472.030957	-1348.792333	1848.385742	-2.351906
29472.030957	-1348.792333	1847.393555	-17.918869
29472.030957	-1348.792333	1846.401367	57.981434
29472.030957	-1348.792333	1845.408203	-34.718876
29472.030957	-1348.792333	1844.415039	118.085892
29472.030957	-1348.792333	1843.421875	143.233994
29472.030957	-1348.792333	1842.428711	192.380081
29472.030957	-1348.792333	1841.435547	306.403412
29472.030957	-1348.792333	1840.441406	-60.727139
29472.030957	-1348.792333	1839.448242	207.079910
29472.030957	-1348.792333	1838.454102	-10.958785
29472.030957	-1348.792333	1837.459961	114.763718
29472.030957	-1348.792333	1836.464844	120.186714
29472.030957	-1348.792333	1835.470703	240.876755
29472.030957	-1348.792333	1834.475586	-32.577980
29472.030957	-1348.792333	1833.480469	241.649399
29472.030957	-1348.792333	1832.485352	191.468369
29472.030957	-1348.792333	1831.490234	42.764957
29472.030957	-1348.792333	1830.495117	35.660530
29472.030957	-1348.792333	1829.499023	237.271500
29472.030957	-1348.792333	1828.502930	167.524811
29472.030957	-1348.792333	1827.506836	61.705906
29472.030957	-1348.792333	1826.510742	114.140274
29472.030957	-1348.792333	1825.513672	223.993713
29472.030957	-1348.792333	1824.517578	115.477425
29472.030957	-1348.792333	1823.520508	62.014397
29472.030957	-1348.792333	1822.523438	-8.335936
29472.030957	-1348.792333	1821.526367	263.925781
29472.030957	-1348.792333	1820.529297	109.432716
29472.030957	-1348.792333	1819.531250	151.300171
29472.030957	-1348.792333	1818.533203	-29.749798
29472.030957	-1348.792333	1817.535156	191.451187
29472.030957	-1348.792333	1816.537109	67.632011
29472.030957	-1348.792333	1815.539063	77.765762
29472.030957	-1348.792333	1814.540039	195.435837
29472.030957	-1348.792333	1813.541992	413.417023
29472.030957	-1348.792333	1812.542969	107.173447
29472.030957	-1348.792333	1811.543945	140.557159
29472.030957	-1348.792333	1810.543945	20.683241
29472.030957	-1348.792333	1809.544922	194.807297
29472.030957	-1348.792333	1808.544922	-28.185894
29472.030957	-1348.792333	1807.544922	95.316231
29472.030957	-1348.792333	1806.544922	-49.074413
29472.030957	-1348.792333	1805.544922	162.420135
29472.030957	-1348.792333	1804.544922	180.139374
29472.030957	-1348.792333	1803.543945	164.208054
29472.030957	-1348.792333	1802.542969	-2.360861
29472.030957	-1348.792333	1801.541992	24.324936
29472.030957	-1348.792333	1800.541016	143.894119
29472.030957	-1348.792333	1799.539063	134.318420
29472.030957	-1348.792333	1798.538086	324.989532
29472.030957	-1348.792333	1797.536133	102.622475
29472.030957	-1348.792333	1796.534180	211.682663
29472.030957	-1348.792333	1795.532227	237.008896
29472.030957	-1348.792333	1794.529297	231.092514
29472.030957	-1348.792333	1793.527344	124.836243
29472.030957	-1348.792333	1792.524414	-93.647476
29472.030957	-1348.792333	1791.521484	-245.556046
29472.030957	-1348.792333	1790.518555	121.766869
29472.030957	-1348.792333	1789.514648	193.308716
29472.030957	-1348.792333	1788.511719	47.859379
29472.030957	-1348.792333	1787.507813	202.244064
29472.030957	-1348.792333	1786.503906	289.660217
29472.030957	-1348.792333	1785.500000	248.251663
29472.030957	-1348.792333	1784.496094	163.767700
29472.030957	-1348.792333	1783.491211	214.673080
29472.030957	-1348.792333	1782.486328	184.413406
29472.030957	-1348.792333	1781.481445	-3.082209
29472.030957	-1348.792333	1780.476563	-69.488129
29472.030957	-1348.792333	1779.471680	115.894371
29472.030957	-1348.792333	1778.465820	165.420578
29472.030957	-1348.792333	1777.460938	50.676178
29472.030957	-1348.792333	1776.455078	25.982384
29472.030957	-1348.792333	1775.449219	69.919632
29472.030957	-1348.792333	1774.442383	61.283737
29472.030957	-1348.792333	1773.436523	-59.235806
29472.030957	-1348.792333	1772.429688	138.169525
29472.030957	-1348.792333	1771.422852	173.777679
29472.030957	-1348.792333	1770.416016	128.380524
29472.030957	-1348.792333	1769.409180	130.171326
29472.030957	-1348.792333	1768.402344	-1.203455
29472.030957	-1348.792333	1767.394531	213.504471
29472.030957	-1348.792333	1766.386719	228.600983
29472.030957	-1348.792333	1765.378906	226.792221
29472.030957	-1348.792333	1764.371094	27.898664
29472.030957	-1348.792333	1763.362305	134.541641
29472.030957	-1348.792333	1762.354492	86.808846
29472.030957	-1348.792333	1761.345703	150.134003
29472.030957	-1348.792333	1760.336914	56.764412
29472.030957	-1348.792333	1759.328125	188.138931
29472.030957	-1348.792333	1758.318359	75.204819
29472.030957	-1348.792333	1757.308594	-49.841362
29472.030957	-1348.792333	1756.299805	28.452091
29472.030957	-1348.792333	1755.290039	-153.977509
29472.030957	-1348.792333	1754.279297	-140.271072
29472.030957	-1348.792333	1753.269531	86.064194
29472.030957	-1348.792333	1752.258789	99.074303
29472.030957	-1348.792333	1751.249023	156.712357
29472.030957	-1348.792333	1750.238281	-1.197471
29472.030957	-1348.792333	1749.226563	84.105492
29472.030957	-1348.792333	1748.215820	29.613426
29472.030957	-1348.792333	1747.204102	-63.024033
29472.030957	-1348.792333	1746.193359	-139.393448
29472.030957	-1348.792333	1745.181641	138.257187
29472.030957	-1348.792333	1744.168945	84.779602
29472.030957	-1348.792333	1743.157227	134.916351
29472.030957	-1348.792333	1742.144531	-155.309784
29472.030957	-1348.792333	1741.132813	-6.677330
29472.030957	-1348.792333	1740.120117	273.697601
29472.030957	-1348.792333	1739.106445	117.068329
29472.030957	-1348.792333	1738.093750	-68.122894
29472.030957	-1348.792333	1737.080078	3.488506
29472.030957	-1348.792333	1736.067383	-149.275909
29472.030957	-1348.792333	1735.053711	-85.433594
29472.030957	-1348.792333	1734.040039	-264.766144
29472.030957	-1348.792333	1733.025391	-149.788864
29472.030957	-1348.792333	1732.011719	-87.011482
29472.030957	-1348.792333	1730.997070	-123.584648
29472.030957	-1348.792333	1729.982422	-160.489639
29472.030957	-1348.792333	1728.967773	-112.940498
29472.030957	-1348.792333	1727.952148	7.208229
29472.030957	-1348.792333	1726.937500	-292.054596
29472.030957	-1348.792333	1725.921875	-323.250793
29472.030957	-1348.792333	1724.906250	-237.115601
29472.030957	-1348.792333	1723.890625	-130.183151
29472.030957	-1348.792333	1722.875000	-124.792160
29472.030957	-1348.792333	1721.858398	-136.247055
29472.030957	-1348.792333	1720.841797	-131.583420
29472.030957	-1348.792333	1719.825195	65.519318
29472.030957	-1348.792333	1718.808594	109.410149
29472.030957	-1348.792333	1717.791992	-133.782593
29472.030957	-1348.792333	1716.774414	69.183136
29472.030957	-1348.792333	1715.756836	27.401505
29472.030957	-1348.792333	1714.739258	67.499031
29472.030957	-1348.792333	1713.721680	-38.363541
29472.030957	-1348.792333	1712.704102	-224.360397
29472.030957	-1348.792333	1711.685547	-260.427551
29472.030957	-1348.792333	1710.667969	-113.721474
29472.030957	-1348.792333	1709.649414	46.628056
29472.030957	-1348.792333	1708.630859	-77.307640
29472.030957	-1348.792333	1707.611328	56.448383
29472.030957	-1348.792333	1706.592773	119.491440
29472.030957	-1348.792333	1705.573242	-80.481506
29472.030957	-1348.792333	1704.553711	209.244888
29472.030957	-1348.792333	1703.534180	-237.457230
29472.030957	-1348.792333	1702.513672	-110.225487
29472.030957	-1348.792333	1701.494141	178.323898
29472.030957	-1348.792333	1700.473633	103.295189
29472.030957	-1348.792333	1699.453125	102.904533
29472.030957	-1348.792333	1698.432617	36.614151
29472.030957	-1348.792333	1697.412109	-32.324623
29472.030957	-1348.792333	1696.390625	183.958771
29472.030957	-1348.792333	1695.369141	121.332298
29472.030957	-1348.792333	1694.347656	109.877480
29472.030957	-1348.792333	1693.326172	65.345833
29472.030957	-1348.792333	1692.304688	29.859997
29472.030957	-1348.792333	1691.282227	50.142796
29472.030957	-1348.792333	1690.260742	88.839050
29472.030957	-1348.792333	1689.238281	110.791046
29472.030957	-1348.792333	1688.214844	20.187126
29472.030957	-1348.792333	1687.192383	200.396667
29472.030957	-1348.792333	1686.168945	34.410706
29472.030957	-1348.792333	1685.146484	129.824463
29472.030957	-1348.792333	1684.123047	374.301758
29472.030957	-1348.792333	1683.099609	258.798584
29472.030957	-1348.792333	1682.075195	402.105896
29472.030957	-1348.792333	1681.051758	631.448242
29472.030957	-1348.792333	1680.027344	584.993225
29472.030957	-1348.792333	1679.002930	598.909119
29472.030957	-1348.792333	1677.978516	365.254608
29472.030957	-1348.792333	1676.953125	611.772644
29472.030957	-1348.792333	1675.928711	736.688843
29472.030957	-1348.792333	1674.903320	912.500244
29472.030957	-1348.792333	1673.877930	701.028992
29472.030957	-1348.792333	1672.852539	857.544983
29472.030957	-1348.792333	1671.826172	1113.846680
29472.030957	-1348.792333	1670.800781	952.828491
29472.030957	-1348.792333	1669.774414	1301.596436
29472.030957	-1348.792333	1668.748047	1144.640015
29472.030957	-1348.792333	1667.721680	1264.508911
29472.030957	-1348.792333	1666.694336	1553.924072
29472.030957	-1348.792333	1665.667969	1391.511108
29472.030957	-1348.792333	1664.640625	1426.612183
29472.030957	-1348.792333	1663.613281	1545.175293
29472.030957	-1348.792333	1662.585938	1726.218750
29472.030957	-1348.792333	1661.557617	1727.816284
29472.030957	-1348.792333	1660.530273	1675.719238
29472.030957	-1348.792333	1659.501953	1658.196777
29472.030957	-1348.792333	1658.473633	2065.729980
29472.030957	-1348.792333	1657.444336	2235.784180
29472.030957	-1348.792333	1656.416016	2187.186523
29472.030957	-1348.792333	1655.386719	2356.642822
29472.030957	-1348.792333	1654.358398	2395.783936
29472.030957	-1348.792333	1653.328125	2460.100342
29472.030957	-1348.792333	1652.298828	2517.234619
29472.030957	-1348.792333	1651.269531	3003.479736
29472.030957	-1348.792333	1650.239258	3073.876221
29472.030957	-1348.792333	1649.208984	2819.202148
29472.030957	-1348.792333	1648.178711	3028.313721
29472.030957	-1348.792333	1647.148438	3364.669678
29472.030957	-1348.792333	1646.117188	3535.985352
29472.030957	-1348.792333	1645.086914	3350.052002
29472.030957	-1348.792333	1644.055664	3469.865479
29472.030957	-1348.792333	1643.024414	3881.404785
29472.030957	-1348.792333	1641.992188	4146.548340
29472.030957	-1348.792333	1640.960938	4221.483887
29472.030957	-1348.792333	1639.928711	4090.001221
29472.030957	-1348.792333	1638.896484	4504.836914
29472.030957	-1348.792333	1637.864258	4912.366211
29472.030957	-1348.792333	1636.832031	4770.960938
29472.030957	-1348.792333	1635.798828	4606.220215
29472.030957	-1348.792333	1634.766602	5255.851563
29472.030957	-1348.792333	1633.733398	5805.515625
29472.030957	-1348.792333	1632.699219	5843.580566
29472.030957	-1348.792333	1631.666016	5740.445801
29472.030957	-1348.792333	1630.632813	6057.952637
29472.030957	-1348.792333	1629.598633	6116.214355
29472.030957	-1348.792333	1628.564453	6259.791992
29472.030957	-1348.792333	1627.530273	6380.039551
29472.030957	-1348.792333	1626.495117	6356.790527
29472.030957	-1348.792333	1625.460938	6726.097168
29472.030957	-1348.792333	1624.425781	7342.140625
29472.030957	-1348.792333	1623.390625	7343.642090
29472.030957	-1348.792333	1622.355469	6857.924805
29472.030957	-1348.792333	1621.319336	7350.756348
29472.030957	-1348.792333	1620.284180	7836.388672
29472.030957	-1348.792333	1619.248047	7807.167480
29472.030957	-1348.792333	1618.211914	7607.132813
29472.030957	-1348.792333	1617.174805	8158.791016
29472.030957	-1348.792333	1616.138672	8730.914063
29472.030957	-1348.792333	1615.101563	8408.197266
29472.030957	-1348.792333	1614.065430	8737.801758
29472.030957	-1348.792333	1613.027344	8924.176758
29472.030957	-1348.792333	1611.990234	9115.032227
29472.030957	-1348.792333	1610.953125	9165.194336
29472.030957	-1348.792333	1609.915039	8957.239258
29472.030957	-1348.792333	1608.876953	9375.555664
29472.030957	-1348.792333	1607.838867	9671.601563
29472.030957	-1348.792333	1606.800781	10054.899414
29472.030957	-1348.792333	1605.761719	10120.336914
29472.030957	-1348.792333	1604.723633	10144.305664
29472.030957	-1348.792333	1603.684570	10658.093750
29472.030957	-1348.792333	1602.644531	10743.770508
29472.030957	-1348.792333	1601.605469	10753.516602
29472.030957	-1348.792333	1600.566406	10827.561523
29472.030957	-1348.792333	1599.526367	10866.975586
29472.030957	-1348.792333	1598.486328	11195.868164
29472.030957	-1348.792333	1597.446289	11402.804688
29472.030957	-1348.792333	1596.405273	11393.609375
29472.030957	-1348.792333	1595.365234	11042.218750
29472.030957	-1348.792333	1594.324219	11308.559570
29472.030957	-1348.792333	1593.283203	11632.147461
29472.030957	-1348.792333	1592.242188	11163.669922
29472.030957	-1348.792333	1591.200195	11388.346680
29472.030957	-1348.792333	1590.159180	11399.583008
29472.030957	-1348.792333	1589.117188	11562.133789
29472.030957	-1348.792333	1588.075195	11167.265625
29472.030957	-1348.792333	1587.032227	11056.820313
29472.030957	-1348.792333	1585.990234	11574.660156
29472.030957	-1348.792333	1584.947266	11209.720703
29472.030957	-1348.792333	1583.904297	11204.729492
29472.030957	-1348.792333	1582.861328	10672.733398
29472.030957	-1348.792333	1581.818359	10633.491211
29472.030957	-1348.792333	1580.775391	10750.018555
29472.030957	-1348.792333	1579.731445	10857.295898
29472.030957	-1348.792333	1578.687500	10524.956055
29472.030957	-1348.792333	1577.643555	10325.535156
29472.030957	-1348.792333	1576.598633	10091.829102
29472.030957	-1348.792333	1575.554688	10359.414063
29472.030957	-1348.792333	1574.509766	10135.003906
29472.030957	-1348.792333	1573.464844	9890.134766
29472.030957	-1348.792333	1572.419922	9944.981445
29472.030957	-1348.792333	1571.374023	9366.456055
29472.030957	-1348.792333	1570.329102	9572.350586
29472.030957	-1348.792333	1569.283203	9549.611328
29472.030957	-1348.792333	1568.237305	9255.015625
29472.030957	-1348.792333	1567.191406	9159.356445
29472.030957	-1348.792333	1566.144531	8782.794922
29472.030957	-1348.792333	1565.098633	8447.614258
29472.030957	-1348.792333	1564.051758	8685.682617
29472.030957	-1348.792333	1563.004883	8250.303711
29472.030957	-1348.792333	1561.957031	8372.022461
29472.030957	-1348.792333	1560.910156	8347.792969
29472.030957	-1348.792333	1559.862305	8095.459473
29472.030957	-1348.792333	1558.814453	7298.158203
29472.030957	-1348.792333	1557.766602	7155.793457
29472.030957	-1348.792333	1556.718750	7380.689453
29472.030957	-1348.792333	1555.669922	7033.348633
29472.030957	-1348.792333	1554.621094	6975.718262
29472.030957	-1348.792333	1553.573242	6576.465820
29472.030957	-1348.792333	1552.523438	7079.597168
29472.030957	-1348.792333	1551.474609	6297.985352
29472.030957	-1348.792333	1550.424805	6496.050293
29472.030957	-1348.792333	1549.375000	6568.935547
29472.030957	-1348.792333	1548.325195	6275.407227
29472.030957	-1348.792333	1547.275391	6023.103516
29472.030957	-1348.792333	1546.225586	5834.761230
29472.030957	-1348.792333	1545.174805	5835.426758
29472.030957	-1348.792333	1544.124023	5540.530273
29472.030957	-1348.792333	1543.073242	5612.065918
29472.030957	-1348.792333	1542.022461	5479.090332
29472.030957	-1348.792333	1540.970703	5600.896973
29472.030957	-1348.792333	1539.919922	5306.926270
29472.030957	-1348.792333	1538.868164	5188.175781
29472.030957	-1348.792333	1537.815430	5285.437988
29472.030957	-1348.792333	1536.763672	5048.969238
29472.030957	-1348.792333	1535.710938	5087.537598
29472.030957	-1348.792333	1534.659180	4883.364746
29472.030957	-1348.792333	1533.606445	4881.464844
29472.030957	-1348.792333	1532.552734	4645.916504
29472.030957	-1348.792333	1531.500000	4451.563965
29472.030957	-1348.792333	1530.446289	4670.383301
29472.030957	-1348.792333	1529.393555	4612.621582
29472.030957	-1348.792333	1528.338867	4731.895996
29472.030957	-1348.792333	1527.285156	4232.340332
29472.030957	-1348.792333	1526.231445	3778.545898
29472.030957	-1348.792333	1525.176758	3730.837646
29472.030957	-1348.792333	1524.122070	3837.477539
29472.030957	-1348.792333	1523.067383	3878.598145
29472.030957	-1348.792333	1522.012695	3677.544678
29472.030957	-1348.792333	1520.957031	3535.645752
29472.030957	-1348.792333	1519.901367	3482.355713
29472.030957	-1348.792333	1518.845703	3630.828369
29472.030957	-1348.792333	1517.790039	3353.944092
29472.030957	-1348.792333	1516.734375	3176.999268
29472.030957	-1348.792333	1515.677734	2819.317383
29472.030957	-1348.792333	1514.621094	2941.623291
29472.030957	-1348.792333	1513.564453	3120.687744
29472.030957	-1348.792333	1512.507813	2488.136963
29472.030957	-1348.792333	1511.450195	2387.362305
29472.030957	-1348.792333	1510.393555	2280.165771
29472.030957	-1348.792333	1509.335938	2159.681885
29472.030957	-1348.792333	1508.278320	2114.090576
29472.030957	-1348.792333	1507.219727	2052.939941
29472.030957	-1348.792333	1506.162109	1709.819214
29472.030957	-1348.792333	1505.103516	1687.739868
29472.030957	-1348.792333	1504.044922	1496.632568
29472.030957	-1348.792333	1502.986328	1436.820679
29472.030957	-1348.792333	1501.926758	1352.461060
29472.030957	-1348.792333	1500.868164	1205.306030
29472.030957	-1348.792333	1499.808594	916.346191
29472.030957	-1348.792333	1498.749023	1006.733459
29472.030957	-1348.792333	1497.688477	790.668762
29472.030957	-1348.792333	1496.628906	800.509094
29472.030957	-1348.792333	1495.568359	646.067932
29472.030957	-1348.792333	1494.507813	532.577698
29472.030957	-1348.792333	1493.447266	408.191681
29472.030957	-1348.792333	1492.386719	615.346130
29472.030957	-1348.792333	1491.325195	746.126709
29472.030957	-1348.792333	1490.263672	471.846405
29472.030957	-1348.792333	1489.202148	864.445496
29472.030957	-1348.792333	1488.140625	626.944214
29472.030957	-1348.792333	1487.079102	731.968201
29472.030957	-1348.792333	1486.016602	724.748962
29472.030957	-1348.792333	1484.954102	411.928070
29472.030957	-1348.792333	1483.891602	844.072327
29472.030957	-1348.792333	1482.829102	759.176575
29472.030957	-1348.792333	1481.765625	598.166870
29472.030957	-1348.792333	1480.702148	696.075745
29472.030957	-1348.792333	1479.638672	189.747452
29472.030957	-1348.792333	1478.575195	420.971405
29472.030957	-1348.792333	1477.511719	555.830017
29472.030957	-1348.792333	1476.447266	77.868256
29472.030957	-1348.792333	1475.382813	404.220245
29472.030957	-1348.792333	1474.318359	479.331573
29472.030957	-1348.792333	1473.253906	393.284485
29472.030957	-1348.792333	1472.189453	132.645584
29472.030957	-1348.792333	1471.124023	-37.827534
29472.030957	-1348.792333	1470.058594	157.596848
29472.030957	-1348.792333	1468.993164	43.623924
29472.030957	-1348.792333	1467.927734	89.868973
29472.030957	-1348.792333	1466.861328	106.989372
29472.030957	-1348.792333	1465.794922	-133.079697
29472.030957	-1348.792333	1464.728516	88.609009
29472.030957	-1348.792333	1463.662109	-105.659454
29472.030957	-1348.792333	1462.594727	-149.689209
29472.030957	-1348.792333	1461.528320	-21.272396
29472.030957	-1348.792333	1460.460938	47.199951
29472.030957	-1348.792333	1459.393555	-167.595322
29472.030957	-1348.792333	1458.326172	-84.562790
29472.030957	-1348.792333	1457.257813	-88.914970
29472.030957	-1348.792333	1456.189453	1.211203
29472.030957	-1348.792333	1455.121094	-301.010803
29472.030957	-1348.792333	1454.052734	27.047472
29472.030957	-1348.792333	1452.984375	334.510620
29472.030957	-1348.792333	1451.915039	323.310455
29472.030957	-1348.792333	1450.845703	260.948547
29472.030957	-1348.792333	1449.776367	106.498566
29472.030957	-1348.792333	1448.707031	465.957916
29472.030957	-1348.792333	1447.636719	139.881027
29472.030957	-1348.792333	1446.567383	-89.358070
29472.030957	-1348.792333	1445.497070	141.832809
29472.030957	-1348.792333	1444.425781	-53.795849
29472.030957	-1348.792333	1443.355469	419.455566
29472.030957	-1348.792333	1442.285156	2.520950
29472.030957	-1348.792333	1441.213867	183.298752
29472.030957	-1348.792333	1440.142578	254.733368
29472.030957	-1348.792333	1439.070313	338.403625
29472.030957	-1348.792333	1437.999023	587.223633
29472.030957	-1348.792333	1436.926758	255.703903
29472.030957	-1348.792333	1435.854492	93.066338
29472.030957	-1348.792333	1434.782227	269.272736
29472.030957	-1348.792333	1433.709961	412.402008
29472.030957	-1348.792333	1432.636719	107.511909
29472.030957	-1348.792333	1431.563477	586.777527
29472.030957	-1348.792333	1430.490234	312.812897
29472.030957	-1348.792333	1429.416992	282.778778
29472.030957	-1348.792333	1428.343750	250.900467
29472.030957	-1348.792333	1427.269531	682.419128
29472.030957	-1348.792333	1426.195313	285.505768
29472.030957	-1348.792333	1425.121094	647.680359
29472.030957	-1348.792333	1424.046875	605.539063
29472.030957	-1348.792333	1422.971680	385.986816
29472.030957	-1348.792333	1421.896484	383.565674
29472.030957	-1348.792333	1420.821289	90.430328
29472.030957	-1348.792333	1419.746094	438.770508
29472.030957	-1348.792333	1418.669922	66.631340
29472.030957	-1348.792333	1417.594727	363.906250
29472.030957	-1348.792333	1416.518555	483.716766
29472.030957	-1348.792333	1415.442383	541.908875
29472.030957	-1348.792333	1414.365234	600.115051
29472.030957	-1348.792333	1413.289063	393.863983
29472.030957	-1348.792333	1412.211914	302.428833
29472.030957	-1348.792333	1411.134766	429.339203
29472.030957	-1348.792333	1410.057617	633.940796
29472.030957	-1348.792333	1408.979492	433.682648
29472.030957	-1348.792333	1407.902344	230.569199
29472.030957	-1348.792333	1406.824219	584.067261
29472.030957	-1348.792333	1405.746094	788.842834
29472.030957	-1348.792333	1404.666992	960.340515
29472.030957	-1348.792333	1403.588867	877.145325
29472.030957	-1348.792333	1402.509766	730.637451
29472.030957	-1348.792333	1401.430664	771.973145
29472.030957	-1348.792333	1400.351563	1019.767273
29472.030957	-1348.792333	1399.271484	1085.616821
29472.030957	-1348.792333	1398.192383	679.600464
29472.030957	-1348.792333	1397.112305	1156.528076
29472.030957	-1348.792333	1396.031250	1136.464844
29472.030957	-1348.792333	1394.951172	1405.953613
29472.030957	-1348.792333	1393.871094	1200.126953
29472.030957	-1348.792333	1392.790039	1430.840332
29472.030957	-1348.792333	1391.708984	1334.136230
29472.030957	-1348.792333	1390.626953	1404.515259
29472.030957	-1348.792333	1389.545898	1618.228638
29472.030957	-1348.792333	1388.463867	2035.286133
29472.030957	-1348.792333	1387.381836	2150.929932
29472.030957	-1348.792333	1386.299805	2206.662842
29472.030957	-1348.792333	1385.217773	2103.505615
29472.030957	-1348.792333	1384.134766	2530.484375
29472.030957	-1348.792333	1383.051758	2400.753662
29472.030957	-1348.792333	1381.968750	2593.718262
29472.030957	-1348.792333	1380.885742	2689.059326
29472.030957	-1348.792333	1379.802734	2304.394531
29472.030957	-1348.792333	1378.718750	2502.917969
29472.030957	-1348.792333	1377.634766	2643.793457
29472.030957	-1348.792333	1376.550781	2712.258301
29472.030957	-1348.792333	1375.465820	2689.229980
29472.030957	-1348.792333	1374.381836	3203.979248
29472.030957	-1348.792333	1373.296875	2604.370361
29472.030957	-1348.792333	1372.211914	2752.080811
29472.030957	-1348.792333	1371.126953	2947.882324
29472.030957	-1348.792333	1370.041016	2889.917725
29472.030957	-1348.792333	1368.955078	2694.764893
29472.030957	-1348.792333	1367.869141	2918.824707
29472.030957	-1348.792333	1366.783203	3167.767578
29472.030957	-1348.792333	1365.697266	3266.349609
29472.030957	-1348.792333	1364.610352	3029.348145
29472.030957	-1348.792333	1363.523438	3166.346680
29472.030957	-1348.792333	1362.436523	3435.726807
29472.030957	-1348.792333	1361.349609	3330.880859
29472.030957	-1348.792333	1360.261719	3301.181152
29472.030957	-1348.792333	1359.174805	3647.874756
29472.030957	-1348.792333	1358.086914	3492.122314
29472.030957	-1348.792333	1356.998047	3459.043701
29472.030957	-1348.792333	1355.910156	3640.102539
29472.030957	-1348.792333	1354.821289	3596.793701
29472.030957	-1348.792333	1353.732422	3533.169434
29472.030957	-1348.792333	1352.643555	3442.724121
29472.030957	-1348.792333	1351.554688	3679.584473
29472.030957	-1348.792333	1350.464844	3467.673096
29472.030957	-1348.792333	1349.375000	3636.822021
29472.030957	-1348.792333	1348.285156	3924.810303
29472.030957	-1348.792333	1347.195313	3849.698486
29472.030957	-1348.792333	1346.105469	3993.062500
29472.030957	-1348.792333	1345.014648	3888.498291
29472.030957	-1348.792333	1343.923828	3857.339600
29472.030957	-1348.792333	1342.833008	4212.284180
29472.030957	-1348.792333	1341.741211	3790.888672
29472.030957	-1348.792333	1340.650391	4238.469727
29472.030957	-1348.792333	1339.558594	4285.039063
29472.030957	-1348.792333	1338.466797	4002.132324
29472.030957	-1348.792333	1337.374023	3798.566406
29472.030957	-1348.792333	1336.282227	3662.536865
29472.030957	-1348.792333	1335.189453	3635.585938
29472.030957	-1348.792333	1334.096680	3179.790527
29472.030957	-1348.792333	1333.003906	3757.269531
29472.030957	-1348.792333	1331.910156	3388.676758
29472.030957	-1348.792333	1330.817383	3739.446533
29472.030957	-1348.792333	1329.723633	3367.812256
29472.030957	-1348.792333	1328.629883	3406.208252
29472.030957	-1348.792333	1327.535156	3314.047852
29472.030957	-1348.792333	1326.441406	3462.718994
29472.030957	-1348.792333	1325.346680	3492.028564
29472.030957	-1348.792333	1324.251953	3209.737061
29472.030957	-1348.792333	1323.156250	3197.661621
29472.030957	-1348.792333	1322.061523	3160.535400
29472.030957	-1348.792333	1320.965820	3036.647461
29472.030957	-1348.792333	1319.870117	2830.437256
29472.030957	-1348.792333	1318.774414	3264.155762
29472.030957	-1348.792333	1317.678711	3125.831543
29472.030957	-1348.792333	1316.582031	3208.747803
29472.030957	-1348.792333	1315.485352	3306.413086
29472.030957	-1348.792333	1314.388672	3143.532959
29472.030957	-1348.792333	1313.291016	3423.116943
29472.030957	-1348.792333	1312.194336	3095.376221
29472.030957	-1348.792333	1311.096680	3002.396973
29472.030957	-1348.792333	1309.999023	3134.437500
29472.030957	-1348.792333	1308.901367	3415.840088
29472.030957	-1348.792333	1307.802734	3491.148926
29472.030957	-1348.792333	1306.705078	3401.919678
29472.030957	-1348.792333	1305.606445	3266.459961
29472.030957	-1348.792333	1304.506836	3425.353516
29472.030957	-1348.792333	1303.408203	3702.310791
29472.030957	-1348.792333	1302.308594	3720.492432
29472.030957	-1348.792333	1301.208984	3829.306641
29472.030957	-1348.792333	1300.109375	3881.488525
29472.030957	-1348.792333	1299.009766	3766.831787
29472.030957	-1348.792333	1297.909180	3700.761230
29472.030957	-1348.792333	1296.808594	3746.232910
29472.030957	-1348.792333	1295.708008	3715.676758
29472.030957	-1348.792333	1294.607422	3933.492188
29472.030957	-1348.792333	1293.506836	3585.011719
29472.030957	-1348.792333	1292.405273	3659.395752
29472.030957	-1348.792333	1291.303711	3712.932617
29472.030957	-1348.792333	1290.202148	3900.859619
29472.030957	-1348.792333	1289.099609	3700.442871
29472.030957	-1348.792333	1287.998047	3783.192383
29472.030957	-1348.792333	1286.895508	3475.802979
29472.030957	-1348.792333	1285.792969	3369.778320
29472.030957	-1348.792333	1284.689453	3316.290771
29472.030957	-1348.792333	1283.586914	3191.101563
29472.030957	-1348.792333	1282.483398	3614.102783
29472.030957	-1348.792333	1281.379883	3290.475342
29472.030957	-1348.792333	1280.276367	3149.410889
29472.030957	-1348.792333	1279.171875	3215.679688
29472.030957	-1348.792333	1278.067383	2923.823486
29472.030957	-1348.792333	1276.962891	2848.819092
29472.030957	-1348.792333	1275.858398	2985.541748
29472.030957	-1348.792333	1274.753906	2520.406006
29472.030957	-1348.792333	1273.648438	2404.499512
29472.030957	-1348.792333	1272.542969	2604.583252
29472.030957	-1348.792333	1271.437500	2459.130371
29472.030957	-1348.792333	1270.331055	2352.336426
29472.030957	-1348.792333	1269.225586	2093.373779
29472.030957	-1348.792333	1268.119141	2166.280029
29472.030957	-1348.792333	1267.012695	2364.764648
29472.030957	-1348.792333	1265.906250	2104.944580
29472.030957	-1348.792333	1264.798828	1858.071655
29472.030957	-1348.792333	1263.691406	1585.418579
29472.030957	-1348.792333	1262.583984	1846.487671
29472.030957	-1348.792333	1261.476563	1766.650269
29472.030957	-1348.792333	1260.368164	1999.543091
29472.030957	-1348.792333	1259.260742	1876.090942
29472.030957	-1348.792333	1258.152344	1727.481079
29472.030957	-1348.792333	1257.043945	1623.850830
29472.030957	-1348.792333	1255.934570	1520.190918
29472.030957	-1348.792333	1254.825195	1618.663574
29472.030957	-1348.792333	1253.716797	1570.663086
29472.030957	-1348.792333	1252.606445	1591.869141
29472.030957	-1348.792333	1251.497070	1495.024292
29472.030957	-1348.792333	1250.387695	1711.543457
29472.030957	-1348.792333	1249.277344	1945.195435
29472.030957	-1348.792333	1248.166992	1876.954224
29472.030957	-1348.792333	1247.055664	1569.747314
29472.030957	-1348.792333	1245.945313	1556.954956
29472.030957	-1348.792333	1244.833984	1635.201294
29472.030957	-1348.792333	1243.722656	1399.719482
29472.030957	-1348.792333	1242.611328	1805.496216
29472.030957	-1348.792333	1241.499023	1437.699463
29472.030957	-1348.792333	1240.387695	1337.124634
29472.030957	-1348.792333	1239.275391	1420.650757
29472.030957	-1348.792333	1238.162109	1333.325439
29472.030957	-1348.792333	1237.049805	1249.034790
29472.030957	-1348.792333	1235.936523	1170.764282
29472.030957	-1348.792333	1234.823242	1359.048950
29472.030957	-1348.792333	1233.709961	1060.504272
29472.030957	-1348.792333	1232.596680	959.710327
29472.030957	-1348.792333	1231.482422	1399.447632
29472.030957	-1348.792333	1230.369141	1070.492188
29472.030957	-1348.792333	1229.253906	1125.067505
29472.030957	-1348.792333	1228.139648	1002.848999
29472.030957	-1348.792333	1227.025391	1109.855225
29472.030957	-1348.792333	1225.910156	1167.591431
29472.030957	-1348.792333	1224.794922	1412.037598
29472.030957	-1348.792333	1223.679688	1320.681885
29472.030957	-1348.792333	1222.563477	1296.051514
29472.030957	-1348.792333	1221.447266	1253.569214
29472.030957	-1348.792333	1220.331055	1183.569336
29472.030957	-1348.792333	1219.214844	1255.018799
29472.030957	-1348.792333	1218.098633	1345.660278
29472.030957	-1348.792333	1216.981445	1195.061768
29472.030957	-1348.792333	1215.864258	1176.185181
29472.030957	-1348.792333	1214.747070	994.583435
29472.030957	-1348.792333	1213.629883	1002.837036
29472.030957	-1348.792333	1212.511719	1049.996704
29472.030957	-1348.792333	1211.393555	1238.002563
29472.030957	-1348.792333	1210.275391	1263.138184
29472.030957	-1348.792333	1209.157227	987.269104
29472.030957	-1348.792333	1208.038086	800.088928
29472.030957	-1348.792333	1206.918945	1037.039551
29472.030957	-1348.792333	1205.799805	975.269958
29472.030957	-1348.792333	1204.680664	911.245300
29472.030957	-1348.792333	1203.560547	938.432495
29472.030957	-1348.792333	1202.441406	1086.500488
29472.030957	-1348.792333	1201.321289	976.570313
29472.030957	-1348.792333	1200.200195	1013.447083
29472.030957	-1348.792333	1199.080078	737.330994
29472.030957	-1348.792333	1197.958984	941.315674
29472.030957	-1348.792333	1196.837891	819.321899
29472.030957	-1348.792333	1195.716797	735.053223
29472.030957	-1348.792333	1194.594727	1041.640625
29472.030957	-1348.792333	1193.473633	882.030823
29472.030957	-1348.792333	1192.351563	1051.746826
29472.030957	-1348.792333	1191.229492	851.758484
29472.030957	-1348.792333	1190.106445	806.606812
29472.030957	-1348.792333	1188.984375	829.295349
29472.030957	-1348.792333	1187.861328	844.798279
29472.030957	-1348.792333	1186.738281	652.302307
29472.030957	-1348.792333	1185.614258	849.346375
29472.030957	-1348.792333	1184.491211	894.995056
29472.030957	-1348.792333	1183.367188	800.481934
29472.030957	-1348.792333	1182.243164	942.562378
29472.030957	-1348.792333	1181.119141	962.780029
29472.030957	-1348.792333	1179.994141	1048.941284
29472.030957	-1348.792333	1178.869141	855.678589
29472.030957	-1348.792333	1177.744141	839.004517
29472.030957	-1348.792333	1176.619141	851.099548
29472.030957	-1348.792333	1175.493164	840.142883
29472.030957	-1348.792333	1174.368164	723.362427
29472.030957	-1348.792333	1173.242188	623.971313
29472.030957	-1348.792333	1172.115234	702.464294
29472.030957	-1348.792333	1170.989258	584.567932
29472.030957	-1348.792333	1169.862305	738.506531
29472.030957	-1348.792333	1168.735352	575.274780
29472.030957	-1348.792333	1167.608398	785.678284
29472.030957	-1348.792333	1166.481445	837.907593
29472.030957	-1348.792333	1165.353516	650.455688
29472.030957	-1348.792333	1164.225586	566.483765
29472.030957	-1348.792333	1163.097656	806.461609
29472.030957	-1348.792333	1161.968750	740.444519
29472.030957	-1348.792333	1160.840820	796.405151
29472.030957	-1348.792333	1159.711914	655.554565
29472.030957	-1348.792333	1158.583008	566.445068
29472.030957	-1348.792333	1157.453125	554.588806
29472.030957	-1348.792333	1156.324219	304.004181
29472.030957	-1348.792333	1155.194336	519.116333
29472.030957	-1348.792333	1154.064453	622.083679
29472.030957	-1348.792333	1152.933594	564.451111
29472.030957	-1348.792333	1151.803711	510.890320
29472.030957	-1348.792333	1150.672852	603.023010
29472.030957	-1348.792333	1149.541992	383.230804
29472.030957	-1348.792333	1148.411133	584.337280
29472.030957	-1348.792333	1147.279297	544.295044
29472.030957	-1348.792333	1146.147461	526.050537
29472.030957	-1348.792333	1145.015625	312.622925
29472.030957	-1348.792333	1143.883789	480.533173
29472.030957	-1348.792333	1142.750977	403.084930
29472.030957	-1348.792333	1141.619141	540.228088
29472.030957	-1348.792333	1140.486328	486.220703
29472.030957	-1348.792333	1139.352539	477.306152
29472.030957	-1348.792333	1138.219727	287.790710
29472.030957	-1348.792333	1137.085938	227.564438
29472.030957	-1348.792333	1135.952148	400.512878
29472.030957	-1348.792333	1134.818359	571.270630
29472.030957	-1348.792333	1133.683594	374.980103
29472.030957	-1348.792333	1132.549805	284.644684
29472.030957	-1348.792333	1131.415039	441.838562
29472.030957	-1348.792333	1130.279297	227.949783
29472.030957	-1348.792333	1129.144531	412.469055
29472.030957	-1348.792333	1128.008789	246.420853
29472.030957	-1348.792333	1126.873047	184.561356
29472.030957	-1348.792333	1125.737305	-123.740265
29472.030957	-1348.792333	1124.601563	56.994530
29472.030957	-1348.792333	1123.464844	-61.182796
29472.030957	-1348.792333	1122.328125	-149.452759
29472.030957	-1348.792333	1121.191406	-191.426575
29472.030957	-1348.792333	1120.054688	-144.441956
29472.030957	-1348.792333	1118.916992	-200.133560
29472.030957	-1348.792333	1117.779297	104.418495
29472.030957	-1348.792333	1116.641602	258.181274
29472.030957	-1348.792333	1115.503906	80.973450
29472.030957	-1348.792333	1114.365234	71.671440
29472.030957	-1348.792333	1113.226563	-76.401657
29472.030957	-1348.792333	1112.087891	-21.831375
29472.030957	-1348.792333	1110.949219	-88.386826
29472.030957	-1348.792333	1109.809570	86.733582
29472.030957	-1348.792333	1108.669922	-23.716494
29472.030957	-1348.792333	1107.530273	-88.019722
29472.030957	-1348.792333	1106.390625	123.736557
29472.030957	-1348.792333	1105.250000	-15.574452
29472.030957	-1348.792333	1104.109375	-40.276302
29472.030957	-1348.792333	1102.968750	57.862125
29472.030957	-1348.792333	1101.828125	-178.248306
29472.030957	-1348.792333	1100.686523	-16.055403
29472.030957	-1348.792333	1099.544922	18.977604
29472.030957	-1348.792333	1098.403320	-314.377014
29472.030957	-1348.792333	1097.261719	34.194054
29472.030957	-1348.792333	1096.120117	97.566681
29472.030957	-1348.792333	1094.977539	193.581299
29472.030957	-1348.792333	1093.834961	22.551208
29472.030957	-1348.792333	1092.691406	10.961040
29472.030957	-1348.792333	1091.548828	3.697782
29472.030957	-1348.792333	1090.405273	16.260809
29472.030957	-1348.792333	1089.261719	-270.480896
29472.030957	-1348.792333	1088.118164	120.868256
29472.030957	-1348.792333	1086.973633	139.403366
29472.030957	-1348.792333	1085.829102	-39.970730
29472.030957	-1348.792333	1084.684570	-195.680557
29472.030957	-1348.792333	1083.540039	74.884476
29472.030957	-1348.792333	1082.395508	-183.176697
29472.030957	-1348.792333	1081.250000	-266.000366
29472.030957	-1348.792333	1080.104492	157.305847
29472.030957	-1348.792333	1078.958984	165.475769
29472.030957	-1348.792333	1077.812500	300.019012
29472.030957	-1348.792333	1076.666016	218.490875
29472.030957	-1348.792333	1075.519531	-102.136497
29472.030957	-1348.792333	1074.373047	241.878662
29472.030957	-1348.792333	1073.226563	406.610138
29472.030957	-1348.792333	1072.079102	254.332306
29472.030957	-1348.792333	1070.931641	142.603622
29472.030957	-1348.792333	1069.784180	125.662056
29472.030957	-1348.792333	1068.635742	95.089996
29472.030957	-1348.792333	1067.487305	-38.945892
29472.030957	-1348.792333	1066.338867	194.632309
29472.030957	-1348.792333	1065.190430	236.525604
29472.030957	-1348.792333	1064.041992	317.485809
29472.030957	-1348.792333	1062.892578	-53.112698
29472.030957	-1348.792333	1061.743164	267.671509
29472.030957	-1348.792333	1060.593750	236.219223
29472.030957	-1348.792333	1059.443359	307.000000
29472.030957	-1348.792333	1058.292969	362.280212
29472.030957	-1348.792333	1057.142578	263.337280
29472.030957	-1348.792333	1055.992188	196.348999
29472.030957	-1348.792333	1054.841797	66.354576
29472.030957	-1348.792333	1053.690430	249.578491
29472.030957	-1348.792333	1052.539063	150.882141
29472.030957	-1348.792333	1051.387695	320.675903
29472.030957	-1348.792333	1050.235352	351.720764
29472.030957	-1348.792333	1049.083984	234.594955
29472.030957	-1348.792333	1047.931641	98.847397
29472.030957	-1348.792333	1046.778320	260.868439
29472.030957	-1348.792333	1045.625977	249.327530
29472.030957	-1348.792333	1044.472656	177.700119
29472.030957	-1348.792333	1043.319336	519.003967
29472.030957	-1348.792333	1042.166016	290.577362
29472.030957	-1348.792333	1041.012695	254.831055
29472.030957	-1348.792333	1039.858398	380.498993
29472.030957	-1348.792333	1038.704102	123.556923
29472.030957	-1348.792333	1037.549805	328.210510
29472.030957	-1348.792333	1036.394531	602.693176
29472.030957	-1348.792333	1035.239258	279.977539
29472.030957	-1348.792333	1034.083984	295.792755
29472.030957	-1348.792333	1032.928711	435.623993
29472.030957	-1348.792333	1031.773438	213.776703
29472.030957	-1348.792333	1030.617188	508.020477
29472.030957	-1348.792333	1029.460938	341.016632
29472.030957	-1348.792333	1028.304688	316.350037
29472.030957	-1348.792333	1027.147461	437.160797
29472.030957	-1348.792333	1025.991211	346.540283
29472.030957	-1348.792333	1024.833984	291.607635
29472.030957	-1348.792333	1023.675781	357.357300
29472.030957	-1348.792333	1022.518555	400.587067
29472.030957	-1348.792333	1021.360352	420.608215
29472.030957	-1348.792333	1020.202148	264.443390
29472.030957	-1348.792333	1019.043945	215.882751
29472.030957	-1348.792333	1017.884766	156.213440
29472.030957	-1348.792333	1016.726563	135.702240
29472.030957	-1348.792333	1015.567383	-6.628557
29472.030957	-1348.792333	1014.407227	175.375931
29472.030957	-1348.792333	1013.248047	238.975998
29472.030957	-1348.792333	1012.087891	336.936890
29472.030957	-1348.792333	1010.927734	121.121010
29472.030957	-1348.792333	1009.767578	83.107773
29472.030957	-1348.792333	1008.606445	92.927124
29472.030957	-1348.792333	1007.446289	145.933243
29472.030957	-1348.792333	1006.285156	71.116142
29472.030957	-1348.792333	1005.123047	157.871201
29472.030957	-1348.792333	1003.961914	40.989372
29472.030957	-1348.792333	1002.799805	121.611946
29472.030957	-1348.792333	1001.637695	324.394073
29472.030957	-1348.792333	1000.475586	620.682983
29472.030957	-1348.792333	999.312500	423.296326
29472.030957	-1348.792333	998.149414	353.409454
29472.030957	-1348.792333	996.986328	388.326721
29472.030957	-1348.792333	995.823242	225.811432
29472.030957	-1348.792333	994.659180	70.731422
29472.030957	-1348.792333	993.496094	157.221100
29472.030957	-1348.792333	992.332031	85.953735
29472.030957	-1348.792333	991.166992	318.022339
29472.030957	-1348.792333	990.002930	195.406158
29472.030957	-1348.792333	988.837891	101.267776
29472.030957	-1348.792333	987.672852	30.151522
29472.030957	-1348.792333	986.506836	-16.470385
29472.030957	-1348.792333	985.341797	114.812508
29472.030957	-1348.792333	984.175781	326.821594
29472.030957	-1348.792333	983.009766	345.420349
29472.030957	-1348.792333	981.843750	307.223969
29472.030957	-1348.792333	980.676758	98.287918
29472.030957	-1348.792333	979.509766	-166.639008
29472.030957	-1348.792333	978.342773	321.396301
29472.030957	-1348.792333	977.175781	7.460307
29472.030957	-1348.792333	976.007813	40.357868
29472.030957	-1348.792333	974.839844	240.137360
29472.030957	-1348.792333	973.671875	104.263710
29472.030957	-1348.792333	972.503906	113.166664
29472.030957	-1348.792333	971.334961	57.791214
29472.030957	-1348.792333	970.166016	184.606339
29472.030957	-1348.792333	968.997070	401.914917
29472.030957	-1348.792333	967.828125	234.531509
29472.030957	-1348.792333	966.658203	290.090088
29472.030957	-1348.792333	965.488281	85.716476
29472.030957	-1348.792333	964.318359	432.395294
29472.030957	-1348.792333	963.148438	438.034912
29472.030957	-1348.792333	961.977539	207.471893
29472.030957	-1348.792333	960.806641	197.338608
29472.030957	-1348.792333	959.635742	279.930206
29472.030957	-1348.792333	958.463867	281.668823
29472.030957	-1348.792333	957.292969	375.591705
29472.030957	-1348.792333	956.121094	412.534943
29472.030957	-1348.792333	954.948242	239.889069
29472.030957	-1348.792333	953.776367	119.121796
29472.030957	-1348.792333	952.603516	48.043118
29472.030957	-1348.792333	951.430664	78.022873
29472.030957	-1348.792333	950.257813	279.725464
29472.030957	-1348.792333	949.084961	109.580879
29472.030957	-1348.792333	947.911133	90.205589
29472.030957	-1348.792333	946.737305	193.167221
29472.030957	-1348.792333	945.563477	207.454407
29472.030957	-1348.792333	944.388672	116.060234
29472.030957	-1348.792333	943.213867	-50.255886
29472.030957	-1348.792333	942.039063	130.191971
29472.030957	-1348.792333	940.864258	-113.691505
29472.030957	-1348.792333	939.688477	-166.739792
29472.030957	-1348.792333	938.513672	-231.122742
29472.030957	-1348.792333	937.337891	-249.044876
29472.030957	-1348.792333	936.161133	-190.818588
29472.030957	-1348.792333	934.985352	-41.042816
29472.030957	-1348.792333	933.808594	71.815628
29472.030957	-1348.792333	932.631836	-57.826653
29472.030957	-1348.792333	931.454102	87.752907
29472.030957	-1348.792333	930.277344	-65.311493
29472.030957	-1348.792333	929.099609	-13.813519
29472.030957	-1348.792333	927.921875	129.446991
29472.030957	-1348.792333	926.743164	-47.374115
29472.030957	-1348.792333	925.565430	-115.026741
29472.030957	-1348.792333	924.386719	35.644020
29472.030957	-1348.792333	923.208008	-96.481644
29472.030957	-1348.792333	922.028320	-222.808746
29472.030957	-1348.792333	920.849609	-316.059235
29472.030957	-1348.792333	919.669922	-317.580750
29472.030957	-1348.792333	919.474609	-281.033813
29472.030957	-1348.792333	918.309570	-95.852425
29472.030957	-1348.792333	917.143555	-37.411877
29472.030957	-1348.792333	915.977539	-37.482010
29472.030957	-1348.792333	914.810547	-242.024979
29472.030957	-1348.792333	913.644531	-26.160467
29472.030957	-1348.792333	912.477539	-232.709656
29472.030957	-1348.792333	911.310547	-145.473404
29472.030957	-1348.792333	910.143555	-278.131104
29472.030957	-1348.792333	908.975586	-338.846313
29472.030957	-1348.792333	907.807617	-142.949127
29472.030957	-1348.792333	906.639648	48.920200
29472.030957	-1348.792333	905.471680	-115.001747
29472.030957	-1348.792333	904.303711	134.968918
29472.030957	-1348.792333	903.134766	-199.968384
29472.030957	-1348.792333	901.965820	170.239349
29472.030957	-1348.792333	900.796875	-7.370532
29472.030957	-1348.792333	899.626953	273.243073
29472.030957	-1348.792333	898.457031	62.598099
29472.030957	-1348.792333	897.287109	342.999451
29472.030957	-1348.792333	896.117188	266.230591
29472.030957	-1348.792333	894.947266	86.639366
29472.030957	-1348.792333	893.776367	87.461967
29472.030957	-1348.792333	892.605469	16.503567
29472.030957	-1348.792333	891.434570	323.600281
29472.030957	-1348.792333	890.262695	372.742096
29472.030957	-1348.792333	889.091797	34.248302
29472.030957	-1348.792333	887.919922	203.508865
29472.030957	-1348.792333	886.748047	341.682526
29472.030957	-1348.792333	885.575195	355.827515
29472.030957	-1348.792333	884.403320	69.812012
29472.030957	-1348.792333	883.230469	250.467224
29472.030957	-1348.792333	882.057617	148.440170
29472.030957	-1348.792333	880.883789	201.255783
29472.030957	-1348.792333	879.710938	211.477585
29472.030957	-1348.792333	878.537109	128.835098
29472.030957	-1348.792333	877.362305	303.439636
29472.030957	-1348.792333	876.188477	340.686737
29472.030957	-1348.792333	875.013672	203.924942
29472.030957	-1348.792333	873.839844	167.729446
29472.030957	-1348.792333	872.664063	473.583099
29472.030957	-1348.792333	871.489258	116.635712
29472.030957	-1348.792333	870.313477	30.265131
29472.030957	-1348.792333	869.138672	-268.494598
29472.030957	-1348.792333	867.962891	46.880806
29472.030957	-1348.792333	866.786133	91.873672
29472.030957	-1348.792333	865.610352	-243.353180
29472.030957	-1348.792333	864.433594	-24.621151
29472.030957	-1348.792333	863.256836	230.693039
29472.030957	-1348.792333	862.079102	204.305588
29472.030957	-1348.792333	860.902344	135.525558
29472.030957	-1348.792333	859.724609	32.088280
29472.030957	-1348.792333	858.546875	3.896163
29472.030957	-1348.792333	857.368164	56.684914
29472.030957	-1348.792333	856.190430	227.019226
29472.030957	-1348.792333	855.011719	403.091553
29472.030957	-1348.792333	853.833008	290.206421
29472.030957	-1348.792333	852.654297	223.617340
29472.030957	-1348.792333	851.474609	78.147934
29472.030957	-1348.792333	850.294922	159.913147
29472.030957	-1348.792333	849.115234	162.773834
29472.030957	-1348.792333	847.935547	55.998978
29472.030957	-1348.792333	846.754883	76.267708
29472.030957	-1348.792333	845.575195	60.028717
29472.030957	-1348.792333	844.393555	257.279510
29472.030957	-1348.792333	843.212891	225.712769
29472.030957	-1348.792333	842.032227	-44.140907
29472.030957	-1348.792333	840.850586	199.264847
29472.030957	-1348.792333	839.668945	327.335449
29472.030957	-1348.792333	838.486328	284.437653
29472.030957	-1348.792333	837.304688	293.462738
29472.030957	-1348.792333	836.122070	66.353844
29472.030957	-1348.792333	834.939453	-12.788545
29472.030957	-1348.792333	833.756836	-47.699665
29472.030957	-1348.792333	832.573242	189.952118
29472.030957	-1348.792333	831.389648	258.724091
29472.030957	-1348.792333	830.206055	310.261780
29472.030957	-1348.792333	829.022461	653.337646
29472.030957	-1348.792333	827.838867	248.550308
29472.030957	-1348.792333	826.654297	338.571320
29472.030957	-1348.792333	825.469727	118.125572
29472.030957	-1348.792333	824.284180	250.413956
29472.030957	-1348.792333	823.099609	26.369247
29472.030957	-1348.792333	821.914063	377.103363
29472.030957	-1348.792333	820.728516	120.694366
29472.030957	-1348.792333	819.542969	174.625366
29472.030957	-1348.792333	818.356445	71.632584
29472.030957	-1348.792333	817.169922	167.785980
29472.030957	-1348.792333	815.983398	177.861572
29472.030957	-1348.792333	814.796875	126.783783
29472.030957	-1348.792333	813.609375	108.308434
29472.030957	-1348.792333	812.422852	246.714691
29472.030957	-1348.792333	811.235352	-25.918055
29472.030957	-1348.792333	810.046875	-107.221954
29472.030957	-1348.792333	808.859375	-48.912457
29472.030957	-1348.792333	807.670898	22.814724
29472.030957	-1348.792333	806.482422	86.944763
29472.030957	-1348.792333	805.293945	-152.553268
29472.030957	-1348.792333	804.104492	-134.099121
29472.030957	-1348.792333	802.915039	312.057739
29472.030957	-1348.792333	801.725586	-35.918438
29472.030957	-1348.792333	800.536133	-24.916090
29472.030957	-1348.792333	799.345703	3.324800
29472.030957	-1348.792333	798.155273	62.148125
29472.030957	-1348.792333	796.964844	183.954376
29472.030957	-1348.792333	795.774414	86.511162
29472.030957	-1348.792333	794.583008	46.371620
29472.030957	-1348.792333	793.392578	76.839767
29472.030957	-1348.792333	792.200195	-73.655464
29472.030957	-1348.792333	791.008789	-164.955246
29472.030957	-1348.792333	789.816406	61.949123
29472.030957	-1348.792333	788.625000	328.823944
29472.030957	-1348.792333	787.432617	153.941772
29472.030957	-1348.792333	786.239258	-117.875175
29472.030957	-1348.792333	785.046875	8.254155
29472.030957	-1348.792333	783.853516	147.725632
29472.030957	-1348.792333	782.660156	-190.286087
29472.030957	-1348.792333	781.465820	-197.139694
29472.030957	-1348.792333	780.272461	168.791306
29472.030957	-1348.792333	779.078125	42.233215
29472.030957	-1348.792333	777.883789	62.161095
29472.030957	-1348.792333	776.688477	142.964371
29472.030957	-1348.792333	775.494141	138.302170
29472.030957	-1348.792333	774.298828	120.416718
29472.030957	-1348.792333	773.103516	11.442863
29472.030957	-1348.792333	771.907227	-17.665415
29472.030957	-1348.792333	770.711914	65.314850
29472.030957	-1348.792333	769.515625	-66.151131
29472.030957	-1348.792333	768.318359	68.176292
29472.030957	-1348.792333	767.122070	43.140747
29472.030957	-1348.792333	765.924805	251.498688
29472.030957	-1348.792333	764.727539	368.802307
29472.030957	-1348.792333	763.530273	76.568283
29472.030957	-1348.792333	762.333008	-99.844910
29472.030957	-1348.792333	761.134766	205.280548
29472.030957	-1348.792333	759.936523	368.223053
29472.030957	-1348.792333	758.738281	51.850723
29472.030957	-1348.792333	757.540039	307.685974
29472.030957	-1348.792333	756.340820	491.513062
29472.030957	-1348.792333	755.141602	-17.630180
29472.030957	-1348.792333	753.942383	-168.746826
29472.030957	-1348.792333	752.742188	200.701340
29472.030957	-1348.792333	751.541992	452.734344
29472.030957	-1348.792333	750.341797	35.044308
29472.030957	-1348.792333	749.141602	39.344788
29472.030957	-1348.792333	747.941406	196.859100
29472.030957	-1348.792333	746.740234	222.022003
29472.030957	-1348.792333	745.539063	-53.314835
29472.030957	-1348.792333	744.337891	-285.027771
29472.030957	-1348.792333	743.135742	-185.957474
29472.030957	-1348.792333	741.933594	-81.219215
29472.030957	-1348.792333	740.731445	112.281204
29472.030957	-1348.792333	739.529297	3.630159
29472.030957	-1348.792333	738.326172	0.780020
29472.030957	-1348.792333	737.124023	143.296036
29472.030957	-1348.792333	735.919922	234.843124
29472.030957	-1348.792333	734.716797	-162.246872
29472.030957	-1348.792333	733.513672	29.357273
29472.030957	-1348.792333	732.309570	205.828598
29472.030957	-1348.792333	731.105469	18.367670
29472.030957	-1348.792333	729.900391	-136.938400
29472.030957	-1348.792333	728.696289	73.461411
29472.030957	-1348.792333	727.491211	55.805550
29472.030957	-1348.792333	726.286133	-101.227119
29472.030957	-1348.792333	725.080078	5.512995
29472.030957	-1348.792333	723.874023	238.392166
29472.030957	-1348.792333	722.668945	200.083252
29472.030957	-1348.792333	721.461914	144.868759
29472.030957	-1348.792333	720.255859	117.915459
29472.030957	-1348.792333	719.048828	149.311432
29472.030957	-1348.792333	717.841797	207.038040
29472.030957	-1348.792333	716.634766	-0.430175
29472.030957	-1348.792333	715.427734	10.307132
29472.030957	-1348.792333	714.219727	-39.110352
29472.030957	-1348.792333	713.011719	-50.918190
29472.030957	-1348.792333	711.803711	-119.096977
29472.030957	-1348.792333	710.594727	-305.606689
29472.030957	-1348.792333	709.385742	-178.362640
29472.030957	-1348.792333	708.176758	-47.425564
29472.030957	-1348.792333	706.967773	-1.041733
29472.030957	-1348.792333	705.758789	0.257399
29472.030957	-1348.792333	704.548828	-234.925781
29472.030957	-1348.792333	703.338867	107.891800
29472.030957	-1348.792333	702.127930	142.890594
29472.030957	-1348.792333	700.917969	130.960861
29472.030957	-1348.792333	699.707031	186.520355
29472.030957	-1348.792333	698.496094	258.905670
29472.030957	-1348.792333	697.285156	29.456356
29472.030957	-1348.792333	696.073242	401.628052
29472.030957	-1348.792333	694.861328	-24.545319
29472.030957	-1348.792333	693.649414	-124.636391
29472.030957	-1348.792333	692.436523	232.247910
29472.030957	-1348.792333	691.224609	25.341879
29472.030957	-1348.792333	690.011719	181.656540
29472.030957	-1348.792333	688.798828	504.434845
29472.030957	-1348.792333	687.584961	372.323608
29472.030957	-1348.792333	686.372070	591.934265
29472.030957	-1348.792333	685.158203	422.349884
29472.030957	-1348.792333	683.943359	602.487854
29472.030957	-1348.792333	682.729492	737.618164
29472.030957	-1348.792333	681.514648	541.772705
29472.030957	-1348.792333	680.299805	824.384094
29472.030957	-1348.792333	679.084961	811.590698
29472.030957	-1348.792333	677.869141	901.484131
29472.030957	-1348.792333	676.653320	935.241333
29472.030957	-1348.792333	675.437500	1009.994751
29472.030957	-1348.792333	674.221680	935.288940
29472.030957	-1348.792333	673.004883	875.473145
29472.030957	-1348.792333	671.789063	836.130798
29472.030957	-1348.792333	670.571289	878.822083
29472.030957	-1348.792333	669.354492	874.775085
29472.030957	-1348.792333	668.136719	973.219727
29472.030957	-1348.792333	666.919922	933.558411
29472.030957	-1348.792333	665.701172	979.576965
29472.030957	-1348.792333	664.483398	1040.391113
29472.030957	-1348.792333	663.264648	1119.722412
29472.030957	-1348.792333	662.045898	945.557373
29472.030957	-1348.792333	660.827148	996.739197
29472.030957	-1348.792333	659.608398	1006.828186
29472.030957	-1348.792333	658.388672	973.991333
29472.030957	-1348.792333	657.168945	861.019897
29472.030957	-1348.792333	655.949219	906.173401
29472.030957	-1348.792333	654.728516	1077.722046
29472.030957	-1348.792333	653.507813	1083.523926
29472.030957	-1348.792333	652.287109	1228.696045
29472.030957	-1348.792333	651.066406	903.249939
29472.030957	-1348.792333	649.844727	1010.978821
29472.030957	-1348.792333	648.623047	1122.260742
29472.030957	-1348.792333	647.401367	1198.062500
29472.030957	-1348.792333	646.179688	1219.827271
29472.030957	-1348.792333	644.957031	1012.984741
29472.030957	-1348.792333	643.734375	1105.089233
29472.030957	-1348.792333	642.511719	1132.039185
29472.030957	-1348.792333	641.289063	1149.561157
29472.030957	-1348.792333	640.065430	972.066833
29472.030957	-1348.792333	638.841797	948.517456
29472.030957	-1348.792333	637.618164	1360.791992
29472.030957	-1348.792333	636.393555	1118.026489
29472.030957	-1348.792333	635.168945	1140.391479
29472.030957	-1348.792333	633.944336	1029.113770
29472.030957	-1348.792333	632.719727	1028.949341
29472.030957	-1348.792333	631.494141	943.387512
29472.030957	-1348.792333	630.269531	1015.196350
29472.030957	-1348.792333	629.042969	992.346985
29472.030957	-1348.792333	627.817383	1143.439209
29472.030957	-1348.792333	626.590820	1070.265503
29472.030957	-1348.792333	625.365234	647.091125
29472.030957	-1348.792333	624.137695	877.264709
29472.030957	-1348.792333	622.911133	824.065430
29472.030957	-1348.792333	621.683594	742.974304
29472.030957	-1348.792333	620.456055	942.894287
29472.030957	-1348.792333	619.228516	1037.155884
29472.030957	-1348.792333	618.000977	1243.990479
29472.030957	-1348.792333	616.772461	1104.901611
29472.030957	-1348.792333	615.543945	1082.131104
29472.030957	-1348.792333	614.314453	1389.926514
29472.030957	-1348.792333	613.085938	1034.247681
29472.030957	-1348.792333	611.856445	1119.948730
29472.030957	-1348.792333	610.626953	813.979065
29472.030957	-1348.792333	609.397461	897.489868
29472.030957	-1348.792333	608.166992	973.400452
29472.030957	-1348.792333	606.936523	812.900879
29472.030957	-1348.792333	605.706055	1034.185669
29472.030957	-1348.792333	604.474609	853.085754
29472.030957	-1348.792333	603.244141	1000.139832
29472.030957	-1348.792333	602.012695	1073.194336
29472.030957	-1348.792333	600.780273	972.756226
29472.030957	-1348.792333	599.548828	1058.317993
29472.030957	-1348.792333	598.316406	823.047913
29472.030957	-1348.792333	597.083984	959.813171
29472.030957	-1348.792333	595.851563	845.849792
29472.030957	-1348.792333	594.618164	853.277344
29472.030957	-1348.792333	593.384766	707.709778
29472.030957	-1348.792333	592.151367	665.092224
29472.030957	-1348.792333	590.917969	631.504700
29472.030957	-1348.792333	589.683594	866.353394
29472.030957	-1348.792333	588.449219	959.278625
29472.030957	-1348.792333	587.214844	840.485413
29472.030957	-1348.792333	585.979492	945.864380
29472.030957	-1348.792333	584.745117	981.162109
29472.030957	-1348.792333	583.509766	736.897766
29472.030957	-1348.792333	582.273438	766.323059
29472.030957	-1348.792333	581.038086	929.664490
29472.030957	-1348.792333	579.801758	820.910950
29472.030957	-1348.792333	578.565430	590.823608
29472.030957	-1348.792333	577.329102	606.656921
29472.030957	-1348.792333	576.091797	982.052673
29472.030957	-1348.792333	574.854492	885.475647
29472.030957	-1348.792333	573.617188	1069.467651
29472.030957	-1348.792333	572.378906	981.709351
29472.030957	-1348.792333	571.141602	1073.539307
29472.030957	-1348.792333	569.903320	1053.294434
29472.030957	-1348.792333	568.664063	523.246948
29472.030957	-1348.792333	567.425781	785.011719
29472.030957	-1348.792333	566.186523	881.563904
29472.030957	-1348.792333	564.947266	774.545715
29472.030957	-1348.792333	563.708008	980.599182
29472.030957	-1348.792333	562.467773	869.582092
29472.030957	-1348.792333	561.227539	996.444031
29472.030957	-1348.792333	559.987305	919.901428
29472.030957	-1348.792333	558.747070	691.327026
29472.030957	-1348.792333	557.505859	707.844116
29472.030957	-1348.792333	556.264648	925.405029
29472.030957	-1348.792333	555.023438	923.242065
29472.030957	-1348.792333	553.781250	756.345581
29472.030957	-1348.792333	552.539063	854.428223
29472.030957	-1348.792333	551.296875	738.468628
29472.030957	-1348.792333	550.054688	929.385071
29472.030957	-1348.792333	548.811523	1028.710571
29472.030957	-1348.792333	547.569336	990.858459
29472.030957	-1348.792333	546.325195	545.626282
29472.030957	-1348.792333	545.082031	896.465454
29472.030957	-1348.792333	543.837891	558.841919
29472.030957	-1348.792333	542.593750	728.555847
29472.030957	-1348.792333	541.349609	638.965454
29472.030957	-1348.792333	540.105469	583.934753
29472.030957	-1348.792333	538.860352	654.621582
29472.030957	-1348.792333	537.615234	657.678406
29472.030957	-1348.792333	536.369141	697.052002
29472.030957	-1348.792333	535.124023	595.951355
29472.030957	-1348.792333	533.877930	680.622742
29472.030957	-1348.792333	532.631836	677.689880
29472.030957	-1348.792333	531.384766	474.269440
29472.030957	-1348.792333	530.138672	693.313660
29472.030957	-1348.792333	528.891602	791.978455
29472.030957	-1348.792333	527.643555	686.610657
29472.030957	-1348.792333	526.396484	282.733582
29472.030957	-1348.792333	525.148438	612.168823
29472.030957	-1348.792333	523.900391	521.154541
29472.030957	-1348.792333	522.652344	320.961975
29472.030957	-1348.792333	521.403320	238.942078
29472.030957	-1348.792333	520.154297	225.950592
29472.030957	-1348.792333	518.905273	360.102692
29472.030957	-1348.792333	517.656250	414.162109
29472.030957	-1348.792333	516.406250	437.225830
29472.030957	-1348.792333	515.156250	113.284843
29472.030957	-1348.792333	513.906250	165.317841
29472.030957	-1348.792333	512.655273	110.134743
29472.030957	-1348.792333	511.404297	200.131134
29472.030957	-1348.792333	510.153320	108.555374
29472.030957	-1348.792333	508.902344	-10.250362
29472.030957	-1348.792333	507.650391	-2.083532
29472.030957	-1348.792333	506.398438	249.065048
29472.030957	-1348.792333	505.146484	128.352127
29472.030957	-1348.792333	503.893555	370.216614
29472.030957	-1348.792333	502.641602	327.401398
29472.030957	-1348.792333	501.388672	74.369766
29472.030957	-1348.792333	500.134766	160.196548
29472.030957	-1348.792333	498.881836	-98.160385
29472.030957	-1348.792333	497.627930	159.674408
29472.030957	-1348.792333	496.374023	49.858963
29472.030957	-1348.792333	495.119141	211.596024
29472.030957	-1348.792333	493.865234	248.404083
29472.030957	-1348.792333	492.610352	366.613800
29472.030957	-1348.792333	491.355469	108.521866
29472.030957	-1348.792333	490.099609	362.368286
29472.030957	-1348.792333	488.843750	276.190033
29472.030957	-1348.792333	487.587891	233.460480
29472.030957	-1348.792333	486.332031	234.158905
29472.030957	-1348.792333	485.075195	256.562531
29472.030957	-1348.792333	483.818359	100.143707
29472.030957	-1348.792333	482.561523	-97.708145
29472.030957	-1348.792333	481.304688	-120.257973
29472.030957	-1348.792333	480.046875	-54.290947
29472.030957	-1348.792333	478.789063	6.292033
29472.030957	-1348.792333	477.531250	-211.006454
29472.030957	-1348.792333	476.272461	-45.649258
29472.030957	-1348.792333	475.013672	301.901947
29472.030957	-1348.792333	473.754883	-158.588669
29472.030957	-1348.792333	472.496094	-276.208557
29472.030957	-1348.792333	471.236328	-200.811050
29472.030957	-1348.792333	469.976563	-273.149353
29472.030957	-1348.792333	468.716797	52.868664
29472.030957	-1348.792333	467.456055	65.360359
29472.030957	-1348.792333	466.196289	-139.978699
29472.030957	-1348.792333	464.935547	22.222710
29472.030957	-1348.792333	463.673828	-103.607422
29472.030957	-1348.792333	462.413086	-97.858315
29472.030957	-1348.792333	461.151367	-0.224848
29472.030957	-1348.792333	459.889648	38.114670
29472.030957	-1348.792333	458.626953	152.103851
29472.030957	-1348.792333	457.364258	-8.990709
29472.030957	-1348.792333	456.101563	189.728790
29472.030957	-1348.792333	454.838867	108.062370
29472.030957	-1348.792333	453.575195	127.207489
29472.030957	-1348.792333	452.312500	99.776237
29472.030957	-1348.792333	451.047852	191.050400
29472.030957	-1348.792333	449.784180	72.296463
29472.030957	-1348.792333	448.519531	303.900482
29472.030957	-1348.792333	447.254883	93.904358
29472.030957	-1348.792333	445.990234	58.263298
29472.030957	-1348.792333	444.725586	15.615897
29472.030957	-1348.792333	443.459961	256.614349
29472.030957	-1348.792333	442.194336	74.334526
29472.030957	-1348.792333	440.927734	-61.085220
29472.030957	-1348.792333	439.662109	26.058657
29472.030957	-1348.792333	438.395508	-80.282860
29472.030957	-1348.792333	437.127930	288.518188
29472.030957	-1348.792333	435.861328	71.398201
29472.030957	-1348.792333	434.593750	-61.269871
29472.030957	-1348.792333	433.326172	-16.402994
29472.030957	-1348.792333	432.058594	17.867561
29472.030957	-1348.792333	430.790039	150.745682
29472.030957	-1348.792333	429.521484	-8.026679
29472.030957	-1348.792333	428.252930	-100.355087
29472.030957	-1348.792333	426.984375	-54.719654
29472.030957	-1348.792333	425.714844	37.555458
29472.030957	-1348.792333	424.445313	-93.598167
29472.030957	-1348.792333	423.174805	242.112076
29472.030957	-1348.792333	421.905273	245.346909
29472.030957	-1348.792333	420.634766	372.035309
29472.030957	-1348.792333	419.364258	330.856903
29472.030957	-1348.792333	418.092773	346.993958
29472.030957	-1348.792333	416.822266	122.155457
29472.030957	-1348.792333	415.550781	240.381088
29472.030957	-1348.792333	414.278320	310.474426
29472.030957	-1348.792333	413.006836	221.812531
29472.030957	-1348.792333	411.734375	124.373810
29472.030957	-1348.792333	410.461914	57.416199
29472.030957	-1348.792333	409.188477	-100.386360
29472.030957	-1348.792333	407.916016	118.260513
29472.030957	-1348.792333	406.642578	174.644501
29472.030957	-1348.792333	405.368164	83.124367
29472.030957	-1348.792333	404.094727	55.877277
29472.030957	-1348.792333	402.820313	164.107666
29472.030957	-1348.792333	401.545898	67.481384
29472.030957	-1348.792333	400.270508	-66.473541
29472.030957	-1348.792333	398.996094	-121.990784
29472.030957	-1348.792333	397.720703	-93.805458
29472.030957	-1348.792333	396.444336	-313.033722
29472.030957	-1348.792333	395.168945	-9.014734
29472.030957	-1348.792333	393.892578	-30.727676
29472.030957	-1348.792333	392.616211	-185.872574
29472.030957	-1348.792333	391.339844	-214.747986
29472.030957	-1348.792333	390.062500	-57.007004
29472.030957	-1348.792333	388.785156	66.802574
29472.030957	-1348.792333	387.507813	-193.409058
29472.030957	-1348.792333	386.229492	303.255280
29472.030957	-1348.792333	384.951172	-51.316887
29472.030957	-1348.792333	383.672852	-116.414925
29472.030957	-1348.792333	382.394531	86.444382
29472.030957	-1348.792333	381.115234	97.281342
29472.030957	-1348.792333	379.835938	193.074402
29472.030957	-1348.792333	378.556641	61.446793
29472.030957	-1348.792333	377.277344	-66.852211
29472.030957	-1348.792333	375.997070	-32.228535
29472.030957	-1348.792333	374.716797	23.330418
29472.030957	-1348.792333	373.435547	117.504143
29472.030957	-1348.792333	372.155273	154.542862
29472.030957	-1348.792333	370.874023	33.423992
29472.030957	-1348.792333	369.591797	-68.606094
29472.030957	-1348.792333	368.310547	7.850016
29472.030957	-1348.792333	367.028320	165.217697
29472.030957	-1348.792333	365.746094	-173.784760
29472.030957	-1348.792333	364.463867	30.232107
29472.030957	-1348.792333	363.180664	153.895218
29472.030957	-1348.792333	361.897461	308.705719
29472.030957	-1348.792333	360.614258	-152.862534
29472.030957	-1348.792333	359.330078	108.405907
29472.030957	-1348.792333	358.045898	-32.603344
29472.030957	-1348.792333	356.761719	-110.717087
29472.030957	-1348.792333	355.477539	124.959259
29472.030957	-1348.792333	354.192383	244.758438
29472.030957	-1348.792333	352.907227	-122.288445
29472.030957	-1348.792333	351.622070	-23.857298
29472.030957	-1348.792333	350.336914	202.401917
29472.030957	-1348.792333	349.050781	155.555420
29472.030957	-1348.792333	347.764648	-15.979876
29472.030957	-1348.792333	346.477539	1.937509
29472.030957	-1348.792333	345.191406	-179.001526
29472.030957	-1348.792333	343.904297	-48.961403
29472.030957	-1348.792333	342.616211	10.844999
29472.030957	-1348.792333	341.329102	-59.501644
29472.030957	-1348.792333	340.041016	94.313423
29472.030957	-1348.792333	338.752930	193.628204
29472.030957	-1348.792333	337.463867	107.990852
29472.030957	-1348.792333	336.175781	101.767624
29472.030957	-1348.792333	334.886719	10.977479
29472.030957	-1348.792333	333.596680	163.134659
29472.030957	-1348.792333	332.307617	251.734802
29472.030957	-1348.792333	331.017578	44.335743
29472.030957	-1348.792333	329.727539	259.080017
29472.030957	-1348.792333	328.436523	209.406616
29472.030957	-1348.792333	327.146484	66.108459
29472.030957	-1348.792333	325.855469	135.088135
29472.030957	-1348.792333	324.563477	-44.545708
29472.030957	-1348.792333	323.272461	-29.648466
29472.030957	-1348.792333	321.980469	45.905609
29472.030957	-1348.792333	320.688477	269.882843
29472.030957	-1348.792333	319.395508	192.321167
29472.030957	-1348.792333	318.103516	159.420776
29472.030957	-1348.792333	316.810547	-101.225555
29472.030957	-1348.792333	315.516602	182.877960
29472.030957	-1348.792333	314.223633	258.408356
29472.030957	-1348.792333	312.929688	88.425735
29472.030957	-1348.792333	311.635742	-112.918724
29472.030957	-1348.792333	310.340820	-80.925400
29472.030957	-1348.792333	309.045898	-231.414200
29472.030957	-1348.792333	307.750977	51.016262
29472.030957	-1348.792333	306.456055	-0.047688
29472.030957	-1348.792333	305.160156	-32.338558
29472.030957	-1348.792333	303.865234	-59.849228
29472.030957	-1348.792333	302.568359	78.194786
29472.030957	-1348.792333	301.272461	31.537407
29472.030957	-1348.792333	299.975586	-72.192299
29472.030957	-1348.792333	298.678711	12.075037
