#X		#Y		#Wave		#Intensity
29469.861862	-1340.957667	1999.980469	-179.365387
29469.861862	-1340.957667	1999.016602	72.714378
29469.861862	-1340.957667	1998.052734	-191.054108
29469.861862	-1340.957667	1997.087891	-336.413239
29469.861862	-1340.957667	1996.123047	45.397011
29469.861862	-1340.957667	1995.158203	15.242370
29469.861862	-1340.957667	1994.193359	-109.601814
29469.861862	-1340.957667	1993.228516	-158.200516
29469.861862	-1340.957667	1992.262695	102.162407
29469.861862	-1340.957667	1991.297852	173.767471
29469.861862	-1340.957667	1990.332031	-136.289429
29469.861862	-1340.957667	1989.366211	100.136513
29469.861862	-1340.957667	1988.399414	-2.926940
29469.861862	-1340.957667	1987.433594	39.531525
29469.861862	-1340.957667	1986.466797	-116.301140
29469.861862	-1340.957667	1985.500977	86.033569
29469.861862	-1340.957667	1984.534180	85.180969
29469.861862	-1340.957667	1983.567383	81.473610
29469.861862	-1340.957667	1982.599609	228.149155
29469.861862	-1340.957667	1981.632813	90.276070
29469.861862	-1340.957667	1980.665039	122.571190
29469.861862	-1340.957667	1979.697266	-82.574371
29469.861862	-1340.957667	1978.729492	141.725098
29469.861862	-1340.957667	1977.761719	168.131256
29469.861862	-1340.957667	1976.792969	149.817032
29469.861862	-1340.957667	1975.825195	306.471588
29469.861862	-1340.957667	1974.856445	85.275558
29469.861862	-1340.957667	1973.887695	132.836548
29469.861862	-1340.957667	1972.918945	-4.848660
29469.861862	-1340.957667	1971.949219	52.129177
29469.861862	-1340.957667	1970.980469	76.826111
29469.861862	-1340.957667	1970.010742	76.666824
29469.861862	-1340.957667	1969.041016	59.069931
29469.861862	-1340.957667	1968.071289	152.203415
29469.861862	-1340.957667	1967.101563	304.273041
29469.861862	-1340.957667	1966.130859	315.717255
29469.861862	-1340.957667	1965.161133	112.733986
29469.861862	-1340.957667	1964.190430	183.033051
29469.861862	-1340.957667	1963.219727	186.706085
29469.861862	-1340.957667	1962.249023	200.109695
29469.861862	-1340.957667	1961.277344	191.247635
29469.861862	-1340.957667	1960.306641	-24.406010
29469.861862	-1340.957667	1959.334961	183.090378
29469.861862	-1340.957667	1958.363281	264.978027
29469.861862	-1340.957667	1957.391602	137.716629
29469.861862	-1340.957667	1956.419922	91.577164
29469.861862	-1340.957667	1955.447266	18.349436
29469.861862	-1340.957667	1954.474609	9.001494
29469.861862	-1340.957667	1953.501953	48.759609
29469.861862	-1340.957667	1952.529297	73.718956
29469.861862	-1340.957667	1951.556641	-61.045090
29469.861862	-1340.957667	1950.583984	22.808270
29469.861862	-1340.957667	1949.610352	89.413864
29469.861862	-1340.957667	1948.636719	45.490543
29469.861862	-1340.957667	1947.663086	-30.342289
29469.861862	-1340.957667	1946.689453	225.177139
29469.861862	-1340.957667	1945.715820	60.988098
29469.861862	-1340.957667	1944.741211	-2.552044
29469.861862	-1340.957667	1943.767578	98.284981
29469.861862	-1340.957667	1942.792969	238.331055
29469.861862	-1340.957667	1941.818359	8.081965
29469.861862	-1340.957667	1940.842773	15.735142
29469.861862	-1340.957667	1939.868164	-20.712492
29469.861862	-1340.957667	1938.892578	94.815445
29469.861862	-1340.957667	1937.916992	87.816841
29469.861862	-1340.957667	1936.941406	53.904041
29469.861862	-1340.957667	1935.965820	103.311287
29469.861862	-1340.957667	1934.990234	-28.478327
29469.861862	-1340.957667	1934.013672	72.412277
29469.861862	-1340.957667	1933.037109	-188.985840
29469.861862	-1340.957667	1932.060547	-36.624626
29469.861862	-1340.957667	1931.083984	105.936348
29469.861862	-1340.957667	1930.107422	-54.882133
29469.861862	-1340.957667	1929.129883	-95.736755
29469.861862	-1340.957667	1928.153320	-50.927414
29469.861862	-1340.957667	1927.175781	-25.648273
29469.861862	-1340.957667	1926.198242	-81.001465
29469.861862	-1340.957667	1925.219727	-133.839325
29469.861862	-1340.957667	1924.242188	-145.056473
29469.861862	-1340.957667	1923.263672	27.034634
29469.861862	-1340.957667	1922.285156	-206.403229
29469.861862	-1340.957667	1921.306641	-46.464218
29469.861862	-1340.957667	1920.328125	-379.809967
29469.861862	-1340.957667	1919.349609	-170.953781
29469.861862	-1340.957667	1918.370117	-64.644981
29469.861862	-1340.957667	1917.391602	-58.382366
29469.861862	-1340.957667	1916.412109	-100.869026
29469.861862	-1340.957667	1915.431641	-150.601944
29469.861862	-1340.957667	1914.452148	4.639116
29469.861862	-1340.957667	1913.472656	-62.050823
29469.861862	-1340.957667	1912.492188	-18.935015
29469.861862	-1340.957667	1911.511719	-70.856453
29469.861862	-1340.957667	1910.531250	-81.265923
29469.861862	-1340.957667	1909.550781	-72.121124
29469.861862	-1340.957667	1908.569336	-43.433502
29469.861862	-1340.957667	1907.588867	107.101677
29469.861862	-1340.957667	1906.607422	1.892845
29469.861862	-1340.957667	1905.625977	152.467255
29469.861862	-1340.957667	1904.644531	139.910706
29469.861862	-1340.957667	1903.662109	-140.359650
29469.861862	-1340.957667	1902.680664	124.694374
29469.861862	-1340.957667	1901.698242	-41.005947
29469.861862	-1340.957667	1900.715820	-199.300217
29469.861862	-1340.957667	1899.733398	155.753479
29469.861862	-1340.957667	1898.750000	-38.911247
29469.861862	-1340.957667	1897.767578	29.144386
29469.861862	-1340.957667	1896.784180	-221.256866
29469.861862	-1340.957667	1895.800781	-14.570354
29469.861862	-1340.957667	1894.817383	-26.639637
29469.861862	-1340.957667	1893.833984	-53.246773
29469.861862	-1340.957667	1892.850586	-19.081104
29469.861862	-1340.957667	1891.866211	-106.336098
29469.861862	-1340.957667	1890.881836	17.735558
29469.861862	-1340.957667	1889.897461	-101.000938
29469.861862	-1340.957667	1888.913086	-30.327879
29469.861862	-1340.957667	1887.927734	-34.893890
29469.861862	-1340.957667	1886.943359	81.887947
29469.861862	-1340.957667	1885.958008	108.880608
29469.861862	-1340.957667	1884.972656	-41.189514
29469.861862	-1340.957667	1883.987305	-2.026773
29469.861862	-1340.957667	1883.001953	66.229866
29469.861862	-1340.957667	1882.015625	139.319351
29469.861862	-1340.957667	1881.029297	100.894669
29469.861862	-1340.957667	1880.042969	-12.634430
29469.861862	-1340.957667	1879.056641	-227.878693
29469.861862	-1340.957667	1878.070313	14.798191
29469.861862	-1340.957667	1877.083984	-74.428467
29469.861862	-1340.957667	1876.096680	124.535637
29469.861862	-1340.957667	1875.109375	-34.900852
29469.861862	-1340.957667	1874.122070	6.624843
29469.861862	-1340.957667	1873.134766	149.770416
29469.861862	-1340.957667	1872.146484	-14.454937
29469.861862	-1340.957667	1871.159180	-69.768524
29469.861862	-1340.957667	1870.170898	-98.474670
29469.861862	-1340.957667	1869.182617	102.553024
29469.861862	-1340.957667	1868.194336	-76.130356
29469.861862	-1340.957667	1867.205078	-80.716927
29469.861862	-1340.957667	1866.216797	-153.006851
29469.861862	-1340.957667	1865.227539	-189.052780
29469.861862	-1340.957667	1864.238281	134.876282
29469.861862	-1340.957667	1863.249023	28.664484
29469.861862	-1340.957667	1862.259766	52.871773
29469.861862	-1340.957667	1861.269531	149.469864
29469.861862	-1340.957667	1860.279297	-169.268127
29469.861862	-1340.957667	1859.290039	-17.238892
29469.861862	-1340.957667	1858.298828	35.734421
29469.861862	-1340.957667	1857.308594	4.184739
29469.861862	-1340.957667	1856.318359	35.314175
29469.861862	-1340.957667	1855.327148	-102.465401
29469.861862	-1340.957667	1854.335938	273.406525
29469.861862	-1340.957667	1853.344727	48.710625
29469.861862	-1340.957667	1852.353516	-24.095617
29469.861862	-1340.957667	1851.362305	-60.789112
29469.861862	-1340.957667	1850.370117	150.662827
29469.861862	-1340.957667	1849.377930	31.889435
29469.861862	-1340.957667	1848.385742	137.107971
29469.861862	-1340.957667	1847.393555	131.422470
29469.861862	-1340.957667	1846.401367	65.460358
29469.861862	-1340.957667	1845.408203	30.736467
29469.861862	-1340.957667	1844.415039	-88.305099
29469.861862	-1340.957667	1843.421875	95.837196
29469.861862	-1340.957667	1842.428711	299.070190
29469.861862	-1340.957667	1841.435547	119.631783
29469.861862	-1340.957667	1840.441406	248.032516
29469.861862	-1340.957667	1839.448242	193.527527
29469.861862	-1340.957667	1838.454102	328.881348
29469.861862	-1340.957667	1837.459961	108.312302
29469.861862	-1340.957667	1836.464844	-25.758257
29469.861862	-1340.957667	1835.470703	90.024307
29469.861862	-1340.957667	1834.475586	116.759781
29469.861862	-1340.957667	1833.480469	241.857391
29469.861862	-1340.957667	1832.485352	-27.065853
29469.861862	-1340.957667	1831.490234	213.037766
29469.861862	-1340.957667	1830.495117	28.011898
29469.861862	-1340.957667	1829.499023	-1.050814
29469.861862	-1340.957667	1828.502930	327.342560
29469.861862	-1340.957667	1827.506836	65.253471
29469.861862	-1340.957667	1826.510742	302.103851
29469.861862	-1340.957667	1825.513672	128.602142
29469.861862	-1340.957667	1824.517578	261.979858
29469.861862	-1340.957667	1823.520508	196.178238
29469.861862	-1340.957667	1822.523438	216.562225
29469.861862	-1340.957667	1821.526367	13.917128
29469.861862	-1340.957667	1820.529297	338.367157
29469.861862	-1340.957667	1819.531250	166.638748
29469.861862	-1340.957667	1818.533203	152.920700
29469.861862	-1340.957667	1817.535156	-14.202703
29469.861862	-1340.957667	1816.537109	168.168259
29469.861862	-1340.957667	1815.539063	43.904060
29469.861862	-1340.957667	1814.540039	89.468903
29469.861862	-1340.957667	1813.541992	132.479385
29469.861862	-1340.957667	1812.542969	189.672043
29469.861862	-1340.957667	1811.543945	141.438049
29469.861862	-1340.957667	1810.543945	-12.170953
29469.861862	-1340.957667	1809.544922	34.988335
29469.861862	-1340.957667	1808.544922	189.550812
29469.861862	-1340.957667	1807.544922	61.841019
29469.861862	-1340.957667	1806.544922	192.122299
29469.861862	-1340.957667	1805.544922	269.624878
29469.861862	-1340.957667	1804.544922	270.490112
29469.861862	-1340.957667	1803.543945	60.998302
29469.861862	-1340.957667	1802.542969	1.865566
29469.861862	-1340.957667	1801.541992	119.269508
29469.861862	-1340.957667	1800.541016	24.005947
29469.861862	-1340.957667	1799.539063	-23.663853
29469.861862	-1340.957667	1798.538086	186.234390
29469.861862	-1340.957667	1797.536133	52.321812
29469.861862	-1340.957667	1796.534180	161.592041
29469.861862	-1340.957667	1795.532227	115.630135
29469.861862	-1340.957667	1794.529297	45.658665
29469.861862	-1340.957667	1793.527344	13.690844
29469.861862	-1340.957667	1792.524414	-173.378281
29469.861862	-1340.957667	1791.521484	-117.480789
29469.861862	-1340.957667	1790.518555	128.827927
29469.861862	-1340.957667	1789.514648	77.084236
29469.861862	-1340.957667	1788.511719	39.480968
29469.861862	-1340.957667	1787.507813	-55.447701
29469.861862	-1340.957667	1786.503906	25.659155
29469.861862	-1340.957667	1785.500000	20.860628
29469.861862	-1340.957667	1784.496094	-19.815411
29469.861862	-1340.957667	1783.491211	139.204666
29469.861862	-1340.957667	1782.486328	-256.325745
29469.861862	-1340.957667	1781.481445	116.383018
29469.861862	-1340.957667	1780.476563	113.026985
29469.861862	-1340.957667	1779.471680	40.535587
29469.861862	-1340.957667	1778.465820	-96.307297
29469.861862	-1340.957667	1777.460938	147.006927
29469.861862	-1340.957667	1776.455078	-280.082733
29469.861862	-1340.957667	1775.449219	53.075016
29469.861862	-1340.957667	1774.442383	-8.406373
29469.861862	-1340.957667	1773.436523	-129.412277
29469.861862	-1340.957667	1772.429688	-62.984444
29469.861862	-1340.957667	1771.422852	-30.004869
29469.861862	-1340.957667	1770.416016	-170.494949
29469.861862	-1340.957667	1769.409180	-64.311981
29469.861862	-1340.957667	1768.402344	-17.672606
29469.861862	-1340.957667	1767.394531	-59.021980
29469.861862	-1340.957667	1766.386719	-110.028145
29469.861862	-1340.957667	1765.378906	-11.807034
29469.861862	-1340.957667	1764.371094	81.449272
29469.861862	-1340.957667	1763.362305	212.399551
29469.861862	-1340.957667	1762.354492	37.399017
29469.861862	-1340.957667	1761.345703	-102.189323
29469.861862	-1340.957667	1760.336914	-68.966812
29469.861862	-1340.957667	1759.328125	113.282860
29469.861862	-1340.957667	1758.318359	53.710949
29469.861862	-1340.957667	1757.308594	211.809509
29469.861862	-1340.957667	1756.299805	92.708031
29469.861862	-1340.957667	1755.290039	162.800888
29469.861862	-1340.957667	1754.279297	-37.097336
29469.861862	-1340.957667	1753.269531	84.681557
29469.861862	-1340.957667	1752.258789	24.074955
29469.861862	-1340.957667	1751.249023	8.263505
29469.861862	-1340.957667	1750.238281	56.105865
29469.861862	-1340.957667	1749.226563	-2.649582
29469.861862	-1340.957667	1748.215820	-14.272271
29469.861862	-1340.957667	1747.204102	68.446152
29469.861862	-1340.957667	1746.193359	-66.403641
29469.861862	-1340.957667	1745.181641	-125.798470
29469.861862	-1340.957667	1744.168945	13.034644
29469.861862	-1340.957667	1743.157227	-18.364326
29469.861862	-1340.957667	1742.144531	190.877518
29469.861862	-1340.957667	1741.132813	-60.416901
29469.861862	-1340.957667	1740.120117	148.409882
29469.861862	-1340.957667	1739.106445	-143.269379
29469.861862	-1340.957667	1738.093750	-104.705933
29469.861862	-1340.957667	1737.080078	-73.417953
29469.861862	-1340.957667	1736.067383	19.023676
29469.861862	-1340.957667	1735.053711	-112.747437
29469.861862	-1340.957667	1734.040039	-51.327496
29469.861862	-1340.957667	1733.025391	54.669788
29469.861862	-1340.957667	1732.011719	-25.679619
29469.861862	-1340.957667	1730.997070	-99.109413
29469.861862	-1340.957667	1729.982422	-69.025642
29469.861862	-1340.957667	1728.967773	52.738167
29469.861862	-1340.957667	1727.952148	-37.640289
29469.861862	-1340.957667	1726.937500	8.423376
29469.861862	-1340.957667	1725.921875	124.909004
29469.861862	-1340.957667	1724.906250	-201.226288
29469.861862	-1340.957667	1723.890625	-14.463367
29469.861862	-1340.957667	1722.875000	-11.409050
29469.861862	-1340.957667	1721.858398	5.586348
29469.861862	-1340.957667	1720.841797	92.974739
29469.861862	-1340.957667	1719.825195	-108.998077
29469.861862	-1340.957667	1718.808594	166.139297
29469.861862	-1340.957667	1717.791992	-24.304804
29469.861862	-1340.957667	1716.774414	-71.504456
29469.861862	-1340.957667	1715.756836	-48.345837
29469.861862	-1340.957667	1714.739258	12.247037
29469.861862	-1340.957667	1713.721680	89.119698
29469.861862	-1340.957667	1712.704102	53.129433
29469.861862	-1340.957667	1711.685547	174.279388
29469.861862	-1340.957667	1710.667969	-14.531944
29469.861862	-1340.957667	1709.649414	129.791641
29469.861862	-1340.957667	1708.630859	65.128647
29469.861862	-1340.957667	1707.611328	-60.644131
29469.861862	-1340.957667	1706.592773	-5.887957
29469.861862	-1340.957667	1705.573242	-49.775990
29469.861862	-1340.957667	1704.553711	117.222153
29469.861862	-1340.957667	1703.534180	70.746147
29469.861862	-1340.957667	1702.513672	5.403816
29469.861862	-1340.957667	1701.494141	193.035233
29469.861862	-1340.957667	1700.473633	31.424292
29469.861862	-1340.957667	1699.453125	19.659601
29469.861862	-1340.957667	1698.432617	-46.067318
29469.861862	-1340.957667	1697.412109	-111.873535
29469.861862	-1340.957667	1696.390625	-70.107735
29469.861862	-1340.957667	1695.369141	121.317169
29469.861862	-1340.957667	1694.347656	-136.676773
29469.861862	-1340.957667	1693.326172	-64.817894
29469.861862	-1340.957667	1692.304688	-74.944855
29469.861862	-1340.957667	1691.282227	-3.337377
29469.861862	-1340.957667	1690.260742	35.442459
29469.861862	-1340.957667	1689.238281	-98.886711
29469.861862	-1340.957667	1688.214844	-137.451813
29469.861862	-1340.957667	1687.192383	17.880875
29469.861862	-1340.957667	1686.168945	-170.378433
29469.861862	-1340.957667	1685.146484	134.226563
29469.861862	-1340.957667	1684.123047	32.265388
29469.861862	-1340.957667	1683.099609	47.011803
29469.861862	-1340.957667	1682.075195	84.998085
29469.861862	-1340.957667	1681.051758	-199.166595
29469.861862	-1340.957667	1680.027344	9.059509
29469.861862	-1340.957667	1679.002930	259.133057
29469.861862	-1340.957667	1677.978516	159.150085
29469.861862	-1340.957667	1676.953125	-27.170813
29469.861862	-1340.957667	1675.928711	448.754730
29469.861862	-1340.957667	1674.903320	15.214040
29469.861862	-1340.957667	1673.877930	150.507858
29469.861862	-1340.957667	1672.852539	131.891434
29469.861862	-1340.957667	1671.826172	190.092941
29469.861862	-1340.957667	1670.800781	401.994049
29469.861862	-1340.957667	1669.774414	334.257782
29469.861862	-1340.957667	1668.748047	124.459427
29469.861862	-1340.957667	1667.721680	284.873840
29469.861862	-1340.957667	1666.694336	435.851105
29469.861862	-1340.957667	1665.667969	507.631683
29469.861862	-1340.957667	1664.640625	351.298157
29469.861862	-1340.957667	1663.613281	639.324463
29469.861862	-1340.957667	1662.585938	627.168152
29469.861862	-1340.957667	1661.557617	610.313904
29469.861862	-1340.957667	1660.530273	802.713379
29469.861862	-1340.957667	1659.501953	946.175537
29469.861862	-1340.957667	1658.473633	833.910828
29469.861862	-1340.957667	1657.444336	1053.928345
29469.861862	-1340.957667	1656.416016	999.730530
29469.861862	-1340.957667	1655.386719	1177.790527
29469.861862	-1340.957667	1654.358398	763.608704
29469.861862	-1340.957667	1653.328125	1001.968628
29469.861862	-1340.957667	1652.298828	1142.754639
29469.861862	-1340.957667	1651.269531	1327.579346
29469.861862	-1340.957667	1650.239258	1338.269531
29469.861862	-1340.957667	1649.208984	1367.514771
29469.861862	-1340.957667	1648.178711	1570.723022
29469.861862	-1340.957667	1647.148438	1711.239258
29469.861862	-1340.957667	1646.117188	1643.001465
29469.861862	-1340.957667	1645.086914	1904.015869
29469.861862	-1340.957667	1644.055664	1613.279053
29469.861862	-1340.957667	1643.024414	1813.949585
29469.861862	-1340.957667	1641.992188	1942.710571
29469.861862	-1340.957667	1640.960938	2145.590576
29469.861862	-1340.957667	1639.928711	2042.677002
29469.861862	-1340.957667	1638.896484	2268.636230
29469.861862	-1340.957667	1637.864258	2126.431641
29469.861862	-1340.957667	1636.832031	2338.454102
29469.861862	-1340.957667	1635.798828	2050.529541
29469.861862	-1340.957667	1634.766602	2417.571777
29469.861862	-1340.957667	1633.733398	2585.536865
29469.861862	-1340.957667	1632.699219	2394.956543
29469.861862	-1340.957667	1631.666016	2551.375000
29469.861862	-1340.957667	1630.632813	2504.323730
29469.861862	-1340.957667	1629.598633	2596.003418
29469.861862	-1340.957667	1628.564453	2796.313477
29469.861862	-1340.957667	1627.530273	2576.062744
29469.861862	-1340.957667	1626.495117	2845.681152
29469.861862	-1340.957667	1625.460938	3025.194580
29469.861862	-1340.957667	1624.425781	3202.360840
29469.861862	-1340.957667	1623.390625	3217.899170
29469.861862	-1340.957667	1622.355469	3385.843018
29469.861862	-1340.957667	1621.319336	3232.960449
29469.861862	-1340.957667	1620.284180	3340.972168
29469.861862	-1340.957667	1619.248047	3365.931396
29469.861862	-1340.957667	1618.211914	3789.988525
29469.861862	-1340.957667	1617.174805	3602.804443
29469.861862	-1340.957667	1616.138672	3501.101074
29469.861862	-1340.957667	1615.101563	3696.865967
29469.861862	-1340.957667	1614.065430	4037.857910
29469.861862	-1340.957667	1613.027344	3924.796143
29469.861862	-1340.957667	1611.990234	3996.196045
29469.861862	-1340.957667	1610.953125	3878.769287
29469.861862	-1340.957667	1609.915039	4148.354980
29469.861862	-1340.957667	1608.876953	4212.999512
29469.861862	-1340.957667	1607.838867	4128.073730
29469.861862	-1340.957667	1606.800781	4441.458496
29469.861862	-1340.957667	1605.761719	4487.854980
29469.861862	-1340.957667	1604.723633	4387.103516
29469.861862	-1340.957667	1603.684570	5006.465820
29469.861862	-1340.957667	1602.644531	4977.107422
29469.861862	-1340.957667	1601.605469	5207.716309
29469.861862	-1340.957667	1600.566406	5401.558594
29469.861862	-1340.957667	1599.526367	5285.111816
29469.861862	-1340.957667	1598.486328	5451.480469
29469.861862	-1340.957667	1597.446289	5415.707031
29469.861862	-1340.957667	1596.405273	5212.346191
29469.861862	-1340.957667	1595.365234	5362.894043
29469.861862	-1340.957667	1594.324219	5322.891602
29469.861862	-1340.957667	1593.283203	5409.291992
29469.861862	-1340.957667	1592.242188	5123.928711
29469.861862	-1340.957667	1591.200195	5277.111328
29469.861862	-1340.957667	1590.159180	5132.095703
29469.861862	-1340.957667	1589.117188	5186.825195
29469.861862	-1340.957667	1588.075195	5035.237793
29469.861862	-1340.957667	1587.032227	4998.477539
29469.861862	-1340.957667	1585.990234	4789.933105
29469.861862	-1340.957667	1584.947266	4707.655762
29469.861862	-1340.957667	1583.904297	4637.005859
29469.861862	-1340.957667	1582.861328	4218.236816
29469.861862	-1340.957667	1581.818359	3923.480225
29469.861862	-1340.957667	1580.775391	3796.179932
29469.861862	-1340.957667	1579.731445	3648.444336
29469.861862	-1340.957667	1578.687500	3702.389648
29469.861862	-1340.957667	1577.643555	3642.005615
29469.861862	-1340.957667	1576.598633	3451.320313
29469.861862	-1340.957667	1575.554688	3675.042236
29469.861862	-1340.957667	1574.509766	3402.366455
29469.861862	-1340.957667	1573.464844	3113.937988
29469.861862	-1340.957667	1572.419922	3120.781738
29469.861862	-1340.957667	1571.374023	3123.187988
29469.861862	-1340.957667	1570.329102	3269.781738
29469.861862	-1340.957667	1569.283203	2865.652100
29469.861862	-1340.957667	1568.237305	2975.980225
29469.861862	-1340.957667	1567.191406	2933.355225
29469.861862	-1340.957667	1566.144531	2705.878906
29469.861862	-1340.957667	1565.098633	2802.957520
29469.861862	-1340.957667	1564.051758	2438.929932
29469.861862	-1340.957667	1563.004883	2780.599365
29469.861862	-1340.957667	1561.957031	2873.511475
29469.861862	-1340.957667	1560.910156	2822.811035
29469.861862	-1340.957667	1559.862305	2708.405029
29469.861862	-1340.957667	1558.814453	2687.738037
29469.861862	-1340.957667	1557.766602	2890.751221
29469.861862	-1340.957667	1556.718750	2713.076172
29469.861862	-1340.957667	1555.669922	2827.431396
29469.861862	-1340.957667	1554.621094	2989.782715
29469.861862	-1340.957667	1553.573242	2910.714355
29469.861862	-1340.957667	1552.523438	2713.352783
29469.861862	-1340.957667	1551.474609	2962.729736
29469.861862	-1340.957667	1550.424805	2642.819336
29469.861862	-1340.957667	1549.375000	2815.047119
29469.861862	-1340.957667	1548.325195	2928.199219
29469.861862	-1340.957667	1547.275391	2811.608887
29469.861862	-1340.957667	1546.225586	2763.520996
29469.861862	-1340.957667	1545.174805	2838.485352
29469.861862	-1340.957667	1544.124023	2899.961914
29469.861862	-1340.957667	1543.073242	2745.543701
29469.861862	-1340.957667	1542.022461	2661.868164
29469.861862	-1340.957667	1540.970703	2460.186768
29469.861862	-1340.957667	1539.919922	2331.524170
29469.861862	-1340.957667	1538.868164	2523.517822
29469.861862	-1340.957667	1537.815430	2547.483643
29469.861862	-1340.957667	1536.763672	2767.007568
29469.861862	-1340.957667	1535.710938	2607.345215
29469.861862	-1340.957667	1534.659180	2640.964111
29469.861862	-1340.957667	1533.606445	2736.052979
29469.861862	-1340.957667	1532.552734	2565.724121
29469.861862	-1340.957667	1531.500000	2590.838867
29469.861862	-1340.957667	1530.446289	2445.962891
29469.861862	-1340.957667	1529.393555	2389.826172
29469.861862	-1340.957667	1528.338867	2367.912842
29469.861862	-1340.957667	1527.285156	2307.671143
29469.861862	-1340.957667	1526.231445	2292.999268
29469.861862	-1340.957667	1525.176758	1924.922974
29469.861862	-1340.957667	1524.122070	1738.495972
29469.861862	-1340.957667	1523.067383	1754.001831
29469.861862	-1340.957667	1522.012695	1812.749634
29469.861862	-1340.957667	1520.957031	1710.861450
29469.861862	-1340.957667	1519.901367	1541.288452
29469.861862	-1340.957667	1518.845703	1942.515503
29469.861862	-1340.957667	1517.790039	1556.076050
29469.861862	-1340.957667	1516.734375	1335.204834
29469.861862	-1340.957667	1515.677734	1107.833374
29469.861862	-1340.957667	1514.621094	1405.589600
29469.861862	-1340.957667	1513.564453	1398.100708
29469.861862	-1340.957667	1512.507813	1191.829712
29469.861862	-1340.957667	1511.450195	1422.189453
29469.861862	-1340.957667	1510.393555	1261.622803
29469.861862	-1340.957667	1509.335938	1119.404297
29469.861862	-1340.957667	1508.278320	1311.857788
29469.861862	-1340.957667	1507.219727	1152.027832
29469.861862	-1340.957667	1506.162109	1051.203003
29469.861862	-1340.957667	1505.103516	1090.628296
29469.861862	-1340.957667	1504.044922	1121.220581
29469.861862	-1340.957667	1502.986328	984.971802
29469.861862	-1340.957667	1501.926758	1015.989929
29469.861862	-1340.957667	1500.868164	1169.057495
29469.861862	-1340.957667	1499.808594	794.384460
29469.861862	-1340.957667	1498.749023	769.671448
29469.861862	-1340.957667	1497.688477	742.921570
29469.861862	-1340.957667	1496.628906	928.329773
29469.861862	-1340.957667	1495.568359	665.298889
29469.861862	-1340.957667	1494.507813	546.821716
29469.861862	-1340.957667	1493.447266	439.868774
29469.861862	-1340.957667	1492.386719	596.750427
29469.861862	-1340.957667	1491.325195	481.242249
29469.861862	-1340.957667	1490.263672	145.306854
29469.861862	-1340.957667	1489.202148	-10.165359
29469.861862	-1340.957667	1488.140625	66.489388
29469.861862	-1340.957667	1487.079102	224.345016
29469.861862	-1340.957667	1486.016602	31.330296
29469.861862	-1340.957667	1484.954102	59.070873
29469.861862	-1340.957667	1483.891602	28.533186
29469.861862	-1340.957667	1482.829102	74.673889
29469.861862	-1340.957667	1481.765625	-85.843163
29469.861862	-1340.957667	1480.702148	-268.568970
29469.861862	-1340.957667	1479.638672	47.894466
29469.861862	-1340.957667	1478.575195	25.154116
29469.861862	-1340.957667	1477.511719	-40.015106
29469.861862	-1340.957667	1476.447266	173.475357
29469.861862	-1340.957667	1475.382813	209.667175
29469.861862	-1340.957667	1474.318359	349.364532
29469.861862	-1340.957667	1473.253906	549.766052
29469.861862	-1340.957667	1472.189453	801.877136
29469.861862	-1340.957667	1471.124023	574.111267
29469.861862	-1340.957667	1470.058594	725.544312
29469.861862	-1340.957667	1468.993164	848.076050
29469.861862	-1340.957667	1467.927734	735.383606
29469.861862	-1340.957667	1466.861328	1077.635132
29469.861862	-1340.957667	1465.794922	759.489563
29469.861862	-1340.957667	1464.728516	936.299805
29469.861862	-1340.957667	1463.662109	951.653015
29469.861862	-1340.957667	1462.594727	838.081360
29469.861862	-1340.957667	1461.528320	966.547729
29469.861862	-1340.957667	1460.460938	967.226746
29469.861862	-1340.957667	1459.393555	787.403137
29469.861862	-1340.957667	1458.326172	714.939331
29469.861862	-1340.957667	1457.257813	957.438782
29469.861862	-1340.957667	1456.189453	1036.562378
29469.861862	-1340.957667	1455.121094	847.090515
29469.861862	-1340.957667	1454.052734	918.393494
29469.861862	-1340.957667	1452.984375	796.728271
29469.861862	-1340.957667	1451.915039	720.603271
29469.861862	-1340.957667	1450.845703	774.184387
29469.861862	-1340.957667	1449.776367	932.544922
29469.861862	-1340.957667	1448.707031	918.254211
29469.861862	-1340.957667	1447.636719	850.737488
29469.861862	-1340.957667	1446.567383	708.081116
29469.861862	-1340.957667	1445.497070	713.826050
29469.861862	-1340.957667	1444.425781	647.729492
29469.861862	-1340.957667	1443.355469	501.826202
29469.861862	-1340.957667	1442.285156	833.180176
29469.861862	-1340.957667	1441.213867	425.783936
29469.861862	-1340.957667	1440.142578	653.512390
29469.861862	-1340.957667	1439.070313	800.414978
29469.861862	-1340.957667	1437.999023	721.905396
29469.861862	-1340.957667	1436.926758	658.175537
29469.861862	-1340.957667	1435.854492	930.562439
29469.861862	-1340.957667	1434.782227	768.430298
29469.861862	-1340.957667	1433.709961	879.361877
29469.861862	-1340.957667	1432.636719	605.839294
29469.861862	-1340.957667	1431.563477	898.140198
29469.861862	-1340.957667	1430.490234	415.991943
29469.861862	-1340.957667	1429.416992	597.506714
29469.861862	-1340.957667	1428.343750	572.083618
29469.861862	-1340.957667	1427.269531	402.766022
29469.861862	-1340.957667	1426.195313	385.453827
29469.861862	-1340.957667	1425.121094	736.968079
29469.861862	-1340.957667	1424.046875	586.330994
29469.861862	-1340.957667	1422.971680	720.619568
29469.861862	-1340.957667	1421.896484	762.772278
29469.861862	-1340.957667	1420.821289	752.920532
29469.861862	-1340.957667	1419.746094	721.785706
29469.861862	-1340.957667	1418.669922	706.125244
29469.861862	-1340.957667	1417.594727	859.356262
29469.861862	-1340.957667	1416.518555	977.404907
29469.861862	-1340.957667	1415.442383	973.372742
29469.861862	-1340.957667	1414.365234	873.535095
29469.861862	-1340.957667	1413.289063	1011.966187
29469.861862	-1340.957667	1412.211914	1226.747681
29469.861862	-1340.957667	1411.134766	1034.708740
29469.861862	-1340.957667	1410.057617	1150.879517
29469.861862	-1340.957667	1408.979492	1178.465576
29469.861862	-1340.957667	1407.902344	1219.115845
29469.861862	-1340.957667	1406.824219	1302.345093
29469.861862	-1340.957667	1405.746094	1411.149780
29469.861862	-1340.957667	1404.666992	1258.911987
29469.861862	-1340.957667	1403.588867	1365.043091
29469.861862	-1340.957667	1402.509766	1484.340088
29469.861862	-1340.957667	1401.430664	1493.635010
29469.861862	-1340.957667	1400.351563	1447.908691
29469.861862	-1340.957667	1399.271484	1327.100464
29469.861862	-1340.957667	1398.192383	1524.796265
29469.861862	-1340.957667	1397.112305	1818.136108
29469.861862	-1340.957667	1396.031250	1789.597534
29469.861862	-1340.957667	1394.951172	1714.304443
29469.861862	-1340.957667	1393.871094	1781.538452
29469.861862	-1340.957667	1392.790039	1825.255249
29469.861862	-1340.957667	1391.708984	2059.406494
29469.861862	-1340.957667	1390.626953	2223.324951
29469.861862	-1340.957667	1389.545898	2389.143555
29469.861862	-1340.957667	1388.463867	2155.773438
29469.861862	-1340.957667	1387.381836	2041.156616
29469.861862	-1340.957667	1386.299805	2195.701172
29469.861862	-1340.957667	1385.217773	2221.825928
29469.861862	-1340.957667	1384.134766	2017.059692
29469.861862	-1340.957667	1383.051758	1982.296509
29469.861862	-1340.957667	1381.968750	1911.892212
29469.861862	-1340.957667	1380.885742	1954.820068
29469.861862	-1340.957667	1379.802734	1793.703491
29469.861862	-1340.957667	1378.718750	1803.226074
29469.861862	-1340.957667	1377.634766	1858.103760
29469.861862	-1340.957667	1376.550781	1827.924927
29469.861862	-1340.957667	1375.465820	1832.275635
29469.861862	-1340.957667	1374.381836	1740.791626
29469.861862	-1340.957667	1373.296875	1691.076538
29469.861862	-1340.957667	1372.211914	1688.304810
29469.861862	-1340.957667	1371.126953	1742.703491
29469.861862	-1340.957667	1370.041016	1720.464600
29469.861862	-1340.957667	1368.955078	1597.449951
29469.861862	-1340.957667	1367.869141	1721.819824
29469.861862	-1340.957667	1366.783203	1597.826782
29469.861862	-1340.957667	1365.697266	1684.365601
29469.861862	-1340.957667	1364.610352	1631.722900
29469.861862	-1340.957667	1363.523438	1564.892456
29469.861862	-1340.957667	1362.436523	1740.031006
29469.861862	-1340.957667	1361.349609	1830.404541
29469.861862	-1340.957667	1360.261719	1881.815308
29469.861862	-1340.957667	1359.174805	1903.597534
29469.861862	-1340.957667	1358.086914	1734.613525
29469.861862	-1340.957667	1356.998047	1805.234741
29469.861862	-1340.957667	1355.910156	1900.494385
29469.861862	-1340.957667	1354.821289	2060.606445
29469.861862	-1340.957667	1353.732422	1979.245605
29469.861862	-1340.957667	1352.643555	2166.303223
29469.861862	-1340.957667	1351.554688	2287.775635
29469.861862	-1340.957667	1350.464844	2073.307861
29469.861862	-1340.957667	1349.375000	1928.431519
29469.861862	-1340.957667	1348.285156	2182.731445
29469.861862	-1340.957667	1347.195313	2162.969238
29469.861862	-1340.957667	1346.105469	2295.853027
29469.861862	-1340.957667	1345.014648	2126.720703
29469.861862	-1340.957667	1343.923828	2169.143311
29469.861862	-1340.957667	1342.833008	2092.943359
29469.861862	-1340.957667	1341.741211	2214.784180
29469.861862	-1340.957667	1340.650391	2149.875977
29469.861862	-1340.957667	1339.558594	2018.181152
29469.861862	-1340.957667	1338.466797	2033.170654
29469.861862	-1340.957667	1337.374023	1907.001465
29469.861862	-1340.957667	1336.282227	1667.202515
29469.861862	-1340.957667	1335.189453	1923.622925
29469.861862	-1340.957667	1334.096680	1879.139648
29469.861862	-1340.957667	1333.003906	1889.446655
29469.861862	-1340.957667	1331.910156	1973.449219
29469.861862	-1340.957667	1330.817383	1851.720825
29469.861862	-1340.957667	1329.723633	1773.642212
29469.861862	-1340.957667	1328.629883	1741.541382
29469.861862	-1340.957667	1327.535156	1836.335815
29469.861862	-1340.957667	1326.441406	1764.045532
29469.861862	-1340.957667	1325.346680	1837.481689
29469.861862	-1340.957667	1324.251953	1881.729858
29469.861862	-1340.957667	1323.156250	1701.881226
29469.861862	-1340.957667	1322.061523	1624.412964
29469.861862	-1340.957667	1320.965820	1855.567871
29469.861862	-1340.957667	1319.870117	1841.302612
29469.861862	-1340.957667	1318.774414	1670.943848
29469.861862	-1340.957667	1317.678711	1587.800659
29469.861862	-1340.957667	1316.582031	1580.675659
29469.861862	-1340.957667	1315.485352	1316.839722
29469.861862	-1340.957667	1314.388672	1601.061035
29469.861862	-1340.957667	1313.291016	1498.997803
29469.861862	-1340.957667	1312.194336	1351.260132
29469.861862	-1340.957667	1311.096680	1270.473511
29469.861862	-1340.957667	1309.999023	1362.786621
29469.861862	-1340.957667	1308.901367	1371.566284
29469.861862	-1340.957667	1307.802734	1592.833984
29469.861862	-1340.957667	1306.705078	1332.503540
29469.861862	-1340.957667	1305.606445	1504.944824
29469.861862	-1340.957667	1304.506836	1368.310791
29469.861862	-1340.957667	1303.408203	1323.526733
29469.861862	-1340.957667	1302.308594	1405.713745
29469.861862	-1340.957667	1301.208984	1367.545654
29469.861862	-1340.957667	1300.109375	1416.751587
29469.861862	-1340.957667	1299.009766	1567.615601
29469.861862	-1340.957667	1297.909180	1481.948486
29469.861862	-1340.957667	1296.808594	1549.975830
29469.861862	-1340.957667	1295.708008	1625.635132
29469.861862	-1340.957667	1294.607422	1464.492310
29469.861862	-1340.957667	1293.506836	1487.917358
29469.861862	-1340.957667	1292.405273	1433.572632
29469.861862	-1340.957667	1291.303711	1350.622559
29469.861862	-1340.957667	1290.202148	1410.908447
29469.861862	-1340.957667	1289.099609	1262.482666
29469.861862	-1340.957667	1287.998047	1422.742065
29469.861862	-1340.957667	1286.895508	1412.214233
29469.861862	-1340.957667	1285.792969	1467.081909
29469.861862	-1340.957667	1284.689453	1448.831665
29469.861862	-1340.957667	1283.586914	1596.671387
29469.861862	-1340.957667	1282.483398	1602.447632
29469.861862	-1340.957667	1281.379883	1536.414551
29469.861862	-1340.957667	1280.276367	1516.232300
29469.861862	-1340.957667	1279.171875	1619.712769
29469.861862	-1340.957667	1278.067383	1403.792725
29469.861862	-1340.957667	1276.962891	1513.994629
29469.861862	-1340.957667	1275.858398	1467.797852
29469.861862	-1340.957667	1274.753906	1380.342773
29469.861862	-1340.957667	1273.648438	1267.518677
29469.861862	-1340.957667	1272.542969	1364.108154
29469.861862	-1340.957667	1271.437500	1103.637573
29469.861862	-1340.957667	1270.331055	1303.391235
29469.861862	-1340.957667	1269.225586	1022.711426
29469.861862	-1340.957667	1268.119141	1010.941406
29469.861862	-1340.957667	1267.012695	1241.849487
29469.861862	-1340.957667	1265.906250	1216.315430
29469.861862	-1340.957667	1264.798828	1138.429443
29469.861862	-1340.957667	1263.691406	1223.510620
29469.861862	-1340.957667	1262.583984	994.726929
29469.861862	-1340.957667	1261.476563	996.008972
29469.861862	-1340.957667	1260.368164	1095.385498
29469.861862	-1340.957667	1259.260742	1058.163696
29469.861862	-1340.957667	1258.152344	1330.258057
29469.861862	-1340.957667	1257.043945	1400.140137
29469.861862	-1340.957667	1255.934570	1452.467407
29469.861862	-1340.957667	1254.825195	1396.450806
29469.861862	-1340.957667	1253.716797	1379.845337
29469.861862	-1340.957667	1252.606445	1222.260376
29469.861862	-1340.957667	1251.497070	1189.586914
29469.861862	-1340.957667	1250.387695	1404.871826
29469.861862	-1340.957667	1249.277344	1438.998169
29469.861862	-1340.957667	1248.166992	1611.666138
29469.861862	-1340.957667	1247.055664	1541.736084
29469.861862	-1340.957667	1245.945313	1495.579956
29469.861862	-1340.957667	1244.833984	1388.097656
29469.861862	-1340.957667	1243.722656	1432.035889
29469.861862	-1340.957667	1242.611328	1346.940552
29469.861862	-1340.957667	1241.499023	1324.962280
29469.861862	-1340.957667	1240.387695	1501.317505
29469.861862	-1340.957667	1239.275391	1223.768555
29469.861862	-1340.957667	1238.162109	1204.577393
29469.861862	-1340.957667	1237.049805	1091.832153
29469.861862	-1340.957667	1235.936523	1059.567261
29469.861862	-1340.957667	1234.823242	1162.469971
29469.861862	-1340.957667	1233.709961	1231.822876
29469.861862	-1340.957667	1232.596680	1134.963257
29469.861862	-1340.957667	1231.482422	882.937683
29469.861862	-1340.957667	1230.369141	808.261536
29469.861862	-1340.957667	1229.253906	917.807861
29469.861862	-1340.957667	1228.139648	863.216125
29469.861862	-1340.957667	1227.025391	856.822937
29469.861862	-1340.957667	1225.910156	784.086609
29469.861862	-1340.957667	1224.794922	835.237000
29469.861862	-1340.957667	1223.679688	741.915222
29469.861862	-1340.957667	1222.563477	611.346130
29469.861862	-1340.957667	1221.447266	725.964844
29469.861862	-1340.957667	1220.331055	466.676086
29469.861862	-1340.957667	1219.214844	570.997009
29469.861862	-1340.957667	1218.098633	532.876282
29469.861862	-1340.957667	1216.981445	597.179321
29469.861862	-1340.957667	1215.864258	476.473267
29469.861862	-1340.957667	1214.747070	291.165924
29469.861862	-1340.957667	1213.629883	458.982422
29469.861862	-1340.957667	1212.511719	452.040894
29469.861862	-1340.957667	1211.393555	510.560181
29469.861862	-1340.957667	1210.275391	420.044739
29469.861862	-1340.957667	1209.157227	481.537109
29469.861862	-1340.957667	1208.038086	657.171936
29469.861862	-1340.957667	1206.918945	696.996338
29469.861862	-1340.957667	1205.799805	823.406494
29469.861862	-1340.957667	1204.680664	877.470398
29469.861862	-1340.957667	1203.560547	633.190552
29469.861862	-1340.957667	1202.441406	647.646790
29469.861862	-1340.957667	1201.321289	551.908020
29469.861862	-1340.957667	1200.200195	627.272522
29469.861862	-1340.957667	1199.080078	513.624207
29469.861862	-1340.957667	1197.958984	426.621490
29469.861862	-1340.957667	1196.837891	437.207642
29469.861862	-1340.957667	1195.716797	291.796448
29469.861862	-1340.957667	1194.594727	367.425293
29469.861862	-1340.957667	1193.473633	259.385803
29469.861862	-1340.957667	1192.351563	281.603577
29469.861862	-1340.957667	1191.229492	297.550446
29469.861862	-1340.957667	1190.106445	345.775391
29469.861862	-1340.957667	1188.984375	234.460129
29469.861862	-1340.957667	1187.861328	359.172424
29469.861862	-1340.957667	1186.738281	114.440063
29469.861862	-1340.957667	1185.614258	311.871368
29469.861862	-1340.957667	1184.491211	268.940613
29469.861862	-1340.957667	1183.367188	256.485596
29469.861862	-1340.957667	1182.243164	420.717010
29469.861862	-1340.957667	1181.119141	480.169922
29469.861862	-1340.957667	1179.994141	387.874207
29469.861862	-1340.957667	1178.869141	407.631653
29469.861862	-1340.957667	1177.744141	360.352295
29469.861862	-1340.957667	1176.619141	596.140503
29469.861862	-1340.957667	1175.493164	478.642242
29469.861862	-1340.957667	1174.368164	501.718628
29469.861862	-1340.957667	1173.242188	487.814911
29469.861862	-1340.957667	1172.115234	508.966003
29469.861862	-1340.957667	1170.989258	398.680878
29469.861862	-1340.957667	1169.862305	468.428833
29469.861862	-1340.957667	1168.735352	393.101135
29469.861862	-1340.957667	1167.608398	369.567841
29469.861862	-1340.957667	1166.481445	401.809387
29469.861862	-1340.957667	1165.353516	396.131439
29469.861862	-1340.957667	1164.225586	251.604202
29469.861862	-1340.957667	1163.097656	222.107544
29469.861862	-1340.957667	1161.968750	153.143250
29469.861862	-1340.957667	1160.840820	242.838593
29469.861862	-1340.957667	1159.711914	258.401184
29469.861862	-1340.957667	1158.583008	136.825394
29469.861862	-1340.957667	1157.453125	37.011219
29469.861862	-1340.957667	1156.324219	-20.713358
29469.861862	-1340.957667	1155.194336	-74.553284
29469.861862	-1340.957667	1154.064453	66.283920
29469.861862	-1340.957667	1152.933594	89.188293
29469.861862	-1340.957667	1151.803711	98.973663
29469.861862	-1340.957667	1150.672852	75.585030
29469.861862	-1340.957667	1149.541992	132.075882
29469.861862	-1340.957667	1148.411133	-72.368141
29469.861862	-1340.957667	1147.279297	93.377113
29469.861862	-1340.957667	1146.147461	129.250092
29469.861862	-1340.957667	1145.015625	93.502853
29469.861862	-1340.957667	1143.883789	164.625763
29469.861862	-1340.957667	1142.750977	19.048439
29469.861862	-1340.957667	1141.619141	161.979370
29469.861862	-1340.957667	1140.486328	6.317627
29469.861862	-1340.957667	1139.352539	-87.293243
29469.861862	-1340.957667	1138.219727	-58.786972
29469.861862	-1340.957667	1137.085938	-30.672022
29469.861862	-1340.957667	1135.952148	10.159566
29469.861862	-1340.957667	1134.818359	66.157181
29469.861862	-1340.957667	1133.683594	37.314461
29469.861862	-1340.957667	1132.549805	-2.948184
29469.861862	-1340.957667	1131.415039	47.569202
29469.861862	-1340.957667	1130.279297	56.780708
29469.861862	-1340.957667	1129.144531	53.502583
29469.861862	-1340.957667	1128.008789	21.145412
29469.861862	-1340.957667	1126.873047	-116.764381
29469.861862	-1340.957667	1125.737305	-145.967804
29469.861862	-1340.957667	1124.601563	-34.013470
29469.861862	-1340.957667	1123.464844	-52.871094
29469.861862	-1340.957667	1122.328125	73.181305
29469.861862	-1340.957667	1121.191406	-37.206631
29469.861862	-1340.957667	1120.054688	-74.908714
29469.861862	-1340.957667	1118.916992	-56.496410
29469.861862	-1340.957667	1117.779297	-211.685013
29469.861862	-1340.957667	1116.641602	-56.688145
29469.861862	-1340.957667	1115.503906	-5.476280
29469.861862	-1340.957667	1114.365234	-137.808594
29469.861862	-1340.957667	1113.226563	-93.406982
29469.861862	-1340.957667	1112.087891	-123.476273
29469.861862	-1340.957667	1110.949219	-18.087509
29469.861862	-1340.957667	1109.809570	-65.273514
29469.861862	-1340.957667	1108.669922	-161.905350
29469.861862	-1340.957667	1107.530273	-79.166382
29469.861862	-1340.957667	1106.390625	-97.550468
29469.861862	-1340.957667	1105.250000	-137.479309
29469.861862	-1340.957667	1104.109375	-38.741753
29469.861862	-1340.957667	1102.968750	-119.628525
29469.861862	-1340.957667	1101.828125	8.317663
29469.861862	-1340.957667	1100.686523	-63.263565
29469.861862	-1340.957667	1099.544922	70.115547
29469.861862	-1340.957667	1098.403320	122.799019
29469.861862	-1340.957667	1097.261719	188.785172
29469.861862	-1340.957667	1096.120117	255.476624
29469.861862	-1340.957667	1094.977539	203.969772
29469.861862	-1340.957667	1093.834961	129.069031
29469.861862	-1340.957667	1092.691406	246.646133
29469.861862	-1340.957667	1091.548828	184.230896
29469.861862	-1340.957667	1090.405273	429.576141
29469.861862	-1340.957667	1089.261719	197.629120
29469.861862	-1340.957667	1088.118164	236.829529
29469.861862	-1340.957667	1086.973633	274.260742
29469.861862	-1340.957667	1085.829102	358.178680
29469.861862	-1340.957667	1084.684570	318.480164
29469.861862	-1340.957667	1083.540039	269.643921
29469.861862	-1340.957667	1082.395508	287.810913
29469.861862	-1340.957667	1081.250000	376.767334
29469.861862	-1340.957667	1080.104492	413.500854
29469.861862	-1340.957667	1078.958984	403.741211
29469.861862	-1340.957667	1077.812500	446.759888
29469.861862	-1340.957667	1076.666016	434.741882
29469.861862	-1340.957667	1075.519531	555.744141
29469.861862	-1340.957667	1074.373047	764.441772
29469.861862	-1340.957667	1073.226563	672.219727
29469.861862	-1340.957667	1072.079102	541.784790
29469.861862	-1340.957667	1070.931641	659.576172
29469.861862	-1340.957667	1069.784180	436.460358
29469.861862	-1340.957667	1068.635742	399.441772
29469.861862	-1340.957667	1067.487305	546.925537
29469.861862	-1340.957667	1066.338867	416.547699
29469.861862	-1340.957667	1065.190430	208.237167
29469.861862	-1340.957667	1064.041992	297.493256
29469.861862	-1340.957667	1062.892578	250.894424
29469.861862	-1340.957667	1061.743164	306.356750
29469.861862	-1340.957667	1060.593750	388.303284
29469.861862	-1340.957667	1059.443359	159.644455
29469.861862	-1340.957667	1058.292969	-28.693827
29469.861862	-1340.957667	1057.142578	15.602180
29469.861862	-1340.957667	1055.992188	-24.297377
29469.861862	-1340.957667	1054.841797	77.614563
29469.861862	-1340.957667	1053.690430	-106.277267
29469.861862	-1340.957667	1052.539063	3.335140
29469.861862	-1340.957667	1051.387695	73.163918
29469.861862	-1340.957667	1050.235352	204.229401
29469.861862	-1340.957667	1049.083984	-346.204773
29469.861862	-1340.957667	1047.931641	-124.563995
29469.861862	-1340.957667	1046.778320	-72.604088
29469.861862	-1340.957667	1045.625977	-146.991806
29469.861862	-1340.957667	1044.472656	17.405745
29469.861862	-1340.957667	1043.319336	16.207447
29469.861862	-1340.957667	1042.166016	64.995522
29469.861862	-1340.957667	1041.012695	-4.666385
29469.861862	-1340.957667	1039.858398	-33.264198
29469.861862	-1340.957667	1038.704102	-74.724800
29469.861862	-1340.957667	1037.549805	106.755692
29469.861862	-1340.957667	1036.394531	211.218552
29469.861862	-1340.957667	1035.239258	198.928406
29469.861862	-1340.957667	1034.083984	49.571949
29469.861862	-1340.957667	1032.928711	169.138580
29469.861862	-1340.957667	1031.773438	266.646027
29469.861862	-1340.957667	1030.617188	378.168518
29469.861862	-1340.957667	1029.460938	442.763885
29469.861862	-1340.957667	1028.304688	180.194916
29469.861862	-1340.957667	1027.147461	384.924408
29469.861862	-1340.957667	1025.991211	421.328888
29469.861862	-1340.957667	1024.833984	406.176514
29469.861862	-1340.957667	1023.675781	315.531738
29469.861862	-1340.957667	1022.518555	338.797668
29469.861862	-1340.957667	1021.360352	145.197281
29469.861862	-1340.957667	1020.202148	265.628510
29469.861862	-1340.957667	1019.043945	354.839478
29469.861862	-1340.957667	1017.884766	327.725250
29469.861862	-1340.957667	1016.726563	312.005676
29469.861862	-1340.957667	1015.567383	227.673828
29469.861862	-1340.957667	1014.407227	282.759979
29469.861862	-1340.957667	1013.248047	215.580856
29469.861862	-1340.957667	1012.087891	372.540466
29469.861862	-1340.957667	1010.927734	182.296707
29469.861862	-1340.957667	1009.767578	310.734436
29469.861862	-1340.957667	1008.606445	178.695541
29469.861862	-1340.957667	1007.446289	465.106598
29469.861862	-1340.957667	1006.285156	537.365234
29469.861862	-1340.957667	1005.123047	450.734100
29469.861862	-1340.957667	1003.961914	642.709229
29469.861862	-1340.957667	1002.799805	599.777954
29469.861862	-1340.957667	1001.637695	356.539764
29469.861862	-1340.957667	1000.475586	409.131500
29469.861862	-1340.957667	999.312500	451.963043
29469.861862	-1340.957667	998.149414	464.888977
29469.861862	-1340.957667	996.986328	360.802887
29469.861862	-1340.957667	995.823242	320.342377
29469.861862	-1340.957667	994.659180	217.080368
29469.861862	-1340.957667	993.496094	320.893402
29469.861862	-1340.957667	992.332031	60.197708
29469.861862	-1340.957667	991.166992	306.742126
29469.861862	-1340.957667	990.002930	106.440598
29469.861862	-1340.957667	988.837891	155.644608
29469.861862	-1340.957667	987.672852	200.467819
29469.861862	-1340.957667	986.506836	146.324600
29469.861862	-1340.957667	985.341797	107.370323
29469.861862	-1340.957667	984.175781	81.457169
29469.861862	-1340.957667	983.009766	-55.705383
29469.861862	-1340.957667	981.843750	28.659924
29469.861862	-1340.957667	980.676758	80.914459
29469.861862	-1340.957667	979.509766	-79.490959
29469.861862	-1340.957667	978.342773	-103.460754
29469.861862	-1340.957667	977.175781	-183.780212
29469.861862	-1340.957667	976.007813	-141.218994
29469.861862	-1340.957667	974.839844	128.309586
29469.861862	-1340.957667	973.671875	119.609100
29469.861862	-1340.957667	972.503906	17.201849
29469.861862	-1340.957667	971.334961	-164.406631
29469.861862	-1340.957667	970.166016	-45.287712
29469.861862	-1340.957667	968.997070	-14.539223
29469.861862	-1340.957667	967.828125	240.086700
29469.861862	-1340.957667	966.658203	184.748749
29469.861862	-1340.957667	965.488281	61.671558
29469.861862	-1340.957667	964.318359	113.131317
29469.861862	-1340.957667	963.148438	234.031143
29469.861862	-1340.957667	961.977539	116.877167
29469.861862	-1340.957667	960.806641	264.969391
29469.861862	-1340.957667	959.635742	223.367172
29469.861862	-1340.957667	958.463867	206.780594
29469.861862	-1340.957667	957.292969	134.988968
29469.861862	-1340.957667	956.121094	170.135284
29469.861862	-1340.957667	954.948242	262.744568
29469.861862	-1340.957667	953.776367	196.121765
29469.861862	-1340.957667	952.603516	199.909576
29469.861862	-1340.957667	951.430664	224.941513
29469.861862	-1340.957667	950.257813	124.327690
29469.861862	-1340.957667	949.084961	112.266060
29469.861862	-1340.957667	947.911133	127.459450
29469.861862	-1340.957667	946.737305	306.096008
29469.861862	-1340.957667	945.563477	298.407867
29469.861862	-1340.957667	944.388672	309.053741
29469.861862	-1340.957667	943.213867	-14.344470
29469.861862	-1340.957667	942.039063	278.190460
29469.861862	-1340.957667	940.864258	268.300781
29469.861862	-1340.957667	939.688477	68.965347
29469.861862	-1340.957667	938.513672	290.914032
29469.861862	-1340.957667	937.337891	550.033386
29469.861862	-1340.957667	936.161133	290.537903
29469.861862	-1340.957667	934.985352	344.220154
29469.861862	-1340.957667	933.808594	298.210571
29469.861862	-1340.957667	932.631836	324.932190
29469.861862	-1340.957667	931.454102	444.721924
29469.861862	-1340.957667	930.277344	406.960602
29469.861862	-1340.957667	929.099609	451.967773
29469.861862	-1340.957667	927.921875	403.747711
29469.861862	-1340.957667	926.743164	400.996368
29469.861862	-1340.957667	925.565430	166.111694
29469.861862	-1340.957667	924.386719	235.831711
29469.861862	-1340.957667	923.208008	216.389359
29469.861862	-1340.957667	922.028320	374.989258
29469.861862	-1340.957667	920.849609	113.121460
29469.861862	-1340.957667	919.669922	116.430832
29469.861862	-1340.957667	919.474609	34.021404
29469.861862	-1340.957667	918.309570	74.351097
29469.861862	-1340.957667	917.143555	33.897560
29469.861862	-1340.957667	915.977539	187.887238
29469.861862	-1340.957667	914.810547	27.329081
29469.861862	-1340.957667	913.644531	135.633713
29469.861862	-1340.957667	912.477539	295.528381
29469.861862	-1340.957667	911.310547	167.935974
29469.861862	-1340.957667	910.143555	46.532909
29469.861862	-1340.957667	908.975586	109.034904
29469.861862	-1340.957667	907.807617	28.888483
29469.861862	-1340.957667	906.639648	182.129395
29469.861862	-1340.957667	905.471680	-94.325729
29469.861862	-1340.957667	904.303711	-135.344452
29469.861862	-1340.957667	903.134766	94.023056
29469.861862	-1340.957667	901.965820	-2.874089
29469.861862	-1340.957667	900.796875	-13.130978
29469.861862	-1340.957667	899.626953	145.727432
29469.861862	-1340.957667	898.457031	54.866844
29469.861862	-1340.957667	897.287109	178.452896
29469.861862	-1340.957667	896.117188	95.733246
29469.861862	-1340.957667	894.947266	136.665543
29469.861862	-1340.957667	893.776367	27.058538
29469.861862	-1340.957667	892.605469	-10.452069
29469.861862	-1340.957667	891.434570	77.652885
29469.861862	-1340.957667	890.262695	-21.784828
29469.861862	-1340.957667	889.091797	6.424095
29469.861862	-1340.957667	887.919922	73.671532
29469.861862	-1340.957667	886.748047	42.011452
29469.861862	-1340.957667	885.575195	65.861572
29469.861862	-1340.957667	884.403320	147.242722
29469.861862	-1340.957667	883.230469	82.454529
29469.861862	-1340.957667	882.057617	-198.347244
29469.861862	-1340.957667	880.883789	-24.642588
29469.861862	-1340.957667	879.710938	83.124023
29469.861862	-1340.957667	878.537109	-148.393799
29469.861862	-1340.957667	877.362305	107.176476
29469.861862	-1340.957667	876.188477	-97.691315
29469.861862	-1340.957667	875.013672	-154.641769
29469.861862	-1340.957667	873.839844	-213.698807
29469.861862	-1340.957667	872.664063	-102.371109
29469.861862	-1340.957667	871.489258	-175.939743
29469.861862	-1340.957667	870.313477	-309.081055
29469.861862	-1340.957667	869.138672	-302.697327
29469.861862	-1340.957667	867.962891	-288.186829
29469.861862	-1340.957667	866.786133	-74.778610
29469.861862	-1340.957667	865.610352	-5.104075
29469.861862	-1340.957667	864.433594	-23.708342
29469.861862	-1340.957667	863.256836	68.319328
29469.861862	-1340.957667	862.079102	100.789001
29469.861862	-1340.957667	860.902344	98.327629
29469.861862	-1340.957667	859.724609	206.422775
29469.861862	-1340.957667	858.546875	109.551888
29469.861862	-1340.957667	857.368164	217.436874
29469.861862	-1340.957667	856.190430	288.340027
29469.861862	-1340.957667	855.011719	215.831390
29469.861862	-1340.957667	853.833008	126.894547
29469.861862	-1340.957667	852.654297	191.385696
29469.861862	-1340.957667	851.474609	45.039150
29469.861862	-1340.957667	850.294922	246.399261
29469.861862	-1340.957667	849.115234	173.556610
29469.861862	-1340.957667	847.935547	346.014893
29469.861862	-1340.957667	846.754883	158.535477
29469.861862	-1340.957667	845.575195	281.705200
29469.861862	-1340.957667	844.393555	292.352478
29469.861862	-1340.957667	843.212891	292.696350
29469.861862	-1340.957667	842.032227	464.526459
29469.861862	-1340.957667	840.850586	487.125427
29469.861862	-1340.957667	839.668945	366.710144
29469.861862	-1340.957667	838.486328	427.929321
29469.861862	-1340.957667	837.304688	491.079712
29469.861862	-1340.957667	836.122070	529.630676
29469.861862	-1340.957667	834.939453	686.399109
29469.861862	-1340.957667	833.756836	761.432617
29469.861862	-1340.957667	832.573242	834.306458
29469.861862	-1340.957667	831.389648	807.162720
29469.861862	-1340.957667	830.206055	1000.083496
29469.861862	-1340.957667	829.022461	1005.348877
29469.861862	-1340.957667	827.838867	1071.648193
29469.861862	-1340.957667	826.654297	1510.614014
29469.861862	-1340.957667	825.469727	1568.456177
29469.861862	-1340.957667	824.284180	1595.641235
29469.861862	-1340.957667	823.099609	1748.947998
29469.861862	-1340.957667	821.914063	1792.189209
29469.861862	-1340.957667	820.728516	1741.714722
29469.861862	-1340.957667	819.542969	1428.715088
29469.861862	-1340.957667	818.356445	1329.336792
29469.861862	-1340.957667	817.169922	1170.932129
29469.861862	-1340.957667	815.983398	1203.632935
29469.861862	-1340.957667	814.796875	878.446106
29469.861862	-1340.957667	813.609375	673.215332
29469.861862	-1340.957667	812.422852	721.987671
29469.861862	-1340.957667	811.235352	782.837097
29469.861862	-1340.957667	810.046875	770.446106
29469.861862	-1340.957667	808.859375	956.990112
29469.861862	-1340.957667	807.670898	877.387512
29469.861862	-1340.957667	806.482422	876.896484
29469.861862	-1340.957667	805.293945	764.692932
29469.861862	-1340.957667	804.104492	1035.942383
29469.861862	-1340.957667	802.915039	976.316406
29469.861862	-1340.957667	801.725586	1030.207764
29469.861862	-1340.957667	800.536133	1242.159424
29469.861862	-1340.957667	799.345703	1186.312378
29469.861862	-1340.957667	798.155273	1152.695923
29469.861862	-1340.957667	796.964844	1035.915771
29469.861862	-1340.957667	795.774414	777.264099
29469.861862	-1340.957667	794.583008	956.187134
29469.861862	-1340.957667	793.392578	703.558716
29469.861862	-1340.957667	792.200195	461.063538
29469.861862	-1340.957667	791.008789	329.931488
29469.861862	-1340.957667	789.816406	344.494934
29469.861862	-1340.957667	788.625000	178.865585
29469.861862	-1340.957667	787.432617	120.443932
29469.861862	-1340.957667	786.239258	70.046532
29469.861862	-1340.957667	785.046875	17.566751
29469.861862	-1340.957667	783.853516	-18.807163
29469.861862	-1340.957667	782.660156	-148.243042
29469.861862	-1340.957667	781.465820	-107.939743
29469.861862	-1340.957667	780.272461	-41.465229
29469.861862	-1340.957667	779.078125	41.054798
29469.861862	-1340.957667	777.883789	-68.431931
29469.861862	-1340.957667	776.688477	-165.845184
29469.861862	-1340.957667	775.494141	-77.545319
29469.861862	-1340.957667	774.298828	10.628623
29469.861862	-1340.957667	773.103516	-189.917313
29469.861862	-1340.957667	771.907227	-120.086494
29469.861862	-1340.957667	770.711914	-66.500404
29469.861862	-1340.957667	769.515625	-130.005402
29469.861862	-1340.957667	768.318359	-40.315983
29469.861862	-1340.957667	767.122070	-77.752403
29469.861862	-1340.957667	765.924805	-161.619370
29469.861862	-1340.957667	764.727539	60.788555
29469.861862	-1340.957667	763.530273	-170.314163
29469.861862	-1340.957667	762.333008	-115.351692
29469.861862	-1340.957667	761.134766	46.246738
29469.861862	-1340.957667	759.936523	107.020874
29469.861862	-1340.957667	758.738281	-63.819637
29469.861862	-1340.957667	757.540039	-45.467491
29469.861862	-1340.957667	756.340820	145.854980
29469.861862	-1340.957667	755.141602	260.570587
29469.861862	-1340.957667	753.942383	-41.211517
29469.861862	-1340.957667	752.742188	191.994186
29469.861862	-1340.957667	751.541992	155.602921
29469.861862	-1340.957667	750.341797	-126.091545
29469.861862	-1340.957667	749.141602	362.015045
29469.861862	-1340.957667	747.941406	106.375648
29469.861862	-1340.957667	746.740234	83.805664
29469.861862	-1340.957667	745.539063	127.457993
29469.861862	-1340.957667	744.337891	58.568821
29469.861862	-1340.957667	743.135742	266.698547
29469.861862	-1340.957667	741.933594	285.988586
29469.861862	-1340.957667	740.731445	287.142883
29469.861862	-1340.957667	739.529297	197.941666
29469.861862	-1340.957667	738.326172	116.730347
29469.861862	-1340.957667	737.124023	290.209381
29469.861862	-1340.957667	735.919922	283.072357
29469.861862	-1340.957667	734.716797	344.045502
29469.861862	-1340.957667	733.513672	304.714539
29469.861862	-1340.957667	732.309570	109.026237
29469.861862	-1340.957667	731.105469	193.854019
29469.861862	-1340.957667	729.900391	130.350693
29469.861862	-1340.957667	728.696289	46.798519
29469.861862	-1340.957667	727.491211	19.280437
29469.861862	-1340.957667	726.286133	-34.305523
29469.861862	-1340.957667	725.080078	82.191391
29469.861862	-1340.957667	723.874023	114.544296
29469.861862	-1340.957667	722.668945	158.842911
29469.861862	-1340.957667	721.461914	-14.961815
29469.861862	-1340.957667	720.255859	-22.757166
29469.861862	-1340.957667	719.048828	-46.600300
29469.861862	-1340.957667	717.841797	175.384689
29469.861862	-1340.957667	716.634766	-162.347946
29469.861862	-1340.957667	715.427734	33.500744
29469.861862	-1340.957667	714.219727	-138.353256
29469.861862	-1340.957667	713.011719	39.338203
29469.861862	-1340.957667	711.803711	3.253037
29469.861862	-1340.957667	710.594727	11.054410
29469.861862	-1340.957667	709.385742	-5.139277
29469.861862	-1340.957667	708.176758	146.263000
29469.861862	-1340.957667	706.967773	213.767303
29469.861862	-1340.957667	705.758789	67.770355
29469.861862	-1340.957667	704.548828	212.960602
29469.861862	-1340.957667	703.338867	270.324799
29469.861862	-1340.957667	702.127930	90.400002
29469.861862	-1340.957667	700.917969	207.492676
29469.861862	-1340.957667	699.707031	59.476505
29469.861862	-1340.957667	698.496094	-208.040543
29469.861862	-1340.957667	697.285156	-164.751556
29469.861862	-1340.957667	696.073242	21.862879
29469.861862	-1340.957667	694.861328	-179.865555
29469.861862	-1340.957667	693.649414	10.605396
29469.861862	-1340.957667	692.436523	-67.703873
29469.861862	-1340.957667	691.224609	-98.240509
29469.861862	-1340.957667	690.011719	40.296696
29469.861862	-1340.957667	688.798828	138.978775
29469.861862	-1340.957667	687.584961	96.411987
29469.861862	-1340.957667	686.372070	302.359283
29469.861862	-1340.957667	685.158203	275.644257
29469.861862	-1340.957667	683.943359	189.301361
29469.861862	-1340.957667	682.729492	142.726379
29469.861862	-1340.957667	681.514648	384.173553
29469.861862	-1340.957667	680.299805	343.503052
29469.861862	-1340.957667	679.084961	271.072571
29469.861862	-1340.957667	677.869141	216.522552
29469.861862	-1340.957667	676.653320	199.697556
29469.861862	-1340.957667	675.437500	119.376221
29469.861862	-1340.957667	674.221680	279.132080
29469.861862	-1340.957667	673.004883	280.133850
29469.861862	-1340.957667	671.789063	602.391663
29469.861862	-1340.957667	670.571289	559.697266
29469.861862	-1340.957667	669.354492	404.045563
29469.861862	-1340.957667	668.136719	220.708389
29469.861862	-1340.957667	666.919922	364.382263
29469.861862	-1340.957667	665.701172	414.880524
29469.861862	-1340.957667	664.483398	382.190186
29469.861862	-1340.957667	663.264648	397.034210
29469.861862	-1340.957667	662.045898	378.225830
29469.861862	-1340.957667	660.827148	533.609070
29469.861862	-1340.957667	659.608398	807.668518
29469.861862	-1340.957667	658.388672	715.608093
29469.861862	-1340.957667	657.168945	851.070007
29469.861862	-1340.957667	655.949219	846.079956
29469.861862	-1340.957667	654.728516	991.365295
29469.861862	-1340.957667	653.507813	1280.907959
29469.861862	-1340.957667	652.287109	1441.885010
29469.861862	-1340.957667	651.066406	1553.414673
29469.861862	-1340.957667	649.844727	1406.118896
29469.861862	-1340.957667	648.623047	1466.290283
29469.861862	-1340.957667	647.401367	1544.230469
29469.861862	-1340.957667	646.179688	1564.908569
29469.861862	-1340.957667	644.957031	1364.524414
29469.861862	-1340.957667	643.734375	1235.294312
29469.861862	-1340.957667	642.511719	1167.309204
29469.861862	-1340.957667	641.289063	1219.706543
29469.861862	-1340.957667	640.065430	970.362549
29469.861862	-1340.957667	638.841797	827.628784
29469.861862	-1340.957667	637.618164	882.117554
29469.861862	-1340.957667	636.393555	991.793640
29469.861862	-1340.957667	635.168945	807.852417
29469.861862	-1340.957667	633.944336	811.179504
29469.861862	-1340.957667	632.719727	873.630310
29469.861862	-1340.957667	631.494141	589.495789
29469.861862	-1340.957667	630.269531	382.309814
29469.861862	-1340.957667	629.042969	287.433014
29469.861862	-1340.957667	627.817383	245.776840
29469.861862	-1340.957667	626.590820	208.106140
29469.861862	-1340.957667	625.365234	101.646690
29469.861862	-1340.957667	624.137695	105.396248
29469.861862	-1340.957667	622.911133	376.610413
29469.861862	-1340.957667	621.683594	227.042465
29469.861862	-1340.957667	620.456055	447.090179
29469.861862	-1340.957667	619.228516	525.603760
29469.861862	-1340.957667	618.000977	529.470398
29469.861862	-1340.957667	616.772461	327.127838
29469.861862	-1340.957667	615.543945	64.036888
29469.861862	-1340.957667	614.314453	-43.795425
29469.861862	-1340.957667	613.085938	72.251122
29469.861862	-1340.957667	611.856445	25.394098
29469.861862	-1340.957667	610.626953	-11.585562
29469.861862	-1340.957667	609.397461	84.894493
29469.861862	-1340.957667	608.166992	-101.055237
29469.861862	-1340.957667	606.936523	-202.559311
29469.861862	-1340.957667	605.706055	41.070957
29469.861862	-1340.957667	604.474609	-77.972870
29469.861862	-1340.957667	603.244141	69.601334
29469.861862	-1340.957667	602.012695	-15.995339
29469.861862	-1340.957667	600.780273	225.608353
29469.861862	-1340.957667	599.548828	63.734455
29469.861862	-1340.957667	598.316406	142.803131
29469.861862	-1340.957667	597.083984	505.732147
29469.861862	-1340.957667	595.851563	314.682465
29469.861862	-1340.957667	594.618164	491.621033
29469.861862	-1340.957667	593.384766	776.129456
29469.861862	-1340.957667	592.151367	769.135132
29469.861862	-1340.957667	590.917969	981.205078
29469.861862	-1340.957667	589.683594	698.593445
29469.861862	-1340.957667	588.449219	388.783630
29469.861862	-1340.957667	587.214844	356.652191
29469.861862	-1340.957667	585.979492	435.942383
29469.861862	-1340.957667	584.745117	372.651398
29469.861862	-1340.957667	583.509766	319.190094
29469.861862	-1340.957667	582.273438	250.169189
29469.861862	-1340.957667	581.038086	91.428314
29469.861862	-1340.957667	579.801758	385.593201
29469.861862	-1340.957667	578.565430	408.440552
29469.861862	-1340.957667	577.329102	482.043701
29469.861862	-1340.957667	576.091797	506.885986
29469.861862	-1340.957667	574.854492	715.063171
29469.861862	-1340.957667	573.617188	470.869171
29469.861862	-1340.957667	572.378906	408.089905
29469.861862	-1340.957667	571.141602	546.106995
29469.861862	-1340.957667	569.903320	446.388000
29469.861862	-1340.957667	568.664063	533.745178
29469.861862	-1340.957667	567.425781	356.232574
29469.861862	-1340.957667	566.186523	587.724060
29469.861862	-1340.957667	564.947266	680.925903
29469.861862	-1340.957667	563.708008	454.917694
29469.861862	-1340.957667	562.467773	357.455811
29469.861862	-1340.957667	561.227539	501.301025
29469.861862	-1340.957667	559.987305	491.444733
29469.861862	-1340.957667	558.747070	510.783539
29469.861862	-1340.957667	557.505859	732.328552
29469.861862	-1340.957667	556.264648	496.994507
29469.861862	-1340.957667	555.023438	510.532288
29469.861862	-1340.957667	553.781250	636.765320
29469.861862	-1340.957667	552.539063	625.030945
29469.861862	-1340.957667	551.296875	757.030029
29469.861862	-1340.957667	550.054688	727.812012
29469.861862	-1340.957667	548.811523	613.186401
29469.861862	-1340.957667	547.569336	554.901978
29469.861862	-1340.957667	546.325195	457.818604
29469.861862	-1340.957667	545.082031	514.046814
29469.861862	-1340.957667	543.837891	706.014343
29469.861862	-1340.957667	542.593750	479.009125
29469.861862	-1340.957667	541.349609	665.063477
29469.861862	-1340.957667	540.105469	635.856079
29469.861862	-1340.957667	538.860352	680.281799
29469.861862	-1340.957667	537.615234	761.481750
29469.861862	-1340.957667	536.369141	852.300781
29469.861862	-1340.957667	535.124023	1156.104126
29469.861862	-1340.957667	533.877930	1169.286621
29469.861862	-1340.957667	532.631836	1232.763550
29469.861862	-1340.957667	531.384766	1352.299316
29469.861862	-1340.957667	530.138672	1667.193604
29469.861862	-1340.957667	528.891602	1637.526123
29469.861862	-1340.957667	527.643555	1808.980835
29469.861862	-1340.957667	526.396484	1655.426636
29469.861862	-1340.957667	525.148438	1753.223267
29469.861862	-1340.957667	523.900391	1682.742676
29469.861862	-1340.957667	522.652344	1652.813843
29469.861862	-1340.957667	521.403320	1416.076172
29469.861862	-1340.957667	520.154297	1353.227783
29469.861862	-1340.957667	518.905273	1207.281128
29469.861862	-1340.957667	517.656250	1194.551025
29469.861862	-1340.957667	516.406250	1025.360107
29469.861862	-1340.957667	515.156250	873.522522
29469.861862	-1340.957667	513.906250	794.983948
29469.861862	-1340.957667	512.655273	700.938416
29469.861862	-1340.957667	511.404297	635.762634
29469.861862	-1340.957667	510.153320	476.010376
29469.861862	-1340.957667	508.902344	514.802856
29469.861862	-1340.957667	507.650391	432.011230
29469.861862	-1340.957667	506.398438	202.660614
29469.861862	-1340.957667	505.146484	293.131683
29469.861862	-1340.957667	503.893555	136.841980
29469.861862	-1340.957667	502.641602	248.199768
29469.861862	-1340.957667	501.388672	295.813538
29469.861862	-1340.957667	500.134766	275.867065
29469.861862	-1340.957667	498.881836	198.039566
29469.861862	-1340.957667	497.627930	377.935699
29469.861862	-1340.957667	496.374023	284.391327
29469.861862	-1340.957667	495.119141	371.515991
29469.861862	-1340.957667	493.865234	414.200592
29469.861862	-1340.957667	492.610352	420.144165
29469.861862	-1340.957667	491.355469	537.384949
29469.861862	-1340.957667	490.099609	631.307129
29469.861862	-1340.957667	488.843750	861.408936
29469.861862	-1340.957667	487.587891	966.335938
29469.861862	-1340.957667	486.332031	913.513611
29469.861862	-1340.957667	485.075195	806.717773
29469.861862	-1340.957667	483.818359	588.392578
29469.861862	-1340.957667	482.561523	680.864746
29469.861862	-1340.957667	481.304688	684.785278
29469.861862	-1340.957667	480.046875	465.896820
29469.861862	-1340.957667	478.789063	398.380219
29469.861862	-1340.957667	477.531250	497.474213
29469.861862	-1340.957667	476.272461	498.465576
29469.861862	-1340.957667	475.013672	388.003418
29469.861862	-1340.957667	473.754883	296.473724
29469.861862	-1340.957667	472.496094	200.864075
29469.861862	-1340.957667	471.236328	267.819641
29469.861862	-1340.957667	469.976563	185.057510
29469.861862	-1340.957667	468.716797	67.557350
29469.861862	-1340.957667	467.456055	-134.453522
29469.861862	-1340.957667	466.196289	11.659172
29469.861862	-1340.957667	464.935547	96.133881
29469.861862	-1340.957667	463.673828	-120.143402
29469.861862	-1340.957667	462.413086	-248.671768
29469.861862	-1340.957667	461.151367	89.103035
29469.861862	-1340.957667	459.889648	-86.021080
29469.861862	-1340.957667	458.626953	-137.200592
29469.861862	-1340.957667	457.364258	-175.350952
29469.861862	-1340.957667	456.101563	70.827599
29469.861862	-1340.957667	454.838867	3.228540
29469.861862	-1340.957667	453.575195	-57.109482
29469.861862	-1340.957667	452.312500	-285.839386
29469.861862	-1340.957667	451.047852	-85.375374
29469.861862	-1340.957667	449.784180	-15.184189
29469.861862	-1340.957667	448.519531	-113.383385
29469.861862	-1340.957667	447.254883	-99.410461
29469.861862	-1340.957667	445.990234	62.895733
29469.861862	-1340.957667	444.725586	39.712009
29469.861862	-1340.957667	443.459961	208.632156
29469.861862	-1340.957667	442.194336	117.785530
29469.861862	-1340.957667	440.927734	289.485992
29469.861862	-1340.957667	439.662109	262.504364
29469.861862	-1340.957667	438.395508	360.760986
29469.861862	-1340.957667	437.127930	376.576263
29469.861862	-1340.957667	435.861328	205.310379
29469.861862	-1340.957667	434.593750	387.682281
29469.861862	-1340.957667	433.326172	299.205078
29469.861862	-1340.957667	432.058594	84.664482
29469.861862	-1340.957667	430.790039	486.065155
29469.861862	-1340.957667	429.521484	359.904968
29469.861862	-1340.957667	428.252930	429.131958
29469.861862	-1340.957667	426.984375	473.074219
29469.861862	-1340.957667	425.714844	394.778168
29469.861862	-1340.957667	424.445313	530.706482
29469.861862	-1340.957667	423.174805	472.197937
29469.861862	-1340.957667	421.905273	637.321594
29469.861862	-1340.957667	420.634766	703.025024
29469.861862	-1340.957667	419.364258	840.275085
29469.861862	-1340.957667	418.092773	999.639771
29469.861862	-1340.957667	416.822266	790.179443
29469.861862	-1340.957667	415.550781	881.895386
29469.861862	-1340.957667	414.278320	843.944885
29469.861862	-1340.957667	413.006836	811.126709
29469.861862	-1340.957667	411.734375	832.679260
29469.861862	-1340.957667	410.461914	533.214233
29469.861862	-1340.957667	409.188477	418.987122
29469.861862	-1340.957667	407.916016	311.798279
29469.861862	-1340.957667	406.642578	336.626434
29469.861862	-1340.957667	405.368164	245.239426
29469.861862	-1340.957667	404.094727	312.369659
29469.861862	-1340.957667	402.820313	39.890335
29469.861862	-1340.957667	401.545898	35.694191
29469.861862	-1340.957667	400.270508	51.645439
29469.861862	-1340.957667	398.996094	244.839722
29469.861862	-1340.957667	397.720703	189.456985
29469.861862	-1340.957667	396.444336	95.590073
29469.861862	-1340.957667	395.168945	135.403778
29469.861862	-1340.957667	393.892578	168.844620
29469.861862	-1340.957667	392.616211	37.180843
29469.861862	-1340.957667	391.339844	296.087067
29469.861862	-1340.957667	390.062500	238.684875
29469.861862	-1340.957667	388.785156	99.433426
29469.861862	-1340.957667	387.507813	163.543564
29469.861862	-1340.957667	386.229492	151.414810
29469.861862	-1340.957667	384.951172	61.249168
29469.861862	-1340.957667	383.672852	215.810394
29469.861862	-1340.957667	382.394531	322.488617
29469.861862	-1340.957667	381.115234	3.996542
29469.861862	-1340.957667	379.835938	41.452869
29469.861862	-1340.957667	378.556641	104.652367
29469.861862	-1340.957667	377.277344	-138.207397
29469.861862	-1340.957667	375.997070	42.436848
29469.861862	-1340.957667	374.716797	-65.928192
29469.861862	-1340.957667	373.435547	-29.846573
29469.861862	-1340.957667	372.155273	28.247917
29469.861862	-1340.957667	370.874023	110.146835
29469.861862	-1340.957667	369.591797	-38.326450
29469.861862	-1340.957667	368.310547	288.934723
29469.861862	-1340.957667	367.028320	368.895813
29469.861862	-1340.957667	365.746094	435.072968
29469.861862	-1340.957667	364.463867	363.333313
29469.861862	-1340.957667	363.180664	448.996246
29469.861862	-1340.957667	361.897461	549.113342
29469.861862	-1340.957667	360.614258	385.471680
29469.861862	-1340.957667	359.330078	281.472534
29469.861862	-1340.957667	358.045898	131.907089
29469.861862	-1340.957667	356.761719	265.576172
29469.861862	-1340.957667	355.477539	312.302795
29469.861862	-1340.957667	354.192383	326.569916
29469.861862	-1340.957667	352.907227	400.448578
29469.861862	-1340.957667	351.622070	453.211365
29469.861862	-1340.957667	350.336914	299.104431
29469.861862	-1340.957667	349.050781	337.856781
29469.861862	-1340.957667	347.764648	250.532364
29469.861862	-1340.957667	346.477539	348.490387
29469.861862	-1340.957667	345.191406	530.479797
29469.861862	-1340.957667	343.904297	423.342987
29469.861862	-1340.957667	342.616211	585.774109
29469.861862	-1340.957667	341.329102	727.295837
29469.861862	-1340.957667	340.041016	651.152588
29469.861862	-1340.957667	338.752930	698.426453
29469.861862	-1340.957667	337.463867	417.745728
29469.861862	-1340.957667	336.175781	474.036804
29469.861862	-1340.957667	334.886719	376.635223
29469.861862	-1340.957667	333.596680	144.381363
29469.861862	-1340.957667	332.307617	250.820740
29469.861862	-1340.957667	331.017578	50.362106
29469.861862	-1340.957667	329.727539	68.769859
29469.861862	-1340.957667	328.436523	-161.524963
29469.861862	-1340.957667	327.146484	-223.382294
29469.861862	-1340.957667	325.855469	-257.138245
29469.861862	-1340.957667	324.563477	-356.195313
29469.861862	-1340.957667	323.272461	43.765667
29469.861862	-1340.957667	321.980469	62.729683
29469.861862	-1340.957667	320.688477	272.391632
29469.861862	-1340.957667	319.395508	512.079712
29469.861862	-1340.957667	318.103516	483.302521
29469.861862	-1340.957667	316.810547	279.482330
29469.861862	-1340.957667	315.516602	439.924377
29469.861862	-1340.957667	314.223633	306.145813
29469.861862	-1340.957667	312.929688	560.784485
29469.861862	-1340.957667	311.635742	308.815460
29469.861862	-1340.957667	310.340820	333.420258
29469.861862	-1340.957667	309.045898	258.093964
29469.861862	-1340.957667	307.750977	388.511871
29469.861862	-1340.957667	306.456055	14.913476
29469.861862	-1340.957667	305.160156	46.437031
29469.861862	-1340.957667	303.865234	214.864151
29469.861862	-1340.957667	302.568359	90.041458
29469.861862	-1340.957667	301.272461	-65.233719
29469.861862	-1340.957667	299.975586	11.397981
29469.861862	-1340.957667	298.678711	161.778763
