#X		#Y		#Wave		#Intensity
-53.752128	5514.211667	1999.946289	8.854738
-53.752128	5514.211667	1998.981445	39.735962
-53.752128	5514.211667	1998.017578	-96.535988
-53.752128	5514.211667	1997.052734	-7.407676
-53.752128	5514.211667	1996.088867	140.990234
-53.752128	5514.211667	1995.124023	182.663010
-53.752128	5514.211667	1994.159180	-30.932804
-53.752128	5514.211667	1993.193359	-100.968132
-53.752128	5514.211667	1992.228516	76.459496
-53.752128	5514.211667	1991.262695	3.675625
-53.752128	5514.211667	1990.296875	49.579994
-53.752128	5514.211667	1989.331055	142.351273
-53.752128	5514.211667	1988.365234	37.044029
-53.752128	5514.211667	1987.398438	-41.136475
-53.752128	5514.211667	1986.432617	108.112335
-53.752128	5514.211667	1985.465820	-44.465099
-53.752128	5514.211667	1984.499023	-4.271405
-53.752128	5514.211667	1983.532227	-63.068764
-53.752128	5514.211667	1982.565430	60.921097
-53.752128	5514.211667	1981.597656	14.280778
-53.752128	5514.211667	1980.629883	41.667419
-53.752128	5514.211667	1979.662109	-66.893341
-53.752128	5514.211667	1978.694336	86.248093
-53.752128	5514.211667	1977.726563	66.417526
-53.752128	5514.211667	1976.758789	93.407990
-53.752128	5514.211667	1975.790039	4.308476
-53.752128	5514.211667	1974.821289	80.486786
-53.752128	5514.211667	1973.852539	-45.744225
-53.752128	5514.211667	1972.883789	128.925827
-53.752128	5514.211667	1971.915039	98.764740
-53.752128	5514.211667	1970.945313	137.584015
-53.752128	5514.211667	1969.975586	154.133392
-53.752128	5514.211667	1969.005859	145.962753
-53.752128	5514.211667	1968.036133	-125.953751
-53.752128	5514.211667	1967.066406	139.298386
-53.752128	5514.211667	1966.096680	22.560410
-53.752128	5514.211667	1965.125977	137.329605
-53.752128	5514.211667	1964.155273	99.325539
-53.752128	5514.211667	1963.184570	-27.350973
-53.752128	5514.211667	1962.213867	15.820299
-53.752128	5514.211667	1961.242188	34.316235
-53.752128	5514.211667	1960.271484	94.591141
-53.752128	5514.211667	1959.299805	98.214211
-53.752128	5514.211667	1958.328125	74.736061
-53.752128	5514.211667	1957.356445	53.685947
-53.752128	5514.211667	1956.384766	27.687807
-53.752128	5514.211667	1955.412109	82.789291
-53.752128	5514.211667	1954.439453	2.648905
-53.752128	5514.211667	1953.467773	45.379848
-53.752128	5514.211667	1952.495117	-81.472000
-53.752128	5514.211667	1951.521484	71.742386
-53.752128	5514.211667	1950.548828	25.926805
-53.752128	5514.211667	1949.575195	-100.936134
-53.752128	5514.211667	1948.601563	71.758301
-53.752128	5514.211667	1947.627930	-42.840942
-53.752128	5514.211667	1946.654297	73.283684
-53.752128	5514.211667	1945.680664	74.013474
-53.752128	5514.211667	1944.706055	96.803520
-53.752128	5514.211667	1943.732422	131.832123
-53.752128	5514.211667	1942.757813	-85.773712
-53.752128	5514.211667	1941.783203	106.171234
-53.752128	5514.211667	1940.807617	84.743927
-53.752128	5514.211667	1939.833008	70.665596
-53.752128	5514.211667	1938.857422	32.072773
-53.752128	5514.211667	1937.881836	-4.066215
-53.752128	5514.211667	1936.906250	55.337109
-53.752128	5514.211667	1935.930664	-20.000389
-53.752128	5514.211667	1934.955078	44.264580
-53.752128	5514.211667	1933.978516	-6.574997
-53.752128	5514.211667	1933.001953	8.691759
-53.752128	5514.211667	1932.025391	16.604828
-53.752128	5514.211667	1931.048828	110.155327
-53.752128	5514.211667	1930.072266	122.932495
-53.752128	5514.211667	1929.094727	69.656876
-53.752128	5514.211667	1928.118164	-0.719077
-53.752128	5514.211667	1927.140625	161.219467
-53.752128	5514.211667	1926.163086	-2.048713
-53.752128	5514.211667	1925.184570	-3.935517
-53.752128	5514.211667	1924.207031	57.718929
-53.752128	5514.211667	1923.228516	24.060301
-53.752128	5514.211667	1922.250000	-21.796993
-53.752128	5514.211667	1921.271484	-50.537895
-53.752128	5514.211667	1920.292969	-81.706253
-53.752128	5514.211667	1919.314453	-29.846928
-53.752128	5514.211667	1918.334961	65.935669
-53.752128	5514.211667	1917.355469	10.370052
-53.752128	5514.211667	1916.375977	123.201340
-53.752128	5514.211667	1915.396484	-47.007984
-53.752128	5514.211667	1914.416992	34.094559
-53.752128	5514.211667	1913.436523	68.835632
-53.752128	5514.211667	1912.457031	15.792659
-53.752128	5514.211667	1911.476563	-39.661777
-53.752128	5514.211667	1910.496094	-153.585495
-53.752128	5514.211667	1909.515625	46.910534
-53.752128	5514.211667	1908.534180	20.743704
-53.752128	5514.211667	1907.552734	-88.229324
-53.752128	5514.211667	1906.572266	-29.095795
-53.752128	5514.211667	1905.590820	107.949959
-53.752128	5514.211667	1904.608398	115.914566
-53.752128	5514.211667	1903.626953	-56.246464
-53.752128	5514.211667	1902.644531	-75.005287
-53.752128	5514.211667	1901.663086	10.887479
-53.752128	5514.211667	1900.680664	50.533424
-53.752128	5514.211667	1899.698242	14.770919
-53.752128	5514.211667	1898.714844	-30.696562
-53.752128	5514.211667	1897.732422	115.954918
-53.752128	5514.211667	1896.749023	55.921692
-53.752128	5514.211667	1895.765625	-40.536091
-53.752128	5514.211667	1894.782227	-51.891499
-53.752128	5514.211667	1893.798828	-77.809021
-53.752128	5514.211667	1892.814453	114.925064
-53.752128	5514.211667	1891.831055	-78.576477
-53.752128	5514.211667	1890.846680	-19.448795
-53.752128	5514.211667	1889.862305	-47.734631
-53.752128	5514.211667	1888.877930	96.348236
-53.752128	5514.211667	1887.892578	72.927589
-53.752128	5514.211667	1886.908203	-62.091030
-53.752128	5514.211667	1885.922852	50.409744
-53.752128	5514.211667	1884.937500	-133.043625
-53.752128	5514.211667	1883.952148	-64.201195
-53.752128	5514.211667	1882.965820	-99.635376
-53.752128	5514.211667	1881.980469	104.955185
-53.752128	5514.211667	1880.994141	-39.544971
-53.752128	5514.211667	1880.007813	-4.652962
-53.752128	5514.211667	1879.021484	10.853765
-53.752128	5514.211667	1878.035156	16.676750
-53.752128	5514.211667	1877.047852	-33.197815
-53.752128	5514.211667	1876.061523	-20.083017
-53.752128	5514.211667	1875.074219	92.300774
-53.752128	5514.211667	1874.086914	148.979294
-53.752128	5514.211667	1873.098633	50.756603
-53.752128	5514.211667	1872.111328	-42.579411
-53.752128	5514.211667	1871.123047	135.084915
-53.752128	5514.211667	1870.135742	27.275665
-53.752128	5514.211667	1869.147461	-41.790432
-53.752128	5514.211667	1868.158203	-6.852801
-53.752128	5514.211667	1867.169922	45.003731
-53.752128	5514.211667	1866.180664	-4.663253
-53.752128	5514.211667	1865.192383	13.360197
-53.752128	5514.211667	1864.203125	171.517426
-53.752128	5514.211667	1863.213867	44.581074
-53.752128	5514.211667	1862.223633	28.797615
-53.752128	5514.211667	1861.234375	22.687063
-53.752128	5514.211667	1860.244141	57.629341
-53.752128	5514.211667	1859.253906	-115.021439
-53.752128	5514.211667	1858.263672	62.336040
-53.752128	5514.211667	1857.273438	193.788925
-53.752128	5514.211667	1856.282227	4.343491
-53.752128	5514.211667	1855.291992	19.995701
-53.752128	5514.211667	1854.300781	6.710017
-53.752128	5514.211667	1853.309570	41.656403
-53.752128	5514.211667	1852.317383	-7.776536
-53.752128	5514.211667	1851.326172	-42.724243
-53.752128	5514.211667	1850.333984	9.096623
-53.752128	5514.211667	1849.342773	84.995903
-53.752128	5514.211667	1848.350586	-70.375359
-53.752128	5514.211667	1847.357422	12.743792
-53.752128	5514.211667	1846.365234	28.415110
-53.752128	5514.211667	1845.372070	-57.029678
-53.752128	5514.211667	1844.379883	-2.832062
-53.752128	5514.211667	1843.386719	17.656590
-53.752128	5514.211667	1842.393555	52.577347
-53.752128	5514.211667	1841.399414	61.025383
-53.752128	5514.211667	1840.406250	35.799706
-53.752128	5514.211667	1839.412109	89.942520
-53.752128	5514.211667	1838.417969	40.681789
-53.752128	5514.211667	1837.423828	56.344860
-53.752128	5514.211667	1836.429688	40.759552
-53.752128	5514.211667	1835.434570	37.195370
-53.752128	5514.211667	1834.440430	-50.453987
-53.752128	5514.211667	1833.445313	-27.575979
-53.752128	5514.211667	1832.450195	16.906958
-53.752128	5514.211667	1831.454102	167.022614
-53.752128	5514.211667	1830.458984	129.828766
-53.752128	5514.211667	1829.462891	80.646942
-53.752128	5514.211667	1828.466797	-114.903816
-53.752128	5514.211667	1827.470703	-39.259327
-53.752128	5514.211667	1826.474609	86.731461
-53.752128	5514.211667	1825.478516	181.493073
-53.752128	5514.211667	1824.481445	43.614338
-53.752128	5514.211667	1823.484375	4.082492
-53.752128	5514.211667	1822.487305	48.459743
-53.752128	5514.211667	1821.490234	-72.548630
-53.752128	5514.211667	1820.493164	70.061974
-53.752128	5514.211667	1819.495117	42.520504
-53.752128	5514.211667	1818.498047	19.775408
-53.752128	5514.211667	1817.500000	9.008530
-53.752128	5514.211667	1816.500977	55.704926
-53.752128	5514.211667	1815.502930	66.470787
-53.752128	5514.211667	1814.504883	-20.903410
-53.752128	5514.211667	1813.505859	-12.530996
-53.752128	5514.211667	1812.506836	-40.055542
-53.752128	5514.211667	1811.507813	52.028057
-53.752128	5514.211667	1810.508789	-11.384963
-53.752128	5514.211667	1809.508789	8.910406
-53.752128	5514.211667	1808.508789	-32.968140
-53.752128	5514.211667	1807.508789	75.749641
-53.752128	5514.211667	1806.508789	48.199238
-53.752128	5514.211667	1805.508789	142.509308
-53.752128	5514.211667	1804.508789	-42.727650
-53.752128	5514.211667	1803.507813	87.374519
-53.752128	5514.211667	1802.506836	-119.291046
-53.752128	5514.211667	1801.505859	-56.092274
-53.752128	5514.211667	1800.504883	57.203026
-53.752128	5514.211667	1799.502930	12.926274
-53.752128	5514.211667	1798.501953	-33.729160
-53.752128	5514.211667	1797.500000	7.896878
-53.752128	5514.211667	1796.498047	-43.530430
-53.752128	5514.211667	1795.496094	-6.708577
-53.752128	5514.211667	1794.493164	111.158684
-53.752128	5514.211667	1793.491211	88.318039
-53.752128	5514.211667	1792.488281	117.911514
-53.752128	5514.211667	1791.485352	4.499857
-53.752128	5514.211667	1790.482422	96.023773
-53.752128	5514.211667	1789.478516	-29.274717
-53.752128	5514.211667	1788.475586	131.267212
-53.752128	5514.211667	1787.471680	-36.876488
-53.752128	5514.211667	1786.467773	4.542031
-53.752128	5514.211667	1785.463867	72.115837
-53.752128	5514.211667	1784.459961	161.071304
-53.752128	5514.211667	1783.455078	73.900902
-53.752128	5514.211667	1782.450195	-3.733438
-53.752128	5514.211667	1781.445313	-24.265951
-53.752128	5514.211667	1780.440430	31.294888
-53.752128	5514.211667	1779.435547	60.667179
-53.752128	5514.211667	1778.429688	90.014229
-53.752128	5514.211667	1777.424805	121.714020
-53.752128	5514.211667	1776.418945	32.196835
-53.752128	5514.211667	1775.413086	16.350325
-53.752128	5514.211667	1774.406250	67.006226
-53.752128	5514.211667	1773.400391	36.881496
-53.752128	5514.211667	1772.393555	11.501557
-53.752128	5514.211667	1771.386719	26.475807
-53.752128	5514.211667	1770.379883	103.142502
-53.752128	5514.211667	1769.373047	32.631401
-53.752128	5514.211667	1768.365234	68.901619
-53.752128	5514.211667	1767.358398	38.722073
-53.752128	5514.211667	1766.350586	108.151718
-53.752128	5514.211667	1765.342773	-42.992889
-53.752128	5514.211667	1764.334961	-44.730415
-53.752128	5514.211667	1763.326172	48.333267
-53.752128	5514.211667	1762.318359	141.346634
-53.752128	5514.211667	1761.309570	-7.382954
-53.752128	5514.211667	1760.300781	-32.880150
-53.752128	5514.211667	1759.291016	57.677830
-53.752128	5514.211667	1758.282227	81.877586
-53.752128	5514.211667	1757.272461	-9.967267
-53.752128	5514.211667	1756.262695	2.366729
-53.752128	5514.211667	1755.252930	114.086052
-53.752128	5514.211667	1754.243164	93.230209
-53.752128	5514.211667	1753.233398	25.047667
-53.752128	5514.211667	1752.222656	-73.877617
-53.752128	5514.211667	1751.211914	56.624680
-53.752128	5514.211667	1750.201172	170.509109
-53.752128	5514.211667	1749.190430	0.639898
-53.752128	5514.211667	1748.179688	-20.270586
-53.752128	5514.211667	1747.167969	36.795143
-53.752128	5514.211667	1746.156250	11.126166
-53.752128	5514.211667	1745.144531	87.029106
-53.752128	5514.211667	1744.132813	28.260778
-53.752128	5514.211667	1743.121094	127.712296
-53.752128	5514.211667	1742.108398	109.060265
-53.752128	5514.211667	1741.095703	71.514275
-53.752128	5514.211667	1740.083008	-8.515037
-53.752128	5514.211667	1739.070313	69.563171
-53.752128	5514.211667	1738.057617	109.848022
-53.752128	5514.211667	1737.043945	-0.857941
-53.752128	5514.211667	1736.030273	-40.790359
-53.752128	5514.211667	1735.016602	-0.559067
-53.752128	5514.211667	1734.002930	152.793488
-53.752128	5514.211667	1732.989258	86.878166
-53.752128	5514.211667	1731.974609	-21.445902
-53.752128	5514.211667	1730.959961	13.970996
-53.752128	5514.211667	1729.945313	44.646488
-53.752128	5514.211667	1728.930664	-80.143501
-53.752128	5514.211667	1727.916016	-70.687004
-53.752128	5514.211667	1726.900391	-183.670380
-53.752128	5514.211667	1725.885742	-101.264198
-53.752128	5514.211667	1724.870117	-63.620056
-53.752128	5514.211667	1723.853516	-37.772106
-53.752128	5514.211667	1722.837891	60.975372
-53.752128	5514.211667	1721.822266	-80.230484
-53.752128	5514.211667	1720.805664	84.295479
-53.752128	5514.211667	1719.789063	-23.979898
-53.752128	5514.211667	1718.772461	149.842880
-53.752128	5514.211667	1717.754883	-43.042759
-53.752128	5514.211667	1716.738281	10.850610
-53.752128	5514.211667	1715.720703	-12.819737
-53.752128	5514.211667	1714.703125	-121.053680
-53.752128	5514.211667	1713.685547	-24.955118
-53.752128	5514.211667	1712.667969	-27.520523
-53.752128	5514.211667	1711.649414	-95.830940
-53.752128	5514.211667	1710.630859	47.100639
-53.752128	5514.211667	1709.612305	-65.813065
-53.752128	5514.211667	1708.593750	-70.777504
-53.752128	5514.211667	1707.575195	140.045837
-53.752128	5514.211667	1706.555664	158.464523
-53.752128	5514.211667	1705.536133	47.899742
-53.752128	5514.211667	1704.516602	26.446348
-53.752128	5514.211667	1703.497070	63.583488
-53.752128	5514.211667	1702.477539	67.884064
-53.752128	5514.211667	1701.457031	86.224930
-53.752128	5514.211667	1700.437500	57.696049
-53.752128	5514.211667	1699.416992	-29.388453
-53.752128	5514.211667	1698.395508	124.730339
-53.752128	5514.211667	1697.375000	-9.184695
-53.752128	5514.211667	1696.354492	-23.685402
-53.752128	5514.211667	1695.333008	32.012257
-53.752128	5514.211667	1694.311523	139.150909
-53.752128	5514.211667	1693.290039	61.426052
-53.752128	5514.211667	1692.267578	56.222267
-53.752128	5514.211667	1691.246094	-49.543575
-53.752128	5514.211667	1690.223633	-73.453049
-53.752128	5514.211667	1689.201172	21.849842
-53.752128	5514.211667	1688.178711	14.271523
-53.752128	5514.211667	1687.155273	79.118431
-53.752128	5514.211667	1686.132813	10.766041
-53.752128	5514.211667	1685.109375	154.981323
-53.752128	5514.211667	1684.085938	-74.520775
-53.752128	5514.211667	1683.062500	4.256522
-53.752128	5514.211667	1682.039063	-59.407295
-53.752128	5514.211667	1681.014648	101.001686
-53.752128	5514.211667	1679.990234	125.994354
-53.752128	5514.211667	1678.965820	-49.677135
-53.752128	5514.211667	1677.941406	-59.675659
-53.752128	5514.211667	1676.916992	63.253876
-53.752128	5514.211667	1675.891602	18.239601
-53.752128	5514.211667	1674.866211	-33.760273
-53.752128	5514.211667	1673.840820	0.490801
-53.752128	5514.211667	1672.815430	51.032101
-53.752128	5514.211667	1671.790039	138.823318
-53.752128	5514.211667	1670.763672	119.413940
-53.752128	5514.211667	1669.737305	76.713409
-53.752128	5514.211667	1668.710938	-105.693588
-53.752128	5514.211667	1667.684570	105.414864
-53.752128	5514.211667	1666.658203	134.875412
-53.752128	5514.211667	1665.630859	89.843002
-53.752128	5514.211667	1664.603516	54.127979
-53.752128	5514.211667	1663.576172	88.209099
-53.752128	5514.211667	1662.548828	75.752609
-53.752128	5514.211667	1661.520508	181.889008
-53.752128	5514.211667	1660.493164	218.230072
-53.752128	5514.211667	1659.464844	108.103462
-53.752128	5514.211667	1658.436523	130.486084
-53.752128	5514.211667	1657.408203	171.442627
-53.752128	5514.211667	1656.378906	26.521559
-53.752128	5514.211667	1655.350586	104.635468
-53.752128	5514.211667	1654.321289	113.043137
-53.752128	5514.211667	1653.291992	-27.154474
-53.752128	5514.211667	1652.261719	225.009537
-53.752128	5514.211667	1651.232422	108.044487
-53.752128	5514.211667	1650.202148	134.988922
-53.752128	5514.211667	1649.171875	159.598587
-53.752128	5514.211667	1648.141602	123.885948
-53.752128	5514.211667	1647.111328	32.524117
-53.752128	5514.211667	1646.080078	57.127441
-53.752128	5514.211667	1645.049805	202.268250
-53.752128	5514.211667	1644.018555	224.505600
-53.752128	5514.211667	1642.987305	244.414078
-53.752128	5514.211667	1641.955078	229.557297
-53.752128	5514.211667	1640.923828	267.985107
-53.752128	5514.211667	1639.891602	95.637924
-53.752128	5514.211667	1638.859375	275.319336
-53.752128	5514.211667	1637.827148	255.831894
-53.752128	5514.211667	1636.794922	271.070831
-53.752128	5514.211667	1635.761719	288.614899
-53.752128	5514.211667	1634.729492	389.449005
-53.752128	5514.211667	1633.696289	376.890045
-53.752128	5514.211667	1632.662109	315.763916
-53.752128	5514.211667	1631.628906	344.847595
-53.752128	5514.211667	1630.594727	286.064331
-53.752128	5514.211667	1629.561523	259.668121
-53.752128	5514.211667	1628.527344	214.792755
-53.752128	5514.211667	1627.493164	394.065552
-53.752128	5514.211667	1626.458008	286.807922
-53.752128	5514.211667	1625.423828	426.735260
-53.752128	5514.211667	1624.388672	335.682037
-53.752128	5514.211667	1623.353516	226.196472
-53.752128	5514.211667	1622.318359	347.592346
-53.752128	5514.211667	1621.282227	330.466919
-53.752128	5514.211667	1620.247070	377.962830
-53.752128	5514.211667	1619.210938	310.090790
-53.752128	5514.211667	1618.174805	382.949371
-53.752128	5514.211667	1617.137695	416.577759
-53.752128	5514.211667	1616.101563	491.701569
-53.752128	5514.211667	1615.064453	333.970703
-53.752128	5514.211667	1614.027344	473.622345
-53.752128	5514.211667	1612.990234	486.486877
-53.752128	5514.211667	1611.953125	501.655334
-53.752128	5514.211667	1610.916016	597.443420
-53.752128	5514.211667	1609.877930	518.171570
-53.752128	5514.211667	1608.839844	392.886139
-53.752128	5514.211667	1607.801758	438.009674
-53.752128	5514.211667	1606.763672	322.008240
-53.752128	5514.211667	1605.724609	523.620361
-53.752128	5514.211667	1604.685547	488.185150
-53.752128	5514.211667	1603.646484	574.686829
-53.752128	5514.211667	1602.607422	562.268616
-53.752128	5514.211667	1601.568359	496.977753
-53.752128	5514.211667	1600.528320	404.130829
-53.752128	5514.211667	1599.489258	644.612366
-53.752128	5514.211667	1598.449219	533.405518
-53.752128	5514.211667	1597.408203	486.581909
-53.752128	5514.211667	1596.368164	497.216370
-53.752128	5514.211667	1595.327148	379.238953
-53.752128	5514.211667	1594.287109	598.868530
-53.752128	5514.211667	1593.246094	510.782227
-53.752128	5514.211667	1592.204102	567.346497
-53.752128	5514.211667	1591.163086	506.860291
-53.752128	5514.211667	1590.121094	487.706818
-53.752128	5514.211667	1589.079102	525.921875
-53.752128	5514.211667	1588.037109	568.720520
-53.752128	5514.211667	1586.995117	616.099609
-53.752128	5514.211667	1585.953125	413.571533
-53.752128	5514.211667	1584.910156	454.107910
-53.752128	5514.211667	1583.867188	487.764954
-53.752128	5514.211667	1582.824219	411.437927
-53.752128	5514.211667	1581.781250	380.970825
-53.752128	5514.211667	1580.737305	396.334747
-53.752128	5514.211667	1579.693359	503.305145
-53.752128	5514.211667	1578.649414	314.897858
-53.752128	5514.211667	1577.605469	419.579895
-53.752128	5514.211667	1576.561523	309.103424
-53.752128	5514.211667	1575.516602	356.567108
-53.752128	5514.211667	1574.472656	362.848511
-53.752128	5514.211667	1573.427734	478.929871
-53.752128	5514.211667	1572.381836	448.621552
-53.752128	5514.211667	1571.336914	441.205292
-53.752128	5514.211667	1570.291016	566.389526
-53.752128	5514.211667	1569.246094	408.141449
-53.752128	5514.211667	1568.200195	446.482117
-53.752128	5514.211667	1567.153320	400.292603
-53.752128	5514.211667	1566.107422	447.788116
-53.752128	5514.211667	1565.060547	463.308075
-53.752128	5514.211667	1564.013672	503.954315
-53.752128	5514.211667	1562.966797	441.874481
-53.752128	5514.211667	1561.919922	436.894928
-53.752128	5514.211667	1560.872070	342.938751
-53.752128	5514.211667	1559.825195	280.978271
-53.752128	5514.211667	1558.777344	246.429718
-53.752128	5514.211667	1557.729492	291.732239
-53.752128	5514.211667	1556.680664	273.190308
-53.752128	5514.211667	1555.632813	325.344452
-53.752128	5514.211667	1554.583984	398.007568
-53.752128	5514.211667	1553.535156	176.699722
-53.752128	5514.211667	1552.486328	174.216049
-53.752128	5514.211667	1551.436523	260.587646
-53.752128	5514.211667	1550.387695	173.861221
-53.752128	5514.211667	1549.337891	173.711624
-53.752128	5514.211667	1548.288086	380.745270
-53.752128	5514.211667	1547.238281	266.789978
-53.752128	5514.211667	1546.187500	264.403809
-53.752128	5514.211667	1545.136719	143.728745
-53.752128	5514.211667	1544.086914	141.408676
-53.752128	5514.211667	1543.035156	225.529663
-53.752128	5514.211667	1541.984375	239.150482
-53.752128	5514.211667	1540.933594	189.131454
-53.752128	5514.211667	1539.881836	361.899384
-53.752128	5514.211667	1538.830078	180.111313
-53.752128	5514.211667	1537.778320	371.031006
-53.752128	5514.211667	1536.725586	239.329025
-53.752128	5514.211667	1535.673828	262.138855
-53.752128	5514.211667	1534.621094	398.495270
-53.752128	5514.211667	1533.568359	434.928192
-53.752128	5514.211667	1532.515625	446.400696
-53.752128	5514.211667	1531.461914	385.269867
-53.752128	5514.211667	1530.409180	301.497620
-53.752128	5514.211667	1529.355469	381.107666
-53.752128	5514.211667	1528.301758	301.948242
-53.752128	5514.211667	1527.247070	311.276917
-53.752128	5514.211667	1526.193359	216.337143
-53.752128	5514.211667	1525.138672	121.457039
-53.752128	5514.211667	1524.083984	146.746887
-53.752128	5514.211667	1523.029297	260.414307
-53.752128	5514.211667	1521.974609	206.426208
-53.752128	5514.211667	1520.918945	136.627228
-53.752128	5514.211667	1519.863281	245.769135
-53.752128	5514.211667	1518.807617	78.685562
-53.752128	5514.211667	1517.751953	181.051865
-53.752128	5514.211667	1516.696289	206.456528
-53.752128	5514.211667	1515.639648	211.509888
-53.752128	5514.211667	1514.583008	187.177017
-53.752128	5514.211667	1513.526367	151.568832
-53.752128	5514.211667	1512.469727	220.017944
-53.752128	5514.211667	1511.412109	295.246094
-53.752128	5514.211667	1510.355469	155.731384
-53.752128	5514.211667	1509.297852	75.054520
-53.752128	5514.211667	1508.240234	231.681366
-53.752128	5514.211667	1507.181641	248.208771
-53.752128	5514.211667	1506.124023	215.065323
-53.752128	5514.211667	1505.065430	150.344589
-53.752128	5514.211667	1504.006836	155.663681
-53.752128	5514.211667	1502.948242	140.689682
-53.752128	5514.211667	1501.888672	206.991196
-53.752128	5514.211667	1500.830078	266.522949
-53.752128	5514.211667	1499.770508	161.373337
-53.752128	5514.211667	1498.710938	15.692087
-53.752128	5514.211667	1497.650391	113.635803
-53.752128	5514.211667	1496.590820	46.982246
-53.752128	5514.211667	1495.530273	140.423019
-53.752128	5514.211667	1494.469727	121.167801
-53.752128	5514.211667	1493.409180	27.589190
-53.752128	5514.211667	1492.348633	107.537308
-53.752128	5514.211667	1491.287109	-37.754951
-53.752128	5514.211667	1490.225586	6.194947
-53.752128	5514.211667	1489.164063	-89.436707
-53.752128	5514.211667	1488.102539	6.329603
-53.752128	5514.211667	1487.041016	-23.947033
-53.752128	5514.211667	1485.978516	128.071365
-53.752128	5514.211667	1484.916016	-1.145479
-53.752128	5514.211667	1483.853516	-143.790939
-53.752128	5514.211667	1482.791016	8.237055
-53.752128	5514.211667	1481.727539	9.597854
-53.752128	5514.211667	1480.664063	6.477856
-53.752128	5514.211667	1479.600586	70.810654
-53.752128	5514.211667	1478.537109	130.645065
-53.752128	5514.211667	1477.473633	-27.383657
-53.752128	5514.211667	1476.409180	34.708652
-53.752128	5514.211667	1475.344727	-170.304825
-53.752128	5514.211667	1474.280273	-34.053986
-53.752128	5514.211667	1473.215820	-122.239044
-53.752128	5514.211667	1472.151367	-136.335617
-53.752128	5514.211667	1471.085938	35.733860
-53.752128	5514.211667	1470.020508	115.851784
-53.752128	5514.211667	1468.955078	-79.709404
-53.752128	5514.211667	1467.888672	25.071259
-53.752128	5514.211667	1466.823242	8.887616
-53.752128	5514.211667	1465.756836	-38.536713
-53.752128	5514.211667	1464.690430	-41.249619
-53.752128	5514.211667	1463.624023	7.527178
-53.752128	5514.211667	1462.556641	112.151176
-53.752128	5514.211667	1461.490234	44.808155
-53.752128	5514.211667	1460.422852	175.986603
-53.752128	5514.211667	1459.355469	104.531570
-53.752128	5514.211667	1458.287109	-72.427872
-53.752128	5514.211667	1457.219727	29.701071
-53.752128	5514.211667	1456.151367	100.746925
-53.752128	5514.211667	1455.083008	-53.340881
-53.752128	5514.211667	1454.014648	-21.805571
-53.752128	5514.211667	1452.945313	-68.770905
-53.752128	5514.211667	1451.876953	46.402073
-53.752128	5514.211667	1450.807617	60.240334
-53.752128	5514.211667	1449.738281	191.469559
-53.752128	5514.211667	1448.668945	175.729309
-53.752128	5514.211667	1447.598633	184.868591
-53.752128	5514.211667	1446.528320	106.420639
-53.752128	5514.211667	1445.458008	73.048927
-53.752128	5514.211667	1444.387695	145.049759
-53.752128	5514.211667	1443.317383	91.214569
-53.752128	5514.211667	1442.246094	-16.827763
-53.752128	5514.211667	1441.174805	142.319138
-53.752128	5514.211667	1440.103516	1.816306
-53.752128	5514.211667	1439.032227	55.145592
-53.752128	5514.211667	1437.960938	76.584724
-53.752128	5514.211667	1436.888672	149.118164
-53.752128	5514.211667	1435.816406	183.014725
-53.752128	5514.211667	1434.744141	200.275284
-53.752128	5514.211667	1433.670898	165.087967
-53.752128	5514.211667	1432.598633	168.679230
-53.752128	5514.211667	1431.525391	264.275604
-53.752128	5514.211667	1430.452148	157.940628
-53.752128	5514.211667	1429.378906	181.520935
-53.752128	5514.211667	1428.304688	121.292122
-53.752128	5514.211667	1427.231445	59.768051
-53.752128	5514.211667	1426.157227	-0.289933
-53.752128	5514.211667	1425.083008	216.197296
-53.752128	5514.211667	1424.007813	30.452204
-53.752128	5514.211667	1422.933594	155.521194
-53.752128	5514.211667	1421.858398	237.296158
-53.752128	5514.211667	1420.783203	161.897598
-53.752128	5514.211667	1419.708008	198.419174
-53.752128	5514.211667	1418.631836	139.932068
-53.752128	5514.211667	1417.555664	219.280869
-53.752128	5514.211667	1416.479492	130.580185
-53.752128	5514.211667	1415.403320	266.964172
-53.752128	5514.211667	1414.327148	112.826263
-53.752128	5514.211667	1413.250000	211.525803
-53.752128	5514.211667	1412.173828	206.142487
-53.752128	5514.211667	1411.096680	236.742874
-53.752128	5514.211667	1410.018555	-13.192639
-53.752128	5514.211667	1408.941406	110.962845
-53.752128	5514.211667	1407.863281	-6.205425
-53.752128	5514.211667	1406.785156	148.345169
-53.752128	5514.211667	1405.707031	130.971893
-53.752128	5514.211667	1404.628906	39.456329
-53.752128	5514.211667	1403.549805	182.585281
-53.752128	5514.211667	1402.470703	23.182528
-53.752128	5514.211667	1401.391602	284.297211
-53.752128	5514.211667	1400.312500	162.569839
-53.752128	5514.211667	1399.233398	130.021698
-53.752128	5514.211667	1398.153320	58.681381
-53.752128	5514.211667	1397.073242	155.695816
-53.752128	5514.211667	1395.993164	160.049194
-53.752128	5514.211667	1394.913086	176.705734
-53.752128	5514.211667	1393.832031	264.484589
-53.752128	5514.211667	1392.750977	215.929077
-53.752128	5514.211667	1391.669922	-30.449230
-53.752128	5514.211667	1390.588867	69.984261
-53.752128	5514.211667	1389.506836	51.825634
-53.752128	5514.211667	1388.425781	219.591690
-53.752128	5514.211667	1387.343750	134.014359
-53.752128	5514.211667	1386.261719	210.940536
-53.752128	5514.211667	1385.178711	119.283791
-53.752128	5514.211667	1384.096680	190.956757
-53.752128	5514.211667	1383.013672	147.291595
-53.752128	5514.211667	1381.930664	182.526733
-53.752128	5514.211667	1380.846680	57.229115
-53.752128	5514.211667	1379.763672	202.684311
-53.752128	5514.211667	1378.679688	119.354935
-53.752128	5514.211667	1377.595703	4.272848
-53.752128	5514.211667	1376.511719	142.500366
-53.752128	5514.211667	1375.427734	108.462128
-53.752128	5514.211667	1374.342773	115.083992
-53.752128	5514.211667	1373.257813	2.842587
-53.752128	5514.211667	1372.172852	-11.844802
-53.752128	5514.211667	1371.087891	70.904457
-53.752128	5514.211667	1370.001953	19.711611
-53.752128	5514.211667	1368.916992	115.455200
-53.752128	5514.211667	1367.831055	79.907219
-53.752128	5514.211667	1366.744141	120.298470
-53.752128	5514.211667	1365.658203	170.392181
-53.752128	5514.211667	1364.571289	169.984833
-53.752128	5514.211667	1363.484375	159.904968
-53.752128	5514.211667	1362.397461	142.087921
-53.752128	5514.211667	1361.310547	101.900215
-53.752128	5514.211667	1360.222656	154.690750
-53.752128	5514.211667	1359.135742	124.298264
-53.752128	5514.211667	1358.047852	-22.040176
-53.752128	5514.211667	1356.958984	14.390121
-53.752128	5514.211667	1355.871094	-55.008209
-53.752128	5514.211667	1354.782227	76.926285
-53.752128	5514.211667	1353.693359	149.087936
-53.752128	5514.211667	1352.604492	59.067856
-53.752128	5514.211667	1351.515625	140.609009
-53.752128	5514.211667	1350.425781	122.660500
-53.752128	5514.211667	1349.335938	175.841705
-53.752128	5514.211667	1348.246094	119.047943
-53.752128	5514.211667	1347.156250	251.282425
-53.752128	5514.211667	1346.066406	135.382370
-53.752128	5514.211667	1344.975586	189.443893
-53.752128	5514.211667	1343.884766	250.278702
-53.752128	5514.211667	1342.793945	254.691772
-53.752128	5514.211667	1341.702148	303.286591
-53.752128	5514.211667	1340.611328	222.071915
-53.752128	5514.211667	1339.519531	176.057648
-53.752128	5514.211667	1338.427734	245.599396
-53.752128	5514.211667	1337.334961	121.329971
-53.752128	5514.211667	1336.243164	125.701431
-53.752128	5514.211667	1335.150391	103.033302
-53.752128	5514.211667	1334.057617	170.041992
-53.752128	5514.211667	1332.964844	80.373322
-53.752128	5514.211667	1331.871094	189.856888
-53.752128	5514.211667	1330.778320	125.922722
-53.752128	5514.211667	1329.684570	53.350876
-53.752128	5514.211667	1328.590820	132.399216
-53.752128	5514.211667	1327.496094	193.551712
-53.752128	5514.211667	1326.402344	129.125031
-53.752128	5514.211667	1325.307617	130.786972
-53.752128	5514.211667	1324.212891	100.259262
-53.752128	5514.211667	1323.117188	124.205070
-53.752128	5514.211667	1322.022461	98.692001
-53.752128	5514.211667	1320.926758	149.902573
-53.752128	5514.211667	1319.831055	102.603867
-53.752128	5514.211667	1318.735352	278.053040
-53.752128	5514.211667	1317.638672	111.188652
-53.752128	5514.211667	1316.542969	120.060211
-53.752128	5514.211667	1315.446289	105.153015
-53.752128	5514.211667	1314.349609	121.722908
-53.752128	5514.211667	1313.251953	139.201187
-53.752128	5514.211667	1312.155273	90.065491
-53.752128	5514.211667	1311.057617	197.464279
-53.752128	5514.211667	1309.959961	212.634323
-53.752128	5514.211667	1308.862305	109.779045
-53.752128	5514.211667	1307.763672	177.464050
-53.752128	5514.211667	1306.665039	68.720535
-53.752128	5514.211667	1305.566406	46.354954
-53.752128	5514.211667	1304.467773	127.172783
-53.752128	5514.211667	1303.369141	78.098633
-53.752128	5514.211667	1302.269531	129.969131
-53.752128	5514.211667	1301.169922	185.312546
-53.752128	5514.211667	1300.070313	83.167236
-53.752128	5514.211667	1298.970703	212.677078
-53.752128	5514.211667	1297.870117	186.161621
-53.752128	5514.211667	1296.769531	108.846367
-53.752128	5514.211667	1295.668945	136.903015
-53.752128	5514.211667	1294.568359	151.629715
-53.752128	5514.211667	1293.466797	159.818192
-53.752128	5514.211667	1292.366211	87.270210
-53.752128	5514.211667	1291.264648	86.550858
-53.752128	5514.211667	1290.162109	209.199020
-53.752128	5514.211667	1289.060547	165.116531
-53.752128	5514.211667	1287.958008	83.477379
-53.752128	5514.211667	1286.855469	101.940651
-53.752128	5514.211667	1285.752930	99.743973
-53.752128	5514.211667	1284.650391	168.776810
-53.752128	5514.211667	1283.546875	117.466187
-53.752128	5514.211667	1282.444336	211.411179
-53.752128	5514.211667	1281.339844	122.642654
-53.752128	5514.211667	1280.236328	167.505402
-53.752128	5514.211667	1279.132813	-8.166353
-53.752128	5514.211667	1278.028320	97.702835
-53.752128	5514.211667	1276.923828	75.852623
-53.752128	5514.211667	1275.819336	146.211075
-53.752128	5514.211667	1274.713867	13.139279
-53.752128	5514.211667	1273.608398	89.551208
-53.752128	5514.211667	1272.503906	41.164070
-53.752128	5514.211667	1271.397461	48.142998
-53.752128	5514.211667	1270.291992	38.322056
-53.752128	5514.211667	1269.185547	-22.919676
-53.752128	5514.211667	1268.080078	21.738115
-53.752128	5514.211667	1266.972656	27.659784
-53.752128	5514.211667	1265.866211	-15.083778
-53.752128	5514.211667	1264.759766	8.244011
-53.752128	5514.211667	1263.652344	27.472994
-53.752128	5514.211667	1262.544922	-110.552162
-53.752128	5514.211667	1261.436523	-3.764813
-53.752128	5514.211667	1260.329102	-98.694695
-53.752128	5514.211667	1259.220703	12.897109
-53.752128	5514.211667	1258.112305	-74.988953
-53.752128	5514.211667	1257.003906	-91.895515
-53.752128	5514.211667	1255.895508	-2.984328
-53.752128	5514.211667	1254.786133	-114.125755
-53.752128	5514.211667	1253.676758	-90.592789
-53.752128	5514.211667	1252.567383	-55.839664
-53.752128	5514.211667	1251.458008	-129.547180
-53.752128	5514.211667	1250.347656	-24.751709
-53.752128	5514.211667	1249.237305	7.132164
-53.752128	5514.211667	1248.126953	-85.989922
-53.752128	5514.211667	1247.016602	-52.503845
-53.752128	5514.211667	1245.905273	-137.433792
-53.752128	5514.211667	1244.793945	-20.317341
-53.752128	5514.211667	1243.682617	-9.012547
-53.752128	5514.211667	1242.571289	-93.700676
-53.752128	5514.211667	1241.459961	25.577618
-53.752128	5514.211667	1240.347656	-22.350788
-53.752128	5514.211667	1239.235352	-60.188011
-53.752128	5514.211667	1238.123047	-21.721283
-53.752128	5514.211667	1237.009766	36.956345
-53.752128	5514.211667	1235.897461	56.081902
-53.752128	5514.211667	1234.784180	64.910309
-53.752128	5514.211667	1233.670898	-9.887476
-53.752128	5514.211667	1232.556641	33.366959
-53.752128	5514.211667	1231.443359	80.247116
-53.752128	5514.211667	1230.329102	36.375076
-53.752128	5514.211667	1229.214844	102.714783
-53.752128	5514.211667	1228.099609	-36.479679
-53.752128	5514.211667	1226.985352	-14.892565
-53.752128	5514.211667	1225.870117	-103.078117
-53.752128	5514.211667	1224.754883	70.048752
-53.752128	5514.211667	1223.639648	50.686657
-53.752128	5514.211667	1222.523438	151.588211
-53.752128	5514.211667	1221.408203	32.385132
-53.752128	5514.211667	1220.291992	15.454288
-53.752128	5514.211667	1219.174805	95.240883
-53.752128	5514.211667	1218.058594	63.870831
-53.752128	5514.211667	1216.941406	1.552994
-53.752128	5514.211667	1215.824219	61.752872
-53.752128	5514.211667	1214.707031	17.226736
-53.752128	5514.211667	1213.589844	45.516006
-53.752128	5514.211667	1212.471680	43.520699
-53.752128	5514.211667	1211.353516	96.645309
-53.752128	5514.211667	1210.235352	-6.390014
-53.752128	5514.211667	1209.117188	36.178806
-53.752128	5514.211667	1207.998047	5.011046
-53.752128	5514.211667	1206.878906	-27.177238
-53.752128	5514.211667	1205.759766	10.503042
-53.752128	5514.211667	1204.640625	-43.600033
-53.752128	5514.211667	1203.520508	-56.267159
-53.752128	5514.211667	1202.401367	-65.691551
-53.752128	5514.211667	1201.281250	-71.417435
-53.752128	5514.211667	1200.160156	13.402268
-53.752128	5514.211667	1199.040039	-48.963696
-53.752128	5514.211667	1197.918945	64.381325
-53.752128	5514.211667	1196.797852	-25.464212
-53.752128	5514.211667	1195.676758	-18.432980
-53.752128	5514.211667	1194.555664	76.586784
-53.752128	5514.211667	1193.433594	-1.993268
-53.752128	5514.211667	1192.311523	9.460014
-53.752128	5514.211667	1191.189453	11.577446
-53.752128	5514.211667	1190.066406	-103.592628
-53.752128	5514.211667	1188.944336	-78.034744
-53.752128	5514.211667	1187.821289	-13.782045
-53.752128	5514.211667	1186.698242	-8.351232
-53.752128	5514.211667	1185.574219	-146.026505
-53.752128	5514.211667	1184.451172	-64.149254
-53.752128	5514.211667	1183.327148	-38.453377
-53.752128	5514.211667	1182.203125	-28.468714
-53.752128	5514.211667	1181.078125	-69.840324
-53.752128	5514.211667	1179.954102	-74.797241
-53.752128	5514.211667	1178.829102	14.035975
-53.752128	5514.211667	1177.704102	38.188107
-53.752128	5514.211667	1176.579102	-105.942436
-53.752128	5514.211667	1175.453125	-5.100843
-53.752128	5514.211667	1174.327148	-70.389160
-53.752128	5514.211667	1173.201172	32.764858
-53.752128	5514.211667	1172.075195	-2.325821
-53.752128	5514.211667	1170.949219	8.296300
-53.752128	5514.211667	1169.822266	0.984138
-53.752128	5514.211667	1168.695313	12.011189
-53.752128	5514.211667	1167.568359	51.741699
-53.752128	5514.211667	1166.440430	0.111566
-53.752128	5514.211667	1165.313477	0.287999
-53.752128	5514.211667	1164.185547	79.851799
-53.752128	5514.211667	1163.057617	116.980812
-53.752128	5514.211667	1161.928711	198.244690
-53.752128	5514.211667	1160.800781	105.996765
-53.752128	5514.211667	1159.671875	144.255753
-53.752128	5514.211667	1158.541992	197.162247
-53.752128	5514.211667	1157.413086	347.996887
-53.752128	5514.211667	1156.283203	371.298828
-53.752128	5514.211667	1155.154297	257.834564
-53.752128	5514.211667	1154.023438	252.763687
-53.752128	5514.211667	1152.893555	329.885590
-53.752128	5514.211667	1151.763672	293.729401
-53.752128	5514.211667	1150.632813	171.618118
-53.752128	5514.211667	1149.501953	221.690643
-53.752128	5514.211667	1148.370117	125.713829
-53.752128	5514.211667	1147.239258	187.027039
-53.752128	5514.211667	1146.107422	172.143433
-53.752128	5514.211667	1144.975586	198.573563
-53.752128	5514.211667	1143.843750	163.106476
-53.752128	5514.211667	1142.710938	192.435272
-53.752128	5514.211667	1141.578125	135.829269
-53.752128	5514.211667	1140.445313	217.325607
-53.752128	5514.211667	1139.312500	98.363762
-53.752128	5514.211667	1138.178711	214.533264
-53.752128	5514.211667	1137.045898	89.386032
-53.752128	5514.211667	1135.912109	41.249092
-53.752128	5514.211667	1134.777344	28.403687
-53.752128	5514.211667	1133.643555	89.979919
-53.752128	5514.211667	1132.508789	133.186584
-53.752128	5514.211667	1131.374023	59.386360
-53.752128	5514.211667	1130.239258	181.703796
-53.752128	5514.211667	1129.104492	180.508041
-53.752128	5514.211667	1127.968750	84.682549
-53.752128	5514.211667	1126.833008	192.783859
-53.752128	5514.211667	1125.697266	90.110847
-53.752128	5514.211667	1124.560547	121.604523
-53.752128	5514.211667	1123.424805	101.588997
-53.752128	5514.211667	1122.288086	11.209944
-53.752128	5514.211667	1121.151367	80.313522
-53.752128	5514.211667	1120.013672	16.564848
-53.752128	5514.211667	1118.876953	51.426273
-53.752128	5514.211667	1117.739258	9.321740
-53.752128	5514.211667	1116.601563	39.153103
-53.752128	5514.211667	1115.462891	-68.976074
-53.752128	5514.211667	1114.324219	-1.333836
-53.752128	5514.211667	1113.186523	87.375763
-53.752128	5514.211667	1112.046875	-74.030357
-53.752128	5514.211667	1110.908203	11.370230
-53.752128	5514.211667	1109.769531	21.542406
-53.752128	5514.211667	1108.629883	47.212746
-53.752128	5514.211667	1107.490234	11.259247
-53.752128	5514.211667	1106.349609	27.396749
-53.752128	5514.211667	1105.209961	24.456938
-53.752128	5514.211667	1104.069336	147.075500
-53.752128	5514.211667	1102.928711	-20.303137
-53.752128	5514.211667	1101.787109	-13.555948
-53.752128	5514.211667	1100.646484	23.087778
-53.752128	5514.211667	1099.504883	-4.368658
-53.752128	5514.211667	1098.363281	21.008471
-53.752128	5514.211667	1097.221680	22.041485
-53.752128	5514.211667	1096.079102	38.950535
-53.752128	5514.211667	1094.936523	63.828064
-53.752128	5514.211667	1093.793945	-132.624710
-53.752128	5514.211667	1092.651367	68.893562
-53.752128	5514.211667	1091.507813	36.328079
-53.752128	5514.211667	1090.364258	-14.512856
-53.752128	5514.211667	1089.220703	14.459190
-53.752128	5514.211667	1088.077148	-11.742051
-53.752128	5514.211667	1086.933594	-17.719551
-53.752128	5514.211667	1085.789063	63.626183
-53.752128	5514.211667	1084.644531	7.909629
-53.752128	5514.211667	1083.499023	-76.361526
-53.752128	5514.211667	1082.354492	58.300442
-53.752128	5514.211667	1081.208984	-149.869431
-53.752128	5514.211667	1080.063477	65.392288
-53.752128	5514.211667	1078.917969	-29.679482
-53.752128	5514.211667	1077.771484	22.517641
-53.752128	5514.211667	1076.625977	63.536396
-53.752128	5514.211667	1075.479492	17.537535
-53.752128	5514.211667	1074.332031	-92.086327
-53.752128	5514.211667	1073.185547	-22.600283
-53.752128	5514.211667	1072.038086	11.784801
-53.752128	5514.211667	1070.890625	26.919809
-53.752128	5514.211667	1069.743164	-17.250374
-53.752128	5514.211667	1068.594727	6.469358
-53.752128	5514.211667	1067.447266	165.885269
-53.752128	5514.211667	1066.298828	148.602325
-53.752128	5514.211667	1065.149414	155.055176
-53.752128	5514.211667	1064.000977	50.150661
-53.752128	5514.211667	1062.851563	23.180775
-53.752128	5514.211667	1061.702148	70.779640
-53.752128	5514.211667	1060.552734	74.065491
-53.752128	5514.211667	1059.402344	-84.210953
-53.752128	5514.211667	1058.252930	44.409481
-53.752128	5514.211667	1057.102539	-38.972687
-53.752128	5514.211667	1055.951172	40.792477
-53.752128	5514.211667	1054.800781	-27.953974
-53.752128	5514.211667	1053.649414	1.093996
-53.752128	5514.211667	1052.498047	-51.603748
-53.752128	5514.211667	1051.346680	24.434782
-53.752128	5514.211667	1050.194336	24.070627
-53.752128	5514.211667	1049.042969	-8.235003
-53.752128	5514.211667	1047.890625	57.807278
-53.752128	5514.211667	1046.738281	23.192022
-53.752128	5514.211667	1045.584961	-57.853542
-53.752128	5514.211667	1044.431641	-63.855846
-53.752128	5514.211667	1043.278320	-145.436417
-53.752128	5514.211667	1042.125000	-83.795395
-53.752128	5514.211667	1040.971680	52.867085
-53.752128	5514.211667	1039.817383	17.197170
-53.752128	5514.211667	1038.663086	-25.884285
-53.752128	5514.211667	1037.508789	0.362520
-53.752128	5514.211667	1036.353516	57.788795
-53.752128	5514.211667	1035.198242	-11.979028
-53.752128	5514.211667	1034.042969	84.383324
-53.752128	5514.211667	1032.887695	-14.575267
-53.752128	5514.211667	1031.732422	58.485096
-53.752128	5514.211667	1030.576172	85.774979
-53.752128	5514.211667	1029.419922	-0.484448
-53.752128	5514.211667	1028.263672	57.563316
-53.752128	5514.211667	1027.106445	-57.130463
-53.752128	5514.211667	1025.949219	80.213997
-53.752128	5514.211667	1024.792969	132.827667
-53.752128	5514.211667	1023.634766	4.545677
-53.752128	5514.211667	1022.477539	122.830353
-53.752128	5514.211667	1021.319336	143.411789
-53.752128	5514.211667	1020.161133	77.535606
-53.752128	5514.211667	1019.002930	38.687202
-53.752128	5514.211667	1017.843750	13.031679
-53.752128	5514.211667	1016.684570	-27.210243
-53.752128	5514.211667	1015.525391	2.355522
-53.752128	5514.211667	1014.366211	-20.605453
-53.752128	5514.211667	1013.207031	61.258434
-53.752128	5514.211667	1012.046875	17.412556
-53.752128	5514.211667	1010.886719	124.746109
-53.752128	5514.211667	1009.726563	28.449554
-53.752128	5514.211667	1008.565430	115.885719
-53.752128	5514.211667	1007.404297	26.726519
-53.752128	5514.211667	1006.243164	132.605286
-53.752128	5514.211667	1005.082031	159.462494
-53.752128	5514.211667	1003.920898	154.222488
-53.752128	5514.211667	1002.758789	123.795914
-53.752128	5514.211667	1001.596680	276.488983
-53.752128	5514.211667	1000.433594	160.632736
-53.752128	5514.211667	999.271484	183.064209
-53.752128	5514.211667	998.108398	-2.129764
-53.752128	5514.211667	996.945313	199.004028
-53.752128	5514.211667	995.782227	37.091099
-53.752128	5514.211667	994.618164	69.921455
-53.752128	5514.211667	993.454102	176.839417
-53.752128	5514.211667	992.290039	98.194099
-53.752128	5514.211667	991.125977	203.059280
-53.752128	5514.211667	989.960938	133.470566
-53.752128	5514.211667	988.796875	57.801609
-53.752128	5514.211667	987.630859	81.371582
-53.752128	5514.211667	986.465820	98.655304
-53.752128	5514.211667	985.300781	56.855858
-53.752128	5514.211667	984.134766	43.817898
-53.752128	5514.211667	982.968750	25.695808
-53.752128	5514.211667	981.801758	59.193130
-53.752128	5514.211667	980.635742	65.357407
-53.752128	5514.211667	979.468750	10.855945
-53.752128	5514.211667	978.301758	114.090210
-53.752128	5514.211667	977.133789	-24.321716
-53.752128	5514.211667	975.966797	11.623281
-53.752128	5514.211667	974.798828	68.781944
-53.752128	5514.211667	973.630859	75.863365
-53.752128	5514.211667	972.461914	-12.169688
-53.752128	5514.211667	971.293945	-9.414159
-53.752128	5514.211667	970.125000	30.255217
-53.752128	5514.211667	968.956055	66.316078
-53.752128	5514.211667	967.786133	116.319092
-53.752128	5514.211667	966.617188	-2.494797
-53.752128	5514.211667	965.447266	72.414688
-53.752128	5514.211667	964.276367	33.081715
-53.752128	5514.211667	963.106445	-71.686348
-53.752128	5514.211667	961.935547	121.844597
-53.752128	5514.211667	960.764648	55.502800
-53.752128	5514.211667	959.593750	-40.378750
-53.752128	5514.211667	958.422852	5.063206
-53.752128	5514.211667	957.250977	18.553118
-53.752128	5514.211667	956.079102	84.027626
-53.752128	5514.211667	954.907227	-8.902932
-53.752128	5514.211667	953.734375	133.023468
-53.752128	5514.211667	952.562500	16.725561
-53.752128	5514.211667	951.389648	-40.620228
-53.752128	5514.211667	950.215820	100.803444
-53.752128	5514.211667	949.042969	63.859184
-53.752128	5514.211667	947.869141	111.237053
-53.752128	5514.211667	946.695313	-13.413399
-53.752128	5514.211667	945.521484	-39.812912
-53.752128	5514.211667	944.346680	17.053925
-53.752128	5514.211667	943.172852	26.759697
-53.752128	5514.211667	941.998047	-51.001171
-53.752128	5514.211667	940.822266	-5.886938
-53.752128	5514.211667	939.647461	-92.569626
-53.752128	5514.211667	938.471680	24.558735
-53.752128	5514.211667	937.295898	-24.054445
-53.752128	5514.211667	936.119141	19.169195
-53.752128	5514.211667	934.943359	6.314979
-53.752128	5514.211667	933.766602	-69.076057
-53.752128	5514.211667	932.589844	229.375153
-53.752128	5514.211667	931.413086	93.374596
-53.752128	5514.211667	930.235352	94.031387
-53.752128	5514.211667	929.057617	114.709938
-53.752128	5514.211667	927.879883	126.525917
-53.752128	5514.211667	926.702148	33.113049
-53.752128	5514.211667	925.523438	-44.597816
-53.752128	5514.211667	924.344727	34.322697
-53.752128	5514.211667	923.166016	104.269539
-53.752128	5514.211667	921.987305	31.043922
-53.752128	5514.211667	920.807617	4.803718
-53.752128	5514.211667	919.627930	6.260535
-53.752128	5514.211667	919.497070	121.812981
-53.752128	5514.211667	918.331055	28.484535
-53.752128	5514.211667	917.165039	6.700738
-53.752128	5514.211667	915.999023	-8.376859
-53.752128	5514.211667	914.833008	-68.129677
-53.752128	5514.211667	913.666016	64.208046
-53.752128	5514.211667	912.499023	-133.985321
-53.752128	5514.211667	911.332031	-35.185680
-53.752128	5514.211667	910.165039	-77.048149
-53.752128	5514.211667	908.997070	93.099510
-53.752128	5514.211667	907.830078	-22.409182
-53.752128	5514.211667	906.661133	31.654755
-53.752128	5514.211667	905.493164	-3.517902
-53.752128	5514.211667	904.325195	-101.114555
-53.752128	5514.211667	903.156250	-82.753784
-53.752128	5514.211667	901.987305	24.747255
-53.752128	5514.211667	900.818359	-68.355659
-53.752128	5514.211667	899.648438	83.645531
-53.752128	5514.211667	898.478516	128.660248
-53.752128	5514.211667	897.308594	-53.505455
-53.752128	5514.211667	896.138672	58.302628
-53.752128	5514.211667	894.968750	29.814386
-53.752128	5514.211667	893.797852	79.229546
-53.752128	5514.211667	892.626953	97.464859
-53.752128	5514.211667	891.456055	35.595444
-53.752128	5514.211667	890.284180	-28.479305
-53.752128	5514.211667	889.113281	94.266678
-53.752128	5514.211667	887.941406	94.669914
-53.752128	5514.211667	886.768555	46.162399
-53.752128	5514.211667	885.596680	-102.344757
-53.752128	5514.211667	884.423828	20.288382
-53.752128	5514.211667	883.250977	-85.957657
-53.752128	5514.211667	882.078125	-52.237522
-53.752128	5514.211667	880.905273	-42.966858
-53.752128	5514.211667	879.731445	26.238550
-53.752128	5514.211667	878.557617	139.802841
-53.752128	5514.211667	877.383789	-6.344884
-53.752128	5514.211667	876.209961	25.065754
-53.752128	5514.211667	875.035156	-63.336926
-53.752128	5514.211667	873.860352	65.645180
-53.752128	5514.211667	872.685547	99.214577
-53.752128	5514.211667	871.510742	44.080143
-53.752128	5514.211667	870.334961	-126.300987
-53.752128	5514.211667	869.159180	-134.845200
-53.752128	5514.211667	867.983398	-150.042343
-53.752128	5514.211667	866.807617	0.897970
-53.752128	5514.211667	865.630859	-9.908951
-53.752128	5514.211667	864.454102	-31.792543
-53.752128	5514.211667	863.277344	-97.953857
-53.752128	5514.211667	862.100586	-18.014359
-53.752128	5514.211667	860.922852	17.624619
-53.752128	5514.211667	859.745117	15.626834
-53.752128	5514.211667	858.567383	9.195281
-53.752128	5514.211667	857.389648	-39.264408
-53.752128	5514.211667	856.210938	-16.957556
-53.752128	5514.211667	855.032227	-21.198648
-53.752128	5514.211667	853.853516	14.334936
-53.752128	5514.211667	852.674805	-78.323486
-53.752128	5514.211667	851.495117	-29.558235
-53.752128	5514.211667	850.315430	-47.089767
-53.752128	5514.211667	849.135742	-75.667976
-53.752128	5514.211667	847.956055	26.022928
-53.752128	5514.211667	846.775391	-6.995901
-53.752128	5514.211667	845.595703	28.404682
-53.752128	5514.211667	844.415039	57.159695
-53.752128	5514.211667	843.233398	21.913504
-53.752128	5514.211667	842.052734	77.101463
-53.752128	5514.211667	840.871094	17.583334
-53.752128	5514.211667	839.689453	26.425117
-53.752128	5514.211667	838.506836	-11.039604
-53.752128	5514.211667	837.325195	44.059669
-53.752128	5514.211667	836.142578	105.734459
-53.752128	5514.211667	834.959961	52.816448
-53.752128	5514.211667	833.777344	90.209785
-53.752128	5514.211667	832.593750	-48.588921
-53.752128	5514.211667	831.410156	127.483978
-53.752128	5514.211667	830.226563	-31.103413
-53.752128	5514.211667	829.042969	50.236179
-53.752128	5514.211667	827.858398	94.124321
-53.752128	5514.211667	826.673828	-75.398254
-53.752128	5514.211667	825.489258	-148.095367
-53.752128	5514.211667	824.304688	-42.667843
-53.752128	5514.211667	823.120117	29.725014
-53.752128	5514.211667	821.934570	-71.565559
-53.752128	5514.211667	820.749023	-54.163822
-53.752128	5514.211667	819.562500	59.887169
-53.752128	5514.211667	818.376953	20.112572
-53.752128	5514.211667	817.190430	61.597027
-53.752128	5514.211667	816.003906	-81.390350
-53.752128	5514.211667	814.817383	-9.200041
-53.752128	5514.211667	813.629883	30.023504
-53.752128	5514.211667	812.442383	47.271114
-53.752128	5514.211667	811.254883	31.587088
-53.752128	5514.211667	810.067383	-43.329739
-53.752128	5514.211667	808.878906	-26.126307
-53.752128	5514.211667	807.690430	-44.027061
-53.752128	5514.211667	806.501953	-31.248209
-53.752128	5514.211667	805.313477	-36.024738
-53.752128	5514.211667	804.124023	13.963387
-53.752128	5514.211667	802.934570	66.104332
-53.752128	5514.211667	801.745117	59.069347
-53.752128	5514.211667	800.555664	8.223053
-53.752128	5514.211667	799.365234	-75.459290
-53.752128	5514.211667	798.175781	46.631439
-53.752128	5514.211667	796.985352	8.897066
-53.752128	5514.211667	795.793945	56.492199
-53.752128	5514.211667	794.603516	-79.704163
-53.752128	5514.211667	793.412109	55.336899
-53.752128	5514.211667	792.220703	8.812525
-53.752128	5514.211667	791.028320	-31.152464
-53.752128	5514.211667	789.836914	-75.491447
-53.752128	5514.211667	788.644531	-36.790367
-53.752128	5514.211667	787.452148	-72.408173
-53.752128	5514.211667	786.258789	-51.236698
-53.752128	5514.211667	785.066406	103.125511
-53.752128	5514.211667	783.873047	152.598022
-53.752128	5514.211667	782.679688	-38.101139
-53.752128	5514.211667	781.485352	-30.127800
-53.752128	5514.211667	780.291992	32.374722
-53.752128	5514.211667	779.097656	14.110530
-53.752128	5514.211667	777.903320	19.827009
-53.752128	5514.211667	776.708008	64.774048
-53.752128	5514.211667	775.512695	63.895851
-53.752128	5514.211667	774.318359	58.638134
-53.752128	5514.211667	773.122070	72.976295
-53.752128	5514.211667	771.926758	26.277504
-53.752128	5514.211667	770.730469	16.611378
-53.752128	5514.211667	769.534180	74.447594
-53.752128	5514.211667	768.337891	175.789474
-53.752128	5514.211667	767.141602	98.544624
-53.752128	5514.211667	765.944336	101.847099
-53.752128	5514.211667	764.747070	20.254044
-53.752128	5514.211667	763.549805	95.328354
-53.752128	5514.211667	762.351563	163.824142
-53.752128	5514.211667	761.154297	64.805176
-53.752128	5514.211667	759.956055	124.537560
-53.752128	5514.211667	758.757813	210.310471
-53.752128	5514.211667	757.558594	-6.091760
-53.752128	5514.211667	756.359375	186.107864
-53.752128	5514.211667	755.160156	137.046494
-53.752128	5514.211667	753.960938	207.451584
-53.752128	5514.211667	752.761719	104.069153
-53.752128	5514.211667	751.561523	224.345062
-53.752128	5514.211667	750.361328	147.006638
-53.752128	5514.211667	749.160156	254.155457
-53.752128	5514.211667	747.959961	63.963631
-53.752128	5514.211667	746.758789	138.498154
-53.752128	5514.211667	745.557617	199.964920
-53.752128	5514.211667	744.356445	92.238411
-53.752128	5514.211667	743.154297	138.466019
-53.752128	5514.211667	741.952148	223.668671
-53.752128	5514.211667	740.750000	87.761841
-53.752128	5514.211667	739.547852	88.390991
-53.752128	5514.211667	738.344727	143.153168
-53.752128	5514.211667	737.142578	72.252090
-53.752128	5514.211667	735.939453	-13.800237
-53.752128	5514.211667	734.735352	101.495117
-53.752128	5514.211667	733.532227	104.168144
-53.752128	5514.211667	732.328125	63.535446
-53.752128	5514.211667	731.124023	38.041454
-53.752128	5514.211667	729.918945	92.568275
-53.752128	5514.211667	728.714844	114.609436
-53.752128	5514.211667	727.509766	4.723591
-53.752128	5514.211667	726.303711	-27.318340
-53.752128	5514.211667	725.098633	148.114014
-53.752128	5514.211667	723.892578	42.539646
-53.752128	5514.211667	722.686523	49.325512
-53.752128	5514.211667	721.480469	58.244560
-53.752128	5514.211667	720.274414	159.994064
-53.752128	5514.211667	719.067383	47.932537
-53.752128	5514.211667	717.860352	128.006622
-53.752128	5514.211667	716.653320	9.476576
-53.752128	5514.211667	715.445313	44.166214
-53.752128	5514.211667	714.238281	-26.885523
-53.752128	5514.211667	713.030273	-0.878216
-53.752128	5514.211667	711.821289	20.781368
-53.752128	5514.211667	710.613281	-50.293491
-53.752128	5514.211667	709.404297	-67.477768
-53.752128	5514.211667	708.195313	51.083549
-53.752128	5514.211667	706.986328	-30.797976
-53.752128	5514.211667	705.776367	-24.353340
-53.752128	5514.211667	704.566406	57.440987
-53.752128	5514.211667	703.356445	-15.850004
-53.752128	5514.211667	702.146484	102.456360
-53.752128	5514.211667	700.935547	61.422478
-53.752128	5514.211667	699.724609	-29.109184
-53.752128	5514.211667	698.513672	97.658806
-53.752128	5514.211667	697.302734	103.900826
-53.752128	5514.211667	696.090820	97.212425
-53.752128	5514.211667	694.878906	51.803833
-53.752128	5514.211667	693.666992	45.082844
-53.752128	5514.211667	692.455078	40.490459
-53.752128	5514.211667	691.242188	160.495697
-53.752128	5514.211667	690.029297	-18.169151
-53.752128	5514.211667	688.816406	129.672775
-53.752128	5514.211667	687.602539	-42.515915
-53.752128	5514.211667	686.389648	-2.118678
-53.752128	5514.211667	685.175781	-32.592205
-53.752128	5514.211667	683.960938	-22.304605
-53.752128	5514.211667	682.747070	-3.461019
-53.752128	5514.211667	681.532227	51.816254
-53.752128	5514.211667	680.317383	64.156158
-53.752128	5514.211667	679.102539	37.874733
-53.752128	5514.211667	677.886719	67.315849
-53.752128	5514.211667	676.670898	-23.297239
-53.752128	5514.211667	675.455078	-13.184131
-53.752128	5514.211667	674.239258	7.613811
-53.752128	5514.211667	673.022461	4.819801
-53.752128	5514.211667	671.805664	53.398865
-53.752128	5514.211667	670.588867	-2.970621
-53.752128	5514.211667	669.372070	96.918526
-53.752128	5514.211667	668.154297	25.538979
-53.752128	5514.211667	666.936523	82.544815
-53.752128	5514.211667	665.718750	15.434732
-53.752128	5514.211667	664.500977	78.792885
-53.752128	5514.211667	663.282227	-33.234276
-53.752128	5514.211667	662.063477	-29.793859
-53.752128	5514.211667	660.844727	101.865776
-53.752128	5514.211667	659.625000	160.793381
-53.752128	5514.211667	658.405273	82.943970
-53.752128	5514.211667	657.185547	22.195652
-53.752128	5514.211667	655.965820	251.886993
-53.752128	5514.211667	654.745117	103.549149
-53.752128	5514.211667	653.525391	134.566208
-53.752128	5514.211667	652.303711	31.093664
-53.752128	5514.211667	651.083008	62.073116
-53.752128	5514.211667	649.861328	5.554876
-53.752128	5514.211667	648.640625	-25.362967
-53.752128	5514.211667	647.417969	43.932941
-53.752128	5514.211667	646.196289	17.246187
-53.752128	5514.211667	644.973633	24.654823
-53.752128	5514.211667	643.750977	-119.260460
-53.752128	5514.211667	642.528320	52.193447
-53.752128	5514.211667	641.305664	104.270195
-53.752128	5514.211667	640.082031	24.266424
-53.752128	5514.211667	638.858398	-102.563271
-53.752128	5514.211667	637.634766	-35.637596
-53.752128	5514.211667	636.410156	154.684799
-53.752128	5514.211667	635.185547	102.332870
-53.752128	5514.211667	633.960938	-126.589134
-53.752128	5514.211667	632.736328	-161.874908
-53.752128	5514.211667	631.510742	-75.950989
-53.752128	5514.211667	630.285156	-4.961623
-53.752128	5514.211667	629.059570	-29.669727
-53.752128	5514.211667	627.833984	-16.128744
-53.752128	5514.211667	626.607422	71.755249
-53.752128	5514.211667	625.380859	8.764823
-53.752128	5514.211667	624.154297	-30.850714
-53.752128	5514.211667	622.927734	31.458719
-53.752128	5514.211667	621.700195	-8.173435
-53.752128	5514.211667	620.472656	43.464161
-53.752128	5514.211667	619.245117	-98.036407
-53.752128	5514.211667	618.016602	19.340120
-53.752128	5514.211667	616.788086	-41.519588
-53.752128	5514.211667	615.559570	-64.192879
-53.752128	5514.211667	614.331055	50.945541
-53.752128	5514.211667	613.101563	36.716576
-53.752128	5514.211667	611.872070	-81.364159
-53.752128	5514.211667	610.642578	27.313007
-53.752128	5514.211667	609.413086	-65.315582
-53.752128	5514.211667	608.182617	-52.018894
-53.752128	5514.211667	606.952148	-45.089870
-53.752128	5514.211667	605.721680	-48.759163
-53.752128	5514.211667	604.491211	-54.552338
-53.752128	5514.211667	603.259766	68.731834
-53.752128	5514.211667	602.028320	-15.385098
-53.752128	5514.211667	600.796875	-6.402831
-53.752128	5514.211667	599.564453	99.847145
-53.752128	5514.211667	598.332031	-1.163408
-53.752128	5514.211667	597.099609	-13.354589
-53.752128	5514.211667	595.867188	149.870605
-53.752128	5514.211667	594.633789	103.828598
-53.752128	5514.211667	593.400391	9.210908
-53.752128	5514.211667	592.166992	62.475376
-53.752128	5514.211667	590.933594	14.351317
-53.752128	5514.211667	589.699219	21.131725
-53.752128	5514.211667	588.464844	42.679512
-53.752128	5514.211667	587.230469	38.889038
-53.752128	5514.211667	585.995117	22.434629
-53.752128	5514.211667	584.760742	-82.610031
-53.752128	5514.211667	583.525391	-120.129524
-53.752128	5514.211667	582.289063	-10.042467
-53.752128	5514.211667	581.053711	9.349323
-53.752128	5514.211667	579.817383	22.405411
-53.752128	5514.211667	578.581055	96.560501
-53.752128	5514.211667	577.343750	-6.284527
-53.752128	5514.211667	576.107422	-22.728836
-53.752128	5514.211667	574.870117	30.322475
-53.752128	5514.211667	573.631836	83.347252
-53.752128	5514.211667	572.394531	54.258541
-53.752128	5514.211667	571.156250	115.671249
-53.752128	5514.211667	569.917969	124.457100
-53.752128	5514.211667	568.679688	137.445969
-53.752128	5514.211667	567.440430	171.458176
-53.752128	5514.211667	566.202148	184.432114
-53.752128	5514.211667	564.961914	71.262680
-53.752128	5514.211667	563.722656	189.340240
-53.752128	5514.211667	562.482422	290.556091
-53.752128	5514.211667	561.243164	288.789520
-53.752128	5514.211667	560.001953	76.977905
-53.752128	5514.211667	558.761719	226.457886
-53.752128	5514.211667	557.520508	77.740349
-53.752128	5514.211667	556.279297	69.727753
-53.752128	5514.211667	555.038086	47.031174
-53.752128	5514.211667	553.795898	-17.618425
-53.752128	5514.211667	552.554688	28.945288
-53.752128	5514.211667	551.311523	90.169510
-53.752128	5514.211667	550.069336	40.241337
-53.752128	5514.211667	548.826172	15.493005
-53.752128	5514.211667	547.583984	-34.389179
-53.752128	5514.211667	546.339844	5.856465
-53.752128	5514.211667	545.096680	31.426725
-53.752128	5514.211667	543.852539	29.759323
-53.752128	5514.211667	542.608398	88.827866
-53.752128	5514.211667	541.364258	99.722412
-53.752128	5514.211667	540.119141	91.775948
-53.752128	5514.211667	538.875000	65.006203
-53.752128	5514.211667	537.628906	90.558731
-53.752128	5514.211667	536.383789	72.178978
-53.752128	5514.211667	535.137695	5.707540
-53.752128	5514.211667	533.892578	-54.453167
-53.752128	5514.211667	532.645508	75.655922
-53.752128	5514.211667	531.399414	-5.383421
-53.752128	5514.211667	530.152344	28.549202
-53.752128	5514.211667	528.905273	-4.380854
-53.752128	5514.211667	527.658203	144.433960
-53.752128	5514.211667	526.410156	11.267051
-53.752128	5514.211667	525.163086	76.515320
-53.752128	5514.211667	523.914063	51.979702
-53.752128	5514.211667	522.666016	115.117752
-53.752128	5514.211667	521.416992	50.956631
-53.752128	5514.211667	520.167969	59.843708
-53.752128	5514.211667	518.918945	112.533432
-53.752128	5514.211667	517.669922	48.438461
-53.752128	5514.211667	516.419922	-67.740585
-53.752128	5514.211667	515.169922	-81.731598
-53.752128	5514.211667	513.919922	-24.857813
-53.752128	5514.211667	512.668945	15.330910
-53.752128	5514.211667	511.417969	47.178875
-53.752128	5514.211667	510.166992	33.206570
-53.752128	5514.211667	508.916016	6.756238
-53.752128	5514.211667	507.664063	98.975258
-53.752128	5514.211667	506.412109	39.238140
-53.752128	5514.211667	505.160156	-112.016243
-53.752128	5514.211667	503.907227	-44.771866
-53.752128	5514.211667	502.655273	-46.180668
-53.752128	5514.211667	501.402344	73.020409
-53.752128	5514.211667	500.148438	-19.873350
-53.752128	5514.211667	498.895508	-104.404091
-53.752128	5514.211667	497.641602	-217.985031
-53.752128	5514.211667	496.387695	-98.821449
-53.752128	5514.211667	495.132813	-15.015068
-53.752128	5514.211667	493.878906	-28.839600
-53.752128	5514.211667	492.624023	19.633028
-53.752128	5514.211667	491.368164	-75.139900
-53.752128	5514.211667	490.113281	-93.076225
-53.752128	5514.211667	488.857422	-187.772308
-53.752128	5514.211667	487.601563	5.926754
-53.752128	5514.211667	486.344727	-7.854751
-53.752128	5514.211667	485.088867	-56.873665
-53.752128	5514.211667	483.832031	6.078798
-53.752128	5514.211667	482.575195	-161.056412
-53.752128	5514.211667	481.317383	59.385933
-53.752128	5514.211667	480.059570	-91.109818
-53.752128	5514.211667	478.801758	-48.904438
-53.752128	5514.211667	477.543945	38.843884
-53.752128	5514.211667	476.285156	-43.220207
-53.752128	5514.211667	475.027344	-11.396242
-53.752128	5514.211667	473.767578	-25.118999
-53.752128	5514.211667	472.508789	-51.247746
-53.752128	5514.211667	471.249023	17.790409
-53.752128	5514.211667	469.989258	30.956675
-53.752128	5514.211667	468.729492	-34.458061
-53.752128	5514.211667	467.469727	106.882957
-53.752128	5514.211667	466.208984	-130.075500
-53.752128	5514.211667	464.948242	17.416723
-53.752128	5514.211667	463.686523	-23.162945
-53.752128	5514.211667	462.425781	-49.269566
-53.752128	5514.211667	461.164063	40.272083
-53.752128	5514.211667	459.901367	53.375259
-53.752128	5514.211667	458.639648	8.670778
-53.752128	5514.211667	457.376953	38.269798
-53.752128	5514.211667	456.114258	-157.051315
-53.752128	5514.211667	454.851563	31.391108
-53.752128	5514.211667	453.587891	29.998539
-53.752128	5514.211667	452.324219	69.834389
-53.752128	5514.211667	451.060547	119.947479
-53.752128	5514.211667	449.796875	-29.897602
-53.752128	5514.211667	448.532227	73.761024
-53.752128	5514.211667	447.267578	72.289894
-53.752128	5514.211667	446.002930	29.608305
-53.752128	5514.211667	444.737305	28.110125
-53.752128	5514.211667	443.471680	-26.935825
-53.752128	5514.211667	442.206055	-28.460928
-53.752128	5514.211667	440.940430	50.252323
-53.752128	5514.211667	439.673828	73.353943
-53.752128	5514.211667	438.407227	121.105843
-53.752128	5514.211667	437.140625	2.226411
-53.752128	5514.211667	435.873047	58.141865
-53.752128	5514.211667	434.605469	-7.281926
-53.752128	5514.211667	433.337891	50.607880
-53.752128	5514.211667	432.070313	28.303450
-53.752128	5514.211667	430.801758	16.244444
-53.752128	5514.211667	429.533203	53.450470
-53.752128	5514.211667	428.264648	113.192398
-53.752128	5514.211667	426.996094	82.536461
-53.752128	5514.211667	425.726563	55.956718
-53.752128	5514.211667	424.457031	45.764244
-53.752128	5514.211667	423.186523	17.065275
-53.752128	5514.211667	421.916992	-79.356049
-53.752128	5514.211667	420.646484	111.329147
-53.752128	5514.211667	419.375977	10.730222
-53.752128	5514.211667	418.104492	80.265617
-53.752128	5514.211667	416.833008	192.756607
-53.752128	5514.211667	415.561523	87.945816
-53.752128	5514.211667	414.290039	54.824360
-53.752128	5514.211667	413.017578	87.196091
-53.752128	5514.211667	411.746094	84.683792
-53.752128	5514.211667	410.472656	100.529106
-53.752128	5514.211667	409.200195	140.866379
-53.752128	5514.211667	407.926758	9.219515
-53.752128	5514.211667	406.653320	43.279385
-53.752128	5514.211667	405.379883	130.434265
-53.752128	5514.211667	404.105469	60.004902
-53.752128	5514.211667	402.831055	46.776424
-53.752128	5514.211667	401.556641	-19.674561
-53.752128	5514.211667	400.282227	38.486320
-53.752128	5514.211667	399.006836	145.571548
-53.752128	5514.211667	397.731445	-21.216690
-53.752128	5514.211667	396.456055	118.333252
-53.752128	5514.211667	395.179688	102.537910
-53.752128	5514.211667	393.903320	19.283083
-53.752128	5514.211667	392.626953	111.494644
-53.752128	5514.211667	391.350586	99.491959
-53.752128	5514.211667	390.073242	111.867416
-53.752128	5514.211667	388.795898	83.334045
-53.752128	5514.211667	387.518555	68.975716
-53.752128	5514.211667	386.240234	34.115833
-53.752128	5514.211667	384.961914	56.227283
-53.752128	5514.211667	383.683594	2.803426
-53.752128	5514.211667	382.405273	-22.197577
-53.752128	5514.211667	381.125977	-41.209747
-53.752128	5514.211667	379.846680	186.084656
-53.752128	5514.211667	378.567383	113.827225
-53.752128	5514.211667	377.287109	35.349560
-53.752128	5514.211667	376.006836	25.963182
-53.752128	5514.211667	374.726563	8.294366
-53.752128	5514.211667	373.446289	98.305748
-53.752128	5514.211667	372.165039	17.266241
-53.752128	5514.211667	370.883789	29.644791
-53.752128	5514.211667	369.602539	163.840378
-53.752128	5514.211667	368.320313	41.694122
-53.752128	5514.211667	367.039063	110.461578
-53.752128	5514.211667	365.755859	51.012772
-53.752128	5514.211667	364.473633	36.105778
-53.752128	5514.211667	363.190430	25.077694
-53.752128	5514.211667	361.907227	9.805606
-53.752128	5514.211667	360.624023	-76.700615
-53.752128	5514.211667	359.340820	-134.952621
-53.752128	5514.211667	358.056641	13.580465
-53.752128	5514.211667	356.772461	-47.108223
-53.752128	5514.211667	355.487305	54.269096
-53.752128	5514.211667	354.202148	27.637329
-53.752128	5514.211667	352.916992	-17.449116
-53.752128	5514.211667	351.631836	-18.149765
-53.752128	5514.211667	350.346680	23.475397
-53.752128	5514.211667	349.060547	-18.226471
-53.752128	5514.211667	347.774414	-33.818260
-53.752128	5514.211667	346.487305	27.297171
-53.752128	5514.211667	345.200195	-110.282707
-53.752128	5514.211667	343.913086	98.083923
-53.752128	5514.211667	342.625977	14.672606
-53.752128	5514.211667	341.338867	-54.805641
-53.752128	5514.211667	340.050781	-67.894165
-53.752128	5514.211667	338.762695	131.102753
-53.752128	5514.211667	337.473633	-12.001856
-53.752128	5514.211667	336.184570	-5.738098
-53.752128	5514.211667	334.895508	48.734570
-53.752128	5514.211667	333.606445	13.970975
-53.752128	5514.211667	332.317383	13.258780
-53.752128	5514.211667	331.027344	76.856773
-53.752128	5514.211667	329.736328	-209.256332
-53.752128	5514.211667	328.446289	-61.489666
-53.752128	5514.211667	327.155273	63.665115
-53.752128	5514.211667	325.864258	-23.469805
-53.752128	5514.211667	324.573242	-28.190706
-53.752128	5514.211667	323.281250	-57.480507
-53.752128	5514.211667	321.989258	-46.782127
-53.752128	5514.211667	320.697266	-111.057106
-53.752128	5514.211667	319.405273	7.765143
-53.752128	5514.211667	318.112305	35.449326
-53.752128	5514.211667	316.819336	4.299870
-53.752128	5514.211667	315.526367	-45.360416
-53.752128	5514.211667	314.232422	-99.442276
-53.752128	5514.211667	312.938477	47.455528
-53.752128	5514.211667	311.644531	-13.487497
-53.752128	5514.211667	310.349609	110.332855
-53.752128	5514.211667	309.054688	2.249622
-53.752128	5514.211667	307.759766	10.465028
-53.752128	5514.211667	306.464844	40.356014
-53.752128	5514.211667	305.168945	43.620861
-53.752128	5514.211667	303.873047	62.507141
-53.752128	5514.211667	302.577148	201.522415
-53.752128	5514.211667	301.281250	62.662457
-53.752128	5514.211667	299.984375	92.136009
