#X		#Y		#Wave		#Intensity
64.343085	5572.971667	1999.946289	-56.270794
64.343085	5572.971667	1998.981445	17.964668
64.343085	5572.971667	1998.017578	2.571268
64.343085	5572.971667	1997.052734	26.824478
64.343085	5572.971667	1996.088867	16.373171
64.343085	5572.971667	1995.124023	-31.240635
64.343085	5572.971667	1994.159180	17.748102
64.343085	5572.971667	1993.193359	36.995655
64.343085	5572.971667	1992.228516	51.277397
64.343085	5572.971667	1991.262695	30.891842
64.343085	5572.971667	1990.296875	-6.816869
64.343085	5572.971667	1989.331055	4.970786
64.343085	5572.971667	1988.365234	1.904280
64.343085	5572.971667	1987.398438	-63.004967
64.343085	5572.971667	1986.432617	45.218876
64.343085	5572.971667	1985.465820	-4.849048
64.343085	5572.971667	1984.499023	16.788826
64.343085	5572.971667	1983.532227	16.168898
64.343085	5572.971667	1982.565430	0.717574
64.343085	5572.971667	1981.597656	42.095249
64.343085	5572.971667	1980.629883	9.344533
64.343085	5572.971667	1979.662109	-95.023232
64.343085	5572.971667	1978.694336	-51.192142
64.343085	5572.971667	1977.726563	49.404926
64.343085	5572.971667	1976.758789	46.285885
64.343085	5572.971667	1975.790039	-40.747562
64.343085	5572.971667	1974.821289	37.575069
64.343085	5572.971667	1973.852539	-24.758224
64.343085	5572.971667	1972.883789	-40.204285
64.343085	5572.971667	1971.915039	87.392105
64.343085	5572.971667	1970.945313	52.201019
64.343085	5572.971667	1969.975586	34.278316
64.343085	5572.971667	1969.005859	45.938625
64.343085	5572.971667	1968.036133	-50.838032
64.343085	5572.971667	1967.066406	19.964863
64.343085	5572.971667	1966.096680	71.033005
64.343085	5572.971667	1965.125977	-5.993854
64.343085	5572.971667	1964.155273	15.508129
64.343085	5572.971667	1963.184570	-7.315524
64.343085	5572.971667	1962.213867	-74.439903
64.343085	5572.971667	1961.242188	6.128850
64.343085	5572.971667	1960.271484	74.364456
64.343085	5572.971667	1959.299805	31.863861
64.343085	5572.971667	1958.328125	45.953888
64.343085	5572.971667	1957.356445	-6.362553
64.343085	5572.971667	1956.384766	0.353241
64.343085	5572.971667	1955.412109	-10.142083
64.343085	5572.971667	1954.439453	43.273682
64.343085	5572.971667	1953.467773	35.232861
64.343085	5572.971667	1952.495117	39.480949
64.343085	5572.971667	1951.521484	-0.490644
64.343085	5572.971667	1950.548828	60.254639
64.343085	5572.971667	1949.575195	15.384394
64.343085	5572.971667	1948.601563	-63.841019
64.343085	5572.971667	1947.627930	28.796364
64.343085	5572.971667	1946.654297	145.943451
64.343085	5572.971667	1945.680664	-36.320000
64.343085	5572.971667	1944.706055	-5.070613
64.343085	5572.971667	1943.732422	33.527161
64.343085	5572.971667	1942.757813	-6.367017
64.343085	5572.971667	1941.783203	-46.245148
64.343085	5572.971667	1940.807617	-44.430943
64.343085	5572.971667	1939.833008	16.210445
64.343085	5572.971667	1938.857422	-43.250813
64.343085	5572.971667	1937.881836	66.374062
64.343085	5572.971667	1936.906250	100.018074
64.343085	5572.971667	1935.930664	11.187714
64.343085	5572.971667	1934.955078	-18.836485
64.343085	5572.971667	1933.978516	-24.364817
64.343085	5572.971667	1933.001953	77.818077
64.343085	5572.971667	1932.025391	-50.095177
64.343085	5572.971667	1931.048828	34.928642
64.343085	5572.971667	1930.072266	31.847296
64.343085	5572.971667	1929.094727	53.229145
64.343085	5572.971667	1928.118164	-40.339260
64.343085	5572.971667	1927.140625	22.618999
64.343085	5572.971667	1926.163086	43.995159
64.343085	5572.971667	1925.184570	-59.291965
64.343085	5572.971667	1924.207031	32.964882
64.343085	5572.971667	1923.228516	37.228344
64.343085	5572.971667	1922.250000	24.391468
64.343085	5572.971667	1921.271484	53.082165
64.343085	5572.971667	1920.292969	-8.589362
64.343085	5572.971667	1919.314453	76.254677
64.343085	5572.971667	1918.334961	-7.364979
64.343085	5572.971667	1917.355469	84.771606
64.343085	5572.971667	1916.375977	74.388878
64.343085	5572.971667	1915.396484	-21.378168
64.343085	5572.971667	1914.416992	58.517178
64.343085	5572.971667	1913.436523	-29.892260
64.343085	5572.971667	1912.457031	-15.857416
64.343085	5572.971667	1911.476563	-84.714584
64.343085	5572.971667	1910.496094	7.324749
64.343085	5572.971667	1909.515625	-0.584556
64.343085	5572.971667	1908.534180	35.366940
64.343085	5572.971667	1907.552734	7.968955
64.343085	5572.971667	1906.572266	36.600929
64.343085	5572.971667	1905.590820	72.528503
64.343085	5572.971667	1904.608398	110.877853
64.343085	5572.971667	1903.626953	-47.959057
64.343085	5572.971667	1902.644531	-26.636127
64.343085	5572.971667	1901.663086	11.712838
64.343085	5572.971667	1900.680664	15.987890
64.343085	5572.971667	1899.698242	39.721283
64.343085	5572.971667	1898.714844	5.079259
64.343085	5572.971667	1897.732422	-22.254723
64.343085	5572.971667	1896.749023	3.904903
64.343085	5572.971667	1895.765625	-23.418036
64.343085	5572.971667	1894.782227	58.626255
64.343085	5572.971667	1893.798828	-36.727428
64.343085	5572.971667	1892.814453	35.571926
64.343085	5572.971667	1891.831055	44.696281
64.343085	5572.971667	1890.846680	24.677162
64.343085	5572.971667	1889.862305	50.795216
64.343085	5572.971667	1888.877930	38.064537
64.343085	5572.971667	1887.892578	-49.897339
64.343085	5572.971667	1886.908203	-38.339474
64.343085	5572.971667	1885.922852	58.125484
64.343085	5572.971667	1884.937500	6.592518
64.343085	5572.971667	1883.952148	-30.370697
64.343085	5572.971667	1882.965820	41.790382
64.343085	5572.971667	1881.980469	-0.015104
64.343085	5572.971667	1880.994141	-24.839138
64.343085	5572.971667	1880.007813	35.162037
64.343085	5572.971667	1879.021484	36.990913
64.343085	5572.971667	1878.035156	53.352619
64.343085	5572.971667	1877.047852	-63.500797
64.343085	5572.971667	1876.061523	47.310993
64.343085	5572.971667	1875.074219	51.553268
64.343085	5572.971667	1874.086914	19.484087
64.343085	5572.971667	1873.098633	-5.314311
64.343085	5572.971667	1872.111328	-73.658966
64.343085	5572.971667	1871.123047	3.175220
64.343085	5572.971667	1870.135742	19.509634
64.343085	5572.971667	1869.147461	33.418003
64.343085	5572.971667	1868.158203	-8.292133
64.343085	5572.971667	1867.169922	17.700132
64.343085	5572.971667	1866.180664	2.592055
64.343085	5572.971667	1865.192383	-70.508469
64.343085	5572.971667	1864.203125	3.796865
64.343085	5572.971667	1863.213867	39.422379
64.343085	5572.971667	1862.223633	-11.913597
64.343085	5572.971667	1861.234375	-22.182123
64.343085	5572.971667	1860.244141	-8.306573
64.343085	5572.971667	1859.253906	44.182442
64.343085	5572.971667	1858.263672	29.075623
64.343085	5572.971667	1857.273438	-2.918123
64.343085	5572.971667	1856.282227	114.669167
64.343085	5572.971667	1855.291992	36.838608
64.343085	5572.971667	1854.300781	24.145823
64.343085	5572.971667	1853.309570	35.566067
64.343085	5572.971667	1852.317383	-13.286717
64.343085	5572.971667	1851.326172	68.026123
64.343085	5572.971667	1850.333984	101.110458
64.343085	5572.971667	1849.342773	88.403748
64.343085	5572.971667	1848.350586	54.018932
64.343085	5572.971667	1847.357422	36.502323
64.343085	5572.971667	1846.365234	74.371704
64.343085	5572.971667	1845.372070	66.481216
64.343085	5572.971667	1844.379883	34.520782
64.343085	5572.971667	1843.386719	65.138962
64.343085	5572.971667	1842.393555	-51.030003
64.343085	5572.971667	1841.399414	27.698839
64.343085	5572.971667	1840.406250	-71.590157
64.343085	5572.971667	1839.412109	-9.727574
64.343085	5572.971667	1838.417969	23.256409
64.343085	5572.971667	1837.423828	70.647247
64.343085	5572.971667	1836.429688	108.402893
64.343085	5572.971667	1835.434570	76.455109
64.343085	5572.971667	1834.440430	109.382553
64.343085	5572.971667	1833.445313	26.995846
64.343085	5572.971667	1832.450195	14.281796
64.343085	5572.971667	1831.454102	59.195110
64.343085	5572.971667	1830.458984	-39.952858
64.343085	5572.971667	1829.462891	45.749073
64.343085	5572.971667	1828.466797	-17.371454
64.343085	5572.971667	1827.470703	8.302207
64.343085	5572.971667	1826.474609	84.337875
64.343085	5572.971667	1825.478516	21.232557
64.343085	5572.971667	1824.481445	34.880642
64.343085	5572.971667	1823.484375	67.699150
64.343085	5572.971667	1822.487305	42.971241
64.343085	5572.971667	1821.490234	-3.321451
64.343085	5572.971667	1820.493164	34.263649
64.343085	5572.971667	1819.495117	16.728569
64.343085	5572.971667	1818.498047	75.843277
64.343085	5572.971667	1817.500000	94.218796
64.343085	5572.971667	1816.500977	2.442235
64.343085	5572.971667	1815.502930	42.359753
64.343085	5572.971667	1814.504883	63.109608
64.343085	5572.971667	1813.505859	76.666939
64.343085	5572.971667	1812.506836	80.643913
64.343085	5572.971667	1811.507813	31.988241
64.343085	5572.971667	1810.508789	55.094894
64.343085	5572.971667	1809.508789	1.668989
64.343085	5572.971667	1808.508789	82.138870
64.343085	5572.971667	1807.508789	33.497898
64.343085	5572.971667	1806.508789	-55.757252
64.343085	5572.971667	1805.508789	3.156949
64.343085	5572.971667	1804.508789	-16.790905
64.343085	5572.971667	1803.507813	-22.406469
64.343085	5572.971667	1802.506836	-13.697522
64.343085	5572.971667	1801.505859	97.668053
64.343085	5572.971667	1800.504883	101.565598
64.343085	5572.971667	1799.502930	86.362045
64.343085	5572.971667	1798.501953	59.227962
64.343085	5572.971667	1797.500000	29.711952
64.343085	5572.971667	1796.498047	35.981197
64.343085	5572.971667	1795.496094	1.699492
64.343085	5572.971667	1794.493164	-18.269182
64.343085	5572.971667	1793.491211	-19.164106
64.343085	5572.971667	1792.488281	44.289345
64.343085	5572.971667	1791.485352	31.455404
64.343085	5572.971667	1790.482422	35.298412
64.343085	5572.971667	1789.478516	110.597855
64.343085	5572.971667	1788.475586	42.961433
64.343085	5572.971667	1787.471680	-34.181126
64.343085	5572.971667	1786.467773	79.163231
64.343085	5572.971667	1785.463867	-5.110121
64.343085	5572.971667	1784.459961	70.095352
64.343085	5572.971667	1783.455078	59.605507
64.343085	5572.971667	1782.450195	11.049770
64.343085	5572.971667	1781.445313	-20.844082
64.343085	5572.971667	1780.440430	-9.926405
64.343085	5572.971667	1779.435547	-13.284854
64.343085	5572.971667	1778.429688	-57.061008
64.343085	5572.971667	1777.424805	-3.380068
64.343085	5572.971667	1776.418945	-16.262367
64.343085	5572.971667	1775.413086	-17.266783
64.343085	5572.971667	1774.406250	3.100466
64.343085	5572.971667	1773.400391	75.703117
64.343085	5572.971667	1772.393555	-63.057564
64.343085	5572.971667	1771.386719	73.615517
64.343085	5572.971667	1770.379883	20.344316
64.343085	5572.971667	1769.373047	-42.405712
64.343085	5572.971667	1768.365234	15.867723
64.343085	5572.971667	1767.358398	59.880005
64.343085	5572.971667	1766.350586	51.689674
64.343085	5572.971667	1765.342773	-3.930659
64.343085	5572.971667	1764.334961	37.669891
64.343085	5572.971667	1763.326172	-22.680473
64.343085	5572.971667	1762.318359	-4.804640
64.343085	5572.971667	1761.309570	-55.658527
64.343085	5572.971667	1760.300781	9.584952
64.343085	5572.971667	1759.291016	-3.367598
64.343085	5572.971667	1758.282227	-89.734276
64.343085	5572.971667	1757.272461	6.239398
64.343085	5572.971667	1756.262695	-30.396791
64.343085	5572.971667	1755.252930	34.747791
64.343085	5572.971667	1754.243164	0.473943
64.343085	5572.971667	1753.233398	18.257025
64.343085	5572.971667	1752.222656	33.661022
64.343085	5572.971667	1751.211914	-57.372780
64.343085	5572.971667	1750.201172	10.047612
64.343085	5572.971667	1749.190430	-17.128201
64.343085	5572.971667	1748.179688	24.246410
64.343085	5572.971667	1747.167969	11.244444
64.343085	5572.971667	1746.156250	-89.181061
64.343085	5572.971667	1745.144531	-17.125418
64.343085	5572.971667	1744.132813	-75.005836
64.343085	5572.971667	1743.121094	37.151340
64.343085	5572.971667	1742.108398	-27.812962
64.343085	5572.971667	1741.095703	176.339478
64.343085	5572.971667	1740.083008	-4.281690
64.343085	5572.971667	1739.070313	6.288654
64.343085	5572.971667	1738.057617	21.567142
64.343085	5572.971667	1737.043945	43.909199
64.343085	5572.971667	1736.030273	-11.585470
64.343085	5572.971667	1735.016602	3.669355
64.343085	5572.971667	1734.002930	-25.877317
64.343085	5572.971667	1732.989258	-3.566518
64.343085	5572.971667	1731.974609	63.501835
64.343085	5572.971667	1730.959961	-24.957771
64.343085	5572.971667	1729.945313	-7.388903
64.343085	5572.971667	1728.930664	21.943098
64.343085	5572.971667	1727.916016	-9.962950
64.343085	5572.971667	1726.900391	49.950729
64.343085	5572.971667	1725.885742	-14.912007
64.343085	5572.971667	1724.870117	44.968884
64.343085	5572.971667	1723.853516	31.881765
64.343085	5572.971667	1722.837891	-30.605169
64.343085	5572.971667	1721.822266	-1.347480
64.343085	5572.971667	1720.805664	86.680603
64.343085	5572.971667	1719.789063	26.552994
64.343085	5572.971667	1718.772461	-19.453148
64.343085	5572.971667	1717.754883	14.457461
64.343085	5572.971667	1716.738281	-45.637157
64.343085	5572.971667	1715.720703	4.699959
64.343085	5572.971667	1714.703125	-1.358608
64.343085	5572.971667	1713.685547	27.805603
64.343085	5572.971667	1712.667969	40.518326
64.343085	5572.971667	1711.649414	-5.466185
64.343085	5572.971667	1710.630859	-37.355698
64.343085	5572.971667	1709.612305	66.862045
64.343085	5572.971667	1708.593750	67.806732
64.343085	5572.971667	1707.575195	-25.080172
64.343085	5572.971667	1706.555664	27.466059
64.343085	5572.971667	1705.536133	-25.526718
64.343085	5572.971667	1704.516602	-33.962013
64.343085	5572.971667	1703.497070	-65.837074
64.343085	5572.971667	1702.477539	-29.745605
64.343085	5572.971667	1701.457031	-19.445583
64.343085	5572.971667	1700.437500	16.614296
64.343085	5572.971667	1699.416992	73.733910
64.343085	5572.971667	1698.395508	16.087391
64.343085	5572.971667	1697.375000	-88.363297
64.343085	5572.971667	1696.354492	27.248865
64.343085	5572.971667	1695.333008	25.798433
64.343085	5572.971667	1694.311523	-6.072920
64.343085	5572.971667	1693.290039	-23.899797
64.343085	5572.971667	1692.267578	2.714572
64.343085	5572.971667	1691.246094	-19.791716
64.343085	5572.971667	1690.223633	-7.223819
64.343085	5572.971667	1689.201172	5.335589
64.343085	5572.971667	1688.178711	8.537942
64.343085	5572.971667	1687.155273	-32.662140
64.343085	5572.971667	1686.132813	28.944714
64.343085	5572.971667	1685.109375	39.136814
64.343085	5572.971667	1684.085938	-39.420696
64.343085	5572.971667	1683.062500	26.810585
64.343085	5572.971667	1682.039063	32.318520
64.343085	5572.971667	1681.014648	-1.857320
64.343085	5572.971667	1679.990234	43.316387
64.343085	5572.971667	1678.965820	34.809189
64.343085	5572.971667	1677.941406	170.924637
64.343085	5572.971667	1676.916992	-7.857965
64.343085	5572.971667	1675.891602	93.230690
64.343085	5572.971667	1674.866211	35.751282
64.343085	5572.971667	1673.840820	90.170921
64.343085	5572.971667	1672.815430	28.048525
64.343085	5572.971667	1671.790039	147.681274
64.343085	5572.971667	1670.763672	-23.919577
64.343085	5572.971667	1669.737305	63.065189
64.343085	5572.971667	1668.710938	-54.900723
64.343085	5572.971667	1667.684570	53.005028
64.343085	5572.971667	1666.658203	137.590134
64.343085	5572.971667	1665.630859	52.251808
64.343085	5572.971667	1664.603516	-14.440944
64.343085	5572.971667	1663.576172	58.469471
64.343085	5572.971667	1662.548828	96.461891
64.343085	5572.971667	1661.520508	118.158615
64.343085	5572.971667	1660.493164	49.172211
64.343085	5572.971667	1659.464844	145.251602
64.343085	5572.971667	1658.436523	90.226768
64.343085	5572.971667	1657.408203	11.985756
64.343085	5572.971667	1656.378906	40.638889
64.343085	5572.971667	1655.350586	-2.724216
64.343085	5572.971667	1654.321289	49.140968
64.343085	5572.971667	1653.291992	147.421631
64.343085	5572.971667	1652.261719	78.522278
64.343085	5572.971667	1651.232422	5.007895
64.343085	5572.971667	1650.202148	19.698677
64.343085	5572.971667	1649.171875	103.983963
64.343085	5572.971667	1648.141602	58.338676
64.343085	5572.971667	1647.111328	137.944305
64.343085	5572.971667	1646.080078	34.340622
64.343085	5572.971667	1645.049805	51.326241
64.343085	5572.971667	1644.018555	-12.818920
64.343085	5572.971667	1642.987305	50.514446
64.343085	5572.971667	1641.955078	-4.339683
64.343085	5572.971667	1640.923828	-10.526558
64.343085	5572.971667	1639.891602	71.296013
64.343085	5572.971667	1638.859375	44.255875
64.343085	5572.971667	1637.827148	75.103851
64.343085	5572.971667	1636.794922	131.401062
64.343085	5572.971667	1635.761719	106.678734
64.343085	5572.971667	1634.729492	77.339722
64.343085	5572.971667	1633.696289	96.590729
64.343085	5572.971667	1632.662109	76.515320
64.343085	5572.971667	1631.628906	114.259262
64.343085	5572.971667	1630.594727	15.582723
64.343085	5572.971667	1629.561523	62.571392
64.343085	5572.971667	1628.527344	5.543796
64.343085	5572.971667	1627.493164	96.418312
64.343085	5572.971667	1626.458008	67.129013
64.343085	5572.971667	1625.423828	63.260139
64.343085	5572.971667	1624.388672	33.990803
64.343085	5572.971667	1623.353516	60.145634
64.343085	5572.971667	1622.318359	10.115575
64.343085	5572.971667	1621.282227	112.427742
64.343085	5572.971667	1620.247070	69.332108
64.343085	5572.971667	1619.210938	95.464355
64.343085	5572.971667	1618.174805	77.763123
64.343085	5572.971667	1617.137695	122.334862
64.343085	5572.971667	1616.101563	28.551603
64.343085	5572.971667	1615.064453	84.645248
64.343085	5572.971667	1614.027344	30.089806
64.343085	5572.971667	1612.990234	127.643173
64.343085	5572.971667	1611.953125	103.054939
64.343085	5572.971667	1610.916016	30.106672
64.343085	5572.971667	1609.877930	17.065506
64.343085	5572.971667	1608.839844	160.603928
64.343085	5572.971667	1607.801758	96.901207
64.343085	5572.971667	1606.763672	-10.505215
64.343085	5572.971667	1605.724609	123.756531
64.343085	5572.971667	1604.685547	133.728546
64.343085	5572.971667	1603.646484	175.903595
64.343085	5572.971667	1602.607422	70.875008
64.343085	5572.971667	1601.568359	110.752235
64.343085	5572.971667	1600.528320	1.184511
64.343085	5572.971667	1599.489258	64.050606
64.343085	5572.971667	1598.449219	32.674301
64.343085	5572.971667	1597.408203	47.264664
64.343085	5572.971667	1596.368164	52.664803
64.343085	5572.971667	1595.327148	30.504911
64.343085	5572.971667	1594.287109	81.838043
64.343085	5572.971667	1593.246094	135.449677
64.343085	5572.971667	1592.204102	14.595761
64.343085	5572.971667	1591.163086	104.925270
64.343085	5572.971667	1590.121094	94.266190
64.343085	5572.971667	1589.079102	76.732834
64.343085	5572.971667	1588.037109	66.091156
64.343085	5572.971667	1586.995117	9.595113
64.343085	5572.971667	1585.953125	3.563883
64.343085	5572.971667	1584.910156	82.350357
64.343085	5572.971667	1583.867188	9.853263
64.343085	5572.971667	1582.824219	-46.571629
64.343085	5572.971667	1581.781250	39.063553
64.343085	5572.971667	1580.737305	99.474266
64.343085	5572.971667	1579.693359	-53.101677
64.343085	5572.971667	1578.649414	137.815277
64.343085	5572.971667	1577.605469	51.683952
64.343085	5572.971667	1576.561523	146.392578
64.343085	5572.971667	1575.516602	74.030937
64.343085	5572.971667	1574.472656	95.500267
64.343085	5572.971667	1573.427734	50.634075
64.343085	5572.971667	1572.381836	-49.094414
64.343085	5572.971667	1571.336914	-18.453888
64.343085	5572.971667	1570.291016	9.893086
64.343085	5572.971667	1569.246094	65.660706
64.343085	5572.971667	1568.200195	176.251602
64.343085	5572.971667	1567.153320	94.898056
64.343085	5572.971667	1566.107422	84.391113
64.343085	5572.971667	1565.060547	67.041901
64.343085	5572.971667	1564.013672	143.318115
64.343085	5572.971667	1562.966797	178.479599
64.343085	5572.971667	1561.919922	60.715366
64.343085	5572.971667	1560.872070	-2.232170
64.343085	5572.971667	1559.825195	89.990730
64.343085	5572.971667	1558.777344	118.314148
64.343085	5572.971667	1557.729492	85.057076
64.343085	5572.971667	1556.680664	29.017357
64.343085	5572.971667	1555.632813	-17.874655
64.343085	5572.971667	1554.583984	40.100475
64.343085	5572.971667	1553.535156	164.143539
64.343085	5572.971667	1552.486328	83.095177
64.343085	5572.971667	1551.436523	43.086025
64.343085	5572.971667	1550.387695	62.312729
64.343085	5572.971667	1549.337891	42.828766
64.343085	5572.971667	1548.288086	75.718925
64.343085	5572.971667	1547.238281	129.087524
64.343085	5572.971667	1546.187500	23.147001
64.343085	5572.971667	1545.136719	67.416473
64.343085	5572.971667	1544.086914	95.752892
64.343085	5572.971667	1543.035156	76.323608
64.343085	5572.971667	1541.984375	88.743118
64.343085	5572.971667	1540.933594	64.790298
64.343085	5572.971667	1539.881836	29.488426
64.343085	5572.971667	1538.830078	73.744751
64.343085	5572.971667	1537.778320	38.468987
64.343085	5572.971667	1536.725586	-30.860487
64.343085	5572.971667	1535.673828	-22.935888
64.343085	5572.971667	1534.621094	66.737358
64.343085	5572.971667	1533.568359	110.977577
64.343085	5572.971667	1532.515625	155.207428
64.343085	5572.971667	1531.461914	22.416800
64.343085	5572.971667	1530.409180	78.005684
64.343085	5572.971667	1529.355469	140.384964
64.343085	5572.971667	1528.301758	118.830482
64.343085	5572.971667	1527.247070	63.277946
64.343085	5572.971667	1526.193359	89.371658
64.343085	5572.971667	1525.138672	-18.271116
64.343085	5572.971667	1524.083984	32.771397
64.343085	5572.971667	1523.029297	108.724823
64.343085	5572.971667	1521.974609	55.532803
64.343085	5572.971667	1520.918945	31.812002
64.343085	5572.971667	1519.863281	80.570107
64.343085	5572.971667	1518.807617	-4.257795
64.343085	5572.971667	1517.751953	-0.766636
64.343085	5572.971667	1516.696289	-51.583096
64.343085	5572.971667	1515.639648	-11.866589
64.343085	5572.971667	1514.583008	79.872696
64.343085	5572.971667	1513.526367	-18.402798
64.343085	5572.971667	1512.469727	19.046452
64.343085	5572.971667	1511.412109	-38.467018
64.343085	5572.971667	1510.355469	35.153744
64.343085	5572.971667	1509.297852	-4.244299
64.343085	5572.971667	1508.240234	37.723400
64.343085	5572.971667	1507.181641	9.651876
64.343085	5572.971667	1506.124023	-20.658621
64.343085	5572.971667	1505.065430	-39.658669
64.343085	5572.971667	1504.006836	-18.003798
64.343085	5572.971667	1502.948242	-61.809952
64.343085	5572.971667	1501.888672	72.697624
64.343085	5572.971667	1500.830078	35.676773
64.343085	5572.971667	1499.770508	-3.577414
64.343085	5572.971667	1498.710938	-27.019087
64.343085	5572.971667	1497.650391	-59.463551
64.343085	5572.971667	1496.590820	36.624649
64.343085	5572.971667	1495.530273	69.567291
64.343085	5572.971667	1494.469727	-46.237530
64.343085	5572.971667	1493.409180	11.510989
64.343085	5572.971667	1492.348633	60.234005
64.343085	5572.971667	1491.287109	-37.455765
64.343085	5572.971667	1490.225586	-29.259125
64.343085	5572.971667	1489.164063	-7.548871
64.343085	5572.971667	1488.102539	52.428673
64.343085	5572.971667	1487.041016	78.632507
64.343085	5572.971667	1485.978516	-61.672520
64.343085	5572.971667	1484.916016	-6.194094
64.343085	5572.971667	1483.853516	-40.696121
64.343085	5572.971667	1482.791016	-32.449837
64.343085	5572.971667	1481.727539	-37.684978
64.343085	5572.971667	1480.664063	-65.392723
64.343085	5572.971667	1479.600586	41.756035
64.343085	5572.971667	1478.537109	-12.891529
64.343085	5572.971667	1477.473633	22.333780
64.343085	5572.971667	1476.409180	8.162951
64.343085	5572.971667	1475.344727	63.591091
64.343085	5572.971667	1474.280273	-2.236289
64.343085	5572.971667	1473.215820	-14.104099
64.343085	5572.971667	1472.151367	43.582142
64.343085	5572.971667	1471.085938	-8.699710
64.343085	5572.971667	1470.020508	60.255611
64.343085	5572.971667	1468.955078	-32.327774
64.343085	5572.971667	1467.888672	34.215267
64.343085	5572.971667	1466.823242	11.236598
64.343085	5572.971667	1465.756836	32.956142
64.343085	5572.971667	1464.690430	16.694355
64.343085	5572.971667	1463.624023	34.143860
64.343085	5572.971667	1462.556641	87.194191
64.343085	5572.971667	1461.490234	64.119003
64.343085	5572.971667	1460.422852	29.925648
64.343085	5572.971667	1459.355469	-12.991241
64.343085	5572.971667	1458.287109	82.539398
64.343085	5572.971667	1457.219727	128.671021
64.343085	5572.971667	1456.151367	56.554127
64.343085	5572.971667	1455.083008	111.981735
64.343085	5572.971667	1454.014648	8.631331
64.343085	5572.971667	1452.945313	108.630798
64.343085	5572.971667	1451.876953	54.524384
64.343085	5572.971667	1450.807617	76.823738
64.343085	5572.971667	1449.738281	209.447098
64.343085	5572.971667	1448.668945	86.451805
64.343085	5572.971667	1447.598633	-78.283966
64.343085	5572.971667	1446.528320	112.714386
64.343085	5572.971667	1445.458008	33.850166
64.343085	5572.971667	1444.387695	71.096008
64.343085	5572.971667	1443.317383	10.721666
64.343085	5572.971667	1442.246094	161.092651
64.343085	5572.971667	1441.174805	-19.179268
64.343085	5572.971667	1440.103516	29.811642
64.343085	5572.971667	1439.032227	-23.695385
64.343085	5572.971667	1437.960938	24.303295
64.343085	5572.971667	1436.888672	21.584118
64.343085	5572.971667	1435.816406	89.873055
64.343085	5572.971667	1434.744141	83.465248
64.343085	5572.971667	1433.670898	-14.675338
64.343085	5572.971667	1432.598633	-69.803841
64.343085	5572.971667	1431.525391	20.646351
64.343085	5572.971667	1430.452148	20.131893
64.343085	5572.971667	1429.378906	-2.588702
64.343085	5572.971667	1428.304688	30.039135
64.343085	5572.971667	1427.231445	119.293884
64.343085	5572.971667	1426.157227	97.639938
64.343085	5572.971667	1425.083008	-19.069851
64.343085	5572.971667	1424.007813	65.564079
64.343085	5572.971667	1422.933594	85.797676
64.343085	5572.971667	1421.858398	53.470654
64.343085	5572.971667	1420.783203	-6.235333
64.343085	5572.971667	1419.708008	72.994385
64.343085	5572.971667	1418.631836	124.337730
64.343085	5572.971667	1417.555664	71.010529
64.343085	5572.971667	1416.479492	-10.206746
64.343085	5572.971667	1415.403320	67.849205
64.343085	5572.971667	1414.327148	25.775509
64.343085	5572.971667	1413.250000	61.540901
64.343085	5572.971667	1412.173828	91.627487
64.343085	5572.971667	1411.096680	103.276245
64.343085	5572.971667	1410.018555	48.297459
64.343085	5572.971667	1408.941406	83.038673
64.343085	5572.971667	1407.863281	106.521416
64.343085	5572.971667	1406.785156	103.695068
64.343085	5572.971667	1405.707031	112.119652
64.343085	5572.971667	1404.628906	20.119827
64.343085	5572.971667	1403.549805	37.645348
64.343085	5572.971667	1402.470703	51.580864
64.343085	5572.971667	1401.391602	44.220032
64.343085	5572.971667	1400.312500	63.749088
64.343085	5572.971667	1399.233398	-44.078594
64.343085	5572.971667	1398.153320	-4.132324
64.343085	5572.971667	1397.073242	6.830909
64.343085	5572.971667	1395.993164	25.306421
64.343085	5572.971667	1394.913086	28.639380
64.343085	5572.971667	1393.832031	46.179741
64.343085	5572.971667	1392.750977	92.252510
64.343085	5572.971667	1391.669922	-46.716812
64.343085	5572.971667	1390.588867	25.894524
64.343085	5572.971667	1389.506836	-29.381134
64.343085	5572.971667	1388.425781	9.757827
64.343085	5572.971667	1387.343750	47.286568
64.343085	5572.971667	1386.261719	20.466087
64.343085	5572.971667	1385.178711	16.056551
64.343085	5572.971667	1384.096680	-0.994002
64.343085	5572.971667	1383.013672	61.133141
64.343085	5572.971667	1381.930664	-46.251724
64.343085	5572.971667	1380.846680	51.439953
64.343085	5572.971667	1379.763672	-27.177580
64.343085	5572.971667	1378.679688	7.606287
64.343085	5572.971667	1377.595703	-95.205551
64.343085	5572.971667	1376.511719	-14.658809
64.343085	5572.971667	1375.427734	-24.827511
64.343085	5572.971667	1374.342773	102.178932
64.343085	5572.971667	1373.257813	8.838726
64.343085	5572.971667	1372.172852	-42.064247
64.343085	5572.971667	1371.087891	-97.562767
64.343085	5572.971667	1370.001953	26.264797
64.343085	5572.971667	1368.916992	83.090172
64.343085	5572.971667	1367.831055	-48.366386
64.343085	5572.971667	1366.744141	-27.989691
64.343085	5572.971667	1365.658203	25.736448
64.343085	5572.971667	1364.571289	27.897543
64.343085	5572.971667	1363.484375	39.282295
64.343085	5572.971667	1362.397461	23.117451
64.343085	5572.971667	1361.310547	28.102413
64.343085	5572.971667	1360.222656	51.373936
64.343085	5572.971667	1359.135742	64.871231
64.343085	5572.971667	1358.047852	-6.373349
64.343085	5572.971667	1356.958984	7.392108
64.343085	5572.971667	1355.871094	22.802828
64.343085	5572.971667	1354.782227	78.313805
64.343085	5572.971667	1353.693359	95.920959
64.343085	5572.971667	1352.604492	-18.870155
64.343085	5572.971667	1351.515625	-43.325710
64.343085	5572.971667	1350.425781	-12.740802
64.343085	5572.971667	1349.335938	6.431260
64.343085	5572.971667	1348.246094	42.268532
64.343085	5572.971667	1347.156250	21.459679
64.343085	5572.971667	1346.066406	14.500234
64.343085	5572.971667	1344.975586	0.676921
64.343085	5572.971667	1343.884766	48.693867
64.343085	5572.971667	1342.793945	99.042953
64.343085	5572.971667	1341.702148	83.913742
64.343085	5572.971667	1340.611328	114.676926
64.343085	5572.971667	1339.519531	94.819839
64.343085	5572.971667	1338.427734	106.760223
64.343085	5572.971667	1337.334961	119.553612
64.343085	5572.971667	1336.243164	97.532585
64.343085	5572.971667	1335.150391	160.431580
64.343085	5572.971667	1334.057617	89.942253
64.343085	5572.971667	1332.964844	65.677803
64.343085	5572.971667	1331.871094	125.127388
64.343085	5572.971667	1330.778320	78.002701
64.343085	5572.971667	1329.684570	44.332397
64.343085	5572.971667	1328.590820	87.097176
64.343085	5572.971667	1327.496094	110.487129
64.343085	5572.971667	1326.402344	39.594276
64.343085	5572.971667	1325.307617	87.340385
64.343085	5572.971667	1324.212891	36.451736
64.343085	5572.971667	1323.117188	86.230255
64.343085	5572.971667	1322.022461	92.622177
64.343085	5572.971667	1320.926758	91.640366
64.343085	5572.971667	1319.831055	149.069183
64.343085	5572.971667	1318.735352	31.746954
64.343085	5572.971667	1317.638672	95.322044
64.343085	5572.971667	1316.542969	37.994816
64.343085	5572.971667	1315.446289	111.897789
64.343085	5572.971667	1314.349609	64.725227
64.343085	5572.971667	1313.251953	64.042519
64.343085	5572.971667	1312.155273	17.919611
64.343085	5572.971667	1311.057617	134.853806
64.343085	5572.971667	1309.959961	66.921928
64.343085	5572.971667	1308.862305	49.384148
64.343085	5572.971667	1307.763672	40.853481
64.343085	5572.971667	1306.665039	79.720940
64.343085	5572.971667	1305.566406	64.916145
64.343085	5572.971667	1304.467773	11.673161
64.343085	5572.971667	1303.369141	39.440895
64.343085	5572.971667	1302.269531	-3.023343
64.343085	5572.971667	1301.169922	27.316463
64.343085	5572.971667	1300.070313	-2.792189
64.343085	5572.971667	1298.970703	-34.354252
64.343085	5572.971667	1297.870117	-56.025742
64.343085	5572.971667	1296.769531	-4.552138
64.343085	5572.971667	1295.668945	-16.929111
64.343085	5572.971667	1294.568359	-53.584953
64.343085	5572.971667	1293.466797	-24.707647
64.343085	5572.971667	1292.366211	-52.340607
64.343085	5572.971667	1291.264648	-5.335815
64.343085	5572.971667	1290.162109	6.752958
64.343085	5572.971667	1289.060547	43.940399
64.343085	5572.971667	1287.958008	116.870872
64.343085	5572.971667	1286.855469	65.055717
64.343085	5572.971667	1285.752930	44.769043
64.343085	5572.971667	1284.650391	149.501007
64.343085	5572.971667	1283.546875	75.863213
64.343085	5572.971667	1282.444336	57.778519
64.343085	5572.971667	1281.339844	62.868450
64.343085	5572.971667	1280.236328	-51.223995
64.343085	5572.971667	1279.132813	24.170637
64.343085	5572.971667	1278.028320	-32.198608
64.343085	5572.971667	1276.923828	-27.035252
64.343085	5572.971667	1275.819336	20.179937
64.343085	5572.971667	1274.713867	76.104691
64.343085	5572.971667	1273.608398	58.589947
64.343085	5572.971667	1272.503906	36.308147
64.343085	5572.971667	1271.397461	28.115702
64.343085	5572.971667	1270.291992	97.606522
64.343085	5572.971667	1269.185547	44.518764
64.343085	5572.971667	1268.080078	48.967663
64.343085	5572.971667	1266.972656	142.324280
64.343085	5572.971667	1265.866211	92.516495
64.343085	5572.971667	1264.759766	85.297035
64.343085	5572.971667	1263.652344	113.222084
64.343085	5572.971667	1262.544922	99.359840
64.343085	5572.971667	1261.436523	131.969376
64.343085	5572.971667	1260.329102	39.890545
64.343085	5572.971667	1259.220703	8.517984
64.343085	5572.971667	1258.112305	-17.088388
64.343085	5572.971667	1257.003906	67.980301
64.343085	5572.971667	1255.895508	26.877808
64.343085	5572.971667	1254.786133	-44.659512
64.343085	5572.971667	1253.676758	-11.323212
64.343085	5572.971667	1252.567383	62.726250
64.343085	5572.971667	1251.458008	-9.167921
64.343085	5572.971667	1250.347656	16.747971
64.343085	5572.971667	1249.237305	-16.765722
64.343085	5572.971667	1248.126953	52.409592
64.343085	5572.971667	1247.016602	-21.707096
64.343085	5572.971667	1245.905273	2.834444
64.343085	5572.971667	1244.793945	65.898079
64.343085	5572.971667	1243.682617	-10.907603
64.343085	5572.971667	1242.571289	50.325058
64.343085	5572.971667	1241.459961	24.943668
64.343085	5572.971667	1240.347656	125.809830
64.343085	5572.971667	1239.235352	81.572815
64.343085	5572.971667	1238.123047	91.781647
64.343085	5572.971667	1237.009766	49.497887
64.343085	5572.971667	1235.897461	44.845325
64.343085	5572.971667	1234.784180	79.232040
64.343085	5572.971667	1233.670898	47.535835
64.343085	5572.971667	1232.556641	0.206441
64.343085	5572.971667	1231.443359	20.145502
64.343085	5572.971667	1230.329102	-17.011374
64.343085	5572.971667	1229.214844	81.915375
64.343085	5572.971667	1228.099609	73.889877
64.343085	5572.971667	1226.985352	12.316245
64.343085	5572.971667	1225.870117	-13.562022
64.343085	5572.971667	1224.754883	58.143871
64.343085	5572.971667	1223.639648	45.445358
64.343085	5572.971667	1222.523438	38.926193
64.343085	5572.971667	1221.408203	67.619400
64.343085	5572.971667	1220.291992	67.934250
64.343085	5572.971667	1219.174805	27.544769
64.343085	5572.971667	1218.058594	40.262299
64.343085	5572.971667	1216.941406	7.813002
64.343085	5572.971667	1215.824219	-42.637459
64.343085	5572.971667	1214.707031	-28.376236
64.343085	5572.971667	1213.589844	56.786083
64.343085	5572.971667	1212.471680	0.323634
64.343085	5572.971667	1211.353516	68.231674
64.343085	5572.971667	1210.235352	-14.672448
64.343085	5572.971667	1209.117188	-12.446883
64.343085	5572.971667	1207.998047	25.447197
64.343085	5572.971667	1206.878906	43.845886
64.343085	5572.971667	1205.759766	13.663205
64.343085	5572.971667	1204.640625	25.641306
64.343085	5572.971667	1203.520508	2.510171
64.343085	5572.971667	1202.401367	-72.588226
64.343085	5572.971667	1201.281250	-30.545450
64.343085	5572.971667	1200.160156	-43.629120
64.343085	5572.971667	1199.040039	64.447777
64.343085	5572.971667	1197.918945	4.569294
64.343085	5572.971667	1196.797852	-56.865459
64.343085	5572.971667	1195.676758	-62.415844
64.343085	5572.971667	1194.555664	-29.531845
64.343085	5572.971667	1193.433594	-45.081638
64.343085	5572.971667	1192.311523	44.405178
64.343085	5572.971667	1191.189453	-30.612198
64.343085	5572.971667	1190.066406	8.552498
64.343085	5572.971667	1188.944336	26.665321
64.343085	5572.971667	1187.821289	11.295842
64.343085	5572.971667	1186.698242	45.618828
64.343085	5572.971667	1185.574219	-26.422392
64.343085	5572.971667	1184.451172	23.091343
64.343085	5572.971667	1183.327148	-29.542877
64.343085	5572.971667	1182.203125	0.752070
64.343085	5572.971667	1181.078125	-56.911789
64.343085	5572.971667	1179.954102	-63.981247
64.343085	5572.971667	1178.829102	-32.346233
64.343085	5572.971667	1177.704102	-29.826834
64.343085	5572.971667	1176.579102	-33.737530
64.343085	5572.971667	1175.453125	0.144054
64.343085	5572.971667	1174.327148	-37.357140
64.343085	5572.971667	1173.201172	44.111645
64.343085	5572.971667	1172.075195	-22.640032
64.343085	5572.971667	1170.949219	-25.645157
64.343085	5572.971667	1169.822266	-22.628391
64.343085	5572.971667	1168.695313	-29.383183
64.343085	5572.971667	1167.568359	-52.872681
64.343085	5572.971667	1166.440430	-17.460480
64.343085	5572.971667	1165.313477	-16.776875
64.343085	5572.971667	1164.185547	-19.286087
64.343085	5572.971667	1163.057617	-20.637016
64.343085	5572.971667	1161.928711	10.693218
64.343085	5572.971667	1160.800781	26.848997
64.343085	5572.971667	1159.671875	28.072866
64.343085	5572.971667	1158.541992	-0.275574
64.343085	5572.971667	1157.413086	-14.170578
64.343085	5572.971667	1156.283203	62.617691
64.343085	5572.971667	1155.154297	58.475838
64.343085	5572.971667	1154.023438	69.966858
64.343085	5572.971667	1152.893555	52.664692
64.343085	5572.971667	1151.763672	115.562180
64.343085	5572.971667	1150.632813	151.906296
64.343085	5572.971667	1149.501953	168.813828
64.343085	5572.971667	1148.370117	131.375946
64.343085	5572.971667	1147.239258	142.885345
64.343085	5572.971667	1146.107422	85.797615
64.343085	5572.971667	1144.975586	35.278378
64.343085	5572.971667	1143.843750	93.819817
64.343085	5572.971667	1142.710938	42.692089
64.343085	5572.971667	1141.578125	76.135765
64.343085	5572.971667	1140.445313	30.853718
64.343085	5572.971667	1139.312500	9.669682
64.343085	5572.971667	1138.178711	29.463905
64.343085	5572.971667	1137.045898	-9.006787
64.343085	5572.971667	1135.912109	40.633339
64.343085	5572.971667	1134.777344	-6.823489
64.343085	5572.971667	1133.643555	21.840269
64.343085	5572.971667	1132.508789	2.764000
64.343085	5572.971667	1131.374023	-18.748451
64.343085	5572.971667	1130.239258	39.354916
64.343085	5572.971667	1129.104492	82.560921
64.343085	5572.971667	1127.968750	34.930946
64.343085	5572.971667	1126.833008	15.717332
64.343085	5572.971667	1125.697266	72.480385
64.343085	5572.971667	1124.560547	154.041489
64.343085	5572.971667	1123.424805	64.624352
64.343085	5572.971667	1122.288086	-7.392684
64.343085	5572.971667	1121.151367	49.761551
64.343085	5572.971667	1120.013672	126.144508
64.343085	5572.971667	1118.876953	105.495300
64.343085	5572.971667	1117.739258	58.646358
64.343085	5572.971667	1116.601563	64.588829
64.343085	5572.971667	1115.462891	64.051056
64.343085	5572.971667	1114.324219	113.195580
64.343085	5572.971667	1113.186523	58.954235
64.343085	5572.971667	1112.046875	77.593567
64.343085	5572.971667	1110.908203	58.869762
64.343085	5572.971667	1109.769531	3.720392
64.343085	5572.971667	1108.629883	8.420903
64.343085	5572.971667	1107.490234	64.910957
64.343085	5572.971667	1106.349609	15.998958
64.343085	5572.971667	1105.209961	81.388695
64.343085	5572.971667	1104.069336	90.110046
64.343085	5572.971667	1102.928711	24.614399
64.343085	5572.971667	1101.787109	8.155225
64.343085	5572.971667	1100.646484	47.481987
64.343085	5572.971667	1099.504883	-1.711879
64.343085	5572.971667	1098.363281	-4.656856
64.343085	5572.971667	1097.221680	-51.385395
64.343085	5572.971667	1096.079102	23.055422
64.343085	5572.971667	1094.936523	-37.936951
64.343085	5572.971667	1093.793945	67.888733
64.343085	5572.971667	1092.651367	22.048365
64.343085	5572.971667	1091.507813	-76.694244
64.343085	5572.971667	1090.364258	19.575844
64.343085	5572.971667	1089.220703	65.981087
64.343085	5572.971667	1088.077148	14.789444
64.343085	5572.971667	1086.933594	24.818087
64.343085	5572.971667	1085.789063	3.896858
64.343085	5572.971667	1084.644531	-43.719818
64.343085	5572.971667	1083.499023	-0.204780
64.343085	5572.971667	1082.354492	-36.108517
64.343085	5572.971667	1081.208984	45.359497
64.343085	5572.971667	1080.063477	39.261795
64.343085	5572.971667	1078.917969	76.213646
64.343085	5572.971667	1077.771484	-0.769571
64.343085	5572.971667	1076.625977	38.632046
64.343085	5572.971667	1075.479492	54.271496
64.343085	5572.971667	1074.332031	34.015739
64.343085	5572.971667	1073.185547	86.798965
64.343085	5572.971667	1072.038086	99.437767
64.343085	5572.971667	1070.890625	21.139496
64.343085	5572.971667	1069.743164	-15.812620
64.343085	5572.971667	1068.594727	30.906355
64.343085	5572.971667	1067.447266	32.978428
64.343085	5572.971667	1066.298828	13.837863
64.343085	5572.971667	1065.149414	51.621399
64.343085	5572.971667	1064.000977	30.020584
64.343085	5572.971667	1062.851563	93.154724
64.343085	5572.971667	1061.702148	-3.270772
64.343085	5572.971667	1060.552734	69.499985
64.343085	5572.971667	1059.402344	35.950859
64.343085	5572.971667	1058.252930	-3.731473
64.343085	5572.971667	1057.102539	-32.656479
64.343085	5572.971667	1055.951172	14.188562
64.343085	5572.971667	1054.800781	17.712275
64.343085	5572.971667	1053.649414	2.656248
64.343085	5572.971667	1052.498047	-27.283365
64.343085	5572.971667	1051.346680	74.435707
64.343085	5572.971667	1050.194336	93.097351
64.343085	5572.971667	1049.042969	49.856804
64.343085	5572.971667	1047.890625	20.229797
64.343085	5572.971667	1046.738281	-30.355324
64.343085	5572.971667	1045.584961	-52.651661
64.343085	5572.971667	1044.431641	86.190147
64.343085	5572.971667	1043.278320	31.367779
64.343085	5572.971667	1042.125000	8.004921
64.343085	5572.971667	1040.971680	27.449516
64.343085	5572.971667	1039.817383	26.574797
64.343085	5572.971667	1038.663086	-5.973107
64.343085	5572.971667	1037.508789	64.061211
64.343085	5572.971667	1036.353516	79.097130
64.343085	5572.971667	1035.198242	14.748796
64.343085	5572.971667	1034.042969	28.827774
64.343085	5572.971667	1032.887695	43.082394
64.343085	5572.971667	1031.732422	-9.071291
64.343085	5572.971667	1030.576172	-67.152626
64.343085	5572.971667	1029.419922	0.833154
64.343085	5572.971667	1028.263672	31.741808
64.343085	5572.971667	1027.106445	-24.078102
64.343085	5572.971667	1025.949219	33.902626
64.343085	5572.971667	1024.792969	91.728333
64.343085	5572.971667	1023.634766	73.262253
64.343085	5572.971667	1022.477539	16.967411
64.343085	5572.971667	1021.319336	-56.191296
64.343085	5572.971667	1020.161133	150.551910
64.343085	5572.971667	1019.002930	-27.400568
64.343085	5572.971667	1017.843750	45.289555
64.343085	5572.971667	1016.684570	-15.802607
64.343085	5572.971667	1015.525391	43.725334
64.343085	5572.971667	1014.366211	-17.434441
64.343085	5572.971667	1013.207031	-42.092438
64.343085	5572.971667	1012.046875	34.943649
64.343085	5572.971667	1010.886719	-6.469820
64.343085	5572.971667	1009.726563	-24.535679
64.343085	5572.971667	1008.565430	-60.189678
64.343085	5572.971667	1007.404297	4.531600
64.343085	5572.971667	1006.243164	-57.385715
64.343085	5572.971667	1005.082031	-10.359791
64.343085	5572.971667	1003.920898	18.240881
64.343085	5572.971667	1002.758789	52.300865
64.343085	5572.971667	1001.596680	60.464611
64.343085	5572.971667	1000.433594	34.001816
64.343085	5572.971667	999.271484	-17.689526
64.343085	5572.971667	998.108398	-18.801025
64.343085	5572.971667	996.945313	-5.990963
64.343085	5572.971667	995.782227	27.509502
64.343085	5572.971667	994.618164	57.221035
64.343085	5572.971667	993.454102	101.796402
64.343085	5572.971667	992.290039	14.816442
64.343085	5572.971667	991.125977	41.998981
64.343085	5572.971667	989.960938	28.724548
64.343085	5572.971667	988.796875	10.274199
64.343085	5572.971667	987.630859	33.360973
64.343085	5572.971667	986.465820	0.940620
64.343085	5572.971667	985.300781	29.495716
64.343085	5572.971667	984.134766	5.848687
64.343085	5572.971667	982.968750	7.531929
64.343085	5572.971667	981.801758	-45.363335
64.343085	5572.971667	980.635742	-36.301899
64.343085	5572.971667	979.468750	-5.455605
64.343085	5572.971667	978.301758	-4.274480
64.343085	5572.971667	977.133789	-27.650333
64.343085	5572.971667	975.966797	75.913589
64.343085	5572.971667	974.798828	19.700396
64.343085	5572.971667	973.630859	-14.625800
64.343085	5572.971667	972.461914	26.383890
64.343085	5572.971667	971.293945	33.361343
64.343085	5572.971667	970.125000	26.763876
64.343085	5572.971667	968.956055	-29.720362
64.343085	5572.971667	967.786133	-29.953516
64.343085	5572.971667	966.617188	-51.292355
64.343085	5572.971667	965.447266	41.936375
64.343085	5572.971667	964.276367	48.723072
64.343085	5572.971667	963.106445	-4.006084
64.343085	5572.971667	961.935547	107.317558
64.343085	5572.971667	960.764648	48.482479
64.343085	5572.971667	959.593750	57.007278
64.343085	5572.971667	958.422852	3.078266
64.343085	5572.971667	957.250977	-12.186958
64.343085	5572.971667	956.079102	1.067716
64.343085	5572.971667	954.907227	-16.415123
64.343085	5572.971667	953.734375	-40.394096
64.343085	5572.971667	952.562500	9.693800
64.343085	5572.971667	951.389648	0.827627
64.343085	5572.971667	950.215820	-75.099876
64.343085	5572.971667	949.042969	-8.028038
64.343085	5572.971667	947.869141	9.611935
64.343085	5572.971667	946.695313	68.133293
64.343085	5572.971667	945.521484	-24.993841
64.343085	5572.971667	944.346680	22.853270
64.343085	5572.971667	943.172852	18.417538
64.343085	5572.971667	941.998047	-3.163270
64.343085	5572.971667	940.822266	100.954880
64.343085	5572.971667	939.647461	5.677479
64.343085	5572.971667	938.471680	-20.283834
64.343085	5572.971667	937.295898	57.891254
64.343085	5572.971667	936.119141	44.854412
64.343085	5572.971667	934.943359	122.903587
64.343085	5572.971667	933.766602	83.968803
64.343085	5572.971667	932.589844	49.382454
64.343085	5572.971667	931.413086	-35.110806
64.343085	5572.971667	930.235352	-58.803879
64.343085	5572.971667	929.057617	-4.590451
64.343085	5572.971667	927.879883	-43.492226
64.343085	5572.971667	926.702148	25.875839
64.343085	5572.971667	925.523438	60.596809
64.343085	5572.971667	924.344727	-17.269262
64.343085	5572.971667	923.166016	67.226250
64.343085	5572.971667	921.987305	43.489746
64.343085	5572.971667	920.807617	32.749569
64.343085	5572.971667	919.627930	33.251911
64.343085	5572.971667	919.497070	97.777733
64.343085	5572.971667	918.331055	13.499159
64.343085	5572.971667	917.165039	0.608733
64.343085	5572.971667	915.999023	80.680817
64.343085	5572.971667	914.833008	72.108856
64.343085	5572.971667	913.666016	-27.213150
64.343085	5572.971667	912.499023	0.972212
64.343085	5572.971667	911.332031	18.348553
64.343085	5572.971667	910.165039	-0.992314
64.343085	5572.971667	908.997070	68.200668
64.343085	5572.971667	907.830078	-89.292702
64.343085	5572.971667	906.661133	10.110067
64.343085	5572.971667	905.493164	8.058443
64.343085	5572.971667	904.325195	27.583271
64.343085	5572.971667	903.156250	10.435495
64.343085	5572.971667	901.987305	25.643986
64.343085	5572.971667	900.818359	12.820331
64.343085	5572.971667	899.648438	-68.974220
64.343085	5572.971667	898.478516	-62.371941
64.343085	5572.971667	897.308594	69.203117
64.343085	5572.971667	896.138672	19.768286
64.343085	5572.971667	894.968750	45.740089
64.343085	5572.971667	893.797852	73.857758
64.343085	5572.971667	892.626953	67.518791
64.343085	5572.971667	891.456055	22.439760
64.343085	5572.971667	890.284180	20.423374
64.343085	5572.971667	889.113281	141.053192
64.343085	5572.971667	887.941406	-5.111758
64.343085	5572.971667	886.768555	22.997150
64.343085	5572.971667	885.596680	83.351395
64.343085	5572.971667	884.423828	18.991098
64.343085	5572.971667	883.250977	4.096588
64.343085	5572.971667	882.078125	96.660416
64.343085	5572.971667	880.905273	-4.181188
64.343085	5572.971667	879.731445	41.093380
64.343085	5572.971667	878.557617	-5.998290
64.343085	5572.971667	877.383789	4.907325
64.343085	5572.971667	876.209961	43.719280
64.343085	5572.971667	875.035156	-44.116985
64.343085	5572.971667	873.860352	-7.451209
64.343085	5572.971667	872.685547	76.402763
64.343085	5572.971667	871.510742	18.651724
64.343085	5572.971667	870.334961	98.182144
64.343085	5572.971667	869.159180	-11.004156
64.343085	5572.971667	867.983398	-42.969070
64.343085	5572.971667	866.807617	64.395309
64.343085	5572.971667	865.630859	-42.566288
64.343085	5572.971667	864.454102	13.341676
64.343085	5572.971667	863.277344	-95.702705
64.343085	5572.971667	862.100586	7.311786
64.343085	5572.971667	860.922852	-5.331995
64.343085	5572.971667	859.745117	20.563673
64.343085	5572.971667	858.567383	18.628172
64.343085	5572.971667	857.389648	-36.798424
64.343085	5572.971667	856.210938	10.488865
64.343085	5572.971667	855.032227	32.092289
64.343085	5572.971667	853.853516	6.643182
64.343085	5572.971667	852.674805	88.107712
64.343085	5572.971667	851.495117	28.461498
64.343085	5572.971667	850.315430	-9.786489
64.343085	5572.971667	849.135742	-1.008941
64.343085	5572.971667	847.956055	-15.731636
64.343085	5572.971667	846.775391	72.074020
64.343085	5572.971667	845.595703	-23.797770
64.343085	5572.971667	844.415039	17.009268
64.343085	5572.971667	843.233398	109.030518
64.343085	5572.971667	842.052734	-35.866219
64.343085	5572.971667	840.871094	30.528852
64.343085	5572.971667	839.689453	-9.760780
64.343085	5572.971667	838.506836	-9.508764
64.343085	5572.971667	837.325195	18.464693
64.343085	5572.971667	836.142578	-15.395002
64.343085	5572.971667	834.959961	29.624348
64.343085	5572.971667	833.777344	21.352425
64.343085	5572.971667	832.593750	-3.958040
64.343085	5572.971667	831.410156	36.777699
64.343085	5572.971667	830.226563	60.460976
64.343085	5572.971667	829.042969	-1.032986
64.343085	5572.971667	827.858398	5.622513
64.343085	5572.971667	826.673828	3.763676
64.343085	5572.971667	825.489258	-59.802399
64.343085	5572.971667	824.304688	72.388496
64.343085	5572.971667	823.120117	-20.940536
64.343085	5572.971667	821.934570	-39.797379
64.343085	5572.971667	820.749023	3.014273
64.343085	5572.971667	819.562500	16.050371
64.343085	5572.971667	818.376953	1.453297
64.343085	5572.971667	817.190430	76.108437
64.343085	5572.971667	816.003906	14.771526
64.343085	5572.971667	814.817383	25.676908
64.343085	5572.971667	813.629883	-33.496895
64.343085	5572.971667	812.442383	13.510359
64.343085	5572.971667	811.254883	-37.142914
64.343085	5572.971667	810.067383	16.215120
64.343085	5572.971667	808.878906	-11.074663
64.343085	5572.971667	807.690430	14.681816
64.343085	5572.971667	806.501953	23.461693
64.343085	5572.971667	805.313477	110.696564
64.343085	5572.971667	804.124023	-16.225939
64.343085	5572.971667	802.934570	11.635449
64.343085	5572.971667	801.745117	-13.492261
64.343085	5572.971667	800.555664	-40.727276
64.343085	5572.971667	799.365234	8.308629
64.343085	5572.971667	798.175781	31.910625
64.343085	5572.971667	796.985352	38.565075
64.343085	5572.971667	795.793945	-11.939495
64.343085	5572.971667	794.603516	18.004946
64.343085	5572.971667	793.412109	-7.079719
64.343085	5572.971667	792.220703	-13.112459
64.343085	5572.971667	791.028320	4.125898
64.343085	5572.971667	789.836914	-10.364172
64.343085	5572.971667	788.644531	-62.905018
64.343085	5572.971667	787.452148	43.118443
64.343085	5572.971667	786.258789	75.128136
64.343085	5572.971667	785.066406	26.829987
64.343085	5572.971667	783.873047	31.367218
64.343085	5572.971667	782.679688	6.333178
64.343085	5572.971667	781.485352	-10.242779
64.343085	5572.971667	780.291992	21.746870
64.343085	5572.971667	779.097656	-53.927937
64.343085	5572.971667	777.903320	-17.720728
64.343085	5572.971667	776.708008	5.812643
64.343085	5572.971667	775.512695	-6.525372
64.343085	5572.971667	774.318359	-25.186106
64.343085	5572.971667	773.122070	-50.163795
64.343085	5572.971667	771.926758	61.901047
64.343085	5572.971667	770.730469	5.299106
64.343085	5572.971667	769.534180	85.696358
64.343085	5572.971667	768.337891	-2.490620
64.343085	5572.971667	767.141602	-6.383472
64.343085	5572.971667	765.944336	90.813751
64.343085	5572.971667	764.747070	-16.269712
64.343085	5572.971667	763.549805	-34.893688
64.343085	5572.971667	762.351563	60.143410
64.343085	5572.971667	761.154297	20.467661
64.343085	5572.971667	759.956055	67.064812
64.343085	5572.971667	758.757813	75.781013
64.343085	5572.971667	757.558594	111.831772
64.343085	5572.971667	756.359375	25.921627
64.343085	5572.971667	755.160156	74.578362
64.343085	5572.971667	753.960938	66.470131
64.343085	5572.971667	752.761719	-59.302170
64.343085	5572.971667	751.561523	31.354639
64.343085	5572.971667	750.361328	88.367645
64.343085	5572.971667	749.160156	-22.633602
64.343085	5572.971667	747.959961	21.767895
64.343085	5572.971667	746.758789	49.358269
64.343085	5572.971667	745.557617	18.176071
64.343085	5572.971667	744.356445	18.477345
64.343085	5572.971667	743.154297	-71.422699
64.343085	5572.971667	741.952148	56.826874
64.343085	5572.971667	740.750000	84.374435
64.343085	5572.971667	739.547852	21.765102
64.343085	5572.971667	738.344727	40.922108
64.343085	5572.971667	737.142578	5.585957
64.343085	5572.971667	735.939453	64.540932
64.343085	5572.971667	734.735352	29.212145
64.343085	5572.971667	733.532227	16.931654
64.343085	5572.971667	732.328125	61.185886
64.343085	5572.971667	731.124023	34.247288
64.343085	5572.971667	729.918945	7.318388
64.343085	5572.971667	728.714844	72.465027
64.343085	5572.971667	727.509766	16.247223
64.343085	5572.971667	726.303711	62.537354
64.343085	5572.971667	725.098633	104.623070
64.343085	5572.971667	723.892578	-5.930367
64.343085	5572.971667	722.686523	-24.469151
64.343085	5572.971667	721.480469	42.679272
64.343085	5572.971667	720.274414	59.652180
64.343085	5572.971667	719.067383	-15.297021
64.343085	5572.971667	717.860352	76.861961
64.343085	5572.971667	716.653320	131.394699
64.343085	5572.971667	715.445313	-18.684175
64.343085	5572.971667	714.238281	35.840042
64.343085	5572.971667	713.030273	-68.253319
64.343085	5572.971667	711.821289	2.944131
64.343085	5572.971667	710.613281	-0.982901
64.343085	5572.971667	709.404297	49.310211
64.343085	5572.971667	708.195313	-8.840315
64.343085	5572.971667	706.986328	39.342690
64.343085	5572.971667	705.776367	-22.955500
64.343085	5572.971667	704.566406	31.455349
64.343085	5572.971667	703.356445	21.259388
64.343085	5572.971667	702.146484	36.058132
64.343085	5572.971667	700.935547	32.106552
64.343085	5572.971667	699.724609	51.054241
64.343085	5572.971667	698.513672	-25.758150
64.343085	5572.971667	697.302734	11.916279
64.343085	5572.971667	696.090820	55.813572
64.343085	5572.971667	694.878906	14.401323
64.343085	5572.971667	693.666992	-66.512405
64.343085	5572.971667	692.455078	-18.478672
64.343085	5572.971667	691.242188	-16.203720
64.343085	5572.971667	690.029297	58.811810
64.343085	5572.971667	688.816406	-19.979977
64.343085	5572.971667	687.602539	7.213461
64.343085	5572.971667	686.389648	42.699619
64.343085	5572.971667	685.175781	-2.823591
64.343085	5572.971667	683.960938	22.261339
64.343085	5572.971667	682.747070	51.482872
64.343085	5572.971667	681.532227	-25.155918
64.343085	5572.971667	680.317383	70.453484
64.343085	5572.971667	679.102539	45.697273
64.343085	5572.971667	677.886719	45.836479
64.343085	5572.971667	676.670898	27.308607
64.343085	5572.971667	675.455078	2.564676
64.343085	5572.971667	674.239258	2.699994
64.343085	5572.971667	673.022461	-26.181282
64.343085	5572.971667	671.805664	71.330048
64.343085	5572.971667	670.588867	-44.563030
64.343085	5572.971667	669.372070	44.618210
64.343085	5572.971667	668.154297	-9.111809
64.343085	5572.971667	666.936523	-23.491076
64.343085	5572.971667	665.718750	44.919106
64.343085	5572.971667	664.500977	61.564274
64.343085	5572.971667	663.282227	-25.242947
64.343085	5572.971667	662.063477	74.136673
64.343085	5572.971667	660.844727	-35.393322
64.343085	5572.971667	659.625000	-16.695478
64.343085	5572.971667	658.405273	142.551208
64.343085	5572.971667	657.185547	6.195955
64.343085	5572.971667	655.965820	39.322498
64.343085	5572.971667	654.745117	14.589031
64.343085	5572.971667	653.525391	-36.988358
64.343085	5572.971667	652.303711	-22.471203
64.343085	5572.971667	651.083008	41.581528
64.343085	5572.971667	649.861328	6.529679
64.343085	5572.971667	648.640625	25.140841
64.343085	5572.971667	647.417969	51.992603
64.343085	5572.971667	646.196289	41.698891
64.343085	5572.971667	644.973633	-16.027441
64.343085	5572.971667	643.750977	6.677757
64.343085	5572.971667	642.528320	10.815829
64.343085	5572.971667	641.305664	2.581601
64.343085	5572.971667	640.082031	27.314756
64.343085	5572.971667	638.858398	8.770583
64.343085	5572.971667	637.634766	52.019276
64.343085	5572.971667	636.410156	16.994509
64.343085	5572.971667	635.185547	62.272629
64.343085	5572.971667	633.960938	39.601078
64.343085	5572.971667	632.736328	39.571304
64.343085	5572.971667	631.510742	47.766994
64.343085	5572.971667	630.285156	113.551743
64.343085	5572.971667	629.059570	74.416664
64.343085	5572.971667	627.833984	-32.560352
64.343085	5572.971667	626.607422	18.795317
64.343085	5572.971667	625.380859	16.686771
64.343085	5572.971667	624.154297	94.714012
64.343085	5572.971667	622.927734	28.893412
64.343085	5572.971667	621.700195	74.012016
64.343085	5572.971667	620.472656	75.982170
64.343085	5572.971667	619.245117	-26.762627
64.343085	5572.971667	618.016602	36.799644
64.343085	5572.971667	616.788086	34.658379
64.343085	5572.971667	615.559570	-43.403805
64.343085	5572.971667	614.331055	-20.919704
64.343085	5572.971667	613.101563	-14.856936
64.343085	5572.971667	611.872070	56.815048
64.343085	5572.971667	610.642578	3.397684
64.343085	5572.971667	609.413086	44.282124
64.343085	5572.971667	608.182617	25.718149
64.343085	5572.971667	606.952148	-48.159050
64.343085	5572.971667	605.721680	-35.978947
64.343085	5572.971667	604.491211	-21.760538
64.343085	5572.971667	603.259766	-42.358780
64.343085	5572.971667	602.028320	0.505329
64.343085	5572.971667	600.796875	47.440365
64.343085	5572.971667	599.564453	-42.740795
64.343085	5572.971667	598.332031	-26.509981
64.343085	5572.971667	597.099609	4.026905
64.343085	5572.971667	595.867188	5.918994
64.343085	5572.971667	594.633789	-4.459680
64.343085	5572.971667	593.400391	7.646117
64.343085	5572.971667	592.166992	-14.997194
64.343085	5572.971667	590.933594	-11.074119
64.343085	5572.971667	589.699219	11.228093
64.343085	5572.971667	588.464844	-3.243022
64.343085	5572.971667	587.230469	4.748446
64.343085	5572.971667	585.995117	-3.597550
64.343085	5572.971667	584.760742	61.530113
64.343085	5572.971667	583.525391	8.278218
64.343085	5572.971667	582.289063	-44.953999
64.343085	5572.971667	581.053711	75.201614
64.343085	5572.971667	579.817383	17.893421
64.343085	5572.971667	578.581055	80.893425
64.343085	5572.971667	577.343750	-21.240278
64.343085	5572.971667	576.107422	-17.363018
64.343085	5572.971667	574.870117	-13.489902
64.343085	5572.971667	573.631836	31.119385
64.343085	5572.971667	572.394531	12.573021
64.343085	5572.971667	571.156250	75.478333
64.343085	5572.971667	569.917969	8.068653
64.343085	5572.971667	568.679688	-51.173378
64.343085	5572.971667	567.440430	-18.823948
64.343085	5572.971667	566.202148	107.092216
64.343085	5572.971667	564.961914	60.065140
64.343085	5572.971667	563.722656	-25.581293
64.343085	5572.971667	562.482422	12.826880
64.343085	5572.971667	561.243164	4.465382
64.343085	5572.971667	560.001953	10.331915
64.343085	5572.971667	558.761719	1.971580
64.343085	5572.971667	557.520508	24.084209
64.343085	5572.971667	556.279297	88.835663
64.343085	5572.971667	555.038086	-39.339260
64.343085	5572.971667	553.795898	-0.994773
64.343085	5572.971667	552.554688	-31.675343
64.343085	5572.971667	551.311523	-56.255718
64.343085	5572.971667	550.069336	-36.193703
64.343085	5572.971667	548.826172	0.085896
64.343085	5572.971667	547.583984	-18.403887
64.343085	5572.971667	546.339844	88.816811
64.343085	5572.971667	545.096680	9.504553
64.343085	5572.971667	543.852539	-15.055877
64.343085	5572.971667	542.608398	-3.134881
64.343085	5572.971667	541.364258	41.192577
64.343085	5572.971667	540.119141	55.121929
64.343085	5572.971667	538.875000	18.423899
64.343085	5572.971667	537.628906	26.279650
64.343085	5572.971667	536.383789	1.748475
64.343085	5572.971667	535.137695	78.406311
64.343085	5572.971667	533.892578	74.107002
64.343085	5572.971667	532.645508	41.492912
64.343085	5572.971667	531.399414	-33.573822
64.343085	5572.971667	530.152344	-25.712456
64.343085	5572.971667	528.905273	115.558197
64.343085	5572.971667	527.658203	38.506428
64.343085	5572.971667	526.410156	28.166422
64.343085	5572.971667	525.163086	29.952694
64.343085	5572.971667	523.914063	33.759804
64.343085	5572.971667	522.666016	47.662766
64.343085	5572.971667	521.416992	9.073341
64.343085	5572.971667	520.167969	77.475021
64.343085	5572.971667	518.918945	-88.229256
64.343085	5572.971667	517.669922	30.605272
64.343085	5572.971667	516.419922	-32.143585
64.343085	5572.971667	515.169922	16.050863
64.343085	5572.971667	513.919922	1.725220
64.343085	5572.971667	512.668945	-32.749043
64.343085	5572.971667	511.417969	-30.930086
64.343085	5572.971667	510.166992	-21.049620
64.343085	5572.971667	508.916016	-11.170540
64.343085	5572.971667	507.664063	26.903580
64.343085	5572.971667	506.412109	16.638371
64.343085	5572.971667	505.160156	-54.014053
64.343085	5572.971667	503.907227	2.168860
64.343085	5572.971667	502.655273	48.269253
64.343085	5572.971667	501.402344	-34.405563
64.343085	5572.971667	500.148438	-26.527006
64.343085	5572.971667	498.895508	-52.835220
64.343085	5572.971667	497.641602	77.695129
64.343085	5572.971667	496.387695	-6.910300
64.343085	5572.971667	495.132813	19.057610
64.343085	5572.971667	493.878906	10.860632
64.343085	5572.971667	492.624023	20.750803
64.343085	5572.971667	491.368164	20.598799
64.343085	5572.971667	490.113281	-3.644795
64.343085	5572.971667	488.857422	16.292086
64.343085	5572.971667	487.601563	0.096667
64.343085	5572.971667	486.344727	-60.233963
64.343085	5572.971667	485.088867	45.982792
64.343085	5572.971667	483.832031	81.955292
64.343085	5572.971667	482.575195	43.717892
64.343085	5572.971667	481.317383	3.496560
64.343085	5572.971667	480.059570	-42.716465
64.343085	5572.971667	478.801758	-38.803371
64.343085	5572.971667	477.543945	67.298111
64.343085	5572.971667	476.285156	93.230194
64.343085	5572.971667	475.027344	35.038677
64.343085	5572.971667	473.767578	42.954506
64.343085	5572.971667	472.508789	50.871109
64.343085	5572.971667	471.249023	34.771267
64.343085	5572.971667	469.989258	50.699509
64.343085	5572.971667	468.729492	56.622124
64.343085	5572.971667	467.469727	-47.463497
64.343085	5572.971667	466.208984	16.479506
64.343085	5572.971667	464.948242	-51.555901
64.343085	5572.971667	463.686523	50.347992
64.343085	5572.971667	462.425781	40.298359
64.343085	5572.971667	461.164063	36.251373
64.343085	5572.971667	459.901367	44.195972
64.343085	5572.971667	458.639648	20.186327
64.343085	5572.971667	457.376953	0.184574
64.343085	5572.971667	456.114258	46.073021
64.343085	5572.971667	454.851563	54.023918
64.343085	5572.971667	453.587891	24.061857
64.343085	5572.971667	452.324219	45.986221
64.343085	5572.971667	451.060547	53.942375
64.343085	5572.971667	449.796875	67.880608
64.343085	5572.971667	448.532227	16.023611
64.343085	5572.971667	447.267578	-63.714058
64.343085	5572.971667	446.002930	-23.843685
64.343085	5572.971667	444.737305	10.034875
64.343085	5572.971667	443.471680	-55.698273
64.343085	5572.971667	442.206055	16.016348
64.343085	5572.971667	440.940430	18.012255
64.343085	5572.971667	439.673828	20.009375
64.343085	5572.971667	438.407227	12.055483
64.343085	5572.971667	437.140625	-11.812572
64.343085	5572.971667	435.873047	14.065775
64.343085	5572.971667	434.605469	55.845314
64.343085	5572.971667	433.337891	57.836044
64.343085	5572.971667	432.070313	22.051689
64.343085	5572.971667	430.801758	55.851490
64.343085	5572.971667	429.533203	-7.739458
64.343085	5572.971667	428.264648	71.746986
64.343085	5572.971667	426.996094	83.660194
64.343085	5572.971667	425.726563	-39.478443
64.343085	5572.971667	424.457031	-27.550133
64.343085	5572.971667	423.186523	28.042547
64.343085	5572.971667	421.916992	-35.472336
64.343085	5572.971667	420.646484	-29.514790
64.343085	5572.971667	419.375977	75.626442
64.343085	5572.971667	418.104492	93.449089
64.343085	5572.971667	416.833008	-15.649708
64.343085	5572.971667	415.561523	73.544853
64.343085	5572.971667	414.290039	45.751343
64.343085	5572.971667	413.017578	27.871696
64.343085	5572.971667	411.746094	4.048447
64.343085	5572.971667	410.472656	106.998970
64.343085	5572.971667	409.200195	45.525532
64.343085	5572.971667	407.926758	90.986290
64.343085	5572.971667	406.653320	69.114204
64.343085	5572.971667	405.379883	51.199104
64.343085	5572.971667	404.105469	88.682770
64.343085	5572.971667	402.831055	11.401382
64.343085	5572.971667	401.556641	19.185484
64.343085	5572.971667	400.282227	-40.277596
64.343085	5572.971667	399.006836	5.048147
64.343085	5572.971667	397.731445	-12.909125
64.343085	5572.971667	396.456055	40.263676
64.343085	5572.971667	395.179688	26.224628
64.343085	5572.971667	393.903320	77.355713
64.343085	5572.971667	392.626953	-15.713508
64.343085	5572.971667	391.350586	21.545061
64.343085	5572.971667	390.073242	68.636253
64.343085	5572.971667	388.795898	40.692123
64.343085	5572.971667	387.518555	-74.077682
64.343085	5572.971667	386.240234	6.469351
64.343085	5572.971667	384.961914	-5.737648
64.343085	5572.971667	383.683594	-0.219829
64.343085	5572.971667	382.405273	54.551918
64.343085	5572.971667	381.125977	105.329155
64.343085	5572.971667	379.846680	92.998367
64.343085	5572.971667	378.567383	-13.921444
64.343085	5572.971667	377.287109	52.500557
64.343085	5572.971667	376.006836	99.167542
64.343085	5572.971667	374.726563	-7.785992
64.343085	5572.971667	373.446289	-0.565528
64.343085	5572.971667	372.165039	132.560425
64.343085	5572.971667	370.883789	55.066879
64.343085	5572.971667	369.602539	1.170375
64.343085	5572.971667	368.320313	-35.046009
64.343085	5572.971667	367.039063	60.445225
64.343085	5572.971667	365.755859	10.380257
64.343085	5572.971667	364.473633	17.284773
64.343085	5572.971667	363.190430	41.820545
64.343085	5572.971667	361.907227	-0.498502
64.343085	5572.971667	360.624023	0.357102
64.343085	5572.971667	359.340820	30.611980
64.343085	5572.971667	358.056641	41.164021
64.343085	5572.971667	356.772461	-54.337860
64.343085	5572.971667	355.487305	-4.645365
64.343085	5572.971667	354.202148	41.038731
64.343085	5572.971667	352.916992	-29.090960
64.343085	5572.971667	351.631836	-28.658470
64.343085	5572.971667	350.346680	-22.413616
64.343085	5572.971667	349.060547	-14.283767
64.343085	5572.971667	347.774414	-21.909796
64.343085	5572.971667	346.487305	23.292921
64.343085	5572.971667	345.200195	15.506025
64.343085	5572.971667	343.913086	35.060383
64.343085	5572.971667	342.625977	-8.136046
64.343085	5572.971667	341.338867	-57.272758
64.343085	5572.971667	340.050781	-73.205284
64.343085	5572.971667	338.762695	-81.395126
64.343085	5572.971667	337.473633	29.661781
64.343085	5572.971667	336.184570	21.260180
64.343085	5572.971667	334.895508	61.650475
64.343085	5572.971667	333.606445	39.357300
64.343085	5572.971667	332.317383	5.240079
64.343085	5572.971667	331.027344	-7.476230
64.343085	5572.971667	329.736328	34.405922
64.343085	5572.971667	328.446289	83.970352
64.343085	5572.971667	327.155273	-24.797321
64.343085	5572.971667	325.864258	-34.059761
64.343085	5572.971667	324.573242	-31.730505
64.343085	5572.971667	323.281250	27.065723
64.343085	5572.971667	321.989258	25.215410
64.343085	5572.971667	320.697266	70.050171
64.343085	5572.971667	319.405273	-2.297770
64.343085	5572.971667	318.112305	-10.410627
64.343085	5572.971667	316.819336	90.508240
64.343085	5572.971667	315.526367	-15.374741
64.343085	5572.971667	314.232422	18.937252
64.343085	5572.971667	312.938477	-19.010380
64.343085	5572.971667	311.644531	-35.677784
64.343085	5572.971667	310.349609	40.968014
64.343085	5572.971667	309.054688	115.462036
64.343085	5572.971667	307.759766	8.717064
64.343085	5572.971667	306.464844	30.284485
64.343085	5572.971667	305.168945	41.925423
64.343085	5572.971667	303.873047	-36.111416
64.343085	5572.971667	302.577148	15.998542
64.343085	5572.971667	301.281250	71.776192
64.343085	5572.971667	299.984375	0.960254
