#X		#Y		#Wave		#Intensity
29689.179202	-1292.510667	1999.980469	22.985504
29689.179202	-1292.510667	1999.016602	41.425236
29689.179202	-1292.510667	1998.052734	-68.408051
29689.179202	-1292.510667	1997.087891	-59.421101
29689.179202	-1292.510667	1996.123047	65.846581
29689.179202	-1292.510667	1995.158203	74.476059
29689.179202	-1292.510667	1994.193359	-28.507393
29689.179202	-1292.510667	1993.228516	4.592295
29689.179202	-1292.510667	1992.262695	-39.213078
29689.179202	-1292.510667	1991.297852	-8.883971
29689.179202	-1292.510667	1990.332031	-52.945621
29689.179202	-1292.510667	1989.366211	-116.916725
29689.179202	-1292.510667	1988.399414	96.100273
29689.179202	-1292.510667	1987.433594	-12.642554
29689.179202	-1292.510667	1986.466797	-116.512726
29689.179202	-1292.510667	1985.500977	251.813400
29689.179202	-1292.510667	1984.534180	-89.610519
29689.179202	-1292.510667	1983.567383	167.141281
29689.179202	-1292.510667	1982.599609	104.912331
29689.179202	-1292.510667	1981.632813	-56.218430
29689.179202	-1292.510667	1980.665039	-101.272743
29689.179202	-1292.510667	1979.697266	93.181984
29689.179202	-1292.510667	1978.729492	136.850967
29689.179202	-1292.510667	1977.761719	128.577972
29689.179202	-1292.510667	1976.792969	-10.594355
29689.179202	-1292.510667	1975.825195	25.445593
29689.179202	-1292.510667	1974.856445	206.994843
29689.179202	-1292.510667	1973.887695	114.563065
29689.179202	-1292.510667	1972.918945	147.906677
29689.179202	-1292.510667	1971.949219	-13.646314
29689.179202	-1292.510667	1970.980469	100.970955
29689.179202	-1292.510667	1970.010742	10.877727
29689.179202	-1292.510667	1969.041016	115.493698
29689.179202	-1292.510667	1968.071289	146.097305
29689.179202	-1292.510667	1967.101563	36.206165
29689.179202	-1292.510667	1966.130859	7.612375
29689.179202	-1292.510667	1965.161133	111.997086
29689.179202	-1292.510667	1964.190430	4.533241
29689.179202	-1292.510667	1963.219727	185.142258
29689.179202	-1292.510667	1962.249023	-50.354916
29689.179202	-1292.510667	1961.277344	127.686806
29689.179202	-1292.510667	1960.306641	-26.555437
29689.179202	-1292.510667	1959.334961	45.583832
29689.179202	-1292.510667	1958.363281	179.173264
29689.179202	-1292.510667	1957.391602	-24.230236
29689.179202	-1292.510667	1956.419922	-57.907753
29689.179202	-1292.510667	1955.447266	171.466934
29689.179202	-1292.510667	1954.474609	-41.686146
29689.179202	-1292.510667	1953.501953	268.682770
29689.179202	-1292.510667	1952.529297	166.146851
29689.179202	-1292.510667	1951.556641	-0.225705
29689.179202	-1292.510667	1950.583984	-100.221237
29689.179202	-1292.510667	1949.610352	-8.636989
29689.179202	-1292.510667	1948.636719	-74.219299
29689.179202	-1292.510667	1947.663086	90.973801
29689.179202	-1292.510667	1946.689453	-8.953641
29689.179202	-1292.510667	1945.715820	-177.546097
29689.179202	-1292.510667	1944.741211	-17.313948
29689.179202	-1292.510667	1943.767578	155.132889
29689.179202	-1292.510667	1942.792969	62.658897
29689.179202	-1292.510667	1941.818359	73.214531
29689.179202	-1292.510667	1940.842773	44.554874
29689.179202	-1292.510667	1939.868164	-72.320923
29689.179202	-1292.510667	1938.892578	73.082367
29689.179202	-1292.510667	1937.916992	-31.472555
29689.179202	-1292.510667	1936.941406	72.255508
29689.179202	-1292.510667	1935.965820	161.267471
29689.179202	-1292.510667	1934.990234	-6.861618
29689.179202	-1292.510667	1934.013672	67.480522
29689.179202	-1292.510667	1933.037109	16.971312
29689.179202	-1292.510667	1932.060547	96.216942
29689.179202	-1292.510667	1931.083984	87.362617
29689.179202	-1292.510667	1930.107422	34.495869
29689.179202	-1292.510667	1929.129883	55.055023
29689.179202	-1292.510667	1928.153320	7.152472
29689.179202	-1292.510667	1927.175781	203.809723
29689.179202	-1292.510667	1926.198242	-117.863632
29689.179202	-1292.510667	1925.219727	15.242542
29689.179202	-1292.510667	1924.242188	253.408249
29689.179202	-1292.510667	1923.263672	10.169683
29689.179202	-1292.510667	1922.285156	1.565877
29689.179202	-1292.510667	1921.306641	85.805099
29689.179202	-1292.510667	1920.328125	6.425679
29689.179202	-1292.510667	1919.349609	93.127014
29689.179202	-1292.510667	1918.370117	-44.756214
29689.179202	-1292.510667	1917.391602	107.873726
29689.179202	-1292.510667	1916.412109	104.303169
29689.179202	-1292.510667	1915.431641	-52.940414
29689.179202	-1292.510667	1914.452148	-5.199965
29689.179202	-1292.510667	1913.472656	-11.104789
29689.179202	-1292.510667	1912.492188	163.459045
29689.179202	-1292.510667	1911.511719	30.811171
29689.179202	-1292.510667	1910.531250	32.298161
29689.179202	-1292.510667	1909.550781	-5.179706
29689.179202	-1292.510667	1908.569336	18.297167
29689.179202	-1292.510667	1907.588867	-62.959484
29689.179202	-1292.510667	1906.607422	70.175781
29689.179202	-1292.510667	1905.625977	-135.199417
29689.179202	-1292.510667	1904.644531	-87.263069
29689.179202	-1292.510667	1903.662109	-107.475456
29689.179202	-1292.510667	1902.680664	-91.149261
29689.179202	-1292.510667	1901.698242	112.564743
29689.179202	-1292.510667	1900.715820	-70.601318
29689.179202	-1292.510667	1899.733398	-80.972038
29689.179202	-1292.510667	1898.750000	-84.017441
29689.179202	-1292.510667	1897.767578	-28.681437
29689.179202	-1292.510667	1896.784180	53.399990
29689.179202	-1292.510667	1895.800781	-7.932864
29689.179202	-1292.510667	1894.817383	236.979691
29689.179202	-1292.510667	1893.833984	59.055130
29689.179202	-1292.510667	1892.850586	-65.337898
29689.179202	-1292.510667	1891.866211	75.076675
29689.179202	-1292.510667	1890.881836	-182.788773
29689.179202	-1292.510667	1889.897461	52.323967
29689.179202	-1292.510667	1888.913086	-118.013390
29689.179202	-1292.510667	1887.927734	-1.883150
29689.179202	-1292.510667	1886.943359	-21.664448
29689.179202	-1292.510667	1885.958008	-55.975422
29689.179202	-1292.510667	1884.972656	-10.211543
29689.179202	-1292.510667	1883.987305	8.875575
29689.179202	-1292.510667	1883.001953	-112.661987
29689.179202	-1292.510667	1882.015625	88.288795
29689.179202	-1292.510667	1881.029297	-74.391296
29689.179202	-1292.510667	1880.042969	24.725758
29689.179202	-1292.510667	1879.056641	177.121674
29689.179202	-1292.510667	1878.070313	2.444199
29689.179202	-1292.510667	1877.083984	135.435760
29689.179202	-1292.510667	1876.096680	-19.772045
29689.179202	-1292.510667	1875.109375	-7.856199
29689.179202	-1292.510667	1874.122070	8.905208
29689.179202	-1292.510667	1873.134766	170.879578
29689.179202	-1292.510667	1872.146484	182.780548
29689.179202	-1292.510667	1871.159180	32.592644
29689.179202	-1292.510667	1870.170898	-73.992470
29689.179202	-1292.510667	1869.182617	10.518051
29689.179202	-1292.510667	1868.194336	155.450562
29689.179202	-1292.510667	1867.205078	-84.040886
29689.179202	-1292.510667	1866.216797	14.939274
29689.179202	-1292.510667	1865.227539	-40.772728
29689.179202	-1292.510667	1864.238281	-236.594269
29689.179202	-1292.510667	1863.249023	-91.737091
29689.179202	-1292.510667	1862.259766	156.918091
29689.179202	-1292.510667	1861.269531	-193.370193
29689.179202	-1292.510667	1860.279297	62.453316
29689.179202	-1292.510667	1859.290039	-53.551235
29689.179202	-1292.510667	1858.298828	-174.339096
29689.179202	-1292.510667	1857.308594	-116.530899
29689.179202	-1292.510667	1856.318359	-85.286110
29689.179202	-1292.510667	1855.327148	109.958435
29689.179202	-1292.510667	1854.335938	-87.959770
29689.179202	-1292.510667	1853.344727	266.331482
29689.179202	-1292.510667	1852.353516	73.264946
29689.179202	-1292.510667	1851.362305	277.943298
29689.179202	-1292.510667	1850.370117	140.353500
29689.179202	-1292.510667	1849.377930	67.855537
29689.179202	-1292.510667	1848.385742	84.499336
29689.179202	-1292.510667	1847.393555	120.392464
29689.179202	-1292.510667	1846.401367	93.653236
29689.179202	-1292.510667	1845.408203	16.353498
29689.179202	-1292.510667	1844.415039	-60.931858
29689.179202	-1292.510667	1843.421875	-85.259323
29689.179202	-1292.510667	1842.428711	46.803860
29689.179202	-1292.510667	1841.435547	111.440468
29689.179202	-1292.510667	1840.441406	50.965443
29689.179202	-1292.510667	1839.448242	-9.507490
29689.179202	-1292.510667	1838.454102	91.112328
29689.179202	-1292.510667	1837.459961	251.770035
29689.179202	-1292.510667	1836.464844	119.132080
29689.179202	-1292.510667	1835.470703	-68.747223
29689.179202	-1292.510667	1834.475586	175.871078
29689.179202	-1292.510667	1833.480469	40.850189
29689.179202	-1292.510667	1832.485352	-86.939583
29689.179202	-1292.510667	1831.490234	87.836906
29689.179202	-1292.510667	1830.495117	274.524567
29689.179202	-1292.510667	1829.499023	134.683304
29689.179202	-1292.510667	1828.502930	69.260399
29689.179202	-1292.510667	1827.506836	169.386948
29689.179202	-1292.510667	1826.510742	135.109070
29689.179202	-1292.510667	1825.513672	201.549026
29689.179202	-1292.510667	1824.517578	30.531288
29689.179202	-1292.510667	1823.520508	-1.395158
29689.179202	-1292.510667	1822.523438	117.672302
29689.179202	-1292.510667	1821.526367	107.243683
29689.179202	-1292.510667	1820.529297	80.012611
29689.179202	-1292.510667	1819.531250	0.051381
29689.179202	-1292.510667	1818.533203	47.034260
29689.179202	-1292.510667	1817.535156	163.411713
29689.179202	-1292.510667	1816.537109	90.555138
29689.179202	-1292.510667	1815.539063	161.321259
29689.179202	-1292.510667	1814.540039	-12.108374
29689.179202	-1292.510667	1813.541992	276.336670
29689.179202	-1292.510667	1812.542969	253.602112
29689.179202	-1292.510667	1811.543945	209.305923
29689.179202	-1292.510667	1810.543945	43.013279
29689.179202	-1292.510667	1809.544922	242.592804
29689.179202	-1292.510667	1808.544922	121.695053
29689.179202	-1292.510667	1807.544922	134.656891
29689.179202	-1292.510667	1806.544922	192.976746
29689.179202	-1292.510667	1805.544922	258.398163
29689.179202	-1292.510667	1804.544922	113.524040
29689.179202	-1292.510667	1803.543945	-122.104057
29689.179202	-1292.510667	1802.542969	208.275787
29689.179202	-1292.510667	1801.541992	94.392517
29689.179202	-1292.510667	1800.541016	185.798309
29689.179202	-1292.510667	1799.539063	88.573608
29689.179202	-1292.510667	1798.538086	84.400604
29689.179202	-1292.510667	1797.536133	108.809837
29689.179202	-1292.510667	1796.534180	-98.217674
29689.179202	-1292.510667	1795.532227	90.673027
29689.179202	-1292.510667	1794.529297	-135.448532
29689.179202	-1292.510667	1793.527344	-189.889893
29689.179202	-1292.510667	1792.524414	-94.200989
29689.179202	-1292.510667	1791.521484	96.722496
29689.179202	-1292.510667	1790.518555	54.024666
29689.179202	-1292.510667	1789.514648	-41.117752
29689.179202	-1292.510667	1788.511719	244.795898
29689.179202	-1292.510667	1787.507813	-45.718410
29689.179202	-1292.510667	1786.503906	-60.003277
29689.179202	-1292.510667	1785.500000	23.256332
29689.179202	-1292.510667	1784.496094	65.971169
29689.179202	-1292.510667	1783.491211	168.099945
29689.179202	-1292.510667	1782.486328	48.885250
29689.179202	-1292.510667	1781.481445	119.944916
29689.179202	-1292.510667	1780.476563	69.636009
29689.179202	-1292.510667	1779.471680	150.060760
29689.179202	-1292.510667	1778.465820	2.183509
29689.179202	-1292.510667	1777.460938	208.442734
29689.179202	-1292.510667	1776.455078	41.484203
29689.179202	-1292.510667	1775.449219	-37.563267
29689.179202	-1292.510667	1774.442383	180.284027
29689.179202	-1292.510667	1773.436523	226.993347
29689.179202	-1292.510667	1772.429688	33.800915
29689.179202	-1292.510667	1771.422852	-26.431791
29689.179202	-1292.510667	1770.416016	17.736414
29689.179202	-1292.510667	1769.409180	64.199844
29689.179202	-1292.510667	1768.402344	117.703423
29689.179202	-1292.510667	1767.394531	38.278370
29689.179202	-1292.510667	1766.386719	134.335358
29689.179202	-1292.510667	1765.378906	111.726738
29689.179202	-1292.510667	1764.371094	67.727768
29689.179202	-1292.510667	1763.362305	151.684906
29689.179202	-1292.510667	1762.354492	-112.837463
29689.179202	-1292.510667	1761.345703	46.822464
29689.179202	-1292.510667	1760.336914	132.918549
29689.179202	-1292.510667	1759.328125	-10.838392
29689.179202	-1292.510667	1758.318359	84.581490
29689.179202	-1292.510667	1757.308594	132.547485
29689.179202	-1292.510667	1756.299805	-49.191956
29689.179202	-1292.510667	1755.290039	185.635666
29689.179202	-1292.510667	1754.279297	-17.472801
29689.179202	-1292.510667	1753.269531	13.662436
29689.179202	-1292.510667	1752.258789	158.262772
29689.179202	-1292.510667	1751.249023	16.579561
29689.179202	-1292.510667	1750.238281	68.780258
29689.179202	-1292.510667	1749.226563	-94.241737
29689.179202	-1292.510667	1748.215820	-35.076492
29689.179202	-1292.510667	1747.204102	-46.895729
29689.179202	-1292.510667	1746.193359	-72.948425
29689.179202	-1292.510667	1745.181641	-42.361599
29689.179202	-1292.510667	1744.168945	132.221085
29689.179202	-1292.510667	1743.157227	54.005127
29689.179202	-1292.510667	1742.144531	-7.720789
29689.179202	-1292.510667	1741.132813	-159.182526
29689.179202	-1292.510667	1740.120117	-39.244968
29689.179202	-1292.510667	1739.106445	90.018608
29689.179202	-1292.510667	1738.093750	-66.286240
29689.179202	-1292.510667	1737.080078	-88.150665
29689.179202	-1292.510667	1736.067383	-20.452238
29689.179202	-1292.510667	1735.053711	49.512001
29689.179202	-1292.510667	1734.040039	-40.914379
29689.179202	-1292.510667	1733.025391	134.960327
29689.179202	-1292.510667	1732.011719	84.487587
29689.179202	-1292.510667	1730.997070	17.476366
29689.179202	-1292.510667	1729.982422	91.762711
29689.179202	-1292.510667	1728.967773	22.297026
29689.179202	-1292.510667	1727.952148	58.752239
29689.179202	-1292.510667	1726.937500	113.969696
29689.179202	-1292.510667	1725.921875	93.780304
29689.179202	-1292.510667	1724.906250	-110.022537
29689.179202	-1292.510667	1723.890625	97.945251
29689.179202	-1292.510667	1722.875000	-25.918602
29689.179202	-1292.510667	1721.858398	-18.088911
29689.179202	-1292.510667	1720.841797	-66.759315
29689.179202	-1292.510667	1719.825195	-108.416809
29689.179202	-1292.510667	1718.808594	-84.301300
29689.179202	-1292.510667	1717.791992	-8.550157
29689.179202	-1292.510667	1716.774414	-24.531000
29689.179202	-1292.510667	1715.756836	-169.774063
29689.179202	-1292.510667	1714.739258	72.536453
29689.179202	-1292.510667	1713.721680	-7.031716
29689.179202	-1292.510667	1712.704102	-152.367828
29689.179202	-1292.510667	1711.685547	162.393661
29689.179202	-1292.510667	1710.667969	-95.691093
29689.179202	-1292.510667	1709.649414	2.940614
29689.179202	-1292.510667	1708.630859	-114.365028
29689.179202	-1292.510667	1707.611328	-22.921347
29689.179202	-1292.510667	1706.592773	73.127068
29689.179202	-1292.510667	1705.573242	2.599409
29689.179202	-1292.510667	1704.553711	131.312790
29689.179202	-1292.510667	1703.534180	-122.129784
29689.179202	-1292.510667	1702.513672	-75.576035
29689.179202	-1292.510667	1701.494141	50.573162
29689.179202	-1292.510667	1700.473633	-130.255066
29689.179202	-1292.510667	1699.453125	-8.938621
29689.179202	-1292.510667	1698.432617	-30.560011
29689.179202	-1292.510667	1697.412109	3.963295
29689.179202	-1292.510667	1696.390625	-214.380707
29689.179202	-1292.510667	1695.369141	-41.866188
29689.179202	-1292.510667	1694.347656	46.298401
29689.179202	-1292.510667	1693.326172	43.143864
29689.179202	-1292.510667	1692.304688	32.924652
29689.179202	-1292.510667	1691.282227	17.977203
29689.179202	-1292.510667	1690.260742	136.262085
29689.179202	-1292.510667	1689.238281	11.339281
29689.179202	-1292.510667	1688.214844	-239.793686
29689.179202	-1292.510667	1687.192383	-159.061707
29689.179202	-1292.510667	1686.168945	173.900635
29689.179202	-1292.510667	1685.146484	-91.264977
29689.179202	-1292.510667	1684.123047	-64.462784
29689.179202	-1292.510667	1683.099609	-28.375534
29689.179202	-1292.510667	1682.075195	117.366119
29689.179202	-1292.510667	1681.051758	38.952045
29689.179202	-1292.510667	1680.027344	-100.152168
29689.179202	-1292.510667	1679.002930	1.063303
29689.179202	-1292.510667	1677.978516	81.204559
29689.179202	-1292.510667	1676.953125	28.333170
29689.179202	-1292.510667	1675.928711	29.077887
29689.179202	-1292.510667	1674.903320	22.783836
29689.179202	-1292.510667	1673.877930	30.437624
29689.179202	-1292.510667	1672.852539	79.996941
29689.179202	-1292.510667	1671.826172	138.813248
29689.179202	-1292.510667	1670.800781	127.691460
29689.179202	-1292.510667	1669.774414	179.415833
29689.179202	-1292.510667	1668.748047	114.654823
29689.179202	-1292.510667	1667.721680	45.227455
29689.179202	-1292.510667	1666.694336	229.503647
29689.179202	-1292.510667	1665.667969	-65.728981
29689.179202	-1292.510667	1664.640625	23.033327
29689.179202	-1292.510667	1663.613281	295.508972
29689.179202	-1292.510667	1662.585938	344.562927
29689.179202	-1292.510667	1661.557617	54.045444
29689.179202	-1292.510667	1660.530273	105.390953
29689.179202	-1292.510667	1659.501953	61.373432
29689.179202	-1292.510667	1658.473633	156.790573
29689.179202	-1292.510667	1657.444336	73.215179
29689.179202	-1292.510667	1656.416016	73.286018
29689.179202	-1292.510667	1655.386719	345.084503
29689.179202	-1292.510667	1654.358398	217.324692
29689.179202	-1292.510667	1653.328125	242.816162
29689.179202	-1292.510667	1652.298828	284.530121
29689.179202	-1292.510667	1651.269531	256.576447
29689.179202	-1292.510667	1650.239258	251.807144
29689.179202	-1292.510667	1649.208984	344.460571
29689.179202	-1292.510667	1648.178711	225.972977
29689.179202	-1292.510667	1647.148438	346.382294
29689.179202	-1292.510667	1646.117188	369.333405
29689.179202	-1292.510667	1645.086914	366.761414
29689.179202	-1292.510667	1644.055664	357.212250
29689.179202	-1292.510667	1643.024414	352.282715
29689.179202	-1292.510667	1641.992188	314.895081
29689.179202	-1292.510667	1640.960938	414.183746
29689.179202	-1292.510667	1639.928711	427.718964
29689.179202	-1292.510667	1638.896484	445.864197
29689.179202	-1292.510667	1637.864258	561.224792
29689.179202	-1292.510667	1636.832031	419.598328
29689.179202	-1292.510667	1635.798828	546.456848
29689.179202	-1292.510667	1634.766602	536.749329
29689.179202	-1292.510667	1633.733398	531.654358
29689.179202	-1292.510667	1632.699219	403.961670
29689.179202	-1292.510667	1631.666016	458.998322
29689.179202	-1292.510667	1630.632813	481.636658
29689.179202	-1292.510667	1629.598633	455.709930
29689.179202	-1292.510667	1628.564453	515.295715
29689.179202	-1292.510667	1627.530273	498.601685
29689.179202	-1292.510667	1626.495117	673.645813
29689.179202	-1292.510667	1625.460938	546.050049
29689.179202	-1292.510667	1624.425781	455.442017
29689.179202	-1292.510667	1623.390625	489.542786
29689.179202	-1292.510667	1622.355469	592.879517
29689.179202	-1292.510667	1621.319336	903.881226
29689.179202	-1292.510667	1620.284180	644.820251
29689.179202	-1292.510667	1619.248047	655.776428
29689.179202	-1292.510667	1618.211914	699.021545
29689.179202	-1292.510667	1617.174805	799.897705
29689.179202	-1292.510667	1616.138672	753.180237
29689.179202	-1292.510667	1615.101563	854.012390
29689.179202	-1292.510667	1614.065430	791.176270
29689.179202	-1292.510667	1613.027344	862.007141
29689.179202	-1292.510667	1611.990234	757.727966
29689.179202	-1292.510667	1610.953125	780.184753
29689.179202	-1292.510667	1609.915039	945.419861
29689.179202	-1292.510667	1608.876953	808.963806
29689.179202	-1292.510667	1607.838867	909.687561
29689.179202	-1292.510667	1606.800781	849.264709
29689.179202	-1292.510667	1605.761719	892.424133
29689.179202	-1292.510667	1604.723633	928.682129
29689.179202	-1292.510667	1603.684570	905.123657
29689.179202	-1292.510667	1602.644531	952.875488
29689.179202	-1292.510667	1601.605469	977.635498
29689.179202	-1292.510667	1600.566406	887.452820
29689.179202	-1292.510667	1599.526367	834.088745
29689.179202	-1292.510667	1598.486328	1127.769897
29689.179202	-1292.510667	1597.446289	1028.461060
29689.179202	-1292.510667	1596.405273	1080.814941
29689.179202	-1292.510667	1595.365234	914.985352
29689.179202	-1292.510667	1594.324219	857.157959
29689.179202	-1292.510667	1593.283203	934.825989
29689.179202	-1292.510667	1592.242188	911.488342
29689.179202	-1292.510667	1591.200195	943.253052
29689.179202	-1292.510667	1590.159180	1046.163086
29689.179202	-1292.510667	1589.117188	850.825439
29689.179202	-1292.510667	1588.075195	988.157043
29689.179202	-1292.510667	1587.032227	655.361755
29689.179202	-1292.510667	1585.990234	717.069214
29689.179202	-1292.510667	1584.947266	797.110352
29689.179202	-1292.510667	1583.904297	817.560974
29689.179202	-1292.510667	1582.861328	959.471741
29689.179202	-1292.510667	1581.818359	906.630493
29689.179202	-1292.510667	1580.775391	1000.427551
29689.179202	-1292.510667	1579.731445	837.731995
29689.179202	-1292.510667	1578.687500	945.296448
29689.179202	-1292.510667	1577.643555	926.950684
29689.179202	-1292.510667	1576.598633	952.121460
29689.179202	-1292.510667	1575.554688	869.777771
29689.179202	-1292.510667	1574.509766	760.039978
29689.179202	-1292.510667	1573.464844	876.821655
29689.179202	-1292.510667	1572.419922	842.661621
29689.179202	-1292.510667	1571.374023	879.422302
29689.179202	-1292.510667	1570.329102	1012.222656
29689.179202	-1292.510667	1569.283203	804.460815
29689.179202	-1292.510667	1568.237305	998.988525
29689.179202	-1292.510667	1567.191406	823.372009
29689.179202	-1292.510667	1566.144531	949.367432
29689.179202	-1292.510667	1565.098633	1006.848145
29689.179202	-1292.510667	1564.051758	943.328918
29689.179202	-1292.510667	1563.004883	962.056824
29689.179202	-1292.510667	1561.957031	1076.673096
29689.179202	-1292.510667	1560.910156	1122.835693
29689.179202	-1292.510667	1559.862305	803.982788
29689.179202	-1292.510667	1558.814453	948.346497
29689.179202	-1292.510667	1557.766602	764.296570
29689.179202	-1292.510667	1556.718750	997.626648
29689.179202	-1292.510667	1555.669922	747.614807
29689.179202	-1292.510667	1554.621094	639.060486
29689.179202	-1292.510667	1553.573242	715.182861
29689.179202	-1292.510667	1552.523438	777.643250
29689.179202	-1292.510667	1551.474609	673.847961
29689.179202	-1292.510667	1550.424805	725.002258
29689.179202	-1292.510667	1549.375000	760.249023
29689.179202	-1292.510667	1548.325195	754.554688
29689.179202	-1292.510667	1547.275391	744.361267
29689.179202	-1292.510667	1546.225586	656.852844
29689.179202	-1292.510667	1545.174805	510.270905
29689.179202	-1292.510667	1544.124023	609.472961
29689.179202	-1292.510667	1543.073242	572.231934
29689.179202	-1292.510667	1542.022461	566.893188
29689.179202	-1292.510667	1540.970703	627.536255
29689.179202	-1292.510667	1539.919922	665.487122
29689.179202	-1292.510667	1538.868164	394.412170
29689.179202	-1292.510667	1537.815430	498.386322
29689.179202	-1292.510667	1536.763672	434.283142
29689.179202	-1292.510667	1535.710938	224.904022
29689.179202	-1292.510667	1534.659180	413.045166
29689.179202	-1292.510667	1533.606445	421.816803
29689.179202	-1292.510667	1532.552734	480.575073
29689.179202	-1292.510667	1531.500000	298.821838
29689.179202	-1292.510667	1530.446289	269.214539
29689.179202	-1292.510667	1529.393555	212.462814
29689.179202	-1292.510667	1528.338867	357.640869
29689.179202	-1292.510667	1527.285156	94.664703
29689.179202	-1292.510667	1526.231445	428.110443
29689.179202	-1292.510667	1525.176758	178.946121
29689.179202	-1292.510667	1524.122070	188.295547
29689.179202	-1292.510667	1523.067383	104.807632
29689.179202	-1292.510667	1522.012695	127.889053
29689.179202	-1292.510667	1520.957031	-77.731239
29689.179202	-1292.510667	1519.901367	45.139679
29689.179202	-1292.510667	1518.845703	34.452419
29689.179202	-1292.510667	1517.790039	46.472042
29689.179202	-1292.510667	1516.734375	-4.812774
29689.179202	-1292.510667	1515.677734	27.705145
29689.179202	-1292.510667	1514.621094	166.601181
29689.179202	-1292.510667	1513.564453	178.853256
29689.179202	-1292.510667	1512.507813	-111.845879
29689.179202	-1292.510667	1511.450195	-97.148575
29689.179202	-1292.510667	1510.393555	91.669014
29689.179202	-1292.510667	1509.335938	237.538177
29689.179202	-1292.510667	1508.278320	-41.367496
29689.179202	-1292.510667	1507.219727	54.910217
29689.179202	-1292.510667	1506.162109	196.396362
29689.179202	-1292.510667	1505.103516	127.885056
29689.179202	-1292.510667	1504.044922	192.678482
29689.179202	-1292.510667	1502.986328	-20.125389
29689.179202	-1292.510667	1501.926758	-9.348298
29689.179202	-1292.510667	1500.868164	15.037987
29689.179202	-1292.510667	1499.808594	-150.012589
29689.179202	-1292.510667	1498.749023	-120.952133
29689.179202	-1292.510667	1497.688477	-35.454662
29689.179202	-1292.510667	1496.628906	-19.806986
29689.179202	-1292.510667	1495.568359	194.271545
29689.179202	-1292.510667	1494.507813	72.540421
29689.179202	-1292.510667	1493.447266	101.900291
29689.179202	-1292.510667	1492.386719	102.037918
29689.179202	-1292.510667	1491.325195	248.652710
29689.179202	-1292.510667	1490.263672	271.430603
29689.179202	-1292.510667	1489.202148	109.656990
29689.179202	-1292.510667	1488.140625	139.360382
29689.179202	-1292.510667	1487.079102	265.903290
29689.179202	-1292.510667	1486.016602	99.957146
29689.179202	-1292.510667	1484.954102	147.872513
29689.179202	-1292.510667	1483.891602	-40.320133
29689.179202	-1292.510667	1482.829102	41.491665
29689.179202	-1292.510667	1481.765625	260.494232
29689.179202	-1292.510667	1480.702148	117.575951
29689.179202	-1292.510667	1479.638672	13.018193
29689.179202	-1292.510667	1478.575195	2.942205
29689.179202	-1292.510667	1477.511719	-54.225124
29689.179202	-1292.510667	1476.447266	-39.391865
29689.179202	-1292.510667	1475.382813	-76.124168
29689.179202	-1292.510667	1474.318359	-256.476593
29689.179202	-1292.510667	1473.253906	-153.899261
29689.179202	-1292.510667	1472.189453	-17.621553
29689.179202	-1292.510667	1471.124023	-150.415466
29689.179202	-1292.510667	1470.058594	-72.483284
29689.179202	-1292.510667	1468.993164	-133.197021
29689.179202	-1292.510667	1467.927734	-28.173786
29689.179202	-1292.510667	1466.861328	-6.141370
29689.179202	-1292.510667	1465.794922	-100.134422
29689.179202	-1292.510667	1464.728516	-247.713455
29689.179202	-1292.510667	1463.662109	114.881348
29689.179202	-1292.510667	1462.594727	38.831646
29689.179202	-1292.510667	1461.528320	135.497879
29689.179202	-1292.510667	1460.460938	34.931919
29689.179202	-1292.510667	1459.393555	73.486290
29689.179202	-1292.510667	1458.326172	107.527206
29689.179202	-1292.510667	1457.257813	60.693714
29689.179202	-1292.510667	1456.189453	99.586151
29689.179202	-1292.510667	1455.121094	149.619537
29689.179202	-1292.510667	1454.052734	38.415913
29689.179202	-1292.510667	1452.984375	132.985977
29689.179202	-1292.510667	1451.915039	103.031616
29689.179202	-1292.510667	1450.845703	286.164490
29689.179202	-1292.510667	1449.776367	103.044655
29689.179202	-1292.510667	1448.707031	170.642792
29689.179202	-1292.510667	1447.636719	174.865128
29689.179202	-1292.510667	1446.567383	205.600189
29689.179202	-1292.510667	1445.497070	468.030731
29689.179202	-1292.510667	1444.425781	173.869781
29689.179202	-1292.510667	1443.355469	205.208481
29689.179202	-1292.510667	1442.285156	301.617279
29689.179202	-1292.510667	1441.213867	388.247955
29689.179202	-1292.510667	1440.142578	376.877350
29689.179202	-1292.510667	1439.070313	365.093872
29689.179202	-1292.510667	1437.999023	448.402008
29689.179202	-1292.510667	1436.926758	234.247345
29689.179202	-1292.510667	1435.854492	460.424988
29689.179202	-1292.510667	1434.782227	351.724762
29689.179202	-1292.510667	1433.709961	467.934631
29689.179202	-1292.510667	1432.636719	578.286987
29689.179202	-1292.510667	1431.563477	369.685913
29689.179202	-1292.510667	1430.490234	294.732849
29689.179202	-1292.510667	1429.416992	348.002747
29689.179202	-1292.510667	1428.343750	524.265930
29689.179202	-1292.510667	1427.269531	392.705322
29689.179202	-1292.510667	1426.195313	246.922867
29689.179202	-1292.510667	1425.121094	292.970154
29689.179202	-1292.510667	1424.046875	215.221893
29689.179202	-1292.510667	1422.971680	276.593719
29689.179202	-1292.510667	1421.896484	121.514442
29689.179202	-1292.510667	1420.821289	73.666412
29689.179202	-1292.510667	1419.746094	238.164627
29689.179202	-1292.510667	1418.669922	340.825317
29689.179202	-1292.510667	1417.594727	117.042625
29689.179202	-1292.510667	1416.518555	206.610519
29689.179202	-1292.510667	1415.442383	323.625275
29689.179202	-1292.510667	1414.365234	212.868240
29689.179202	-1292.510667	1413.289063	453.585510
29689.179202	-1292.510667	1412.211914	277.679993
29689.179202	-1292.510667	1411.134766	-113.912514
29689.179202	-1292.510667	1410.057617	235.779388
29689.179202	-1292.510667	1408.979492	327.219971
29689.179202	-1292.510667	1407.902344	299.761993
29689.179202	-1292.510667	1406.824219	555.304138
29689.179202	-1292.510667	1405.746094	310.112976
29689.179202	-1292.510667	1404.666992	356.246704
29689.179202	-1292.510667	1403.588867	296.214783
29689.179202	-1292.510667	1402.509766	405.494537
29689.179202	-1292.510667	1401.430664	529.976196
29689.179202	-1292.510667	1400.351563	288.251251
29689.179202	-1292.510667	1399.271484	453.695587
29689.179202	-1292.510667	1398.192383	316.733032
29689.179202	-1292.510667	1397.112305	391.266327
29689.179202	-1292.510667	1396.031250	336.268951
29689.179202	-1292.510667	1394.951172	443.315582
29689.179202	-1292.510667	1393.871094	560.673889
29689.179202	-1292.510667	1392.790039	280.704651
29689.179202	-1292.510667	1391.708984	317.234924
29689.179202	-1292.510667	1390.626953	255.582535
29689.179202	-1292.510667	1389.545898	352.340149
29689.179202	-1292.510667	1388.463867	302.529633
29689.179202	-1292.510667	1387.381836	269.343079
29689.179202	-1292.510667	1386.299805	283.100311
29689.179202	-1292.510667	1385.217773	183.287308
29689.179202	-1292.510667	1384.134766	343.392120
29689.179202	-1292.510667	1383.051758	288.963989
29689.179202	-1292.510667	1381.968750	258.941864
29689.179202	-1292.510667	1380.885742	490.693542
29689.179202	-1292.510667	1379.802734	435.375702
29689.179202	-1292.510667	1378.718750	338.602783
29689.179202	-1292.510667	1377.634766	396.729309
29689.179202	-1292.510667	1376.550781	519.445190
29689.179202	-1292.510667	1375.465820	430.476349
29689.179202	-1292.510667	1374.381836	282.768097
29689.179202	-1292.510667	1373.296875	304.169189
29689.179202	-1292.510667	1372.211914	525.503540
29689.179202	-1292.510667	1371.126953	590.211121
29689.179202	-1292.510667	1370.041016	472.551208
29689.179202	-1292.510667	1368.955078	450.412048
29689.179202	-1292.510667	1367.869141	693.305847
29689.179202	-1292.510667	1366.783203	575.347351
29689.179202	-1292.510667	1365.697266	626.818237
29689.179202	-1292.510667	1364.610352	786.445801
29689.179202	-1292.510667	1363.523438	537.764526
29689.179202	-1292.510667	1362.436523	633.162598
29689.179202	-1292.510667	1361.349609	673.115967
29689.179202	-1292.510667	1360.261719	514.628540
29689.179202	-1292.510667	1359.174805	581.726135
29689.179202	-1292.510667	1358.086914	646.002136
29689.179202	-1292.510667	1356.998047	558.447327
29689.179202	-1292.510667	1355.910156	540.153625
29689.179202	-1292.510667	1354.821289	682.563232
29689.179202	-1292.510667	1353.732422	279.753082
29689.179202	-1292.510667	1352.643555	373.908142
29689.179202	-1292.510667	1351.554688	526.936096
29689.179202	-1292.510667	1350.464844	629.310974
29689.179202	-1292.510667	1349.375000	450.577179
29689.179202	-1292.510667	1348.285156	256.991058
29689.179202	-1292.510667	1347.195313	408.396698
29689.179202	-1292.510667	1346.105469	125.159775
29689.179202	-1292.510667	1345.014648	210.171524
29689.179202	-1292.510667	1343.923828	333.844330
29689.179202	-1292.510667	1342.833008	396.256683
29689.179202	-1292.510667	1341.741211	291.924011
29689.179202	-1292.510667	1340.650391	255.444656
29689.179202	-1292.510667	1339.558594	312.913483
29689.179202	-1292.510667	1338.466797	153.988770
29689.179202	-1292.510667	1337.374023	81.589355
29689.179202	-1292.510667	1336.282227	91.169701
29689.179202	-1292.510667	1335.189453	121.001778
29689.179202	-1292.510667	1334.096680	30.605951
29689.179202	-1292.510667	1333.003906	59.343918
29689.179202	-1292.510667	1331.910156	-1.017597
29689.179202	-1292.510667	1330.817383	100.684418
29689.179202	-1292.510667	1329.723633	47.871746
29689.179202	-1292.510667	1328.629883	70.925865
29689.179202	-1292.510667	1327.535156	-15.140257
29689.179202	-1292.510667	1326.441406	85.422005
29689.179202	-1292.510667	1325.346680	1.452711
29689.179202	-1292.510667	1324.251953	26.344889
29689.179202	-1292.510667	1323.156250	-55.476254
29689.179202	-1292.510667	1322.061523	180.862640
29689.179202	-1292.510667	1320.965820	140.632538
29689.179202	-1292.510667	1319.870117	266.648224
29689.179202	-1292.510667	1318.774414	365.629761
29689.179202	-1292.510667	1317.678711	103.826530
29689.179202	-1292.510667	1316.582031	277.723511
29689.179202	-1292.510667	1315.485352	205.349167
29689.179202	-1292.510667	1314.388672	297.409912
29689.179202	-1292.510667	1313.291016	308.057831
29689.179202	-1292.510667	1312.194336	297.517212
29689.179202	-1292.510667	1311.096680	268.126007
29689.179202	-1292.510667	1309.999023	210.629349
29689.179202	-1292.510667	1308.901367	276.458252
29689.179202	-1292.510667	1307.802734	318.442627
29689.179202	-1292.510667	1306.705078	321.117096
29689.179202	-1292.510667	1305.606445	331.880402
29689.179202	-1292.510667	1304.506836	372.975159
29689.179202	-1292.510667	1303.408203	259.387909
29689.179202	-1292.510667	1302.308594	301.456116
29689.179202	-1292.510667	1301.208984	366.152222
29689.179202	-1292.510667	1300.109375	276.389618
29689.179202	-1292.510667	1299.009766	517.847412
29689.179202	-1292.510667	1297.909180	460.172058
29689.179202	-1292.510667	1296.808594	445.825256
29689.179202	-1292.510667	1295.708008	371.145203
29689.179202	-1292.510667	1294.607422	387.794373
29689.179202	-1292.510667	1293.506836	403.622711
29689.179202	-1292.510667	1292.405273	133.108871
29689.179202	-1292.510667	1291.303711	331.444855
29689.179202	-1292.510667	1290.202148	194.923004
29689.179202	-1292.510667	1289.099609	152.411682
29689.179202	-1292.510667	1287.998047	234.231857
29689.179202	-1292.510667	1286.895508	225.901184
29689.179202	-1292.510667	1285.792969	72.151604
29689.179202	-1292.510667	1284.689453	165.235336
29689.179202	-1292.510667	1283.586914	132.947830
29689.179202	-1292.510667	1282.483398	173.440674
29689.179202	-1292.510667	1281.379883	214.273849
29689.179202	-1292.510667	1280.276367	118.931129
29689.179202	-1292.510667	1279.171875	72.135498
29689.179202	-1292.510667	1278.067383	267.874664
29689.179202	-1292.510667	1276.962891	166.492737
29689.179202	-1292.510667	1275.858398	238.808441
29689.179202	-1292.510667	1274.753906	17.538937
29689.179202	-1292.510667	1273.648438	21.774456
29689.179202	-1292.510667	1272.542969	124.554420
29689.179202	-1292.510667	1271.437500	167.161423
29689.179202	-1292.510667	1270.331055	-53.566231
29689.179202	-1292.510667	1269.225586	214.773102
29689.179202	-1292.510667	1268.119141	-5.796643
29689.179202	-1292.510667	1267.012695	-20.226330
29689.179202	-1292.510667	1265.906250	19.007858
29689.179202	-1292.510667	1264.798828	-29.680525
29689.179202	-1292.510667	1263.691406	73.151207
29689.179202	-1292.510667	1262.583984	68.549332
29689.179202	-1292.510667	1261.476563	162.850174
29689.179202	-1292.510667	1260.368164	121.016136
29689.179202	-1292.510667	1259.260742	-153.324661
29689.179202	-1292.510667	1258.152344	-79.012451
29689.179202	-1292.510667	1257.043945	-17.676807
29689.179202	-1292.510667	1255.934570	141.989410
29689.179202	-1292.510667	1254.825195	-12.628741
29689.179202	-1292.510667	1253.716797	-29.227262
29689.179202	-1292.510667	1252.606445	-27.202875
29689.179202	-1292.510667	1251.497070	94.542152
29689.179202	-1292.510667	1250.387695	62.196812
29689.179202	-1292.510667	1249.277344	-194.707123
29689.179202	-1292.510667	1248.166992	-101.115623
29689.179202	-1292.510667	1247.055664	-177.745956
29689.179202	-1292.510667	1245.945313	0.581775
29689.179202	-1292.510667	1244.833984	-210.410110
29689.179202	-1292.510667	1243.722656	-1.945904
29689.179202	-1292.510667	1242.611328	-217.020294
29689.179202	-1292.510667	1241.499023	-50.660099
29689.179202	-1292.510667	1240.387695	-101.070129
29689.179202	-1292.510667	1239.275391	-68.671677
29689.179202	-1292.510667	1238.162109	-8.185985
29689.179202	-1292.510667	1237.049805	39.277889
29689.179202	-1292.510667	1235.936523	-152.514847
29689.179202	-1292.510667	1234.823242	-70.708321
29689.179202	-1292.510667	1233.709961	44.194016
29689.179202	-1292.510667	1232.596680	64.261955
29689.179202	-1292.510667	1231.482422	18.087765
29689.179202	-1292.510667	1230.369141	-17.082985
29689.179202	-1292.510667	1229.253906	-33.022289
29689.179202	-1292.510667	1228.139648	36.000797
29689.179202	-1292.510667	1227.025391	-97.391174
29689.179202	-1292.510667	1225.910156	36.298328
29689.179202	-1292.510667	1224.794922	-37.906746
29689.179202	-1292.510667	1223.679688	-136.788132
29689.179202	-1292.510667	1222.563477	-68.140335
29689.179202	-1292.510667	1221.447266	-129.618073
29689.179202	-1292.510667	1220.331055	43.865082
29689.179202	-1292.510667	1219.214844	57.145592
29689.179202	-1292.510667	1218.098633	133.620453
29689.179202	-1292.510667	1216.981445	29.035130
29689.179202	-1292.510667	1215.864258	-36.477882
29689.179202	-1292.510667	1214.747070	40.480377
29689.179202	-1292.510667	1213.629883	-20.671595
29689.179202	-1292.510667	1212.511719	110.214951
29689.179202	-1292.510667	1211.393555	109.366333
29689.179202	-1292.510667	1210.275391	76.450073
29689.179202	-1292.510667	1209.157227	29.164970
29689.179202	-1292.510667	1208.038086	54.731987
29689.179202	-1292.510667	1206.918945	-41.349045
29689.179202	-1292.510667	1205.799805	7.489822
29689.179202	-1292.510667	1204.680664	119.324341
29689.179202	-1292.510667	1203.560547	10.046328
29689.179202	-1292.510667	1202.441406	-16.688641
29689.179202	-1292.510667	1201.321289	71.260864
29689.179202	-1292.510667	1200.200195	62.455917
29689.179202	-1292.510667	1199.080078	54.171375
29689.179202	-1292.510667	1197.958984	65.360077
29689.179202	-1292.510667	1196.837891	45.272083
29689.179202	-1292.510667	1195.716797	30.568142
29689.179202	-1292.510667	1194.594727	-64.349327
29689.179202	-1292.510667	1193.473633	58.727398
29689.179202	-1292.510667	1192.351563	-25.963881
29689.179202	-1292.510667	1191.229492	-31.996223
29689.179202	-1292.510667	1190.106445	-125.869629
29689.179202	-1292.510667	1188.984375	-3.283409
29689.179202	-1292.510667	1187.861328	-49.575111
29689.179202	-1292.510667	1186.738281	-51.117493
29689.179202	-1292.510667	1185.614258	16.532732
29689.179202	-1292.510667	1184.491211	-67.689743
29689.179202	-1292.510667	1183.367188	18.269934
29689.179202	-1292.510667	1182.243164	-60.058533
29689.179202	-1292.510667	1181.119141	41.726894
29689.179202	-1292.510667	1179.994141	-16.894472
29689.179202	-1292.510667	1178.869141	-73.282478
29689.179202	-1292.510667	1177.744141	-72.551674
29689.179202	-1292.510667	1176.619141	-2.799997
29689.179202	-1292.510667	1175.493164	22.978138
29689.179202	-1292.510667	1174.368164	-63.793770
29689.179202	-1292.510667	1173.242188	-173.225357
29689.179202	-1292.510667	1172.115234	-7.335545
29689.179202	-1292.510667	1170.989258	-102.362747
29689.179202	-1292.510667	1169.862305	2.698464
29689.179202	-1292.510667	1168.735352	-172.812241
29689.179202	-1292.510667	1167.608398	-74.220306
29689.179202	-1292.510667	1166.481445	-68.630455
29689.179202	-1292.510667	1165.353516	-99.803909
29689.179202	-1292.510667	1164.225586	-122.649895
29689.179202	-1292.510667	1163.097656	-77.794601
29689.179202	-1292.510667	1161.968750	-70.250305
29689.179202	-1292.510667	1160.840820	-98.944313
29689.179202	-1292.510667	1159.711914	121.107826
29689.179202	-1292.510667	1158.583008	40.144527
29689.179202	-1292.510667	1157.453125	-109.585831
29689.179202	-1292.510667	1156.324219	-65.225151
29689.179202	-1292.510667	1155.194336	-74.448372
29689.179202	-1292.510667	1154.064453	-64.031593
29689.179202	-1292.510667	1152.933594	-63.428684
29689.179202	-1292.510667	1151.803711	-2.248065
29689.179202	-1292.510667	1150.672852	25.453255
29689.179202	-1292.510667	1149.541992	-171.308685
29689.179202	-1292.510667	1148.411133	-68.600433
29689.179202	-1292.510667	1147.279297	-19.379904
29689.179202	-1292.510667	1146.147461	23.953043
29689.179202	-1292.510667	1145.015625	9.421709
29689.179202	-1292.510667	1143.883789	87.095306
29689.179202	-1292.510667	1142.750977	81.836121
29689.179202	-1292.510667	1141.619141	112.760971
29689.179202	-1292.510667	1140.486328	46.022289
29689.179202	-1292.510667	1139.352539	39.583725
29689.179202	-1292.510667	1138.219727	106.171684
29689.179202	-1292.510667	1137.085938	219.656189
29689.179202	-1292.510667	1135.952148	185.318359
29689.179202	-1292.510667	1134.818359	92.545845
29689.179202	-1292.510667	1133.683594	212.654800
29689.179202	-1292.510667	1132.549805	267.497955
29689.179202	-1292.510667	1131.415039	304.501678
29689.179202	-1292.510667	1130.279297	365.692169
29689.179202	-1292.510667	1129.144531	577.718262
29689.179202	-1292.510667	1128.008789	497.529602
29689.179202	-1292.510667	1126.873047	537.459351
29689.179202	-1292.510667	1125.737305	504.778015
29689.179202	-1292.510667	1124.601563	504.777557
29689.179202	-1292.510667	1123.464844	432.114685
29689.179202	-1292.510667	1122.328125	415.041718
29689.179202	-1292.510667	1121.191406	453.244202
29689.179202	-1292.510667	1120.054688	369.382263
29689.179202	-1292.510667	1118.916992	324.344971
29689.179202	-1292.510667	1117.779297	207.934586
29689.179202	-1292.510667	1116.641602	294.192139
29689.179202	-1292.510667	1115.503906	312.172302
29689.179202	-1292.510667	1114.365234	247.047226
29689.179202	-1292.510667	1113.226563	127.184776
29689.179202	-1292.510667	1112.087891	176.594742
29689.179202	-1292.510667	1110.949219	174.914825
29689.179202	-1292.510667	1109.809570	251.469437
29689.179202	-1292.510667	1108.669922	234.037689
29689.179202	-1292.510667	1107.530273	271.063965
29689.179202	-1292.510667	1106.390625	220.967285
29689.179202	-1292.510667	1105.250000	253.631439
29689.179202	-1292.510667	1104.109375	280.593567
29689.179202	-1292.510667	1102.968750	212.685760
29689.179202	-1292.510667	1101.828125	195.514999
29689.179202	-1292.510667	1100.686523	216.654984
29689.179202	-1292.510667	1099.544922	334.841675
29689.179202	-1292.510667	1098.403320	295.904724
29689.179202	-1292.510667	1097.261719	443.267120
29689.179202	-1292.510667	1096.120117	248.513901
29689.179202	-1292.510667	1094.977539	363.019836
29689.179202	-1292.510667	1093.834961	275.041168
29689.179202	-1292.510667	1092.691406	159.242142
29689.179202	-1292.510667	1091.548828	193.289597
29689.179202	-1292.510667	1090.405273	152.196579
29689.179202	-1292.510667	1089.261719	200.210129
29689.179202	-1292.510667	1088.118164	128.477356
29689.179202	-1292.510667	1086.973633	128.279587
29689.179202	-1292.510667	1085.829102	49.828381
29689.179202	-1292.510667	1084.684570	301.092133
29689.179202	-1292.510667	1083.540039	6.396149
29689.179202	-1292.510667	1082.395508	3.592666
29689.179202	-1292.510667	1081.250000	115.107887
29689.179202	-1292.510667	1080.104492	169.737518
29689.179202	-1292.510667	1078.958984	87.670692
29689.179202	-1292.510667	1077.812500	161.428741
29689.179202	-1292.510667	1076.666016	65.407600
29689.179202	-1292.510667	1075.519531	58.818851
29689.179202	-1292.510667	1074.373047	-34.161053
29689.179202	-1292.510667	1073.226563	212.142868
29689.179202	-1292.510667	1072.079102	248.945190
29689.179202	-1292.510667	1070.931641	258.279236
29689.179202	-1292.510667	1069.784180	113.094368
29689.179202	-1292.510667	1068.635742	70.340958
29689.179202	-1292.510667	1067.487305	143.626617
29689.179202	-1292.510667	1066.338867	179.481812
29689.179202	-1292.510667	1065.190430	235.308609
29689.179202	-1292.510667	1064.041992	187.158508
29689.179202	-1292.510667	1062.892578	253.419189
29689.179202	-1292.510667	1061.743164	106.307358
29689.179202	-1292.510667	1060.593750	234.920364
29689.179202	-1292.510667	1059.443359	225.492554
29689.179202	-1292.510667	1058.292969	121.220177
29689.179202	-1292.510667	1057.142578	159.796341
29689.179202	-1292.510667	1055.992188	132.209549
29689.179202	-1292.510667	1054.841797	109.848717
29689.179202	-1292.510667	1053.690430	59.332321
29689.179202	-1292.510667	1052.539063	194.573578
29689.179202	-1292.510667	1051.387695	160.097137
29689.179202	-1292.510667	1050.235352	146.725998
29689.179202	-1292.510667	1049.083984	28.246073
29689.179202	-1292.510667	1047.931641	93.468582
29689.179202	-1292.510667	1046.778320	85.463531
29689.179202	-1292.510667	1045.625977	148.960846
29689.179202	-1292.510667	1044.472656	164.865356
29689.179202	-1292.510667	1043.319336	142.020706
29689.179202	-1292.510667	1042.166016	153.587799
29689.179202	-1292.510667	1041.012695	163.473145
29689.179202	-1292.510667	1039.858398	118.196335
29689.179202	-1292.510667	1038.704102	202.918472
29689.179202	-1292.510667	1037.549805	188.164734
29689.179202	-1292.510667	1036.394531	20.232960
29689.179202	-1292.510667	1035.239258	189.419098
29689.179202	-1292.510667	1034.083984	-3.060728
29689.179202	-1292.510667	1032.928711	231.986633
29689.179202	-1292.510667	1031.773438	148.939423
29689.179202	-1292.510667	1030.617188	119.834579
29689.179202	-1292.510667	1029.460938	218.722137
29689.179202	-1292.510667	1028.304688	161.291336
29689.179202	-1292.510667	1027.147461	138.833008
29689.179202	-1292.510667	1025.991211	128.388489
29689.179202	-1292.510667	1024.833984	137.713852
29689.179202	-1292.510667	1023.675781	106.129684
29689.179202	-1292.510667	1022.518555	116.609581
29689.179202	-1292.510667	1021.360352	285.390472
29689.179202	-1292.510667	1020.202148	229.879486
29689.179202	-1292.510667	1019.043945	179.351837
29689.179202	-1292.510667	1017.884766	223.773499
29689.179202	-1292.510667	1016.726563	129.720810
29689.179202	-1292.510667	1015.567383	197.323563
29689.179202	-1292.510667	1014.407227	69.953117
29689.179202	-1292.510667	1013.248047	55.371025
29689.179202	-1292.510667	1012.087891	-39.744694
29689.179202	-1292.510667	1010.927734	-14.518475
29689.179202	-1292.510667	1009.767578	20.806849
29689.179202	-1292.510667	1008.606445	102.558403
29689.179202	-1292.510667	1007.446289	83.951538
29689.179202	-1292.510667	1006.285156	153.004425
29689.179202	-1292.510667	1005.123047	163.412643
29689.179202	-1292.510667	1003.961914	-58.148853
29689.179202	-1292.510667	1002.799805	29.062109
29689.179202	-1292.510667	1001.637695	60.607780
29689.179202	-1292.510667	1000.475586	15.397674
29689.179202	-1292.510667	999.312500	-95.873543
29689.179202	-1292.510667	998.149414	70.267570
29689.179202	-1292.510667	996.986328	-32.498981
29689.179202	-1292.510667	995.823242	75.537102
29689.179202	-1292.510667	994.659180	-13.809942
29689.179202	-1292.510667	993.496094	-12.437157
29689.179202	-1292.510667	992.332031	103.818268
29689.179202	-1292.510667	991.166992	-20.351486
29689.179202	-1292.510667	990.002930	76.693726
29689.179202	-1292.510667	988.837891	-124.300354
29689.179202	-1292.510667	987.672852	35.059269
29689.179202	-1292.510667	986.506836	15.255199
29689.179202	-1292.510667	985.341797	79.851028
29689.179202	-1292.510667	984.175781	-123.349991
29689.179202	-1292.510667	983.009766	-3.256085
29689.179202	-1292.510667	981.843750	78.802505
29689.179202	-1292.510667	980.676758	19.025124
29689.179202	-1292.510667	979.509766	13.851722
29689.179202	-1292.510667	978.342773	130.725983
29689.179202	-1292.510667	977.175781	205.970993
29689.179202	-1292.510667	976.007813	5.228905
29689.179202	-1292.510667	974.839844	77.483177
29689.179202	-1292.510667	973.671875	80.067627
29689.179202	-1292.510667	972.503906	-85.136574
29689.179202	-1292.510667	971.334961	27.162605
29689.179202	-1292.510667	970.166016	198.306564
29689.179202	-1292.510667	968.997070	41.000683
29689.179202	-1292.510667	967.828125	66.003593
29689.179202	-1292.510667	966.658203	139.408035
29689.179202	-1292.510667	965.488281	39.279102
29689.179202	-1292.510667	964.318359	85.092178
29689.179202	-1292.510667	963.148438	-116.367752
29689.179202	-1292.510667	961.977539	-31.191570
29689.179202	-1292.510667	960.806641	43.685337
29689.179202	-1292.510667	959.635742	204.280853
29689.179202	-1292.510667	958.463867	71.086586
29689.179202	-1292.510667	957.292969	-5.431087
29689.179202	-1292.510667	956.121094	-73.276535
29689.179202	-1292.510667	954.948242	-5.947043
29689.179202	-1292.510667	953.776367	-85.409798
29689.179202	-1292.510667	952.603516	-51.016884
29689.179202	-1292.510667	951.430664	-46.442898
29689.179202	-1292.510667	950.257813	21.466726
29689.179202	-1292.510667	949.084961	97.116570
29689.179202	-1292.510667	947.911133	68.143204
29689.179202	-1292.510667	946.737305	242.176712
29689.179202	-1292.510667	945.563477	131.871658
29689.179202	-1292.510667	944.388672	50.397301
29689.179202	-1292.510667	943.213867	80.645462
29689.179202	-1292.510667	942.039063	72.642273
29689.179202	-1292.510667	940.864258	39.868473
29689.179202	-1292.510667	939.688477	-213.514038
29689.179202	-1292.510667	938.513672	205.178528
29689.179202	-1292.510667	937.337891	186.874695
29689.179202	-1292.510667	936.161133	115.490738
29689.179202	-1292.510667	934.985352	58.328091
29689.179202	-1292.510667	933.808594	64.438812
29689.179202	-1292.510667	932.631836	172.651245
29689.179202	-1292.510667	931.454102	133.956345
29689.179202	-1292.510667	930.277344	60.414875
29689.179202	-1292.510667	929.099609	197.163315
29689.179202	-1292.510667	927.921875	203.214554
29689.179202	-1292.510667	926.743164	293.001465
29689.179202	-1292.510667	925.565430	129.733673
29689.179202	-1292.510667	924.386719	160.341141
29689.179202	-1292.510667	923.208008	-15.082705
29689.179202	-1292.510667	922.028320	13.501434
29689.179202	-1292.510667	920.849609	180.729462
29689.179202	-1292.510667	919.669922	184.284714
29689.179202	-1292.510667	919.474609	152.779678
29689.179202	-1292.510667	918.309570	26.377506
29689.179202	-1292.510667	917.143555	46.750214
29689.179202	-1292.510667	915.977539	-63.274399
29689.179202	-1292.510667	914.810547	-128.437347
29689.179202	-1292.510667	913.644531	-4.177478
29689.179202	-1292.510667	912.477539	75.242241
29689.179202	-1292.510667	911.310547	77.275063
29689.179202	-1292.510667	910.143555	69.133072
29689.179202	-1292.510667	908.975586	-91.615211
29689.179202	-1292.510667	907.807617	-59.022388
29689.179202	-1292.510667	906.639648	-191.197693
29689.179202	-1292.510667	905.471680	-40.641968
29689.179202	-1292.510667	904.303711	-42.635349
29689.179202	-1292.510667	903.134766	-119.835388
29689.179202	-1292.510667	901.965820	63.144718
29689.179202	-1292.510667	900.796875	2.217214
29689.179202	-1292.510667	899.626953	-68.836998
29689.179202	-1292.510667	898.457031	49.037834
29689.179202	-1292.510667	897.287109	-5.743641
29689.179202	-1292.510667	896.117188	6.501786
29689.179202	-1292.510667	894.947266	-147.706253
29689.179202	-1292.510667	893.776367	18.814987
29689.179202	-1292.510667	892.605469	16.859020
29689.179202	-1292.510667	891.434570	114.312637
29689.179202	-1292.510667	890.262695	-47.881634
29689.179202	-1292.510667	889.091797	-19.391811
29689.179202	-1292.510667	887.919922	228.054260
29689.179202	-1292.510667	886.748047	-0.941836
29689.179202	-1292.510667	885.575195	-77.842392
29689.179202	-1292.510667	884.403320	-12.877466
29689.179202	-1292.510667	883.230469	-41.116695
29689.179202	-1292.510667	882.057617	-105.795944
29689.179202	-1292.510667	880.883789	23.952581
29689.179202	-1292.510667	879.710938	-32.605625
29689.179202	-1292.510667	878.537109	-81.036774
29689.179202	-1292.510667	877.362305	-12.065930
29689.179202	-1292.510667	876.188477	71.041603
29689.179202	-1292.510667	875.013672	52.979866
29689.179202	-1292.510667	873.839844	28.859518
29689.179202	-1292.510667	872.664063	22.959185
29689.179202	-1292.510667	871.489258	134.316635
29689.179202	-1292.510667	870.313477	-4.993211
29689.179202	-1292.510667	869.138672	-119.994522
29689.179202	-1292.510667	867.962891	-32.902912
29689.179202	-1292.510667	866.786133	-48.857559
29689.179202	-1292.510667	865.610352	-127.409508
29689.179202	-1292.510667	864.433594	-34.294888
29689.179202	-1292.510667	863.256836	-23.981144
29689.179202	-1292.510667	862.079102	-25.774340
29689.179202	-1292.510667	860.902344	-88.101555
29689.179202	-1292.510667	859.724609	-77.766289
29689.179202	-1292.510667	858.546875	-101.720879
29689.179202	-1292.510667	857.368164	-2.642023
29689.179202	-1292.510667	856.190430	-34.658493
29689.179202	-1292.510667	855.011719	-88.828178
29689.179202	-1292.510667	853.833008	-9.954055
29689.179202	-1292.510667	852.654297	-90.293533
29689.179202	-1292.510667	851.474609	-146.417343
29689.179202	-1292.510667	850.294922	-63.536205
29689.179202	-1292.510667	849.115234	-24.988111
29689.179202	-1292.510667	847.935547	47.774673
29689.179202	-1292.510667	846.754883	-98.895256
29689.179202	-1292.510667	845.575195	8.072925
29689.179202	-1292.510667	844.393555	-110.349213
29689.179202	-1292.510667	843.212891	-29.565138
29689.179202	-1292.510667	842.032227	-63.453735
29689.179202	-1292.510667	840.850586	51.481606
29689.179202	-1292.510667	839.668945	-107.048981
29689.179202	-1292.510667	838.486328	52.078053
29689.179202	-1292.510667	837.304688	-106.382439
29689.179202	-1292.510667	836.122070	-57.823330
29689.179202	-1292.510667	834.939453	-49.457863
29689.179202	-1292.510667	833.756836	49.283604
29689.179202	-1292.510667	832.573242	-205.413864
29689.179202	-1292.510667	831.389648	-178.946640
29689.179202	-1292.510667	830.206055	-116.359840
29689.179202	-1292.510667	829.022461	136.841446
29689.179202	-1292.510667	827.838867	169.244431
29689.179202	-1292.510667	826.654297	15.088828
29689.179202	-1292.510667	825.469727	113.689667
29689.179202	-1292.510667	824.284180	13.750028
29689.179202	-1292.510667	823.099609	62.194130
29689.179202	-1292.510667	821.914063	-63.748405
29689.179202	-1292.510667	820.728516	-17.309437
29689.179202	-1292.510667	819.542969	-197.276810
29689.179202	-1292.510667	818.356445	45.467579
29689.179202	-1292.510667	817.169922	-56.336479
29689.179202	-1292.510667	815.983398	-80.013939
29689.179202	-1292.510667	814.796875	-23.612921
29689.179202	-1292.510667	813.609375	-9.262424
29689.179202	-1292.510667	812.422852	111.127274
29689.179202	-1292.510667	811.235352	41.417553
29689.179202	-1292.510667	810.046875	-118.268333
29689.179202	-1292.510667	808.859375	8.063136
29689.179202	-1292.510667	807.670898	16.384165
29689.179202	-1292.510667	806.482422	-47.260784
29689.179202	-1292.510667	805.293945	-62.920841
29689.179202	-1292.510667	804.104492	-128.526337
29689.179202	-1292.510667	802.915039	-42.289169
29689.179202	-1292.510667	801.725586	-31.986498
29689.179202	-1292.510667	800.536133	60.175789
29689.179202	-1292.510667	799.345703	46.488506
29689.179202	-1292.510667	798.155273	-15.102517
29689.179202	-1292.510667	796.964844	-24.789505
29689.179202	-1292.510667	795.774414	45.327595
29689.179202	-1292.510667	794.583008	57.564461
29689.179202	-1292.510667	793.392578	67.791641
29689.179202	-1292.510667	792.200195	0.250270
29689.179202	-1292.510667	791.008789	-51.325901
29689.179202	-1292.510667	789.816406	-84.948303
29689.179202	-1292.510667	788.625000	142.472900
29689.179202	-1292.510667	787.432617	144.667450
29689.179202	-1292.510667	786.239258	-82.207832
29689.179202	-1292.510667	785.046875	69.371513
29689.179202	-1292.510667	783.853516	-153.432236
29689.179202	-1292.510667	782.660156	17.987453
29689.179202	-1292.510667	781.465820	-55.466003
29689.179202	-1292.510667	780.272461	125.789024
29689.179202	-1292.510667	779.078125	-108.819145
29689.179202	-1292.510667	777.883789	48.483513
29689.179202	-1292.510667	776.688477	60.547638
29689.179202	-1292.510667	775.494141	-28.804359
29689.179202	-1292.510667	774.298828	-24.706751
29689.179202	-1292.510667	773.103516	-129.926498
29689.179202	-1292.510667	771.907227	-107.952393
29689.179202	-1292.510667	770.711914	100.724602
29689.179202	-1292.510667	769.515625	51.113651
29689.179202	-1292.510667	768.318359	108.736275
29689.179202	-1292.510667	767.122070	188.153809
29689.179202	-1292.510667	765.924805	45.223976
29689.179202	-1292.510667	764.727539	92.840508
29689.179202	-1292.510667	763.530273	82.884331
29689.179202	-1292.510667	762.333008	66.963898
29689.179202	-1292.510667	761.134766	148.210419
29689.179202	-1292.510667	759.936523	86.645592
29689.179202	-1292.510667	758.738281	58.787556
29689.179202	-1292.510667	757.540039	118.127068
29689.179202	-1292.510667	756.340820	104.107765
29689.179202	-1292.510667	755.141602	80.168892
29689.179202	-1292.510667	753.942383	105.736282
29689.179202	-1292.510667	752.742188	-48.931568
29689.179202	-1292.510667	751.541992	184.499176
29689.179202	-1292.510667	750.341797	184.233643
29689.179202	-1292.510667	749.141602	79.056046
29689.179202	-1292.510667	747.941406	195.506470
29689.179202	-1292.510667	746.740234	30.979038
29689.179202	-1292.510667	745.539063	62.300365
29689.179202	-1292.510667	744.337891	-74.495827
29689.179202	-1292.510667	743.135742	33.889820
29689.179202	-1292.510667	741.933594	31.516373
29689.179202	-1292.510667	740.731445	-40.047775
29689.179202	-1292.510667	739.529297	80.039703
29689.179202	-1292.510667	738.326172	65.728935
29689.179202	-1292.510667	737.124023	39.545509
29689.179202	-1292.510667	735.919922	98.253281
29689.179202	-1292.510667	734.716797	-125.390549
29689.179202	-1292.510667	733.513672	29.979181
29689.179202	-1292.510667	732.309570	25.421377
29689.179202	-1292.510667	731.105469	119.478714
29689.179202	-1292.510667	729.900391	118.791092
29689.179202	-1292.510667	728.696289	13.552901
29689.179202	-1292.510667	727.491211	30.570265
29689.179202	-1292.510667	726.286133	-114.090607
29689.179202	-1292.510667	725.080078	123.614891
29689.179202	-1292.510667	723.874023	43.955654
29689.179202	-1292.510667	722.668945	228.271484
29689.179202	-1292.510667	721.461914	-44.459316
29689.179202	-1292.510667	720.255859	-65.059692
29689.179202	-1292.510667	719.048828	65.908936
29689.179202	-1292.510667	717.841797	17.669710
29689.179202	-1292.510667	716.634766	-34.520481
29689.179202	-1292.510667	715.427734	161.181183
29689.179202	-1292.510667	714.219727	-15.014937
29689.179202	-1292.510667	713.011719	-100.706367
29689.179202	-1292.510667	711.803711	2.362794
29689.179202	-1292.510667	710.594727	-6.701653
29689.179202	-1292.510667	709.385742	52.990154
29689.179202	-1292.510667	708.176758	102.793259
29689.179202	-1292.510667	706.967773	46.446480
29689.179202	-1292.510667	705.758789	251.323929
29689.179202	-1292.510667	704.548828	71.172333
29689.179202	-1292.510667	703.338867	22.602457
29689.179202	-1292.510667	702.127930	125.162743
29689.179202	-1292.510667	700.917969	-60.859734
29689.179202	-1292.510667	699.707031	29.818848
29689.179202	-1292.510667	698.496094	163.574997
29689.179202	-1292.510667	697.285156	40.298920
29689.179202	-1292.510667	696.073242	32.726437
29689.179202	-1292.510667	694.861328	40.797638
29689.179202	-1292.510667	693.649414	42.940845
29689.179202	-1292.510667	692.436523	50.919106
29689.179202	-1292.510667	691.224609	98.033257
29689.179202	-1292.510667	690.011719	129.412781
29689.179202	-1292.510667	688.798828	4.057552
29689.179202	-1292.510667	687.584961	195.911621
29689.179202	-1292.510667	686.372070	-11.717487
29689.179202	-1292.510667	685.158203	313.055756
29689.179202	-1292.510667	683.943359	175.841721
29689.179202	-1292.510667	682.729492	163.845627
29689.179202	-1292.510667	681.514648	61.833176
29689.179202	-1292.510667	680.299805	-4.985519
29689.179202	-1292.510667	679.084961	147.151901
29689.179202	-1292.510667	677.869141	52.880169
29689.179202	-1292.510667	676.653320	-15.995258
29689.179202	-1292.510667	675.437500	-22.366297
29689.179202	-1292.510667	674.221680	190.007462
29689.179202	-1292.510667	673.004883	-5.954727
29689.179202	-1292.510667	671.789063	98.827118
29689.179202	-1292.510667	670.571289	103.948639
29689.179202	-1292.510667	669.354492	144.149551
29689.179202	-1292.510667	668.136719	114.029701
29689.179202	-1292.510667	666.919922	253.609863
29689.179202	-1292.510667	665.701172	67.325531
29689.179202	-1292.510667	664.483398	148.245071
29689.179202	-1292.510667	663.264648	86.742447
29689.179202	-1292.510667	662.045898	198.707672
29689.179202	-1292.510667	660.827148	96.184921
29689.179202	-1292.510667	659.608398	67.696442
29689.179202	-1292.510667	658.388672	265.151276
29689.179202	-1292.510667	657.168945	90.449898
29689.179202	-1292.510667	655.949219	61.817196
29689.179202	-1292.510667	654.728516	225.886230
29689.179202	-1292.510667	653.507813	148.463867
29689.179202	-1292.510667	652.287109	174.161255
29689.179202	-1292.510667	651.066406	156.987473
29689.179202	-1292.510667	649.844727	159.217056
29689.179202	-1292.510667	648.623047	138.051117
29689.179202	-1292.510667	647.401367	17.670662
29689.179202	-1292.510667	646.179688	37.255207
29689.179202	-1292.510667	644.957031	272.517120
29689.179202	-1292.510667	643.734375	161.730011
29689.179202	-1292.510667	642.511719	-5.409488
29689.179202	-1292.510667	641.289063	126.594116
29689.179202	-1292.510667	640.065430	56.516510
29689.179202	-1292.510667	638.841797	126.204750
29689.179202	-1292.510667	637.618164	127.864792
29689.179202	-1292.510667	636.393555	9.138914
29689.179202	-1292.510667	635.168945	105.783028
29689.179202	-1292.510667	633.944336	-22.704412
29689.179202	-1292.510667	632.719727	-34.823944
29689.179202	-1292.510667	631.494141	139.156403
29689.179202	-1292.510667	630.269531	-14.634255
29689.179202	-1292.510667	629.042969	147.520508
29689.179202	-1292.510667	627.817383	73.127831
29689.179202	-1292.510667	626.590820	114.954765
29689.179202	-1292.510667	625.365234	55.979450
29689.179202	-1292.510667	624.137695	142.216629
29689.179202	-1292.510667	622.911133	25.054398
29689.179202	-1292.510667	621.683594	-1.134084
29689.179202	-1292.510667	620.456055	21.014669
29689.179202	-1292.510667	619.228516	-5.279576
29689.179202	-1292.510667	618.000977	-27.753103
29689.179202	-1292.510667	616.772461	77.378838
29689.179202	-1292.510667	615.543945	-12.903333
29689.179202	-1292.510667	614.314453	113.328613
29689.179202	-1292.510667	613.085938	-67.889526
29689.179202	-1292.510667	611.856445	-9.456250
29689.179202	-1292.510667	610.626953	-47.712715
29689.179202	-1292.510667	609.397461	-28.060667
29689.179202	-1292.510667	608.166992	-16.201937
29689.179202	-1292.510667	606.936523	-25.646938
29689.179202	-1292.510667	605.706055	1.532686
29689.179202	-1292.510667	604.474609	-31.191664
29689.179202	-1292.510667	603.244141	51.821110
29689.179202	-1292.510667	602.012695	-65.903854
29689.179202	-1292.510667	600.780273	146.194046
29689.179202	-1292.510667	599.548828	101.663399
29689.179202	-1292.510667	598.316406	93.724937
29689.179202	-1292.510667	597.083984	64.527847
29689.179202	-1292.510667	595.851563	-45.656189
29689.179202	-1292.510667	594.618164	69.581451
29689.179202	-1292.510667	593.384766	99.952126
29689.179202	-1292.510667	592.151367	76.325699
29689.179202	-1292.510667	590.917969	170.112076
29689.179202	-1292.510667	589.683594	159.841309
29689.179202	-1292.510667	588.449219	-67.977669
29689.179202	-1292.510667	587.214844	-86.003273
29689.179202	-1292.510667	585.979492	-40.589844
29689.179202	-1292.510667	584.745117	-14.484488
29689.179202	-1292.510667	583.509766	103.861160
29689.179202	-1292.510667	582.273438	-20.161123
29689.179202	-1292.510667	581.038086	-9.622884
29689.179202	-1292.510667	579.801758	-110.615143
29689.179202	-1292.510667	578.565430	-134.760406
29689.179202	-1292.510667	577.329102	-85.949455
29689.179202	-1292.510667	576.091797	8.879599
29689.179202	-1292.510667	574.854492	-99.930260
29689.179202	-1292.510667	573.617188	-3.325475
29689.179202	-1292.510667	572.378906	-52.693466
29689.179202	-1292.510667	571.141602	24.563881
29689.179202	-1292.510667	569.903320	-42.161175
29689.179202	-1292.510667	568.664063	23.441668
29689.179202	-1292.510667	567.425781	37.187576
29689.179202	-1292.510667	566.186523	56.625813
29689.179202	-1292.510667	564.947266	-10.258677
29689.179202	-1292.510667	563.708008	3.329899
29689.179202	-1292.510667	562.467773	16.858824
29689.179202	-1292.510667	561.227539	-15.645325
29689.179202	-1292.510667	559.987305	-65.423363
29689.179202	-1292.510667	558.747070	-92.250290
29689.179202	-1292.510667	557.505859	-94.229759
29689.179202	-1292.510667	556.264648	-151.765686
29689.179202	-1292.510667	555.023438	-27.525154
29689.179202	-1292.510667	553.781250	-54.537693
29689.179202	-1292.510667	552.539063	-22.287680
29689.179202	-1292.510667	551.296875	19.464066
29689.179202	-1292.510667	550.054688	49.678398
29689.179202	-1292.510667	548.811523	91.299774
29689.179202	-1292.510667	547.569336	46.856010
29689.179202	-1292.510667	546.325195	10.021341
29689.179202	-1292.510667	545.082031	-114.717987
29689.179202	-1292.510667	543.837891	-166.872086
29689.179202	-1292.510667	542.593750	0.553970
29689.179202	-1292.510667	541.349609	-47.873032
29689.179202	-1292.510667	540.105469	-46.695156
29689.179202	-1292.510667	538.860352	-95.182579
29689.179202	-1292.510667	537.615234	-109.349068
29689.179202	-1292.510667	536.369141	-66.330101
29689.179202	-1292.510667	535.124023	119.667908
29689.179202	-1292.510667	533.877930	-49.111774
29689.179202	-1292.510667	532.631836	-44.385445
29689.179202	-1292.510667	531.384766	-175.026520
29689.179202	-1292.510667	530.138672	-82.704567
29689.179202	-1292.510667	528.891602	-15.232747
29689.179202	-1292.510667	527.643555	-83.067825
29689.179202	-1292.510667	526.396484	-51.886551
29689.179202	-1292.510667	525.148438	-96.917801
29689.179202	-1292.510667	523.900391	14.114470
29689.179202	-1292.510667	522.652344	-156.591171
29689.179202	-1292.510667	521.403320	-226.427002
29689.179202	-1292.510667	520.154297	-322.903015
29689.179202	-1292.510667	518.905273	-202.567307
29689.179202	-1292.510667	517.656250	-120.350243
29689.179202	-1292.510667	516.406250	-42.012424
29689.179202	-1292.510667	515.156250	-91.086273
29689.179202	-1292.510667	513.906250	-45.166771
29689.179202	-1292.510667	512.655273	-69.601059
29689.179202	-1292.510667	511.404297	-6.691054
29689.179202	-1292.510667	510.153320	-38.793022
29689.179202	-1292.510667	508.902344	-17.758368
29689.179202	-1292.510667	507.650391	-29.042797
29689.179202	-1292.510667	506.398438	37.448288
29689.179202	-1292.510667	505.146484	16.596827
29689.179202	-1292.510667	503.893555	109.528999
29689.179202	-1292.510667	502.641602	10.840308
29689.179202	-1292.510667	501.388672	-2.521246
29689.179202	-1292.510667	500.134766	-36.772030
29689.179202	-1292.510667	498.881836	63.526798
29689.179202	-1292.510667	497.627930	63.311783
29689.179202	-1292.510667	496.374023	13.804018
29689.179202	-1292.510667	495.119141	-35.724678
29689.179202	-1292.510667	493.865234	-53.071693
29689.179202	-1292.510667	492.610352	-19.334976
29689.179202	-1292.510667	491.355469	-29.186029
29689.179202	-1292.510667	490.099609	70.686287
29689.179202	-1292.510667	488.843750	75.875603
29689.179202	-1292.510667	487.587891	67.783493
29689.179202	-1292.510667	486.332031	103.154274
29689.179202	-1292.510667	485.075195	64.724625
29689.179202	-1292.510667	483.818359	-32.330803
29689.179202	-1292.510667	482.561523	86.075447
29689.179202	-1292.510667	481.304688	51.333538
29689.179202	-1292.510667	480.046875	82.682327
29689.179202	-1292.510667	478.789063	129.086441
29689.179202	-1292.510667	477.531250	84.786507
29689.179202	-1292.510667	476.272461	183.943024
29689.179202	-1292.510667	475.013672	115.021072
29689.179202	-1292.510667	473.754883	197.056046
29689.179202	-1292.510667	472.496094	137.505676
29689.179202	-1292.510667	471.236328	68.497925
29689.179202	-1292.510667	469.976563	46.621311
29689.179202	-1292.510667	468.716797	39.790443
29689.179202	-1292.510667	467.456055	127.163773
29689.179202	-1292.510667	466.196289	210.685989
29689.179202	-1292.510667	464.935547	254.544983
29689.179202	-1292.510667	463.673828	185.294128
29689.179202	-1292.510667	462.413086	61.404564
29689.179202	-1292.510667	461.151367	204.904556
29689.179202	-1292.510667	459.889648	344.521118
29689.179202	-1292.510667	458.626953	233.673264
29689.179202	-1292.510667	457.364258	226.315964
29689.179202	-1292.510667	456.101563	164.339294
29689.179202	-1292.510667	454.838867	136.185471
29689.179202	-1292.510667	453.575195	226.454193
29689.179202	-1292.510667	452.312500	45.870605
29689.179202	-1292.510667	451.047852	107.782722
29689.179202	-1292.510667	449.784180	276.730865
29689.179202	-1292.510667	448.519531	212.530762
29689.179202	-1292.510667	447.254883	336.144989
29689.179202	-1292.510667	445.990234	134.700790
29689.179202	-1292.510667	444.725586	57.199829
29689.179202	-1292.510667	443.459961	281.904785
29689.179202	-1292.510667	442.194336	314.976318
29689.179202	-1292.510667	440.927734	199.692429
29689.179202	-1292.510667	439.662109	178.184311
29689.179202	-1292.510667	438.395508	306.648834
29689.179202	-1292.510667	437.127930	275.551300
29689.179202	-1292.510667	435.861328	330.624023
29689.179202	-1292.510667	434.593750	190.613480
29689.179202	-1292.510667	433.326172	277.331024
29689.179202	-1292.510667	432.058594	362.030304
29689.179202	-1292.510667	430.790039	118.743256
29689.179202	-1292.510667	429.521484	34.646358
29689.179202	-1292.510667	428.252930	216.365952
29689.179202	-1292.510667	426.984375	392.269012
29689.179202	-1292.510667	425.714844	210.468185
29689.179202	-1292.510667	424.445313	270.014374
29689.179202	-1292.510667	423.174805	164.755630
29689.179202	-1292.510667	421.905273	46.319481
29689.179202	-1292.510667	420.634766	165.285629
29689.179202	-1292.510667	419.364258	308.359558
29689.179202	-1292.510667	418.092773	66.142860
29689.179202	-1292.510667	416.822266	207.001099
29689.179202	-1292.510667	415.550781	267.285553
29689.179202	-1292.510667	414.278320	172.320984
29689.179202	-1292.510667	413.006836	215.441544
29689.179202	-1292.510667	411.734375	62.297626
29689.179202	-1292.510667	410.461914	91.988579
29689.179202	-1292.510667	409.188477	99.073006
29689.179202	-1292.510667	407.916016	152.620407
29689.179202	-1292.510667	406.642578	166.758438
29689.179202	-1292.510667	405.368164	76.222321
29689.179202	-1292.510667	404.094727	224.219666
29689.179202	-1292.510667	402.820313	179.890381
29689.179202	-1292.510667	401.545898	204.323425
29689.179202	-1292.510667	400.270508	183.777283
29689.179202	-1292.510667	398.996094	131.336655
29689.179202	-1292.510667	397.720703	-38.694122
29689.179202	-1292.510667	396.444336	215.708908
29689.179202	-1292.510667	395.168945	151.351685
29689.179202	-1292.510667	393.892578	29.033432
29689.179202	-1292.510667	392.616211	176.361145
29689.179202	-1292.510667	391.339844	161.451813
29689.179202	-1292.510667	390.062500	185.311279
29689.179202	-1292.510667	388.785156	169.798477
29689.179202	-1292.510667	387.507813	252.537613
29689.179202	-1292.510667	386.229492	135.978012
29689.179202	-1292.510667	384.951172	292.374634
29689.179202	-1292.510667	383.672852	43.245064
29689.179202	-1292.510667	382.394531	66.991920
29689.179202	-1292.510667	381.115234	42.059196
29689.179202	-1292.510667	379.835938	109.624298
29689.179202	-1292.510667	378.556641	9.674597
29689.179202	-1292.510667	377.277344	109.860809
29689.179202	-1292.510667	375.997070	87.096001
29689.179202	-1292.510667	374.716797	82.483505
29689.179202	-1292.510667	373.435547	-93.237610
29689.179202	-1292.510667	372.155273	23.740751
29689.179202	-1292.510667	370.874023	192.124817
29689.179202	-1292.510667	369.591797	-192.504608
29689.179202	-1292.510667	368.310547	52.765270
29689.179202	-1292.510667	367.028320	39.845829
29689.179202	-1292.510667	365.746094	-75.465843
29689.179202	-1292.510667	364.463867	106.977837
29689.179202	-1292.510667	363.180664	242.500244
29689.179202	-1292.510667	361.897461	62.671154
29689.179202	-1292.510667	360.614258	10.088942
29689.179202	-1292.510667	359.330078	119.799911
29689.179202	-1292.510667	358.045898	53.102154
29689.179202	-1292.510667	356.761719	63.526722
29689.179202	-1292.510667	355.477539	-0.647605
29689.179202	-1292.510667	354.192383	-83.937180
29689.179202	-1292.510667	352.907227	-43.978981
29689.179202	-1292.510667	351.622070	4.538001
29689.179202	-1292.510667	350.336914	76.373657
29689.179202	-1292.510667	349.050781	16.286592
29689.179202	-1292.510667	347.764648	-11.245334
29689.179202	-1292.510667	346.477539	-13.671383
29689.179202	-1292.510667	345.191406	-120.215828
29689.179202	-1292.510667	343.904297	21.676521
29689.179202	-1292.510667	342.616211	96.252884
29689.179202	-1292.510667	341.329102	-31.097347
29689.179202	-1292.510667	340.041016	-89.154701
29689.179202	-1292.510667	338.752930	-212.588455
29689.179202	-1292.510667	337.463867	-14.199520
29689.179202	-1292.510667	336.175781	146.367874
29689.179202	-1292.510667	334.886719	-1.864947
29689.179202	-1292.510667	333.596680	-189.696793
29689.179202	-1292.510667	332.307617	-127.836433
29689.179202	-1292.510667	331.017578	-125.955475
29689.179202	-1292.510667	329.727539	-86.414818
29689.179202	-1292.510667	328.436523	-171.303619
29689.179202	-1292.510667	327.146484	-39.985638
29689.179202	-1292.510667	325.855469	-357.010376
29689.179202	-1292.510667	324.563477	-58.704525
29689.179202	-1292.510667	323.272461	48.917339
29689.179202	-1292.510667	321.980469	-19.409615
29689.179202	-1292.510667	320.688477	4.877830
29689.179202	-1292.510667	319.395508	37.093449
29689.179202	-1292.510667	318.103516	-80.767441
29689.179202	-1292.510667	316.810547	66.536919
29689.179202	-1292.510667	315.516602	144.468079
29689.179202	-1292.510667	314.223633	-28.696182
29689.179202	-1292.510667	312.929688	246.681885
29689.179202	-1292.510667	311.635742	140.543365
29689.179202	-1292.510667	310.340820	214.690521
29689.179202	-1292.510667	309.045898	285.518433
29689.179202	-1292.510667	307.750977	352.999115
29689.179202	-1292.510667	306.456055	248.354904
29689.179202	-1292.510667	305.160156	567.596252
29689.179202	-1292.510667	303.865234	314.984344
29689.179202	-1292.510667	302.568359	652.814880
29689.179202	-1292.510667	301.272461	589.395081
29689.179202	-1292.510667	299.975586	663.505737
29689.179202	-1292.510667	298.678711	580.157715
