#X		#Y		#Wave		#Intensity
12205.994681	-238.431667	1999.980469	150.637299
12205.994681	-238.431667	1999.016602	-138.700790
12205.994681	-238.431667	1998.052734	-93.924568
12205.994681	-238.431667	1997.087891	-54.240101
12205.994681	-238.431667	1996.123047	22.479366
12205.994681	-238.431667	1995.158203	47.038895
12205.994681	-238.431667	1994.193359	130.925095
12205.994681	-238.431667	1993.228516	-42.857944
12205.994681	-238.431667	1992.262695	-149.826828
12205.994681	-238.431667	1991.297852	69.898468
12205.994681	-238.431667	1990.332031	356.273621
12205.994681	-238.431667	1989.366211	271.286865
12205.994681	-238.431667	1988.399414	146.664063
12205.994681	-238.431667	1987.433594	54.163574
12205.994681	-238.431667	1986.466797	-142.249222
12205.994681	-238.431667	1985.500977	49.539635
12205.994681	-238.431667	1984.534180	-213.691437
12205.994681	-238.431667	1983.567383	-66.588951
12205.994681	-238.431667	1982.599609	-72.822464
12205.994681	-238.431667	1981.632813	281.620636
12205.994681	-238.431667	1980.665039	104.753311
12205.994681	-238.431667	1979.697266	451.509064
12205.994681	-238.431667	1978.729492	146.160355
12205.994681	-238.431667	1977.761719	23.578114
12205.994681	-238.431667	1976.792969	152.780533
12205.994681	-238.431667	1975.825195	-209.246948
12205.994681	-238.431667	1974.856445	67.919701
12205.994681	-238.431667	1973.887695	41.489269
12205.994681	-238.431667	1972.918945	143.299179
12205.994681	-238.431667	1971.949219	-189.015762
12205.994681	-238.431667	1970.980469	6.431307
12205.994681	-238.431667	1970.010742	26.740465
12205.994681	-238.431667	1969.041016	-145.241959
12205.994681	-238.431667	1968.071289	62.326992
12205.994681	-238.431667	1967.101563	198.341949
12205.994681	-238.431667	1966.130859	127.354164
12205.994681	-238.431667	1965.161133	39.134212
12205.994681	-238.431667	1964.190430	-199.286850
12205.994681	-238.431667	1963.219727	-19.081491
12205.994681	-238.431667	1962.249023	60.117287
12205.994681	-238.431667	1961.277344	13.752939
12205.994681	-238.431667	1960.306641	95.354668
12205.994681	-238.431667	1959.334961	98.186501
12205.994681	-238.431667	1958.363281	-4.761159
12205.994681	-238.431667	1957.391602	-11.762247
12205.994681	-238.431667	1956.419922	62.377998
12205.994681	-238.431667	1955.447266	-47.895370
12205.994681	-238.431667	1954.474609	11.469370
12205.994681	-238.431667	1953.501953	-5.372238
12205.994681	-238.431667	1952.529297	191.557556
12205.994681	-238.431667	1951.556641	-53.771366
12205.994681	-238.431667	1950.583984	-43.568859
12205.994681	-238.431667	1949.610352	-80.024940
12205.994681	-238.431667	1948.636719	-204.850876
12205.994681	-238.431667	1947.663086	85.229637
12205.994681	-238.431667	1946.689453	88.055389
12205.994681	-238.431667	1945.715820	-85.789780
12205.994681	-238.431667	1944.741211	12.763682
12205.994681	-238.431667	1943.767578	-33.432713
12205.994681	-238.431667	1942.792969	138.666489
12205.994681	-238.431667	1941.818359	-184.596649
12205.994681	-238.431667	1940.842773	-108.124405
12205.994681	-238.431667	1939.868164	100.692284
12205.994681	-238.431667	1938.892578	79.080429
12205.994681	-238.431667	1937.916992	194.699249
12205.994681	-238.431667	1936.941406	-32.674438
12205.994681	-238.431667	1935.965820	53.557404
12205.994681	-238.431667	1934.990234	19.778931
12205.994681	-238.431667	1934.013672	66.821083
12205.994681	-238.431667	1933.037109	-162.753860
12205.994681	-238.431667	1932.060547	94.816032
12205.994681	-238.431667	1931.083984	261.765350
12205.994681	-238.431667	1930.107422	17.647997
12205.994681	-238.431667	1929.129883	-148.089981
12205.994681	-238.431667	1928.153320	26.193827
12205.994681	-238.431667	1927.175781	-249.486542
12205.994681	-238.431667	1926.198242	20.124166
12205.994681	-238.431667	1925.219727	-89.212616
12205.994681	-238.431667	1924.242188	111.872787
12205.994681	-238.431667	1923.263672	-278.395630
12205.994681	-238.431667	1922.285156	-50.450310
12205.994681	-238.431667	1921.306641	79.728142
12205.994681	-238.431667	1920.328125	-58.745209
12205.994681	-238.431667	1919.349609	37.233936
12205.994681	-238.431667	1918.370117	-91.388527
12205.994681	-238.431667	1917.391602	-85.713097
12205.994681	-238.431667	1916.412109	76.144402
12205.994681	-238.431667	1915.431641	91.570419
12205.994681	-238.431667	1914.452148	94.809013
12205.994681	-238.431667	1913.472656	-114.115906
12205.994681	-238.431667	1912.492188	-213.226288
12205.994681	-238.431667	1911.511719	26.580099
12205.994681	-238.431667	1910.531250	-48.121017
12205.994681	-238.431667	1909.550781	40.495090
12205.994681	-238.431667	1908.569336	2.387873
12205.994681	-238.431667	1907.588867	108.035400
12205.994681	-238.431667	1906.607422	1.752517
12205.994681	-238.431667	1905.625977	-201.887085
12205.994681	-238.431667	1904.644531	25.501766
12205.994681	-238.431667	1903.662109	-168.313934
12205.994681	-238.431667	1902.680664	-43.220589
12205.994681	-238.431667	1901.698242	-52.002956
12205.994681	-238.431667	1900.715820	65.734764
12205.994681	-238.431667	1899.733398	-54.943653
12205.994681	-238.431667	1898.750000	-70.998810
12205.994681	-238.431667	1897.767578	-99.200089
12205.994681	-238.431667	1896.784180	-66.612541
12205.994681	-238.431667	1895.800781	-38.895195
12205.994681	-238.431667	1894.817383	175.936554
12205.994681	-238.431667	1893.833984	103.983467
12205.994681	-238.431667	1892.850586	175.382462
12205.994681	-238.431667	1891.866211	37.877903
12205.994681	-238.431667	1890.881836	92.261871
12205.994681	-238.431667	1889.897461	-108.304367
12205.994681	-238.431667	1888.913086	-250.541397
12205.994681	-238.431667	1887.927734	170.330261
12205.994681	-238.431667	1886.943359	311.990234
12205.994681	-238.431667	1885.958008	135.774719
12205.994681	-238.431667	1884.972656	289.502045
12205.994681	-238.431667	1883.987305	4.210360
12205.994681	-238.431667	1883.001953	-65.183281
12205.994681	-238.431667	1882.015625	-81.228615
12205.994681	-238.431667	1881.029297	-121.515511
12205.994681	-238.431667	1880.042969	143.542007
12205.994681	-238.431667	1879.056641	141.970291
12205.994681	-238.431667	1878.070313	167.033051
12205.994681	-238.431667	1877.083984	112.146263
12205.994681	-238.431667	1876.096680	-46.862961
12205.994681	-238.431667	1875.109375	77.437988
12205.994681	-238.431667	1874.122070	95.168228
12205.994681	-238.431667	1873.134766	45.107986
12205.994681	-238.431667	1872.146484	57.959270
12205.994681	-238.431667	1871.159180	-25.984802
12205.994681	-238.431667	1870.170898	-42.193272
12205.994681	-238.431667	1869.182617	-80.182678
12205.994681	-238.431667	1868.194336	-224.569305
12205.994681	-238.431667	1867.205078	78.299881
12205.994681	-238.431667	1866.216797	-5.688044
12205.994681	-238.431667	1865.227539	132.649963
12205.994681	-238.431667	1864.238281	-21.438866
12205.994681	-238.431667	1863.249023	-105.445839
12205.994681	-238.431667	1862.259766	170.411194
12205.994681	-238.431667	1861.269531	-92.351639
12205.994681	-238.431667	1860.279297	86.763962
12205.994681	-238.431667	1859.290039	-216.983856
12205.994681	-238.431667	1858.298828	-21.087702
12205.994681	-238.431667	1857.308594	-271.687958
12205.994681	-238.431667	1856.318359	-3.551736
12205.994681	-238.431667	1855.327148	20.831997
12205.994681	-238.431667	1854.335938	90.987099
12205.994681	-238.431667	1853.344727	-5.289638
12205.994681	-238.431667	1852.353516	-296.833282
12205.994681	-238.431667	1851.362305	-164.115555
12205.994681	-238.431667	1850.370117	-137.521149
12205.994681	-238.431667	1849.377930	76.943718
12205.994681	-238.431667	1848.385742	156.388351
12205.994681	-238.431667	1847.393555	-48.433441
12205.994681	-238.431667	1846.401367	-2.800041
12205.994681	-238.431667	1845.408203	141.472046
12205.994681	-238.431667	1844.415039	138.811386
12205.994681	-238.431667	1843.421875	-92.522308
12205.994681	-238.431667	1842.428711	-42.305481
12205.994681	-238.431667	1841.435547	-1.783308
12205.994681	-238.431667	1840.441406	173.359314
12205.994681	-238.431667	1839.448242	156.002731
12205.994681	-238.431667	1838.454102	-123.474823
12205.994681	-238.431667	1837.459961	246.135880
12205.994681	-238.431667	1836.464844	231.003281
12205.994681	-238.431667	1835.470703	119.700516
12205.994681	-238.431667	1834.475586	164.540009
12205.994681	-238.431667	1833.480469	-64.532455
12205.994681	-238.431667	1832.485352	-149.484650
12205.994681	-238.431667	1831.490234	-73.591988
12205.994681	-238.431667	1830.495117	33.416061
12205.994681	-238.431667	1829.499023	-68.504379
12205.994681	-238.431667	1828.502930	-33.664997
12205.994681	-238.431667	1827.506836	-37.296249
12205.994681	-238.431667	1826.510742	26.175150
12205.994681	-238.431667	1825.513672	111.135765
12205.994681	-238.431667	1824.517578	164.822296
12205.994681	-238.431667	1823.520508	21.818335
12205.994681	-238.431667	1822.523438	-20.527233
12205.994681	-238.431667	1821.526367	327.718292
12205.994681	-238.431667	1820.529297	62.340145
12205.994681	-238.431667	1819.531250	-68.856514
12205.994681	-238.431667	1818.533203	5.913056
12205.994681	-238.431667	1817.535156	142.841354
12205.994681	-238.431667	1816.537109	80.908974
12205.994681	-238.431667	1815.539063	-14.592937
12205.994681	-238.431667	1814.540039	4.742990
12205.994681	-238.431667	1813.541992	119.714691
12205.994681	-238.431667	1812.542969	45.546864
12205.994681	-238.431667	1811.543945	-181.770096
12205.994681	-238.431667	1810.543945	33.366253
12205.994681	-238.431667	1809.544922	202.908783
12205.994681	-238.431667	1808.544922	-158.447693
12205.994681	-238.431667	1807.544922	10.892096
12205.994681	-238.431667	1806.544922	101.217438
12205.994681	-238.431667	1805.544922	122.128189
12205.994681	-238.431667	1804.544922	-100.727928
12205.994681	-238.431667	1803.543945	187.542007
12205.994681	-238.431667	1802.542969	222.481979
12205.994681	-238.431667	1801.541992	44.823711
12205.994681	-238.431667	1800.541016	136.886856
12205.994681	-238.431667	1799.539063	-95.769936
12205.994681	-238.431667	1798.538086	8.032799
12205.994681	-238.431667	1797.536133	214.285049
12205.994681	-238.431667	1796.534180	246.236435
12205.994681	-238.431667	1795.532227	-22.411503
12205.994681	-238.431667	1794.529297	147.673935
12205.994681	-238.431667	1793.527344	7.688796
12205.994681	-238.431667	1792.524414	79.788239
12205.994681	-238.431667	1791.521484	-193.782471
12205.994681	-238.431667	1790.518555	-55.153770
12205.994681	-238.431667	1789.514648	233.394348
12205.994681	-238.431667	1788.511719	-102.270180
12205.994681	-238.431667	1787.507813	88.346786
12205.994681	-238.431667	1786.503906	-90.234543
12205.994681	-238.431667	1785.500000	57.259777
12205.994681	-238.431667	1784.496094	47.524601
12205.994681	-238.431667	1783.491211	163.794098
12205.994681	-238.431667	1782.486328	11.091811
12205.994681	-238.431667	1781.481445	48.627312
12205.994681	-238.431667	1780.476563	171.658005
12205.994681	-238.431667	1779.471680	123.347572
12205.994681	-238.431667	1778.465820	-150.890549
12205.994681	-238.431667	1777.460938	252.252289
12205.994681	-238.431667	1776.455078	-5.481707
12205.994681	-238.431667	1775.449219	-70.779114
12205.994681	-238.431667	1774.442383	-26.896755
12205.994681	-238.431667	1773.436523	249.614517
12205.994681	-238.431667	1772.429688	134.116302
12205.994681	-238.431667	1771.422852	-178.491608
12205.994681	-238.431667	1770.416016	-13.994605
12205.994681	-238.431667	1769.409180	223.898087
12205.994681	-238.431667	1768.402344	58.237022
12205.994681	-238.431667	1767.394531	-0.727398
12205.994681	-238.431667	1766.386719	267.528259
12205.994681	-238.431667	1765.378906	258.128784
12205.994681	-238.431667	1764.371094	243.880722
12205.994681	-238.431667	1763.362305	-57.301865
12205.994681	-238.431667	1762.354492	-36.152000
12205.994681	-238.431667	1761.345703	-117.019119
12205.994681	-238.431667	1760.336914	-133.999207
12205.994681	-238.431667	1759.328125	-58.706615
12205.994681	-238.431667	1758.318359	120.638557
12205.994681	-238.431667	1757.308594	112.756088
12205.994681	-238.431667	1756.299805	-169.831055
12205.994681	-238.431667	1755.290039	94.308762
12205.994681	-238.431667	1754.279297	291.969177
12205.994681	-238.431667	1753.269531	2.070534
12205.994681	-238.431667	1752.258789	-197.947327
12205.994681	-238.431667	1751.249023	8.794359
12205.994681	-238.431667	1750.238281	14.346428
12205.994681	-238.431667	1749.226563	-79.515961
12205.994681	-238.431667	1748.215820	143.289719
12205.994681	-238.431667	1747.204102	-102.029991
12205.994681	-238.431667	1746.193359	108.660599
12205.994681	-238.431667	1745.181641	-226.548584
12205.994681	-238.431667	1744.168945	-39.775833
12205.994681	-238.431667	1743.157227	-245.170944
12205.994681	-238.431667	1742.144531	-79.935532
12205.994681	-238.431667	1741.132813	163.035919
12205.994681	-238.431667	1740.120117	-196.025955
12205.994681	-238.431667	1739.106445	133.937332
12205.994681	-238.431667	1738.093750	-15.233625
12205.994681	-238.431667	1737.080078	137.447067
12205.994681	-238.431667	1736.067383	18.769648
12205.994681	-238.431667	1735.053711	239.543854
12205.994681	-238.431667	1734.040039	94.732407
12205.994681	-238.431667	1733.025391	-184.488510
12205.994681	-238.431667	1732.011719	-48.960629
12205.994681	-238.431667	1730.997070	-3.132740
12205.994681	-238.431667	1729.982422	63.768875
12205.994681	-238.431667	1728.967773	-72.001488
12205.994681	-238.431667	1727.952148	67.655754
12205.994681	-238.431667	1726.937500	-42.381302
12205.994681	-238.431667	1725.921875	-350.212769
12205.994681	-238.431667	1724.906250	-135.593628
12205.994681	-238.431667	1723.890625	-170.568359
12205.994681	-238.431667	1722.875000	-243.273209
12205.994681	-238.431667	1721.858398	10.855762
12205.994681	-238.431667	1720.841797	-261.957489
12205.994681	-238.431667	1719.825195	45.943836
12205.994681	-238.431667	1718.808594	52.745777
12205.994681	-238.431667	1717.791992	191.050446
12205.994681	-238.431667	1716.774414	150.606964
12205.994681	-238.431667	1715.756836	-80.213707
12205.994681	-238.431667	1714.739258	-181.864090
12205.994681	-238.431667	1713.721680	-13.511572
12205.994681	-238.431667	1712.704102	-84.813721
12205.994681	-238.431667	1711.685547	158.359039
12205.994681	-238.431667	1710.667969	119.710281
12205.994681	-238.431667	1709.649414	109.123497
12205.994681	-238.431667	1708.630859	110.171562
12205.994681	-238.431667	1707.611328	122.837288
12205.994681	-238.431667	1706.592773	-26.407415
12205.994681	-238.431667	1705.573242	-229.632828
12205.994681	-238.431667	1704.553711	-214.855530
12205.994681	-238.431667	1703.534180	-326.746613
12205.994681	-238.431667	1702.513672	-89.534607
12205.994681	-238.431667	1701.494141	49.100994
12205.994681	-238.431667	1700.473633	-334.805420
12205.994681	-238.431667	1699.453125	159.620743
12205.994681	-238.431667	1698.432617	316.569702
12205.994681	-238.431667	1697.412109	75.370430
12205.994681	-238.431667	1696.390625	77.592834
12205.994681	-238.431667	1695.369141	-170.683060
12205.994681	-238.431667	1694.347656	9.233043
12205.994681	-238.431667	1693.326172	95.420151
12205.994681	-238.431667	1692.304688	-117.896255
12205.994681	-238.431667	1691.282227	52.277256
12205.994681	-238.431667	1690.260742	208.288452
12205.994681	-238.431667	1689.238281	-112.726341
12205.994681	-238.431667	1688.214844	-52.766422
12205.994681	-238.431667	1687.192383	114.592628
12205.994681	-238.431667	1686.168945	-49.954681
12205.994681	-238.431667	1685.146484	509.586700
12205.994681	-238.431667	1684.123047	-70.825325
12205.994681	-238.431667	1683.099609	168.452820
12205.994681	-238.431667	1682.075195	62.046867
12205.994681	-238.431667	1681.051758	67.653603
12205.994681	-238.431667	1680.027344	136.169907
12205.994681	-238.431667	1679.002930	24.936934
12205.994681	-238.431667	1677.978516	214.582672
12205.994681	-238.431667	1676.953125	285.125153
12205.994681	-238.431667	1675.928711	327.603668
12205.994681	-238.431667	1674.903320	379.303192
12205.994681	-238.431667	1673.877930	705.950012
12205.994681	-238.431667	1672.852539	487.092102
12205.994681	-238.431667	1671.826172	522.196472
12205.994681	-238.431667	1670.800781	461.726837
12205.994681	-238.431667	1669.774414	263.786041
12205.994681	-238.431667	1668.748047	482.674896
12205.994681	-238.431667	1667.721680	463.943420
12205.994681	-238.431667	1666.694336	470.743927
12205.994681	-238.431667	1665.667969	540.333740
12205.994681	-238.431667	1664.640625	612.145203
12205.994681	-238.431667	1663.613281	730.397461
12205.994681	-238.431667	1662.585938	415.927734
12205.994681	-238.431667	1661.557617	817.743469
12205.994681	-238.431667	1660.530273	779.940552
12205.994681	-238.431667	1659.501953	595.634460
12205.994681	-238.431667	1658.473633	950.534851
12205.994681	-238.431667	1657.444336	1079.834717
12205.994681	-238.431667	1656.416016	888.450500
12205.994681	-238.431667	1655.386719	936.315857
12205.994681	-238.431667	1654.358398	1121.146240
12205.994681	-238.431667	1653.328125	1131.683838
12205.994681	-238.431667	1652.298828	1378.970215
12205.994681	-238.431667	1651.269531	1714.313477
12205.994681	-238.431667	1650.239258	1478.621338
12205.994681	-238.431667	1649.208984	1681.467041
12205.994681	-238.431667	1648.178711	1854.037598
12205.994681	-238.431667	1647.148438	1632.246338
12205.994681	-238.431667	1646.117188	1760.608276
12205.994681	-238.431667	1645.086914	1654.755371
12205.994681	-238.431667	1644.055664	1903.515259
12205.994681	-238.431667	1643.024414	2094.209473
12205.994681	-238.431667	1641.992188	1976.628540
12205.994681	-238.431667	1640.960938	2257.510010
12205.994681	-238.431667	1639.928711	2369.165527
12205.994681	-238.431667	1638.896484	2151.936523
12205.994681	-238.431667	1637.864258	2379.265869
12205.994681	-238.431667	1636.832031	2030.127319
12205.994681	-238.431667	1635.798828	2558.168701
12205.994681	-238.431667	1634.766602	2172.061523
12205.994681	-238.431667	1633.733398	2098.359619
12205.994681	-238.431667	1632.699219	2436.337646
12205.994681	-238.431667	1631.666016	2538.315918
12205.994681	-238.431667	1630.632813	2621.739014
12205.994681	-238.431667	1629.598633	2679.666260
12205.994681	-238.431667	1628.564453	2591.957275
12205.994681	-238.431667	1627.530273	2781.542725
12205.994681	-238.431667	1626.495117	2897.097656
12205.994681	-238.431667	1625.460938	3056.499023
12205.994681	-238.431667	1624.425781	3061.085449
12205.994681	-238.431667	1623.390625	2982.544434
12205.994681	-238.431667	1622.355469	3483.430176
12205.994681	-238.431667	1621.319336	3210.938721
12205.994681	-238.431667	1620.284180	3125.470703
12205.994681	-238.431667	1619.248047	3296.095459
12205.994681	-238.431667	1618.211914	3496.638672
12205.994681	-238.431667	1617.174805	3367.304688
12205.994681	-238.431667	1616.138672	3302.599609
12205.994681	-238.431667	1615.101563	3542.195801
12205.994681	-238.431667	1614.065430	3604.251953
12205.994681	-238.431667	1613.027344	3769.946045
12205.994681	-238.431667	1611.990234	3758.200439
12205.994681	-238.431667	1610.953125	3767.199707
12205.994681	-238.431667	1609.915039	3900.547119
12205.994681	-238.431667	1608.876953	4167.399902
12205.994681	-238.431667	1607.838867	4441.066895
12205.994681	-238.431667	1606.800781	4417.728516
12205.994681	-238.431667	1605.761719	4507.155762
12205.994681	-238.431667	1604.723633	4463.137695
12205.994681	-238.431667	1603.684570	4766.482422
12205.994681	-238.431667	1602.644531	4628.138184
12205.994681	-238.431667	1601.605469	4409.405273
12205.994681	-238.431667	1600.566406	4397.687988
12205.994681	-238.431667	1599.526367	4583.653320
12205.994681	-238.431667	1598.486328	4650.070801
12205.994681	-238.431667	1597.446289	4790.011719
12205.994681	-238.431667	1596.405273	4617.495117
12205.994681	-238.431667	1595.365234	4378.487793
12205.994681	-238.431667	1594.324219	4529.951660
12205.994681	-238.431667	1593.283203	4649.248047
12205.994681	-238.431667	1592.242188	4410.451660
12205.994681	-238.431667	1591.200195	4695.010742
12205.994681	-238.431667	1590.159180	4587.157227
12205.994681	-238.431667	1589.117188	4449.544922
12205.994681	-238.431667	1588.075195	4580.373535
12205.994681	-238.431667	1587.032227	4378.670410
12205.994681	-238.431667	1585.990234	4612.716797
12205.994681	-238.431667	1584.947266	4374.496582
12205.994681	-238.431667	1583.904297	4241.838379
12205.994681	-238.431667	1582.861328	4402.569336
12205.994681	-238.431667	1581.818359	3967.656250
12205.994681	-238.431667	1580.775391	4068.924561
12205.994681	-238.431667	1579.731445	3989.279053
12205.994681	-238.431667	1578.687500	3909.716309
12205.994681	-238.431667	1577.643555	3805.060059
12205.994681	-238.431667	1576.598633	3844.666016
12205.994681	-238.431667	1575.554688	3479.321045
12205.994681	-238.431667	1574.509766	3583.149414
12205.994681	-238.431667	1573.464844	3590.931152
12205.994681	-238.431667	1572.419922	3445.550049
12205.994681	-238.431667	1571.374023	3359.719971
12205.994681	-238.431667	1570.329102	3184.851563
12205.994681	-238.431667	1569.283203	3204.369385
12205.994681	-238.431667	1568.237305	3223.944824
12205.994681	-238.431667	1567.191406	2704.415283
12205.994681	-238.431667	1566.144531	3160.479248
12205.994681	-238.431667	1565.098633	3063.792969
12205.994681	-238.431667	1564.051758	3081.364990
12205.994681	-238.431667	1563.004883	3089.872803
12205.994681	-238.431667	1561.957031	2872.481934
12205.994681	-238.431667	1560.910156	2730.572266
12205.994681	-238.431667	1559.862305	2860.276611
12205.994681	-238.431667	1558.814453	2990.007813
12205.994681	-238.431667	1557.766602	2825.576416
12205.994681	-238.431667	1556.718750	2549.567139
12205.994681	-238.431667	1555.669922	2857.329590
12205.994681	-238.431667	1554.621094	2437.984131
12205.994681	-238.431667	1553.573242	2688.864990
12205.994681	-238.431667	1552.523438	2461.255127
12205.994681	-238.431667	1551.474609	2703.083252
12205.994681	-238.431667	1550.424805	2906.176514
12205.994681	-238.431667	1549.375000	2612.896484
12205.994681	-238.431667	1548.325195	2440.483154
12205.994681	-238.431667	1547.275391	2459.423828
12205.994681	-238.431667	1546.225586	2378.322998
12205.994681	-238.431667	1545.174805	2497.555176
12205.994681	-238.431667	1544.124023	2557.693848
12205.994681	-238.431667	1543.073242	2492.822510
12205.994681	-238.431667	1542.022461	2505.389404
12205.994681	-238.431667	1540.970703	2531.679443
12205.994681	-238.431667	1539.919922	2419.425781
12205.994681	-238.431667	1538.868164	2623.184570
12205.994681	-238.431667	1537.815430	2318.016113
12205.994681	-238.431667	1536.763672	2090.323242
12205.994681	-238.431667	1535.710938	2285.250244
12205.994681	-238.431667	1534.659180	2455.246582
12205.994681	-238.431667	1533.606445	2430.029785
12205.994681	-238.431667	1532.552734	2536.573486
12205.994681	-238.431667	1531.500000	2191.594238
12205.994681	-238.431667	1530.446289	2373.243408
12205.994681	-238.431667	1529.393555	2629.808838
12205.994681	-238.431667	1528.338867	2446.367920
12205.994681	-238.431667	1527.285156	2632.746094
12205.994681	-238.431667	1526.231445	2365.742188
12205.994681	-238.431667	1525.176758	2404.955078
12205.994681	-238.431667	1524.122070	2557.585449
12205.994681	-238.431667	1523.067383	2236.727783
12205.994681	-238.431667	1522.012695	2244.596436
12205.994681	-238.431667	1520.957031	2132.536133
12205.994681	-238.431667	1519.901367	1993.471680
12205.994681	-238.431667	1518.845703	1990.427734
12205.994681	-238.431667	1517.790039	1826.803589
12205.994681	-238.431667	1516.734375	1581.901123
12205.994681	-238.431667	1515.677734	1753.542236
12205.994681	-238.431667	1514.621094	1377.795898
12205.994681	-238.431667	1513.564453	1235.289917
12205.994681	-238.431667	1512.507813	1267.095459
12205.994681	-238.431667	1511.450195	1118.142700
12205.994681	-238.431667	1510.393555	994.259949
12205.994681	-238.431667	1509.335938	915.751770
12205.994681	-238.431667	1508.278320	710.879395
12205.994681	-238.431667	1507.219727	503.958069
12205.994681	-238.431667	1506.162109	545.717529
12205.994681	-238.431667	1505.103516	271.445648
12205.994681	-238.431667	1504.044922	575.401184
12205.994681	-238.431667	1502.986328	994.501099
12205.994681	-238.431667	1501.926758	790.684143
12205.994681	-238.431667	1500.868164	539.717773
12205.994681	-238.431667	1499.808594	649.936096
12205.994681	-238.431667	1498.749023	536.964355
12205.994681	-238.431667	1497.688477	645.169617
12205.994681	-238.431667	1496.628906	476.173645
12205.994681	-238.431667	1495.568359	492.225677
12205.994681	-238.431667	1494.507813	609.835083
12205.994681	-238.431667	1493.447266	493.213501
12205.994681	-238.431667	1492.386719	478.164398
12205.994681	-238.431667	1491.325195	535.340881
12205.994681	-238.431667	1490.263672	288.640381
12205.994681	-238.431667	1489.202148	573.536194
12205.994681	-238.431667	1488.140625	723.413757
12205.994681	-238.431667	1487.079102	439.027679
12205.994681	-238.431667	1486.016602	393.416443
12205.994681	-238.431667	1484.954102	595.443481
12205.994681	-238.431667	1483.891602	700.830139
12205.994681	-238.431667	1482.829102	376.821136
12205.994681	-238.431667	1481.765625	336.389160
12205.994681	-238.431667	1480.702148	365.812958
12205.994681	-238.431667	1479.638672	172.913483
12205.994681	-238.431667	1478.575195	-84.894714
12205.994681	-238.431667	1477.511719	138.244385
12205.994681	-238.431667	1476.447266	233.519028
12205.994681	-238.431667	1475.382813	292.964966
12205.994681	-238.431667	1474.318359	98.860062
12205.994681	-238.431667	1473.253906	102.552429
12205.994681	-238.431667	1472.189453	180.476151
12205.994681	-238.431667	1471.124023	247.128738
12205.994681	-238.431667	1470.058594	45.076405
12205.994681	-238.431667	1468.993164	109.870338
12205.994681	-238.431667	1467.927734	410.065643
12205.994681	-238.431667	1466.861328	163.859665
12205.994681	-238.431667	1465.794922	157.212418
12205.994681	-238.431667	1464.728516	149.587173
12205.994681	-238.431667	1463.662109	373.591705
12205.994681	-238.431667	1462.594727	481.603638
12205.994681	-238.431667	1461.528320	596.624817
12205.994681	-238.431667	1460.460938	79.562538
12205.994681	-238.431667	1459.393555	461.328949
12205.994681	-238.431667	1458.326172	340.207550
12205.994681	-238.431667	1457.257813	-57.812008
12205.994681	-238.431667	1456.189453	96.472878
12205.994681	-238.431667	1455.121094	79.662086
12205.994681	-238.431667	1454.052734	187.296875
12205.994681	-238.431667	1452.984375	236.383316
12205.994681	-238.431667	1451.915039	69.562187
12205.994681	-238.431667	1450.845703	-25.662022
12205.994681	-238.431667	1449.776367	154.535095
12205.994681	-238.431667	1448.707031	-17.246698
12205.994681	-238.431667	1447.636719	50.825390
12205.994681	-238.431667	1446.567383	59.543442
12205.994681	-238.431667	1445.497070	-36.081303
12205.994681	-238.431667	1444.425781	-36.702541
12205.994681	-238.431667	1443.355469	2.566500
12205.994681	-238.431667	1442.285156	117.293236
12205.994681	-238.431667	1441.213867	-98.739456
12205.994681	-238.431667	1440.142578	19.994585
12205.994681	-238.431667	1439.070313	162.858627
12205.994681	-238.431667	1437.999023	291.714325
12205.994681	-238.431667	1436.926758	244.889816
12205.994681	-238.431667	1435.854492	102.902786
12205.994681	-238.431667	1434.782227	11.843048
12205.994681	-238.431667	1433.709961	48.691040
12205.994681	-238.431667	1432.636719	128.355850
12205.994681	-238.431667	1431.563477	-91.782326
12205.994681	-238.431667	1430.490234	-5.661045
12205.994681	-238.431667	1429.416992	12.153202
12205.994681	-238.431667	1428.343750	51.420082
12205.994681	-238.431667	1427.269531	-137.745499
12205.994681	-238.431667	1426.195313	-367.032593
12205.994681	-238.431667	1425.121094	-223.427628
12205.994681	-238.431667	1424.046875	-233.255020
12205.994681	-238.431667	1422.971680	-341.805481
12205.994681	-238.431667	1421.896484	-503.003174
12205.994681	-238.431667	1420.821289	-234.410736
12205.994681	-238.431667	1419.746094	-55.256943
12205.994681	-238.431667	1418.669922	-400.906158
12205.994681	-238.431667	1417.594727	-378.186768
12205.994681	-238.431667	1416.518555	-249.051788
12205.994681	-238.431667	1415.442383	-342.922516
12205.994681	-238.431667	1414.365234	-234.768143
12205.994681	-238.431667	1413.289063	-141.195831
12205.994681	-238.431667	1412.211914	-474.565521
12205.994681	-238.431667	1411.134766	-28.265991
12205.994681	-238.431667	1410.057617	134.518845
12205.994681	-238.431667	1408.979492	-205.919769
12205.994681	-238.431667	1407.902344	175.432419
12205.994681	-238.431667	1406.824219	-28.781038
12205.994681	-238.431667	1405.746094	151.944733
12205.994681	-238.431667	1404.666992	130.813660
12205.994681	-238.431667	1403.588867	-45.835110
12205.994681	-238.431667	1402.509766	302.086487
12205.994681	-238.431667	1401.430664	310.277985
12205.994681	-238.431667	1400.351563	223.807312
12205.994681	-238.431667	1399.271484	563.412292
12205.994681	-238.431667	1398.192383	75.981186
12205.994681	-238.431667	1397.112305	95.416107
12205.994681	-238.431667	1396.031250	112.435768
12205.994681	-238.431667	1394.951172	163.167679
12205.994681	-238.431667	1393.871094	242.828461
12205.994681	-238.431667	1392.790039	107.377533
12205.994681	-238.431667	1391.708984	408.850800
12205.994681	-238.431667	1390.626953	-69.149513
12205.994681	-238.431667	1389.545898	-69.700577
12205.994681	-238.431667	1388.463867	-13.280746
12205.994681	-238.431667	1387.381836	110.037766
12205.994681	-238.431667	1386.299805	-27.706591
12205.994681	-238.431667	1385.217773	-1.563282
12205.994681	-238.431667	1384.134766	206.242676
12205.994681	-238.431667	1383.051758	156.001709
12205.994681	-238.431667	1381.968750	431.945557
12205.994681	-238.431667	1380.885742	185.522766
12205.994681	-238.431667	1379.802734	24.008026
12205.994681	-238.431667	1378.718750	141.641846
12205.994681	-238.431667	1377.634766	93.729477
12205.994681	-238.431667	1376.550781	-100.962257
12205.994681	-238.431667	1375.465820	-75.167038
12205.994681	-238.431667	1374.381836	-116.347298
12205.994681	-238.431667	1373.296875	41.741360
12205.994681	-238.431667	1372.211914	37.510803
12205.994681	-238.431667	1371.126953	247.968063
12205.994681	-238.431667	1370.041016	193.952347
12205.994681	-238.431667	1368.955078	257.925842
12205.994681	-238.431667	1367.869141	310.829163
12205.994681	-238.431667	1366.783203	306.723938
12205.994681	-238.431667	1365.697266	379.314392
12205.994681	-238.431667	1364.610352	179.112305
12205.994681	-238.431667	1363.523438	229.405243
12205.994681	-238.431667	1362.436523	215.204056
12205.994681	-238.431667	1361.349609	342.953156
12205.994681	-238.431667	1360.261719	227.787857
12205.994681	-238.431667	1359.174805	206.104904
12205.994681	-238.431667	1358.086914	345.504028
12205.994681	-238.431667	1356.998047	439.467102
12205.994681	-238.431667	1355.910156	246.165466
12205.994681	-238.431667	1354.821289	346.002319
12205.994681	-238.431667	1353.732422	473.785461
12205.994681	-238.431667	1352.643555	559.648621
12205.994681	-238.431667	1351.554688	700.786255
12205.994681	-238.431667	1350.464844	375.149017
12205.994681	-238.431667	1349.375000	344.487579
12205.994681	-238.431667	1348.285156	299.468872
12205.994681	-238.431667	1347.195313	483.689514
12205.994681	-238.431667	1346.105469	592.808655
12205.994681	-238.431667	1345.014648	292.203491
12205.994681	-238.431667	1343.923828	509.936371
12205.994681	-238.431667	1342.833008	385.381256
12205.994681	-238.431667	1341.741211	556.271118
12205.994681	-238.431667	1340.650391	304.797058
12205.994681	-238.431667	1339.558594	185.934052
12205.994681	-238.431667	1338.466797	643.638306
12205.994681	-238.431667	1337.374023	381.860077
12205.994681	-238.431667	1336.282227	312.162537
12205.994681	-238.431667	1335.189453	431.107422
12205.994681	-238.431667	1334.096680	306.246246
12205.994681	-238.431667	1333.003906	370.302460
12205.994681	-238.431667	1331.910156	178.533463
12205.994681	-238.431667	1330.817383	315.846893
12205.994681	-238.431667	1329.723633	272.463898
12205.994681	-238.431667	1328.629883	487.833740
12205.994681	-238.431667	1327.535156	384.688812
12205.994681	-238.431667	1326.441406	215.715179
12205.994681	-238.431667	1325.346680	321.781281
12205.994681	-238.431667	1324.251953	217.013626
12205.994681	-238.431667	1323.156250	96.037621
12205.994681	-238.431667	1322.061523	265.438843
12205.994681	-238.431667	1320.965820	122.002525
12205.994681	-238.431667	1319.870117	205.178986
12205.994681	-238.431667	1318.774414	291.513885
12205.994681	-238.431667	1317.678711	258.953217
12205.994681	-238.431667	1316.582031	233.232330
12205.994681	-238.431667	1315.485352	261.752258
12205.994681	-238.431667	1314.388672	443.464874
12205.994681	-238.431667	1313.291016	243.449509
12205.994681	-238.431667	1312.194336	325.963745
12205.994681	-238.431667	1311.096680	119.888222
12205.994681	-238.431667	1309.999023	249.291519
12205.994681	-238.431667	1308.901367	374.369598
12205.994681	-238.431667	1307.802734	178.543976
12205.994681	-238.431667	1306.705078	123.096733
12205.994681	-238.431667	1305.606445	211.335175
12205.994681	-238.431667	1304.506836	89.639099
12205.994681	-238.431667	1303.408203	594.545898
12205.994681	-238.431667	1302.308594	402.453217
12205.994681	-238.431667	1301.208984	487.799957
12205.994681	-238.431667	1300.109375	504.604279
12205.994681	-238.431667	1299.009766	511.261383
12205.994681	-238.431667	1297.909180	465.349731
12205.994681	-238.431667	1296.808594	645.821533
12205.994681	-238.431667	1295.708008	672.601196
12205.994681	-238.431667	1294.607422	678.423706
12205.994681	-238.431667	1293.506836	768.371765
12205.994681	-238.431667	1292.405273	685.469421
12205.994681	-238.431667	1291.303711	602.859924
12205.994681	-238.431667	1290.202148	949.370056
12205.994681	-238.431667	1289.099609	580.688232
12205.994681	-238.431667	1287.998047	636.363220
12205.994681	-238.431667	1286.895508	824.124878
12205.994681	-238.431667	1285.792969	764.098450
12205.994681	-238.431667	1284.689453	697.767578
12205.994681	-238.431667	1283.586914	631.721497
12205.994681	-238.431667	1282.483398	738.878052
12205.994681	-238.431667	1281.379883	612.584839
12205.994681	-238.431667	1280.276367	759.584717
12205.994681	-238.431667	1279.171875	676.435669
12205.994681	-238.431667	1278.067383	595.133606
12205.994681	-238.431667	1276.962891	561.403748
12205.994681	-238.431667	1275.858398	447.889191
12205.994681	-238.431667	1274.753906	388.522125
12205.994681	-238.431667	1273.648438	370.653931
12205.994681	-238.431667	1272.542969	439.973480
12205.994681	-238.431667	1271.437500	505.657166
12205.994681	-238.431667	1270.331055	312.632599
12205.994681	-238.431667	1269.225586	339.251343
12205.994681	-238.431667	1268.119141	426.032135
12205.994681	-238.431667	1267.012695	503.089539
12205.994681	-238.431667	1265.906250	297.836182
12205.994681	-238.431667	1264.798828	108.184265
12205.994681	-238.431667	1263.691406	-52.968628
12205.994681	-238.431667	1262.583984	137.044067
12205.994681	-238.431667	1261.476563	246.322510
12205.994681	-238.431667	1260.368164	185.937271
12205.994681	-238.431667	1259.260742	10.272344
12205.994681	-238.431667	1258.152344	0.372633
12205.994681	-238.431667	1257.043945	-7.610612
12205.994681	-238.431667	1255.934570	53.102287
12205.994681	-238.431667	1254.825195	-75.694916
12205.994681	-238.431667	1253.716797	-136.499588
12205.994681	-238.431667	1252.606445	-126.815437
12205.994681	-238.431667	1251.497070	-137.848587
12205.994681	-238.431667	1250.387695	-38.571243
12205.994681	-238.431667	1249.277344	50.815968
12205.994681	-238.431667	1248.166992	-2.348432
12205.994681	-238.431667	1247.055664	187.156860
12205.994681	-238.431667	1245.945313	-61.275078
12205.994681	-238.431667	1244.833984	-153.461929
12205.994681	-238.431667	1243.722656	11.565599
12205.994681	-238.431667	1242.611328	-113.678261
12205.994681	-238.431667	1241.499023	-157.075623
12205.994681	-238.431667	1240.387695	-164.339020
12205.994681	-238.431667	1239.275391	-221.836746
12205.994681	-238.431667	1238.162109	91.197433
12205.994681	-238.431667	1237.049805	-208.089722
12205.994681	-238.431667	1235.936523	-175.072266
12205.994681	-238.431667	1234.823242	-137.790802
12205.994681	-238.431667	1233.709961	-108.430267
12205.994681	-238.431667	1232.596680	-91.433426
12205.994681	-238.431667	1231.482422	-261.944000
12205.994681	-238.431667	1230.369141	-311.106293
12205.994681	-238.431667	1229.253906	-367.049957
12205.994681	-238.431667	1228.139648	-132.378494
12205.994681	-238.431667	1227.025391	-374.223907
12205.994681	-238.431667	1225.910156	-77.263062
12205.994681	-238.431667	1224.794922	-245.364685
12205.994681	-238.431667	1223.679688	-440.424652
12205.994681	-238.431667	1222.563477	-152.170609
12205.994681	-238.431667	1221.447266	-191.639236
12205.994681	-238.431667	1220.331055	-335.370911
12205.994681	-238.431667	1219.214844	-232.933304
12205.994681	-238.431667	1218.098633	-432.878540
12205.994681	-238.431667	1216.981445	-279.779968
12205.994681	-238.431667	1215.864258	-217.230850
12205.994681	-238.431667	1214.747070	-221.007889
12205.994681	-238.431667	1213.629883	-272.881836
12205.994681	-238.431667	1212.511719	-214.221069
12205.994681	-238.431667	1211.393555	-94.394142
12205.994681	-238.431667	1210.275391	29.056652
12205.994681	-238.431667	1209.157227	-89.641403
12205.994681	-238.431667	1208.038086	-31.809820
12205.994681	-238.431667	1206.918945	111.530563
12205.994681	-238.431667	1205.799805	93.454681
12205.994681	-238.431667	1204.680664	372.613678
12205.994681	-238.431667	1203.560547	409.381256
12205.994681	-238.431667	1202.441406	460.240723
12205.994681	-238.431667	1201.321289	50.809834
12205.994681	-238.431667	1200.200195	221.362762
12205.994681	-238.431667	1199.080078	189.552811
12205.994681	-238.431667	1197.958984	279.234009
12205.994681	-238.431667	1196.837891	179.018600
12205.994681	-238.431667	1195.716797	201.415176
12205.994681	-238.431667	1194.594727	307.367645
12205.994681	-238.431667	1193.473633	157.723007
12205.994681	-238.431667	1192.351563	208.856506
12205.994681	-238.431667	1191.229492	145.427444
12205.994681	-238.431667	1190.106445	-24.372335
12205.994681	-238.431667	1188.984375	242.728302
12205.994681	-238.431667	1187.861328	87.643425
12205.994681	-238.431667	1186.738281	37.696564
12205.994681	-238.431667	1185.614258	36.593102
12205.994681	-238.431667	1184.491211	68.936546
12205.994681	-238.431667	1183.367188	36.736404
12205.994681	-238.431667	1182.243164	249.615219
12205.994681	-238.431667	1181.119141	162.216446
12205.994681	-238.431667	1179.994141	150.891815
12205.994681	-238.431667	1178.869141	137.428085
12205.994681	-238.431667	1177.744141	-32.626957
12205.994681	-238.431667	1176.619141	9.424902
12205.994681	-238.431667	1175.493164	6.644202
12205.994681	-238.431667	1174.368164	296.588440
12205.994681	-238.431667	1173.242188	-124.116402
12205.994681	-238.431667	1172.115234	52.678936
12205.994681	-238.431667	1170.989258	-39.264606
12205.994681	-238.431667	1169.862305	53.102509
12205.994681	-238.431667	1168.735352	-35.430508
12205.994681	-238.431667	1167.608398	59.108063
12205.994681	-238.431667	1166.481445	59.809093
12205.994681	-238.431667	1165.353516	172.180023
12205.994681	-238.431667	1164.225586	15.994670
12205.994681	-238.431667	1163.097656	87.049034
12205.994681	-238.431667	1161.968750	-27.573425
12205.994681	-238.431667	1160.840820	76.684227
12205.994681	-238.431667	1159.711914	195.099136
12205.994681	-238.431667	1158.583008	130.675949
12205.994681	-238.431667	1157.453125	186.613159
12205.994681	-238.431667	1156.324219	164.989716
12205.994681	-238.431667	1155.194336	-27.769238
12205.994681	-238.431667	1154.064453	-59.211510
12205.994681	-238.431667	1152.933594	44.492054
12205.994681	-238.431667	1151.803711	-154.773407
12205.994681	-238.431667	1150.672852	41.870903
12205.994681	-238.431667	1149.541992	-193.229950
12205.994681	-238.431667	1148.411133	-110.430244
12205.994681	-238.431667	1147.279297	-5.065142
12205.994681	-238.431667	1146.147461	117.773132
12205.994681	-238.431667	1145.015625	-64.471794
12205.994681	-238.431667	1143.883789	137.881989
12205.994681	-238.431667	1142.750977	-10.989218
12205.994681	-238.431667	1141.619141	80.782478
12205.994681	-238.431667	1140.486328	-86.486748
12205.994681	-238.431667	1139.352539	169.095779
12205.994681	-238.431667	1138.219727	-102.489288
12205.994681	-238.431667	1137.085938	14.798427
12205.994681	-238.431667	1135.952148	92.987564
12205.994681	-238.431667	1134.818359	79.073593
12205.994681	-238.431667	1133.683594	115.124947
12205.994681	-238.431667	1132.549805	306.503876
12205.994681	-238.431667	1131.415039	421.336090
12205.994681	-238.431667	1130.279297	558.216492
12205.994681	-238.431667	1129.144531	553.678711
12205.994681	-238.431667	1128.008789	930.840149
12205.994681	-238.431667	1126.873047	749.342590
12205.994681	-238.431667	1125.737305	458.546661
12205.994681	-238.431667	1124.601563	650.821045
12205.994681	-238.431667	1123.464844	646.032532
12205.994681	-238.431667	1122.328125	832.211609
12205.994681	-238.431667	1121.191406	497.121552
12205.994681	-238.431667	1120.054688	505.275574
12205.994681	-238.431667	1118.916992	411.610413
12205.994681	-238.431667	1117.779297	516.135559
12205.994681	-238.431667	1116.641602	197.156265
12205.994681	-238.431667	1115.503906	405.292236
12205.994681	-238.431667	1114.365234	495.782684
12205.994681	-238.431667	1113.226563	353.947052
12205.994681	-238.431667	1112.087891	292.421661
12205.994681	-238.431667	1110.949219	395.040192
12205.994681	-238.431667	1109.809570	559.830566
12205.994681	-238.431667	1108.669922	755.421265
12205.994681	-238.431667	1107.530273	605.893005
12205.994681	-238.431667	1106.390625	788.447571
12205.994681	-238.431667	1105.250000	831.001404
12205.994681	-238.431667	1104.109375	741.703796
12205.994681	-238.431667	1102.968750	646.736084
12205.994681	-238.431667	1101.828125	837.394958
12205.994681	-238.431667	1100.686523	614.507568
12205.994681	-238.431667	1099.544922	653.747070
12205.994681	-238.431667	1098.403320	750.059570
12205.994681	-238.431667	1097.261719	496.898895
12205.994681	-238.431667	1096.120117	532.580322
12205.994681	-238.431667	1094.977539	592.571350
12205.994681	-238.431667	1093.834961	180.324860
12205.994681	-238.431667	1092.691406	369.541595
12205.994681	-238.431667	1091.548828	302.562714
12205.994681	-238.431667	1090.405273	211.316177
12205.994681	-238.431667	1089.261719	289.199585
12205.994681	-238.431667	1088.118164	427.666962
12205.994681	-238.431667	1086.973633	480.131531
12205.994681	-238.431667	1085.829102	318.691437
12205.994681	-238.431667	1084.684570	360.411072
12205.994681	-238.431667	1083.540039	158.641953
12205.994681	-238.431667	1082.395508	328.902588
12205.994681	-238.431667	1081.250000	385.012115
12205.994681	-238.431667	1080.104492	355.468567
12205.994681	-238.431667	1078.958984	459.832520
12205.994681	-238.431667	1077.812500	483.756805
12205.994681	-238.431667	1076.666016	238.239792
12205.994681	-238.431667	1075.519531	405.977814
12205.994681	-238.431667	1074.373047	446.359589
12205.994681	-238.431667	1073.226563	246.138077
12205.994681	-238.431667	1072.079102	183.751968
12205.994681	-238.431667	1070.931641	442.992065
12205.994681	-238.431667	1069.784180	467.541077
12205.994681	-238.431667	1068.635742	518.098145
12205.994681	-238.431667	1067.487305	290.165436
12205.994681	-238.431667	1066.338867	582.426575
12205.994681	-238.431667	1065.190430	592.024292
12205.994681	-238.431667	1064.041992	581.120850
12205.994681	-238.431667	1062.892578	464.226624
12205.994681	-238.431667	1061.743164	462.308960
12205.994681	-238.431667	1060.593750	359.999878
12205.994681	-238.431667	1059.443359	287.539001
12205.994681	-238.431667	1058.292969	476.723114
12205.994681	-238.431667	1057.142578	510.900055
12205.994681	-238.431667	1055.992188	131.445099
12205.994681	-238.431667	1054.841797	364.678772
12205.994681	-238.431667	1053.690430	374.681183
12205.994681	-238.431667	1052.539063	410.855957
12205.994681	-238.431667	1051.387695	699.945618
12205.994681	-238.431667	1050.235352	796.887390
12205.994681	-238.431667	1049.083984	689.974609
12205.994681	-238.431667	1047.931641	762.809875
12205.994681	-238.431667	1046.778320	839.358154
12205.994681	-238.431667	1045.625977	664.171997
12205.994681	-238.431667	1044.472656	831.659363
12205.994681	-238.431667	1043.319336	644.779358
12205.994681	-238.431667	1042.166016	262.018616
12205.994681	-238.431667	1041.012695	344.064117
12205.994681	-238.431667	1039.858398	152.346573
12205.994681	-238.431667	1038.704102	47.049141
12205.994681	-238.431667	1037.549805	87.760124
12205.994681	-238.431667	1036.394531	340.839752
12205.994681	-238.431667	1035.239258	216.728271
12205.994681	-238.431667	1034.083984	74.336273
12205.994681	-238.431667	1032.928711	233.503082
12205.994681	-238.431667	1031.773438	149.164688
12205.994681	-238.431667	1030.617188	-14.378586
12205.994681	-238.431667	1029.460938	344.605957
12205.994681	-238.431667	1028.304688	345.451782
12205.994681	-238.431667	1027.147461	38.144566
12205.994681	-238.431667	1025.991211	228.007370
12205.994681	-238.431667	1024.833984	273.054901
12205.994681	-238.431667	1023.675781	67.694679
12205.994681	-238.431667	1022.518555	-27.008543
12205.994681	-238.431667	1021.360352	-12.262166
12205.994681	-238.431667	1020.202148	-38.036907
12205.994681	-238.431667	1019.043945	-110.987488
12205.994681	-238.431667	1017.884766	-31.831907
12205.994681	-238.431667	1016.726563	253.589127
12205.994681	-238.431667	1015.567383	298.507965
12205.994681	-238.431667	1014.407227	113.185669
12205.994681	-238.431667	1013.248047	262.593567
12205.994681	-238.431667	1012.087891	358.597321
12205.994681	-238.431667	1010.927734	189.618515
12205.994681	-238.431667	1009.767578	-7.601047
12205.994681	-238.431667	1008.606445	111.638084
12205.994681	-238.431667	1007.446289	180.200531
12205.994681	-238.431667	1006.285156	-49.513535
12205.994681	-238.431667	1005.123047	105.220955
12205.994681	-238.431667	1003.961914	191.085434
12205.994681	-238.431667	1002.799805	168.246307
12205.994681	-238.431667	1001.637695	187.086685
12205.994681	-238.431667	1000.475586	431.992950
12205.994681	-238.431667	999.312500	194.455093
12205.994681	-238.431667	998.149414	161.500977
12205.994681	-238.431667	996.986328	85.820732
12205.994681	-238.431667	995.823242	139.526367
12205.994681	-238.431667	994.659180	-6.324964
12205.994681	-238.431667	993.496094	-165.122849
12205.994681	-238.431667	992.332031	214.229630
12205.994681	-238.431667	991.166992	-44.335335
12205.994681	-238.431667	990.002930	170.684647
12205.994681	-238.431667	988.837891	-105.901939
12205.994681	-238.431667	987.672852	-16.285381
12205.994681	-238.431667	986.506836	58.602795
12205.994681	-238.431667	985.341797	-123.642715
12205.994681	-238.431667	984.175781	-200.402344
12205.994681	-238.431667	983.009766	-193.039001
12205.994681	-238.431667	981.843750	131.148285
12205.994681	-238.431667	980.676758	-132.233231
12205.994681	-238.431667	979.509766	-190.836288
12205.994681	-238.431667	978.342773	-130.200165
12205.994681	-238.431667	977.175781	-101.158081
12205.994681	-238.431667	976.007813	-286.036560
12205.994681	-238.431667	974.839844	256.568542
12205.994681	-238.431667	973.671875	-27.209217
12205.994681	-238.431667	972.503906	-373.675659
12205.994681	-238.431667	971.334961	-331.049164
12205.994681	-238.431667	970.166016	-156.560089
12205.994681	-238.431667	968.997070	-134.242828
12205.994681	-238.431667	967.828125	-164.873932
12205.994681	-238.431667	966.658203	52.648392
12205.994681	-238.431667	965.488281	-0.325972
12205.994681	-238.431667	964.318359	193.983063
12205.994681	-238.431667	963.148438	142.128052
12205.994681	-238.431667	961.977539	5.674473
12205.994681	-238.431667	960.806641	261.776123
12205.994681	-238.431667	959.635742	105.590042
12205.994681	-238.431667	958.463867	163.752869
12205.994681	-238.431667	957.292969	-65.884239
12205.994681	-238.431667	956.121094	-4.734406
12205.994681	-238.431667	954.948242	-79.079178
12205.994681	-238.431667	953.776367	194.930893
12205.994681	-238.431667	952.603516	-12.481825
12205.994681	-238.431667	951.430664	39.121990
12205.994681	-238.431667	950.257813	26.335899
12205.994681	-238.431667	949.084961	217.590393
12205.994681	-238.431667	947.911133	183.279556
12205.994681	-238.431667	946.737305	-124.215736
12205.994681	-238.431667	945.563477	-95.581230
12205.994681	-238.431667	944.388672	-226.993240
12205.994681	-238.431667	943.213867	-127.201660
12205.994681	-238.431667	942.039063	4.251334
12205.994681	-238.431667	940.864258	-38.080738
12205.994681	-238.431667	939.688477	129.471359
12205.994681	-238.431667	938.513672	89.817574
12205.994681	-238.431667	937.337891	73.652000
12205.994681	-238.431667	936.161133	178.242905
12205.994681	-238.431667	934.985352	4.690841
12205.994681	-238.431667	933.808594	64.601822
12205.994681	-238.431667	932.631836	153.355148
12205.994681	-238.431667	931.454102	260.379578
12205.994681	-238.431667	930.277344	285.998566
12205.994681	-238.431667	929.099609	277.479980
12205.994681	-238.431667	927.921875	389.651459
12205.994681	-238.431667	926.743164	268.329315
12205.994681	-238.431667	925.565430	317.456421
12205.994681	-238.431667	924.386719	248.566925
12205.994681	-238.431667	923.208008	376.276703
12205.994681	-238.431667	922.028320	105.558212
12205.994681	-238.431667	920.849609	10.476511
12205.994681	-238.431667	919.669922	15.216000
12205.994681	-238.431667	919.474609	-15.685028
12205.994681	-238.431667	918.309570	174.692520
12205.994681	-238.431667	917.143555	-64.494324
12205.994681	-238.431667	915.977539	-60.118916
12205.994681	-238.431667	914.810547	56.793961
12205.994681	-238.431667	913.644531	95.120117
12205.994681	-238.431667	912.477539	47.065128
12205.994681	-238.431667	911.310547	-69.007957
12205.994681	-238.431667	910.143555	-148.437347
12205.994681	-238.431667	908.975586	-269.690338
12205.994681	-238.431667	907.807617	-58.879425
12205.994681	-238.431667	906.639648	60.340759
12205.994681	-238.431667	905.471680	-183.765472
12205.994681	-238.431667	904.303711	-156.054932
12205.994681	-238.431667	903.134766	-5.588757
12205.994681	-238.431667	901.965820	-160.779205
12205.994681	-238.431667	900.796875	-78.298515
12205.994681	-238.431667	899.626953	-37.633694
12205.994681	-238.431667	898.457031	-36.153996
12205.994681	-238.431667	897.287109	77.526909
12205.994681	-238.431667	896.117188	232.893967
12205.994681	-238.431667	894.947266	30.809065
12205.994681	-238.431667	893.776367	-30.368189
12205.994681	-238.431667	892.605469	-216.692596
12205.994681	-238.431667	891.434570	379.144012
12205.994681	-238.431667	890.262695	237.103729
12205.994681	-238.431667	889.091797	246.250305
12205.994681	-238.431667	887.919922	59.983883
12205.994681	-238.431667	886.748047	407.779968
12205.994681	-238.431667	885.575195	41.842758
12205.994681	-238.431667	884.403320	-71.387978
12205.994681	-238.431667	883.230469	-51.811005
12205.994681	-238.431667	882.057617	32.819668
12205.994681	-238.431667	880.883789	-127.194168
12205.994681	-238.431667	879.710938	-141.458618
12205.994681	-238.431667	878.537109	120.000504
12205.994681	-238.431667	877.362305	9.463890
12205.994681	-238.431667	876.188477	145.970947
12205.994681	-238.431667	875.013672	305.818054
12205.994681	-238.431667	873.839844	86.135445
12205.994681	-238.431667	872.664063	82.219986
12205.994681	-238.431667	871.489258	117.267776
12205.994681	-238.431667	870.313477	178.276306
12205.994681	-238.431667	869.138672	231.463684
12205.994681	-238.431667	867.962891	113.270714
12205.994681	-238.431667	866.786133	-59.385265
12205.994681	-238.431667	865.610352	-94.424850
12205.994681	-238.431667	864.433594	-189.126999
12205.994681	-238.431667	863.256836	-343.458679
12205.994681	-238.431667	862.079102	67.700020
12205.994681	-238.431667	860.902344	-353.717987
12205.994681	-238.431667	859.724609	-191.617722
12205.994681	-238.431667	858.546875	-221.399750
12205.994681	-238.431667	857.368164	-253.756729
12205.994681	-238.431667	856.190430	-324.969666
12205.994681	-238.431667	855.011719	-106.011925
12205.994681	-238.431667	853.833008	-257.509796
12205.994681	-238.431667	852.654297	-263.934723
12205.994681	-238.431667	851.474609	-45.117081
12205.994681	-238.431667	850.294922	-36.046448
12205.994681	-238.431667	849.115234	-254.707993
12205.994681	-238.431667	847.935547	10.549807
12205.994681	-238.431667	846.754883	61.001034
12205.994681	-238.431667	845.575195	-170.470413
12205.994681	-238.431667	844.393555	115.306053
12205.994681	-238.431667	843.212891	207.075104
12205.994681	-238.431667	842.032227	-44.950718
12205.994681	-238.431667	840.850586	-17.780607
12205.994681	-238.431667	839.668945	55.885792
12205.994681	-238.431667	838.486328	31.371315
12205.994681	-238.431667	837.304688	-52.532043
12205.994681	-238.431667	836.122070	90.822281
12205.994681	-238.431667	834.939453	17.276577
12205.994681	-238.431667	833.756836	119.267372
12205.994681	-238.431667	832.573242	-191.641342
12205.994681	-238.431667	831.389648	-30.302639
12205.994681	-238.431667	830.206055	87.124275
12205.994681	-238.431667	829.022461	-115.267876
12205.994681	-238.431667	827.838867	20.181011
12205.994681	-238.431667	826.654297	-1.661415
12205.994681	-238.431667	825.469727	46.091934
12205.994681	-238.431667	824.284180	91.254967
12205.994681	-238.431667	823.099609	267.781586
12205.994681	-238.431667	821.914063	186.679596
12205.994681	-238.431667	820.728516	-108.119087
12205.994681	-238.431667	819.542969	-3.737642
12205.994681	-238.431667	818.356445	185.549896
12205.994681	-238.431667	817.169922	4.176413
12205.994681	-238.431667	815.983398	2.987418
12205.994681	-238.431667	814.796875	-255.444046
12205.994681	-238.431667	813.609375	-84.255341
12205.994681	-238.431667	812.422852	-206.276886
12205.994681	-238.431667	811.235352	-161.138687
12205.994681	-238.431667	810.046875	-56.898624
12205.994681	-238.431667	808.859375	281.145081
12205.994681	-238.431667	807.670898	200.265701
12205.994681	-238.431667	806.482422	473.900879
12205.994681	-238.431667	805.293945	187.559097
12205.994681	-238.431667	804.104492	366.082367
12205.994681	-238.431667	802.915039	180.000092
12205.994681	-238.431667	801.725586	412.347107
12205.994681	-238.431667	800.536133	526.556580
12205.994681	-238.431667	799.345703	335.422729
12205.994681	-238.431667	798.155273	275.178925
12205.994681	-238.431667	796.964844	155.974228
12205.994681	-238.431667	795.774414	80.402954
12205.994681	-238.431667	794.583008	297.090179
12205.994681	-238.431667	793.392578	-55.278042
12205.994681	-238.431667	792.200195	38.349178
12205.994681	-238.431667	791.008789	-90.949097
12205.994681	-238.431667	789.816406	15.441938
12205.994681	-238.431667	788.625000	-29.305368
12205.994681	-238.431667	787.432617	322.795807
12205.994681	-238.431667	786.239258	-29.166204
12205.994681	-238.431667	785.046875	-217.208481
12205.994681	-238.431667	783.853516	-16.265200
12205.994681	-238.431667	782.660156	297.141174
12205.994681	-238.431667	781.465820	208.873764
12205.994681	-238.431667	780.272461	89.944832
12205.994681	-238.431667	779.078125	423.559753
12205.994681	-238.431667	777.883789	-35.327461
12205.994681	-238.431667	776.688477	-141.381012
12205.994681	-238.431667	775.494141	102.616386
12205.994681	-238.431667	774.298828	-177.145615
12205.994681	-238.431667	773.103516	-186.096756
12205.994681	-238.431667	771.907227	-26.536161
12205.994681	-238.431667	770.711914	69.120743
12205.994681	-238.431667	769.515625	-151.755890
12205.994681	-238.431667	768.318359	160.758041
12205.994681	-238.431667	767.122070	-34.567318
12205.994681	-238.431667	765.924805	-2.816016
12205.994681	-238.431667	764.727539	176.811707
12205.994681	-238.431667	763.530273	139.628632
12205.994681	-238.431667	762.333008	-91.288818
12205.994681	-238.431667	761.134766	80.542236
12205.994681	-238.431667	759.936523	48.440155
12205.994681	-238.431667	758.738281	-167.090927
12205.994681	-238.431667	757.540039	4.582021
12205.994681	-238.431667	756.340820	-96.304314
12205.994681	-238.431667	755.141602	-118.249901
12205.994681	-238.431667	753.942383	-285.298492
12205.994681	-238.431667	752.742188	214.446655
12205.994681	-238.431667	751.541992	42.260021
12205.994681	-238.431667	750.341797	78.706238
12205.994681	-238.431667	749.141602	79.504219
12205.994681	-238.431667	747.941406	-16.351736
12205.994681	-238.431667	746.740234	391.158020
12205.994681	-238.431667	745.539063	224.052185
12205.994681	-238.431667	744.337891	194.205872
12205.994681	-238.431667	743.135742	344.722656
12205.994681	-238.431667	741.933594	83.653458
12205.994681	-238.431667	740.731445	-32.588470
12205.994681	-238.431667	739.529297	66.997940
12205.994681	-238.431667	738.326172	148.739716
12205.994681	-238.431667	737.124023	314.158905
12205.994681	-238.431667	735.919922	613.958862
12205.994681	-238.431667	734.716797	469.637634
12205.994681	-238.431667	733.513672	721.007507
12205.994681	-238.431667	732.309570	624.826904
12205.994681	-238.431667	731.105469	850.625671
12205.994681	-238.431667	729.900391	964.760681
12205.994681	-238.431667	728.696289	739.213501
12205.994681	-238.431667	727.491211	554.258606
12205.994681	-238.431667	726.286133	457.996094
12205.994681	-238.431667	725.080078	389.588531
12205.994681	-238.431667	723.874023	409.785553
12205.994681	-238.431667	722.668945	234.992218
12205.994681	-238.431667	721.461914	639.837341
12205.994681	-238.431667	720.255859	194.204956
12205.994681	-238.431667	719.048828	264.827942
12205.994681	-238.431667	717.841797	239.250061
12205.994681	-238.431667	716.634766	-29.148731
12205.994681	-238.431667	715.427734	-92.688683
12205.994681	-238.431667	714.219727	-27.332644
12205.994681	-238.431667	713.011719	-17.662661
12205.994681	-238.431667	711.803711	173.876999
12205.994681	-238.431667	710.594727	327.385834
12205.994681	-238.431667	709.385742	157.474335
12205.994681	-238.431667	708.176758	209.793930
12205.994681	-238.431667	706.967773	-23.260777
12205.994681	-238.431667	705.758789	162.733124
12205.994681	-238.431667	704.548828	86.128838
12205.994681	-238.431667	703.338867	186.110321
12205.994681	-238.431667	702.127930	-6.632438
12205.994681	-238.431667	700.917969	-159.008530
12205.994681	-238.431667	699.707031	-13.847059
12205.994681	-238.431667	698.496094	-85.619118
12205.994681	-238.431667	697.285156	-164.991608
12205.994681	-238.431667	696.073242	0.034805
12205.994681	-238.431667	694.861328	23.834909
12205.994681	-238.431667	693.649414	291.884399
12205.994681	-238.431667	692.436523	166.888504
12205.994681	-238.431667	691.224609	79.637291
12205.994681	-238.431667	690.011719	-70.581062
12205.994681	-238.431667	688.798828	209.552902
12205.994681	-238.431667	687.584961	313.357483
12205.994681	-238.431667	686.372070	570.499207
12205.994681	-238.431667	685.158203	701.697510
12205.994681	-238.431667	683.943359	686.913269
12205.994681	-238.431667	682.729492	998.889587
12205.994681	-238.431667	681.514648	1169.893433
12205.994681	-238.431667	680.299805	1433.728027
12205.994681	-238.431667	679.084961	1714.957031
12205.994681	-238.431667	677.869141	1842.753052
12205.994681	-238.431667	676.653320	1458.072632
12205.994681	-238.431667	675.437500	1394.870361
12205.994681	-238.431667	674.221680	1366.754761
12205.994681	-238.431667	673.004883	1398.801270
12205.994681	-238.431667	671.789063	1373.032593
12205.994681	-238.431667	670.571289	1357.223267
12205.994681	-238.431667	669.354492	1243.507568
12205.994681	-238.431667	668.136719	1212.507446
12205.994681	-238.431667	666.919922	1091.171143
12205.994681	-238.431667	665.701172	862.005615
12205.994681	-238.431667	664.483398	1016.290649
12205.994681	-238.431667	663.264648	564.052063
12205.994681	-238.431667	662.045898	615.440125
12205.994681	-238.431667	660.827148	724.319397
12205.994681	-238.431667	659.608398	712.864136
12205.994681	-238.431667	658.388672	285.731232
12205.994681	-238.431667	657.168945	419.357300
12205.994681	-238.431667	655.949219	315.095367
12205.994681	-238.431667	654.728516	531.029785
12205.994681	-238.431667	653.507813	374.065369
12205.994681	-238.431667	652.287109	449.651764
12205.994681	-238.431667	651.066406	590.118713
12205.994681	-238.431667	649.844727	175.463287
12205.994681	-238.431667	648.623047	258.246002
12205.994681	-238.431667	647.401367	508.312134
12205.994681	-238.431667	646.179688	508.347870
12205.994681	-238.431667	644.957031	620.680237
12205.994681	-238.431667	643.734375	200.961792
12205.994681	-238.431667	642.511719	288.142487
12205.994681	-238.431667	641.289063	305.294312
12205.994681	-238.431667	640.065430	374.742065
12205.994681	-238.431667	638.841797	421.602631
12205.994681	-238.431667	637.618164	366.064301
12205.994681	-238.431667	636.393555	507.473175
12205.994681	-238.431667	635.168945	371.941589
12205.994681	-238.431667	633.944336	303.673523
12205.994681	-238.431667	632.719727	317.581879
12205.994681	-238.431667	631.494141	316.427612
12205.994681	-238.431667	630.269531	439.741211
12205.994681	-238.431667	629.042969	191.756714
12205.994681	-238.431667	627.817383	53.349346
12205.994681	-238.431667	626.590820	358.078888
12205.994681	-238.431667	625.365234	85.067375
12205.994681	-238.431667	624.137695	352.118286
12205.994681	-238.431667	622.911133	335.298340
12205.994681	-238.431667	621.683594	119.363098
12205.994681	-238.431667	620.456055	293.899750
12205.994681	-238.431667	619.228516	356.359558
12205.994681	-238.431667	618.000977	386.369720
12205.994681	-238.431667	616.772461	304.408234
12205.994681	-238.431667	615.543945	490.763916
12205.994681	-238.431667	614.314453	8.597338
12205.994681	-238.431667	613.085938	408.352692
12205.994681	-238.431667	611.856445	477.530518
12205.994681	-238.431667	610.626953	601.200317
12205.994681	-238.431667	609.397461	605.559692
12205.994681	-238.431667	608.166992	1118.596191
12205.994681	-238.431667	606.936523	1239.258301
12205.994681	-238.431667	605.706055	1131.532104
12205.994681	-238.431667	604.474609	956.777771
12205.994681	-238.431667	603.244141	729.925415
12205.994681	-238.431667	602.012695	411.331879
12205.994681	-238.431667	600.780273	422.439972
12205.994681	-238.431667	599.548828	158.368698
12205.994681	-238.431667	598.316406	112.339890
12205.994681	-238.431667	597.083984	177.704453
12205.994681	-238.431667	595.851563	94.345863
12205.994681	-238.431667	594.618164	-219.355392
12205.994681	-238.431667	593.384766	-52.760990
12205.994681	-238.431667	592.151367	135.941360
12205.994681	-238.431667	590.917969	37.425259
12205.994681	-238.431667	589.683594	107.082726
12205.994681	-238.431667	588.449219	-127.618370
12205.994681	-238.431667	587.214844	166.893112
12205.994681	-238.431667	585.979492	555.131165
12205.994681	-238.431667	584.745117	208.974716
12205.994681	-238.431667	583.509766	186.614883
12205.994681	-238.431667	582.273438	30.744795
12205.994681	-238.431667	581.038086	-157.255112
12205.994681	-238.431667	579.801758	54.832298
12205.994681	-238.431667	578.565430	128.464920
12205.994681	-238.431667	577.329102	387.134033
12205.994681	-238.431667	576.091797	208.734146
12205.994681	-238.431667	574.854492	178.385544
12205.994681	-238.431667	573.617188	-0.061021
12205.994681	-238.431667	572.378906	198.870865
12205.994681	-238.431667	571.141602	104.181046
12205.994681	-238.431667	569.903320	275.724518
12205.994681	-238.431667	568.664063	146.378296
12205.994681	-238.431667	567.425781	172.279388
12205.994681	-238.431667	566.186523	180.840118
12205.994681	-238.431667	564.947266	285.396301
12205.994681	-238.431667	563.708008	178.023438
12205.994681	-238.431667	562.467773	294.695801
12205.994681	-238.431667	561.227539	-7.269183
12205.994681	-238.431667	559.987305	92.023468
12205.994681	-238.431667	558.747070	-59.796917
12205.994681	-238.431667	557.505859	-9.882215
12205.994681	-238.431667	556.264648	172.772827
12205.994681	-238.431667	555.023438	-45.569561
12205.994681	-238.431667	553.781250	-18.016438
12205.994681	-238.431667	552.539063	-93.779137
12205.994681	-238.431667	551.296875	-339.148132
12205.994681	-238.431667	550.054688	19.984583
12205.994681	-238.431667	548.811523	-414.582886
12205.994681	-238.431667	547.569336	-323.411896
12205.994681	-238.431667	546.325195	-254.447205
12205.994681	-238.431667	545.082031	-249.387344
12205.994681	-238.431667	543.837891	-276.295959
12205.994681	-238.431667	542.593750	-87.291222
12205.994681	-238.431667	541.349609	-114.318726
12205.994681	-238.431667	540.105469	-65.338783
12205.994681	-238.431667	538.860352	-129.241928
12205.994681	-238.431667	537.615234	-21.527973
12205.994681	-238.431667	536.369141	68.931061
12205.994681	-238.431667	535.124023	-213.204712
12205.994681	-238.431667	533.877930	26.649042
12205.994681	-238.431667	532.631836	-113.351089
12205.994681	-238.431667	531.384766	-209.246170
12205.994681	-238.431667	530.138672	-349.202087
12205.994681	-238.431667	528.891602	-405.897339
12205.994681	-238.431667	527.643555	-110.140930
12205.994681	-238.431667	526.396484	-162.026321
12205.994681	-238.431667	525.148438	-133.184357
12205.994681	-238.431667	523.900391	-287.836243
12205.994681	-238.431667	522.652344	-329.949158
12205.994681	-238.431667	521.403320	146.277481
12205.994681	-238.431667	520.154297	25.816788
12205.994681	-238.431667	518.905273	491.948639
12205.994681	-238.431667	517.656250	647.541748
12205.994681	-238.431667	516.406250	771.288208
12205.994681	-238.431667	515.156250	587.221619
12205.994681	-238.431667	513.906250	593.690125
12205.994681	-238.431667	512.655273	399.944336
12205.994681	-238.431667	511.404297	355.165253
12205.994681	-238.431667	510.153320	349.442200
12205.994681	-238.431667	508.902344	94.854630
12205.994681	-238.431667	507.650391	255.041672
12205.994681	-238.431667	506.398438	-140.880203
12205.994681	-238.431667	505.146484	-217.227112
12205.994681	-238.431667	503.893555	-161.912796
12205.994681	-238.431667	502.641602	-247.972351
12205.994681	-238.431667	501.388672	-314.508026
12205.994681	-238.431667	500.134766	-110.610497
12205.994681	-238.431667	498.881836	-69.976158
12205.994681	-238.431667	497.627930	111.872719
12205.994681	-238.431667	496.374023	140.270950
12205.994681	-238.431667	495.119141	192.995895
12205.994681	-238.431667	493.865234	644.807922
12205.994681	-238.431667	492.610352	668.218689
12205.994681	-238.431667	491.355469	837.576538
12205.994681	-238.431667	490.099609	595.863525
12205.994681	-238.431667	488.843750	303.204224
12205.994681	-238.431667	487.587891	598.957397
12205.994681	-238.431667	486.332031	367.202515
12205.994681	-238.431667	485.075195	339.657928
12205.994681	-238.431667	483.818359	516.198547
12205.994681	-238.431667	482.561523	357.499420
12205.994681	-238.431667	481.304688	164.883728
12205.994681	-238.431667	480.046875	91.313591
12205.994681	-238.431667	478.789063	3.223175
12205.994681	-238.431667	477.531250	-111.512802
12205.994681	-238.431667	476.272461	18.847748
12205.994681	-238.431667	475.013672	93.370468
12205.994681	-238.431667	473.754883	109.667046
12205.994681	-238.431667	472.496094	-143.166580
12205.994681	-238.431667	471.236328	-272.263733
12205.994681	-238.431667	469.976563	-42.611103
12205.994681	-238.431667	468.716797	-268.583801
12205.994681	-238.431667	467.456055	-213.450348
12205.994681	-238.431667	466.196289	52.382889
12205.994681	-238.431667	464.935547	243.029312
12205.994681	-238.431667	463.673828	-154.706116
12205.994681	-238.431667	462.413086	-167.416809
12205.994681	-238.431667	461.151367	124.773872
12205.994681	-238.431667	459.889648	133.763779
12205.994681	-238.431667	458.626953	130.639771
12205.994681	-238.431667	457.364258	13.843294
12205.994681	-238.431667	456.101563	105.014206
12205.994681	-238.431667	454.838867	215.466980
12205.994681	-238.431667	453.575195	-251.763046
12205.994681	-238.431667	452.312500	-3.598774
12205.994681	-238.431667	451.047852	152.618347
12205.994681	-238.431667	449.784180	212.136642
12205.994681	-238.431667	448.519531	261.928314
12205.994681	-238.431667	447.254883	297.173492
12205.994681	-238.431667	445.990234	580.965515
12205.994681	-238.431667	444.725586	642.579041
12205.994681	-238.431667	443.459961	590.714417
12205.994681	-238.431667	442.194336	606.351746
12205.994681	-238.431667	440.927734	486.864563
12205.994681	-238.431667	439.662109	929.135925
12205.994681	-238.431667	438.395508	768.507629
12205.994681	-238.431667	437.127930	480.130524
12205.994681	-238.431667	435.861328	348.413513
12205.994681	-238.431667	434.593750	508.131714
12205.994681	-238.431667	433.326172	178.770508
12205.994681	-238.431667	432.058594	8.364548
12205.994681	-238.431667	430.790039	324.197693
12205.994681	-238.431667	429.521484	129.515335
12205.994681	-238.431667	428.252930	81.570908
12205.994681	-238.431667	426.984375	180.260132
12205.994681	-238.431667	425.714844	59.865143
12205.994681	-238.431667	424.445313	-58.232967
12205.994681	-238.431667	423.174805	253.902237
12205.994681	-238.431667	421.905273	-112.120766
12205.994681	-238.431667	420.634766	57.730045
12205.994681	-238.431667	419.364258	167.239059
12205.994681	-238.431667	418.092773	382.172607
12205.994681	-238.431667	416.822266	594.397644
12205.994681	-238.431667	415.550781	667.017517
12205.994681	-238.431667	414.278320	508.889465
12205.994681	-238.431667	413.006836	504.182892
12205.994681	-238.431667	411.734375	362.417755
12205.994681	-238.431667	410.461914	469.923523
12205.994681	-238.431667	409.188477	413.968964
12205.994681	-238.431667	407.916016	189.869919
12205.994681	-238.431667	406.642578	171.706131
12205.994681	-238.431667	405.368164	-31.377600
12205.994681	-238.431667	404.094727	215.802734
12205.994681	-238.431667	402.820313	503.209564
12205.994681	-238.431667	401.545898	176.869812
12205.994681	-238.431667	400.270508	274.132690
12205.994681	-238.431667	398.996094	198.536011
12205.994681	-238.431667	397.720703	84.199692
12205.994681	-238.431667	396.444336	192.001816
12205.994681	-238.431667	395.168945	241.846710
12205.994681	-238.431667	393.892578	130.855331
12205.994681	-238.431667	392.616211	74.383919
12205.994681	-238.431667	391.339844	187.153946
12205.994681	-238.431667	390.062500	110.407234
12205.994681	-238.431667	388.785156	-31.447912
12205.994681	-238.431667	387.507813	57.925228
12205.994681	-238.431667	386.229492	125.082451
12205.994681	-238.431667	384.951172	215.415771
12205.994681	-238.431667	383.672852	59.024490
12205.994681	-238.431667	382.394531	71.484810
12205.994681	-238.431667	381.115234	13.933458
12205.994681	-238.431667	379.835938	265.867096
12205.994681	-238.431667	378.556641	471.536469
12205.994681	-238.431667	377.277344	280.268677
12205.994681	-238.431667	375.997070	-54.919350
12205.994681	-238.431667	374.716797	28.794514
12205.994681	-238.431667	373.435547	156.797180
12205.994681	-238.431667	372.155273	200.368546
12205.994681	-238.431667	370.874023	152.332245
12205.994681	-238.431667	369.591797	72.270813
12205.994681	-238.431667	368.310547	205.556046
12205.994681	-238.431667	367.028320	194.752197
12205.994681	-238.431667	365.746094	-107.671051
12205.994681	-238.431667	364.463867	24.441832
12205.994681	-238.431667	363.180664	267.080200
12205.994681	-238.431667	361.897461	220.439026
12205.994681	-238.431667	360.614258	-51.108315
12205.994681	-238.431667	359.330078	194.528015
12205.994681	-238.431667	358.045898	-60.676891
12205.994681	-238.431667	356.761719	67.886566
12205.994681	-238.431667	355.477539	-137.842010
12205.994681	-238.431667	354.192383	-162.096802
12205.994681	-238.431667	352.907227	44.880466
12205.994681	-238.431667	351.622070	29.235163
12205.994681	-238.431667	350.336914	2.405479
12205.994681	-238.431667	349.050781	-80.803482
12205.994681	-238.431667	347.764648	-170.522781
12205.994681	-238.431667	346.477539	-39.029652
12205.994681	-238.431667	345.191406	-16.224041
12205.994681	-238.431667	343.904297	199.070953
12205.994681	-238.431667	342.616211	-12.305028
12205.994681	-238.431667	341.329102	-159.232269
12205.994681	-238.431667	340.041016	-272.733246
12205.994681	-238.431667	338.752930	9.766178
12205.994681	-238.431667	337.463867	-181.702042
12205.994681	-238.431667	336.175781	-105.305336
12205.994681	-238.431667	334.886719	-355.872070
12205.994681	-238.431667	333.596680	-246.569031
12205.994681	-238.431667	332.307617	-203.707520
12205.994681	-238.431667	331.017578	-170.635178
12205.994681	-238.431667	329.727539	-393.457245
12205.994681	-238.431667	328.436523	-209.714035
12205.994681	-238.431667	327.146484	-331.570282
12205.994681	-238.431667	325.855469	-174.936874
12205.994681	-238.431667	324.563477	-312.242218
12205.994681	-238.431667	323.272461	-194.822495
12205.994681	-238.431667	321.980469	-2.690727
12205.994681	-238.431667	320.688477	13.645122
12205.994681	-238.431667	319.395508	-115.160019
12205.994681	-238.431667	318.103516	-119.693642
12205.994681	-238.431667	316.810547	-30.995016
12205.994681	-238.431667	315.516602	35.101761
12205.994681	-238.431667	314.223633	-223.392609
12205.994681	-238.431667	312.929688	-183.607193
12205.994681	-238.431667	311.635742	33.947414
12205.994681	-238.431667	310.340820	-52.209309
12205.994681	-238.431667	309.045898	133.501633
12205.994681	-238.431667	307.750977	62.699852
12205.994681	-238.431667	306.456055	89.010818
12205.994681	-238.431667	305.160156	153.230408
12205.994681	-238.431667	303.865234	524.050232
12205.994681	-238.431667	302.568359	701.420593
12205.994681	-238.431667	301.272461	761.084961
12205.994681	-238.431667	299.975586	879.335388
12205.994681	-238.431667	298.678711	1348.037354
