#X		#Y		#Wave		#Intensity
10994.379787	3136.183333	1999.980469	-37.402081
10994.379787	3136.183333	1999.016602	109.033440
10994.379787	3136.183333	1998.052734	53.628815
10994.379787	3136.183333	1997.087891	-6.684387
10994.379787	3136.183333	1996.123047	-47.124817
10994.379787	3136.183333	1995.158203	14.043591
10994.379787	3136.183333	1994.193359	8.345474
10994.379787	3136.183333	1993.228516	-9.703805
10994.379787	3136.183333	1992.262695	-22.768728
10994.379787	3136.183333	1991.297852	58.265045
10994.379787	3136.183333	1990.332031	-33.949707
10994.379787	3136.183333	1989.366211	84.225578
10994.379787	3136.183333	1988.399414	53.941963
10994.379787	3136.183333	1987.433594	-5.984284
10994.379787	3136.183333	1986.466797	99.832748
10994.379787	3136.183333	1985.500977	-58.931419
10994.379787	3136.183333	1984.534180	46.908558
10994.379787	3136.183333	1983.567383	123.074089
10994.379787	3136.183333	1982.599609	-75.072174
10994.379787	3136.183333	1981.632813	6.080140
10994.379787	3136.183333	1980.665039	-14.057340
10994.379787	3136.183333	1979.697266	-39.102665
10994.379787	3136.183333	1978.729492	-22.133734
10994.379787	3136.183333	1977.761719	-42.181072
10994.379787	3136.183333	1976.792969	159.965286
10994.379787	3136.183333	1975.825195	184.364151
10994.379787	3136.183333	1974.856445	107.605186
10994.379787	3136.183333	1973.887695	176.457870
10994.379787	3136.183333	1972.918945	33.175365
10994.379787	3136.183333	1971.949219	28.074713
10994.379787	3136.183333	1970.980469	-48.506252
10994.379787	3136.183333	1970.010742	-120.107491
10994.379787	3136.183333	1969.041016	173.134583
10994.379787	3136.183333	1968.071289	57.204594
10994.379787	3136.183333	1967.101563	20.183819
10994.379787	3136.183333	1966.130859	42.320087
10994.379787	3136.183333	1965.161133	5.359174
10994.379787	3136.183333	1964.190430	91.557762
10994.379787	3136.183333	1963.219727	54.641624
10994.379787	3136.183333	1962.249023	54.683743
10994.379787	3136.183333	1961.277344	-41.240795
10994.379787	3136.183333	1960.306641	15.455850
10994.379787	3136.183333	1959.334961	10.643366
10994.379787	3136.183333	1958.363281	-55.643013
10994.379787	3136.183333	1957.391602	6.000263
10994.379787	3136.183333	1956.419922	30.756523
10994.379787	3136.183333	1955.447266	13.727832
10994.379787	3136.183333	1954.474609	134.369751
10994.379787	3136.183333	1953.501953	-15.339969
10994.379787	3136.183333	1952.529297	-29.839073
10994.379787	3136.183333	1951.556641	-29.575098
10994.379787	3136.183333	1950.583984	27.197300
10994.379787	3136.183333	1949.610352	79.053436
10994.379787	3136.183333	1948.636719	32.698265
10994.379787	3136.183333	1947.663086	-3.803534
10994.379787	3136.183333	1946.689453	-108.996170
10994.379787	3136.183333	1945.715820	90.144005
10994.379787	3136.183333	1944.741211	200.902863
10994.379787	3136.183333	1943.767578	2.567276
10994.379787	3136.183333	1942.792969	-4.386463
10994.379787	3136.183333	1941.818359	-11.322375
10994.379787	3136.183333	1940.842773	-45.208946
10994.379787	3136.183333	1939.868164	-34.947395
10994.379787	3136.183333	1938.892578	48.843464
10994.379787	3136.183333	1937.916992	34.609604
10994.379787	3136.183333	1936.941406	27.743830
10994.379787	3136.183333	1935.965820	-25.641829
10994.379787	3136.183333	1934.990234	-37.364040
10994.379787	3136.183333	1934.013672	24.381752
10994.379787	3136.183333	1933.037109	27.367138
10994.379787	3136.183333	1932.060547	-111.588326
10994.379787	3136.183333	1931.083984	-84.083549
10994.379787	3136.183333	1930.107422	38.838238
10994.379787	3136.183333	1929.129883	181.294159
10994.379787	3136.183333	1928.153320	-114.059242
10994.379787	3136.183333	1927.175781	30.840216
10994.379787	3136.183333	1926.198242	55.905136
10994.379787	3136.183333	1925.219727	-21.688232
10994.379787	3136.183333	1924.242188	-3.932844
10994.379787	3136.183333	1923.263672	6.495770
10994.379787	3136.183333	1922.285156	97.545815
10994.379787	3136.183333	1921.306641	-116.733673
10994.379787	3136.183333	1920.328125	-45.211121
10994.379787	3136.183333	1919.349609	50.708900
10994.379787	3136.183333	1918.370117	66.046463
10994.379787	3136.183333	1917.391602	59.421749
10994.379787	3136.183333	1916.412109	106.490906
10994.379787	3136.183333	1915.431641	-75.782936
10994.379787	3136.183333	1914.452148	-16.493509
10994.379787	3136.183333	1913.472656	54.975460
10994.379787	3136.183333	1912.492188	136.177795
10994.379787	3136.183333	1911.511719	2.822325
10994.379787	3136.183333	1910.531250	-8.604886
10994.379787	3136.183333	1909.550781	57.962296
10994.379787	3136.183333	1908.569336	-31.427174
10994.379787	3136.183333	1907.588867	78.981003
10994.379787	3136.183333	1906.607422	96.799683
10994.379787	3136.183333	1905.625977	199.848007
10994.379787	3136.183333	1904.644531	-20.952911
10994.379787	3136.183333	1903.662109	-51.795288
10994.379787	3136.183333	1902.680664	2.561927
10994.379787	3136.183333	1901.698242	66.635941
10994.379787	3136.183333	1900.715820	33.374779
10994.379787	3136.183333	1899.733398	48.778168
10994.379787	3136.183333	1898.750000	-1.483779
10994.379787	3136.183333	1897.767578	82.010117
10994.379787	3136.183333	1896.784180	116.854263
10994.379787	3136.183333	1895.800781	39.879951
10994.379787	3136.183333	1894.817383	-37.062981
10994.379787	3136.183333	1893.833984	-33.794628
10994.379787	3136.183333	1892.850586	105.512383
10994.379787	3136.183333	1891.866211	55.322609
10994.379787	3136.183333	1890.881836	-79.838806
10994.379787	3136.183333	1889.897461	54.546921
10994.379787	3136.183333	1888.913086	-63.569801
10994.379787	3136.183333	1887.927734	-89.416779
10994.379787	3136.183333	1886.943359	-1.206670
10994.379787	3136.183333	1885.958008	-10.072556
10994.379787	3136.183333	1884.972656	-174.174362
10994.379787	3136.183333	1883.987305	27.983730
10994.379787	3136.183333	1883.001953	-29.377825
10994.379787	3136.183333	1882.015625	85.402817
10994.379787	3136.183333	1881.029297	141.967972
10994.379787	3136.183333	1880.042969	65.226059
10994.379787	3136.183333	1879.056641	-86.597572
10994.379787	3136.183333	1878.070313	-136.624771
10994.379787	3136.183333	1877.083984	193.616852
10994.379787	3136.183333	1876.096680	-122.817299
10994.379787	3136.183333	1875.109375	83.817162
10994.379787	3136.183333	1874.122070	19.261673
10994.379787	3136.183333	1873.134766	37.012562
10994.379787	3136.183333	1872.146484	-138.824493
10994.379787	3136.183333	1871.159180	-4.932799
10994.379787	3136.183333	1870.170898	-1.712075
10994.379787	3136.183333	1869.182617	6.340383
10994.379787	3136.183333	1868.194336	-130.689255
10994.379787	3136.183333	1867.205078	102.197273
10994.379787	3136.183333	1866.216797	83.624298
10994.379787	3136.183333	1865.227539	84.384949
10994.379787	3136.183333	1864.238281	60.979015
10994.379787	3136.183333	1863.249023	-90.452629
10994.379787	3136.183333	1862.259766	33.497005
10994.379787	3136.183333	1861.269531	31.827600
10994.379787	3136.183333	1860.279297	235.365646
10994.379787	3136.183333	1859.290039	-7.735713
10994.379787	3136.183333	1858.298828	-16.657122
10994.379787	3136.183333	1857.308594	34.741077
10994.379787	3136.183333	1856.318359	-24.860765
10994.379787	3136.183333	1855.327148	151.928116
10994.379787	3136.183333	1854.335938	135.718414
10994.379787	3136.183333	1853.344727	23.062662
10994.379787	3136.183333	1852.353516	43.026527
10994.379787	3136.183333	1851.362305	5.129321
10994.379787	3136.183333	1850.370117	37.119686
10994.379787	3136.183333	1849.377930	-61.012718
10994.379787	3136.183333	1848.385742	-9.769577
10994.379787	3136.183333	1847.393555	63.119881
10994.379787	3136.183333	1846.401367	97.445473
10994.379787	3136.183333	1845.408203	64.338142
10994.379787	3136.183333	1844.415039	76.966301
10994.379787	3136.183333	1843.421875	-57.221535
10994.379787	3136.183333	1842.428711	121.425789
10994.379787	3136.183333	1841.435547	-92.128555
10994.379787	3136.183333	1840.441406	19.089575
10994.379787	3136.183333	1839.448242	82.160057
10994.379787	3136.183333	1838.454102	-37.533058
10994.379787	3136.183333	1837.459961	-3.345685
10994.379787	3136.183333	1836.464844	4.378423
10994.379787	3136.183333	1835.470703	-93.641617
10994.379787	3136.183333	1834.475586	-33.073093
10994.379787	3136.183333	1833.480469	53.882420
10994.379787	3136.183333	1832.485352	75.949829
10994.379787	3136.183333	1831.490234	33.164589
10994.379787	3136.183333	1830.495117	117.619278
10994.379787	3136.183333	1829.499023	34.011093
10994.379787	3136.183333	1828.502930	22.414408
10994.379787	3136.183333	1827.506836	56.395447
10994.379787	3136.183333	1826.510742	-12.801828
10994.379787	3136.183333	1825.513672	25.941113
10994.379787	3136.183333	1824.517578	11.900321
10994.379787	3136.183333	1823.520508	129.712936
10994.379787	3136.183333	1822.523438	-100.108574
10994.379787	3136.183333	1821.526367	127.896065
10994.379787	3136.183333	1820.529297	113.786736
10994.379787	3136.183333	1819.531250	23.003681
10994.379787	3136.183333	1818.533203	59.187847
10994.379787	3136.183333	1817.535156	90.553421
10994.379787	3136.183333	1816.537109	54.849262
10994.379787	3136.183333	1815.539063	69.414574
10994.379787	3136.183333	1814.540039	-30.928141
10994.379787	3136.183333	1813.541992	-2.026520
10994.379787	3136.183333	1812.542969	-40.144592
10994.379787	3136.183333	1811.543945	-68.696472
10994.379787	3136.183333	1810.543945	22.326809
10994.379787	3136.183333	1809.544922	36.781364
10994.379787	3136.183333	1808.544922	-20.509546
10994.379787	3136.183333	1807.544922	27.376457
10994.379787	3136.183333	1806.544922	-89.672089
10994.379787	3136.183333	1805.544922	65.696724
10994.379787	3136.183333	1804.544922	-20.293598
10994.379787	3136.183333	1803.543945	8.376564
10994.379787	3136.183333	1802.542969	108.658981
10994.379787	3136.183333	1801.541992	-48.973331
10994.379787	3136.183333	1800.541016	103.762711
10994.379787	3136.183333	1799.539063	41.620068
10994.379787	3136.183333	1798.538086	77.319008
10994.379787	3136.183333	1797.536133	62.883133
10994.379787	3136.183333	1796.534180	313.205261
10994.379787	3136.183333	1795.532227	-63.808014
10994.379787	3136.183333	1794.529297	60.029335
10994.379787	3136.183333	1793.527344	109.899178
10994.379787	3136.183333	1792.524414	-4.733147
10994.379787	3136.183333	1791.521484	97.517448
10994.379787	3136.183333	1790.518555	11.482903
10994.379787	3136.183333	1789.514648	20.747078
10994.379787	3136.183333	1788.511719	151.456406
10994.379787	3136.183333	1787.507813	48.731815
10994.379787	3136.183333	1786.503906	138.871582
10994.379787	3136.183333	1785.500000	17.105137
10994.379787	3136.183333	1784.496094	-4.678949
10994.379787	3136.183333	1783.491211	9.214915
10994.379787	3136.183333	1782.486328	30.220839
10994.379787	3136.183333	1781.481445	-110.543579
10994.379787	3136.183333	1780.476563	26.963108
10994.379787	3136.183333	1779.471680	5.094337
10994.379787	3136.183333	1778.465820	-7.279577
10994.379787	3136.183333	1777.460938	51.634720
10994.379787	3136.183333	1776.455078	93.869881
10994.379787	3136.183333	1775.449219	38.659008
10994.379787	3136.183333	1774.442383	-37.932354
10994.379787	3136.183333	1773.436523	-50.390469
10994.379787	3136.183333	1772.429688	-5.878618
10994.379787	3136.183333	1771.422852	10.106393
10994.379787	3136.183333	1770.416016	52.173897
10994.379787	3136.183333	1769.409180	108.443001
10994.379787	3136.183333	1768.402344	95.861900
10994.379787	3136.183333	1767.394531	178.151810
10994.379787	3136.183333	1766.386719	18.466421
10994.379787	3136.183333	1765.378906	65.126511
10994.379787	3136.183333	1764.371094	154.424042
10994.379787	3136.183333	1763.362305	1.878973
10994.379787	3136.183333	1762.354492	12.901995
10994.379787	3136.183333	1761.345703	161.330399
10994.379787	3136.183333	1760.336914	110.677383
10994.379787	3136.183333	1759.328125	22.123615
10994.379787	3136.183333	1758.318359	14.098633
10994.379787	3136.183333	1757.308594	22.628899
10994.379787	3136.183333	1756.299805	26.402084
10994.379787	3136.183333	1755.290039	86.953995
10994.379787	3136.183333	1754.279297	17.308016
10994.379787	3136.183333	1753.269531	146.406937
10994.379787	3136.183333	1752.258789	-72.292625
10994.379787	3136.183333	1751.249023	-4.759431
10994.379787	3136.183333	1750.238281	-20.036463
10994.379787	3136.183333	1749.226563	28.500265
10994.379787	3136.183333	1748.215820	34.452450
10994.379787	3136.183333	1747.204102	-89.598976
10994.379787	3136.183333	1746.193359	79.361824
10994.379787	3136.183333	1745.181641	-73.041817
10994.379787	3136.183333	1744.168945	34.394680
10994.379787	3136.183333	1743.157227	21.338154
10994.379787	3136.183333	1742.144531	-53.122345
10994.379787	3136.183333	1741.132813	-28.431700
10994.379787	3136.183333	1740.120117	-3.774375
10994.379787	3136.183333	1739.106445	-106.569817
10994.379787	3136.183333	1738.093750	40.726974
10994.379787	3136.183333	1737.080078	34.626732
10994.379787	3136.183333	1736.067383	-202.600861
10994.379787	3136.183333	1735.053711	55.381039
10994.379787	3136.183333	1734.040039	-63.936245
10994.379787	3136.183333	1733.025391	-169.090378
10994.379787	3136.183333	1732.011719	-128.121552
10994.379787	3136.183333	1730.997070	4.692655
10994.379787	3136.183333	1729.982422	-138.166595
10994.379787	3136.183333	1728.967773	-207.983383
10994.379787	3136.183333	1727.952148	14.181571
10994.379787	3136.183333	1726.937500	-22.720514
10994.379787	3136.183333	1725.921875	27.457426
10994.379787	3136.183333	1724.906250	94.068741
10994.379787	3136.183333	1723.890625	-37.007095
10994.379787	3136.183333	1722.875000	-62.194778
10994.379787	3136.183333	1721.858398	39.610416
10994.379787	3136.183333	1720.841797	82.568565
10994.379787	3136.183333	1719.825195	-3.819249
10994.379787	3136.183333	1718.808594	-130.154984
10994.379787	3136.183333	1717.791992	2.056599
10994.379787	3136.183333	1716.774414	47.255112
10994.379787	3136.183333	1715.756836	19.588522
10994.379787	3136.183333	1714.739258	-31.574884
10994.379787	3136.183333	1713.721680	126.265984
10994.379787	3136.183333	1712.704102	-39.986412
10994.379787	3136.183333	1711.685547	-9.009703
10994.379787	3136.183333	1710.667969	54.796856
10994.379787	3136.183333	1709.649414	-64.475853
10994.379787	3136.183333	1708.630859	-113.338425
10994.379787	3136.183333	1707.611328	-47.266392
10994.379787	3136.183333	1706.592773	82.085762
10994.379787	3136.183333	1705.573242	-44.214153
10994.379787	3136.183333	1704.553711	68.636345
10994.379787	3136.183333	1703.534180	54.856140
10994.379787	3136.183333	1702.513672	62.150780
10994.379787	3136.183333	1701.494141	-26.635010
10994.379787	3136.183333	1700.473633	-17.021957
10994.379787	3136.183333	1699.453125	-87.060516
10994.379787	3136.183333	1698.432617	-51.717804
10994.379787	3136.183333	1697.412109	51.488266
10994.379787	3136.183333	1696.390625	-6.876010
10994.379787	3136.183333	1695.369141	51.778152
10994.379787	3136.183333	1694.347656	70.615479
10994.379787	3136.183333	1693.326172	-25.201277
10994.379787	3136.183333	1692.304688	-88.252495
10994.379787	3136.183333	1691.282227	59.162811
10994.379787	3136.183333	1690.260742	-20.280178
10994.379787	3136.183333	1689.238281	54.567421
10994.379787	3136.183333	1688.214844	115.343933
10994.379787	3136.183333	1687.192383	-66.930168
10994.379787	3136.183333	1686.168945	-31.883900
10994.379787	3136.183333	1685.146484	-31.900541
10994.379787	3136.183333	1684.123047	80.159401
10994.379787	3136.183333	1683.099609	66.077774
10994.379787	3136.183333	1682.075195	-1.709166
10994.379787	3136.183333	1681.051758	79.892960
10994.379787	3136.183333	1680.027344	9.766221
10994.379787	3136.183333	1679.002930	46.973293
10994.379787	3136.183333	1677.978516	51.494850
10994.379787	3136.183333	1676.953125	25.678719
10994.379787	3136.183333	1675.928711	60.486591
10994.379787	3136.183333	1674.903320	74.282364
10994.379787	3136.183333	1673.877930	120.690796
10994.379787	3136.183333	1672.852539	-79.952942
10994.379787	3136.183333	1671.826172	108.563194
10994.379787	3136.183333	1670.800781	157.227875
10994.379787	3136.183333	1669.774414	163.934692
10994.379787	3136.183333	1668.748047	98.439796
10994.379787	3136.183333	1667.721680	114.443130
10994.379787	3136.183333	1666.694336	90.853470
10994.379787	3136.183333	1665.667969	55.628349
10994.379787	3136.183333	1664.640625	355.459106
10994.379787	3136.183333	1663.613281	127.083427
10994.379787	3136.183333	1662.585938	196.498611
10994.379787	3136.183333	1661.557617	165.878036
10994.379787	3136.183333	1660.530273	102.712059
10994.379787	3136.183333	1659.501953	109.293015
10994.379787	3136.183333	1658.473633	143.749756
10994.379787	3136.183333	1657.444336	101.499283
10994.379787	3136.183333	1656.416016	10.471488
10994.379787	3136.183333	1655.386719	223.745743
10994.379787	3136.183333	1654.358398	132.710464
10994.379787	3136.183333	1653.328125	55.624935
10994.379787	3136.183333	1652.298828	131.776749
10994.379787	3136.183333	1651.269531	254.308990
10994.379787	3136.183333	1650.239258	126.167435
10994.379787	3136.183333	1649.208984	188.311584
10994.379787	3136.183333	1648.178711	113.566887
10994.379787	3136.183333	1647.148438	143.205566
10994.379787	3136.183333	1646.117188	133.403397
10994.379787	3136.183333	1645.086914	241.832581
10994.379787	3136.183333	1644.055664	229.683212
10994.379787	3136.183333	1643.024414	247.657547
10994.379787	3136.183333	1641.992188	360.608032
10994.379787	3136.183333	1640.960938	420.233826
10994.379787	3136.183333	1639.928711	299.177612
10994.379787	3136.183333	1638.896484	256.892120
10994.379787	3136.183333	1637.864258	374.360077
10994.379787	3136.183333	1636.832031	320.492340
10994.379787	3136.183333	1635.798828	292.093109
10994.379787	3136.183333	1634.766602	201.232132
10994.379787	3136.183333	1633.733398	246.884598
10994.379787	3136.183333	1632.699219	378.087402
10994.379787	3136.183333	1631.666016	351.994843
10994.379787	3136.183333	1630.632813	300.476929
10994.379787	3136.183333	1629.598633	292.891052
10994.379787	3136.183333	1628.564453	308.416046
10994.379787	3136.183333	1627.530273	270.788055
10994.379787	3136.183333	1626.495117	154.622208
10994.379787	3136.183333	1625.460938	311.050842
10994.379787	3136.183333	1624.425781	448.939270
10994.379787	3136.183333	1623.390625	242.756866
10994.379787	3136.183333	1622.355469	429.077667
10994.379787	3136.183333	1621.319336	252.976288
10994.379787	3136.183333	1620.284180	374.611450
10994.379787	3136.183333	1619.248047	258.571106
10994.379787	3136.183333	1618.211914	354.781219
10994.379787	3136.183333	1617.174805	444.032227
10994.379787	3136.183333	1616.138672	125.145424
10994.379787	3136.183333	1615.101563	170.608215
10994.379787	3136.183333	1614.065430	312.858582
10994.379787	3136.183333	1613.027344	305.265442
10994.379787	3136.183333	1611.990234	445.129883
10994.379787	3136.183333	1610.953125	460.555847
10994.379787	3136.183333	1609.915039	416.096100
10994.379787	3136.183333	1608.876953	415.405029
10994.379787	3136.183333	1607.838867	511.404816
10994.379787	3136.183333	1606.800781	430.143066
10994.379787	3136.183333	1605.761719	355.816162
10994.379787	3136.183333	1604.723633	339.044525
10994.379787	3136.183333	1603.684570	184.261520
10994.379787	3136.183333	1602.644531	317.021637
10994.379787	3136.183333	1601.605469	343.965393
10994.379787	3136.183333	1600.566406	506.541992
10994.379787	3136.183333	1599.526367	386.339844
10994.379787	3136.183333	1598.486328	374.198914
10994.379787	3136.183333	1597.446289	417.211273
10994.379787	3136.183333	1596.405273	304.001953
10994.379787	3136.183333	1595.365234	330.946777
10994.379787	3136.183333	1594.324219	445.141724
10994.379787	3136.183333	1593.283203	428.437927
10994.379787	3136.183333	1592.242188	432.406006
10994.379787	3136.183333	1591.200195	406.542633
10994.379787	3136.183333	1590.159180	442.651245
10994.379787	3136.183333	1589.117188	554.453430
10994.379787	3136.183333	1588.075195	441.449646
10994.379787	3136.183333	1587.032227	351.426697
10994.379787	3136.183333	1585.990234	447.158600
10994.379787	3136.183333	1584.947266	368.649780
10994.379787	3136.183333	1583.904297	356.642365
10994.379787	3136.183333	1582.861328	472.964294
10994.379787	3136.183333	1581.818359	527.397583
10994.379787	3136.183333	1580.775391	531.430298
10994.379787	3136.183333	1579.731445	572.108154
10994.379787	3136.183333	1578.687500	553.253662
10994.379787	3136.183333	1577.643555	639.716370
10994.379787	3136.183333	1576.598633	568.236755
10994.379787	3136.183333	1575.554688	583.752075
10994.379787	3136.183333	1574.509766	734.247559
10994.379787	3136.183333	1573.464844	676.552612
10994.379787	3136.183333	1572.419922	660.056152
10994.379787	3136.183333	1571.374023	691.590515
10994.379787	3136.183333	1570.329102	732.273193
10994.379787	3136.183333	1569.283203	814.089844
10994.379787	3136.183333	1568.237305	660.527527
10994.379787	3136.183333	1567.191406	488.762878
10994.379787	3136.183333	1566.144531	518.083374
10994.379787	3136.183333	1565.098633	652.461182
10994.379787	3136.183333	1564.051758	572.171814
10994.379787	3136.183333	1563.004883	681.402893
10994.379787	3136.183333	1561.957031	521.284790
10994.379787	3136.183333	1560.910156	475.344757
10994.379787	3136.183333	1559.862305	623.361267
10994.379787	3136.183333	1558.814453	429.183136
10994.379787	3136.183333	1557.766602	371.932648
10994.379787	3136.183333	1556.718750	314.721863
10994.379787	3136.183333	1555.669922	330.497681
10994.379787	3136.183333	1554.621094	419.221069
10994.379787	3136.183333	1553.573242	371.203949
10994.379787	3136.183333	1552.523438	184.239594
10994.379787	3136.183333	1551.474609	213.769653
10994.379787	3136.183333	1550.424805	190.923538
10994.379787	3136.183333	1549.375000	231.860825
10994.379787	3136.183333	1548.325195	54.254650
10994.379787	3136.183333	1547.275391	174.905563
10994.379787	3136.183333	1546.225586	133.959335
10994.379787	3136.183333	1545.174805	236.383499
10994.379787	3136.183333	1544.124023	250.072922
10994.379787	3136.183333	1543.073242	368.395996
10994.379787	3136.183333	1542.022461	222.927200
10994.379787	3136.183333	1540.970703	198.024811
10994.379787	3136.183333	1539.919922	114.060005
10994.379787	3136.183333	1538.868164	207.403366
10994.379787	3136.183333	1537.815430	262.104492
10994.379787	3136.183333	1536.763672	87.376770
10994.379787	3136.183333	1535.710938	133.041077
10994.379787	3136.183333	1534.659180	278.624634
10994.379787	3136.183333	1533.606445	199.415192
10994.379787	3136.183333	1532.552734	217.860352
10994.379787	3136.183333	1531.500000	181.859741
10994.379787	3136.183333	1530.446289	86.903419
10994.379787	3136.183333	1529.393555	78.213676
10994.379787	3136.183333	1528.338867	221.504654
10994.379787	3136.183333	1527.285156	97.192566
10994.379787	3136.183333	1526.231445	45.503082
10994.379787	3136.183333	1525.176758	23.323586
10994.379787	3136.183333	1524.122070	41.971306
10994.379787	3136.183333	1523.067383	76.498222
10994.379787	3136.183333	1522.012695	-45.270718
10994.379787	3136.183333	1520.957031	-51.457813
10994.379787	3136.183333	1519.901367	-5.533535
10994.379787	3136.183333	1518.845703	67.567276
10994.379787	3136.183333	1517.790039	0.327259
10994.379787	3136.183333	1516.734375	-17.070753
10994.379787	3136.183333	1515.677734	85.483505
10994.379787	3136.183333	1514.621094	-20.096802
10994.379787	3136.183333	1513.564453	64.380432
10994.379787	3136.183333	1512.507813	112.671272
10994.379787	3136.183333	1511.450195	86.361664
10994.379787	3136.183333	1510.393555	71.395111
10994.379787	3136.183333	1509.335938	-167.274460
10994.379787	3136.183333	1508.278320	-132.419098
10994.379787	3136.183333	1507.219727	-115.622208
10994.379787	3136.183333	1506.162109	-125.903893
10994.379787	3136.183333	1505.103516	51.274967
10994.379787	3136.183333	1504.044922	68.115326
10994.379787	3136.183333	1502.986328	-174.606766
10994.379787	3136.183333	1501.926758	-40.313877
10994.379787	3136.183333	1500.868164	82.676178
10994.379787	3136.183333	1499.808594	-62.808620
10994.379787	3136.183333	1498.749023	3.810463
10994.379787	3136.183333	1497.688477	90.728615
10994.379787	3136.183333	1496.628906	35.606789
10994.379787	3136.183333	1495.568359	-35.242420
10994.379787	3136.183333	1494.507813	74.263977
10994.379787	3136.183333	1493.447266	170.239914
10994.379787	3136.183333	1492.386719	4.885749
10994.379787	3136.183333	1491.325195	42.339714
10994.379787	3136.183333	1490.263672	-111.599998
10994.379787	3136.183333	1489.202148	61.014999
10994.379787	3136.183333	1488.140625	-7.262886
10994.379787	3136.183333	1487.079102	73.056732
10994.379787	3136.183333	1486.016602	103.873947
10994.379787	3136.183333	1484.954102	17.729935
10994.379787	3136.183333	1483.891602	64.358246
10994.379787	3136.183333	1482.829102	77.270729
10994.379787	3136.183333	1481.765625	13.768003
10994.379787	3136.183333	1480.702148	-148.581070
10994.379787	3136.183333	1479.638672	-61.354961
10994.379787	3136.183333	1478.575195	-19.091146
10994.379787	3136.183333	1477.511719	-50.909611
10994.379787	3136.183333	1476.447266	150.824875
10994.379787	3136.183333	1475.382813	-13.418118
10994.379787	3136.183333	1474.318359	-18.204384
10994.379787	3136.183333	1473.253906	-85.732048
10994.379787	3136.183333	1472.189453	-45.518578
10994.379787	3136.183333	1471.124023	-70.459351
10994.379787	3136.183333	1470.058594	-153.446793
10994.379787	3136.183333	1468.993164	-140.144363
10994.379787	3136.183333	1467.927734	-124.559784
10994.379787	3136.183333	1466.861328	-75.206467
10994.379787	3136.183333	1465.794922	23.497635
10994.379787	3136.183333	1464.728516	-7.959111
10994.379787	3136.183333	1463.662109	95.170952
10994.379787	3136.183333	1462.594727	-269.164551
10994.379787	3136.183333	1461.528320	79.826431
10994.379787	3136.183333	1460.460938	48.787151
10994.379787	3136.183333	1459.393555	62.594841
10994.379787	3136.183333	1458.326172	-100.718185
10994.379787	3136.183333	1457.257813	-23.950232
10994.379787	3136.183333	1456.189453	11.890084
10994.379787	3136.183333	1455.121094	85.502541
10994.379787	3136.183333	1454.052734	62.127914
10994.379787	3136.183333	1452.984375	39.723309
10994.379787	3136.183333	1451.915039	-6.292614
10994.379787	3136.183333	1450.845703	154.860886
10994.379787	3136.183333	1449.776367	23.411392
10994.379787	3136.183333	1448.707031	17.955643
10994.379787	3136.183333	1447.636719	138.532547
10994.379787	3136.183333	1446.567383	139.807617
10994.379787	3136.183333	1445.497070	109.077408
10994.379787	3136.183333	1444.425781	-1.319550
10994.379787	3136.183333	1443.355469	91.010544
10994.379787	3136.183333	1442.285156	35.883018
10994.379787	3136.183333	1441.213867	132.090408
10994.379787	3136.183333	1440.142578	39.916000
10994.379787	3136.183333	1439.070313	15.465364
10994.379787	3136.183333	1437.999023	229.325302
10994.379787	3136.183333	1436.926758	89.058037
10994.379787	3136.183333	1435.854492	-28.648010
10994.379787	3136.183333	1434.782227	29.206675
10994.379787	3136.183333	1433.709961	212.183136
10994.379787	3136.183333	1432.636719	126.269470
10994.379787	3136.183333	1431.563477	164.006958
10994.379787	3136.183333	1430.490234	19.799397
10994.379787	3136.183333	1429.416992	110.102844
10994.379787	3136.183333	1428.343750	-12.505078
10994.379787	3136.183333	1427.269531	22.834017
10994.379787	3136.183333	1426.195313	-69.503342
10994.379787	3136.183333	1425.121094	13.518465
10994.379787	3136.183333	1424.046875	135.230484
10994.379787	3136.183333	1422.971680	90.128906
10994.379787	3136.183333	1421.896484	-95.349823
10994.379787	3136.183333	1420.821289	30.965652
10994.379787	3136.183333	1419.746094	-119.951073
10994.379787	3136.183333	1418.669922	-142.073868
10994.379787	3136.183333	1417.594727	-2.774404
10994.379787	3136.183333	1416.518555	-113.420769
10994.379787	3136.183333	1415.442383	-53.522564
10994.379787	3136.183333	1414.365234	-34.980785
10994.379787	3136.183333	1413.289063	-88.211815
10994.379787	3136.183333	1412.211914	-11.962397
10994.379787	3136.183333	1411.134766	-15.193937
10994.379787	3136.183333	1410.057617	-57.050545
10994.379787	3136.183333	1408.979492	-105.575623
10994.379787	3136.183333	1407.902344	-13.427147
10994.379787	3136.183333	1406.824219	-70.017036
10994.379787	3136.183333	1405.746094	17.565178
10994.379787	3136.183333	1404.666992	-50.854652
10994.379787	3136.183333	1403.588867	42.048126
10994.379787	3136.183333	1402.509766	-5.347129
10994.379787	3136.183333	1401.430664	120.546654
10994.379787	3136.183333	1400.351563	45.641495
10994.379787	3136.183333	1399.271484	111.016830
10994.379787	3136.183333	1398.192383	7.996951
10994.379787	3136.183333	1397.112305	57.833130
10994.379787	3136.183333	1396.031250	-8.554222
10994.379787	3136.183333	1394.951172	152.340118
10994.379787	3136.183333	1393.871094	10.448198
10994.379787	3136.183333	1392.790039	77.833511
10994.379787	3136.183333	1391.708984	85.605736
10994.379787	3136.183333	1390.626953	83.370438
10994.379787	3136.183333	1389.545898	104.645187
10994.379787	3136.183333	1388.463867	99.500145
10994.379787	3136.183333	1387.381836	229.452545
10994.379787	3136.183333	1386.299805	93.555489
10994.379787	3136.183333	1385.217773	109.278091
10994.379787	3136.183333	1384.134766	89.933128
10994.379787	3136.183333	1383.051758	-26.607317
10994.379787	3136.183333	1381.968750	31.234739
10994.379787	3136.183333	1380.885742	133.953781
10994.379787	3136.183333	1379.802734	115.917366
10994.379787	3136.183333	1378.718750	41.791424
10994.379787	3136.183333	1377.634766	188.863403
10994.379787	3136.183333	1376.550781	129.883133
10994.379787	3136.183333	1375.465820	81.084541
10994.379787	3136.183333	1374.381836	215.255219
10994.379787	3136.183333	1373.296875	214.281158
10994.379787	3136.183333	1372.211914	165.414948
10994.379787	3136.183333	1371.126953	205.874664
10994.379787	3136.183333	1370.041016	73.811859
10994.379787	3136.183333	1368.955078	5.490249
10994.379787	3136.183333	1367.869141	61.338367
10994.379787	3136.183333	1366.783203	157.461502
10994.379787	3136.183333	1365.697266	65.373650
10994.379787	3136.183333	1364.610352	167.631271
10994.379787	3136.183333	1363.523438	107.285011
10994.379787	3136.183333	1362.436523	33.974346
10994.379787	3136.183333	1361.349609	157.757187
10994.379787	3136.183333	1360.261719	49.108082
10994.379787	3136.183333	1359.174805	108.803459
10994.379787	3136.183333	1358.086914	168.306320
10994.379787	3136.183333	1356.998047	247.804031
10994.379787	3136.183333	1355.910156	-52.401260
10994.379787	3136.183333	1354.821289	-108.142303
10994.379787	3136.183333	1353.732422	89.689842
10994.379787	3136.183333	1352.643555	63.495365
10994.379787	3136.183333	1351.554688	43.618294
10994.379787	3136.183333	1350.464844	32.647682
10994.379787	3136.183333	1349.375000	88.280724
10994.379787	3136.183333	1348.285156	14.392205
10994.379787	3136.183333	1347.195313	27.726044
10994.379787	3136.183333	1346.105469	14.065709
10994.379787	3136.183333	1345.014648	-22.269632
10994.379787	3136.183333	1343.923828	22.750555
10994.379787	3136.183333	1342.833008	50.821358
10994.379787	3136.183333	1341.741211	34.795212
10994.379787	3136.183333	1340.650391	136.807388
10994.379787	3136.183333	1339.558594	5.190966
10994.379787	3136.183333	1338.466797	101.015381
10994.379787	3136.183333	1337.374023	97.049683
10994.379787	3136.183333	1336.282227	73.166710
10994.379787	3136.183333	1335.189453	45.555691
10994.379787	3136.183333	1334.096680	-70.537766
10994.379787	3136.183333	1333.003906	86.705917
10994.379787	3136.183333	1331.910156	60.232651
10994.379787	3136.183333	1330.817383	11.091771
10994.379787	3136.183333	1329.723633	38.744724
10994.379787	3136.183333	1328.629883	-13.137242
10994.379787	3136.183333	1327.535156	144.330841
10994.379787	3136.183333	1326.441406	1.228881
10994.379787	3136.183333	1325.346680	71.735283
10994.379787	3136.183333	1324.251953	77.955292
10994.379787	3136.183333	1323.156250	-52.127411
10994.379787	3136.183333	1322.061523	0.703588
10994.379787	3136.183333	1320.965820	-66.837944
10994.379787	3136.183333	1319.870117	97.461517
10994.379787	3136.183333	1318.774414	2.815562
10994.379787	3136.183333	1317.678711	150.009079
10994.379787	3136.183333	1316.582031	43.419437
10994.379787	3136.183333	1315.485352	3.985164
10994.379787	3136.183333	1314.388672	-93.403397
10994.379787	3136.183333	1313.291016	114.204918
10994.379787	3136.183333	1312.194336	15.544172
10994.379787	3136.183333	1311.096680	43.283096
10994.379787	3136.183333	1309.999023	-39.300541
10994.379787	3136.183333	1308.901367	210.831055
10994.379787	3136.183333	1307.802734	77.491463
10994.379787	3136.183333	1306.705078	51.789989
10994.379787	3136.183333	1305.606445	29.180748
10994.379787	3136.183333	1304.506836	76.275803
10994.379787	3136.183333	1303.408203	23.176550
10994.379787	3136.183333	1302.308594	-30.560755
10994.379787	3136.183333	1301.208984	36.756519
10994.379787	3136.183333	1300.109375	32.856106
10994.379787	3136.183333	1299.009766	140.625397
10994.379787	3136.183333	1297.909180	79.929871
10994.379787	3136.183333	1296.808594	84.298500
10994.379787	3136.183333	1295.708008	31.104042
10994.379787	3136.183333	1294.607422	25.040031
10994.379787	3136.183333	1293.506836	91.543671
10994.379787	3136.183333	1292.405273	-7.208458
10994.379787	3136.183333	1291.303711	-141.218216
10994.379787	3136.183333	1290.202148	12.907134
10994.379787	3136.183333	1289.099609	-67.401360
10994.379787	3136.183333	1287.998047	12.162275
10994.379787	3136.183333	1286.895508	47.119110
10994.379787	3136.183333	1285.792969	-12.385845
10994.379787	3136.183333	1284.689453	-12.966911
10994.379787	3136.183333	1283.586914	24.222775
10994.379787	3136.183333	1282.483398	42.370911
10994.379787	3136.183333	1281.379883	-46.834103
10994.379787	3136.183333	1280.276367	95.852539
10994.379787	3136.183333	1279.171875	-41.355301
10994.379787	3136.183333	1278.067383	24.282503
10994.379787	3136.183333	1276.962891	-49.208981
10994.379787	3136.183333	1275.858398	35.046886
10994.379787	3136.183333	1274.753906	43.588852
10994.379787	3136.183333	1273.648438	52.269505
10994.379787	3136.183333	1272.542969	-3.665723
10994.379787	3136.183333	1271.437500	-94.855827
10994.379787	3136.183333	1270.331055	-81.743591
10994.379787	3136.183333	1269.225586	-31.511776
10994.379787	3136.183333	1268.119141	21.684361
10994.379787	3136.183333	1267.012695	48.002293
10994.379787	3136.183333	1265.906250	-28.369823
10994.379787	3136.183333	1264.798828	-79.995323
10994.379787	3136.183333	1263.691406	-7.108863
10994.379787	3136.183333	1262.583984	73.918640
10994.379787	3136.183333	1261.476563	0.268986
10994.379787	3136.183333	1260.368164	70.497528
10994.379787	3136.183333	1259.260742	-25.442450
10994.379787	3136.183333	1258.152344	-30.830053
10994.379787	3136.183333	1257.043945	89.777260
10994.379787	3136.183333	1255.934570	25.023727
10994.379787	3136.183333	1254.825195	-81.466957
10994.379787	3136.183333	1253.716797	-46.221058
10994.379787	3136.183333	1252.606445	-161.798309
10994.379787	3136.183333	1251.497070	32.009312
10994.379787	3136.183333	1250.387695	33.952023
10994.379787	3136.183333	1249.277344	31.034945
10994.379787	3136.183333	1248.166992	-53.155876
10994.379787	3136.183333	1247.055664	-107.725174
10994.379787	3136.183333	1245.945313	1.758215
10994.379787	3136.183333	1244.833984	-17.905079
10994.379787	3136.183333	1243.722656	-39.012821
10994.379787	3136.183333	1242.611328	19.185640
10994.379787	3136.183333	1241.499023	52.346836
10994.379787	3136.183333	1240.387695	-4.530737
10994.379787	3136.183333	1239.275391	23.927814
10994.379787	3136.183333	1238.162109	20.138197
10994.379787	3136.183333	1237.049805	31.692646
10994.379787	3136.183333	1235.936523	-33.046623
10994.379787	3136.183333	1234.823242	25.196815
10994.379787	3136.183333	1233.709961	-9.050008
10994.379787	3136.183333	1232.596680	-70.129692
10994.379787	3136.183333	1231.482422	-38.676712
10994.379787	3136.183333	1230.369141	-6.335168
10994.379787	3136.183333	1229.253906	-143.186066
10994.379787	3136.183333	1228.139648	115.638565
10994.379787	3136.183333	1227.025391	41.430542
10994.379787	3136.183333	1225.910156	62.726284
10994.379787	3136.183333	1224.794922	6.635233
10994.379787	3136.183333	1223.679688	49.890965
10994.379787	3136.183333	1222.563477	-53.395382
10994.379787	3136.183333	1221.447266	90.464241
10994.379787	3136.183333	1220.331055	42.723934
10994.379787	3136.183333	1219.214844	53.770584
10994.379787	3136.183333	1218.098633	-25.067974
10994.379787	3136.183333	1216.981445	-50.215763
10994.379787	3136.183333	1215.864258	-67.278183
10994.379787	3136.183333	1214.747070	-96.900551
10994.379787	3136.183333	1213.629883	-91.027008
10994.379787	3136.183333	1212.511719	23.378380
10994.379787	3136.183333	1211.393555	-8.919169
10994.379787	3136.183333	1210.275391	-71.525902
10994.379787	3136.183333	1209.157227	-88.018288
10994.379787	3136.183333	1208.038086	16.259235
10994.379787	3136.183333	1206.918945	-53.590206
10994.379787	3136.183333	1205.799805	79.194817
10994.379787	3136.183333	1204.680664	-26.799551
10994.379787	3136.183333	1203.560547	62.974312
10994.379787	3136.183333	1202.441406	10.293833
10994.379787	3136.183333	1201.321289	-86.930519
10994.379787	3136.183333	1200.200195	-75.734680
10994.379787	3136.183333	1199.080078	-18.730356
10994.379787	3136.183333	1197.958984	31.959209
10994.379787	3136.183333	1196.837891	-28.750284
10994.379787	3136.183333	1195.716797	-46.896713
10994.379787	3136.183333	1194.594727	-15.096062
10994.379787	3136.183333	1193.473633	11.661140
10994.379787	3136.183333	1192.351563	1.650997
10994.379787	3136.183333	1191.229492	78.311226
10994.379787	3136.183333	1190.106445	-56.545975
10994.379787	3136.183333	1188.984375	-120.822670
10994.379787	3136.183333	1187.861328	13.711772
10994.379787	3136.183333	1186.738281	-31.420912
10994.379787	3136.183333	1185.614258	-114.079445
10994.379787	3136.183333	1184.491211	23.515829
10994.379787	3136.183333	1183.367188	20.998301
10994.379787	3136.183333	1182.243164	-44.274796
10994.379787	3136.183333	1181.119141	-85.065918
10994.379787	3136.183333	1179.994141	136.420471
10994.379787	3136.183333	1178.869141	-61.666851
10994.379787	3136.183333	1177.744141	-7.057629
10994.379787	3136.183333	1176.619141	47.314796
10994.379787	3136.183333	1175.493164	7.101390
10994.379787	3136.183333	1174.368164	-186.760773
10994.379787	3136.183333	1173.242188	-27.302021
10994.379787	3136.183333	1172.115234	-21.430355
10994.379787	3136.183333	1170.989258	-100.654907
10994.379787	3136.183333	1169.862305	80.088638
10994.379787	3136.183333	1168.735352	-18.497108
10994.379787	3136.183333	1167.608398	-19.335232
10994.379787	3136.183333	1166.481445	-70.884933
10994.379787	3136.183333	1165.353516	-102.404518
10994.379787	3136.183333	1164.225586	-38.486725
10994.379787	3136.183333	1163.097656	-70.804138
10994.379787	3136.183333	1161.968750	13.118799
10994.379787	3136.183333	1160.840820	-37.289299
10994.379787	3136.183333	1159.711914	-3.496557
10994.379787	3136.183333	1158.583008	-43.562439
10994.379787	3136.183333	1157.453125	-19.662804
10994.379787	3136.183333	1156.324219	-51.138935
10994.379787	3136.183333	1155.194336	72.474541
10994.379787	3136.183333	1154.064453	-72.921341
10994.379787	3136.183333	1152.933594	-9.812533
10994.379787	3136.183333	1151.803711	-43.553379
10994.379787	3136.183333	1150.672852	44.191986
10994.379787	3136.183333	1149.541992	-72.307159
10994.379787	3136.183333	1148.411133	34.419231
10994.379787	3136.183333	1147.279297	-23.223772
10994.379787	3136.183333	1146.147461	-141.620148
10994.379787	3136.183333	1145.015625	-16.637753
10994.379787	3136.183333	1143.883789	-36.201553
10994.379787	3136.183333	1142.750977	-33.278591
10994.379787	3136.183333	1141.619141	-107.316162
10994.379787	3136.183333	1140.486328	-46.830231
10994.379787	3136.183333	1139.352539	-62.566601
10994.379787	3136.183333	1138.219727	-63.902149
10994.379787	3136.183333	1137.085938	37.531349
10994.379787	3136.183333	1135.952148	31.765125
10994.379787	3136.183333	1134.818359	29.631060
10994.379787	3136.183333	1133.683594	33.106331
10994.379787	3136.183333	1132.549805	-4.708694
10994.379787	3136.183333	1131.415039	14.511083
10994.379787	3136.183333	1130.279297	87.698578
10994.379787	3136.183333	1129.144531	-59.743973
10994.379787	3136.183333	1128.008789	116.503067
10994.379787	3136.183333	1126.873047	75.746956
10994.379787	3136.183333	1125.737305	76.782982
10994.379787	3136.183333	1124.601563	52.626167
10994.379787	3136.183333	1123.464844	132.732071
10994.379787	3136.183333	1122.328125	103.200508
10994.379787	3136.183333	1121.191406	67.685188
10994.379787	3136.183333	1120.054688	-40.419464
10994.379787	3136.183333	1118.916992	119.112061
10994.379787	3136.183333	1117.779297	135.327438
10994.379787	3136.183333	1116.641602	118.753906
10994.379787	3136.183333	1115.503906	18.994890
10994.379787	3136.183333	1114.365234	179.241165
10994.379787	3136.183333	1113.226563	118.951630
10994.379787	3136.183333	1112.087891	168.017807
10994.379787	3136.183333	1110.949219	57.340466
10994.379787	3136.183333	1109.809570	-12.201671
10994.379787	3136.183333	1108.669922	58.962681
10994.379787	3136.183333	1107.530273	-16.400927
10994.379787	3136.183333	1106.390625	98.100006
10994.379787	3136.183333	1105.250000	20.252810
10994.379787	3136.183333	1104.109375	46.554646
10994.379787	3136.183333	1102.968750	136.682693
10994.379787	3136.183333	1101.828125	43.167667
10994.379787	3136.183333	1100.686523	107.845634
10994.379787	3136.183333	1099.544922	127.118164
10994.379787	3136.183333	1098.403320	191.204926
10994.379787	3136.183333	1097.261719	54.499901
10994.379787	3136.183333	1096.120117	147.736465
10994.379787	3136.183333	1094.977539	127.467880
10994.379787	3136.183333	1093.834961	174.672012
10994.379787	3136.183333	1092.691406	156.613037
10994.379787	3136.183333	1091.548828	45.845936
10994.379787	3136.183333	1090.405273	227.373734
10994.379787	3136.183333	1089.261719	52.708057
10994.379787	3136.183333	1088.118164	203.239990
10994.379787	3136.183333	1086.973633	202.131577
10994.379787	3136.183333	1085.829102	178.020020
10994.379787	3136.183333	1084.684570	51.634293
10994.379787	3136.183333	1083.540039	56.038357
10994.379787	3136.183333	1082.395508	83.935326
10994.379787	3136.183333	1081.250000	33.520855
10994.379787	3136.183333	1080.104492	62.186153
10994.379787	3136.183333	1078.958984	111.946846
10994.379787	3136.183333	1077.812500	200.640137
10994.379787	3136.183333	1076.666016	9.975673
10994.379787	3136.183333	1075.519531	38.956871
10994.379787	3136.183333	1074.373047	9.122322
10994.379787	3136.183333	1073.226563	86.461304
10994.379787	3136.183333	1072.079102	104.010139
10994.379787	3136.183333	1070.931641	158.646088
10994.379787	3136.183333	1069.784180	113.594238
10994.379787	3136.183333	1068.635742	85.891884
10994.379787	3136.183333	1067.487305	-18.780462
10994.379787	3136.183333	1066.338867	74.811127
10994.379787	3136.183333	1065.190430	201.400085
10994.379787	3136.183333	1064.041992	82.409294
10994.379787	3136.183333	1062.892578	192.497528
10994.379787	3136.183333	1061.743164	110.619331
10994.379787	3136.183333	1060.593750	284.054077
10994.379787	3136.183333	1059.443359	315.734863
10994.379787	3136.183333	1058.292969	135.013809
10994.379787	3136.183333	1057.142578	39.689293
10994.379787	3136.183333	1055.992188	146.161285
10994.379787	3136.183333	1054.841797	102.809258
10994.379787	3136.183333	1053.690430	29.680475
10994.379787	3136.183333	1052.539063	0.620331
10994.379787	3136.183333	1051.387695	-28.657236
10994.379787	3136.183333	1050.235352	155.978500
10994.379787	3136.183333	1049.083984	129.029953
10994.379787	3136.183333	1047.931641	219.459198
10994.379787	3136.183333	1046.778320	159.002548
10994.379787	3136.183333	1045.625977	23.677721
10994.379787	3136.183333	1044.472656	-76.479141
10994.379787	3136.183333	1043.319336	88.221771
10994.379787	3136.183333	1042.166016	82.086212
10994.379787	3136.183333	1041.012695	-16.202614
10994.379787	3136.183333	1039.858398	189.665558
10994.379787	3136.183333	1038.704102	161.051514
10994.379787	3136.183333	1037.549805	125.428505
10994.379787	3136.183333	1036.394531	2.534971
10994.379787	3136.183333	1035.239258	55.002274
10994.379787	3136.183333	1034.083984	159.563431
10994.379787	3136.183333	1032.928711	171.074524
10994.379787	3136.183333	1031.773438	53.243671
10994.379787	3136.183333	1030.617188	190.622696
10994.379787	3136.183333	1029.460938	114.520325
10994.379787	3136.183333	1028.304688	22.175449
10994.379787	3136.183333	1027.147461	-26.296188
10994.379787	3136.183333	1025.991211	68.873787
10994.379787	3136.183333	1024.833984	164.365463
10994.379787	3136.183333	1023.675781	61.018288
10994.379787	3136.183333	1022.518555	41.639301
10994.379787	3136.183333	1021.360352	64.088188
10994.379787	3136.183333	1020.202148	29.060059
10994.379787	3136.183333	1019.043945	50.610722
10994.379787	3136.183333	1017.884766	29.251308
10994.379787	3136.183333	1016.726563	-64.994629
10994.379787	3136.183333	1015.567383	-3.221671
10994.379787	3136.183333	1014.407227	28.271929
10994.379787	3136.183333	1013.248047	-3.132737
10994.379787	3136.183333	1012.087891	-53.084557
10994.379787	3136.183333	1010.927734	76.907639
10994.379787	3136.183333	1009.767578	76.940689
10994.379787	3136.183333	1008.606445	48.977261
10994.379787	3136.183333	1007.446289	25.852724
10994.379787	3136.183333	1006.285156	-10.996516
10994.379787	3136.183333	1005.123047	93.157684
10994.379787	3136.183333	1003.961914	42.450592
10994.379787	3136.183333	1002.799805	161.326828
10994.379787	3136.183333	1001.637695	202.871460
10994.379787	3136.183333	1000.475586	34.200371
10994.379787	3136.183333	999.312500	66.784920
10994.379787	3136.183333	998.149414	137.352310
10994.379787	3136.183333	996.986328	30.642456
10994.379787	3136.183333	995.823242	53.694115
10994.379787	3136.183333	994.659180	90.856995
10994.379787	3136.183333	993.496094	143.800354
10994.379787	3136.183333	992.332031	96.567192
10994.379787	3136.183333	991.166992	34.192783
10994.379787	3136.183333	990.002930	1.414358
10994.379787	3136.183333	988.837891	122.767006
10994.379787	3136.183333	987.672852	73.945358
10994.379787	3136.183333	986.506836	210.616928
10994.379787	3136.183333	985.341797	34.247051
10994.379787	3136.183333	984.175781	19.662727
10994.379787	3136.183333	983.009766	170.226608
10994.379787	3136.183333	981.843750	-59.374569
10994.379787	3136.183333	980.676758	59.567139
10994.379787	3136.183333	979.509766	-100.367294
10994.379787	3136.183333	978.342773	17.321836
10994.379787	3136.183333	977.175781	22.768028
10994.379787	3136.183333	976.007813	-133.952637
10994.379787	3136.183333	974.839844	-8.404649
10994.379787	3136.183333	973.671875	32.532803
10994.379787	3136.183333	972.503906	-68.980423
10994.379787	3136.183333	971.334961	-31.594357
10994.379787	3136.183333	970.166016	18.579199
10994.379787	3136.183333	968.997070	-41.023029
10994.379787	3136.183333	967.828125	-22.751915
10994.379787	3136.183333	966.658203	63.635525
10994.379787	3136.183333	965.488281	-37.260056
10994.379787	3136.183333	964.318359	22.245632
10994.379787	3136.183333	963.148438	52.429642
10994.379787	3136.183333	961.977539	-14.390374
10994.379787	3136.183333	960.806641	2.085016
10994.379787	3136.183333	959.635742	108.507378
10994.379787	3136.183333	958.463867	-140.531250
10994.379787	3136.183333	957.292969	-223.129364
10994.379787	3136.183333	956.121094	-25.576769
10994.379787	3136.183333	954.948242	78.992943
10994.379787	3136.183333	953.776367	56.136585
10994.379787	3136.183333	952.603516	-37.612427
10994.379787	3136.183333	951.430664	-57.150879
10994.379787	3136.183333	950.257813	47.814411
10994.379787	3136.183333	949.084961	66.203560
10994.379787	3136.183333	947.911133	89.552376
10994.379787	3136.183333	946.737305	-89.230713
10994.379787	3136.183333	945.563477	-1.004394
10994.379787	3136.183333	944.388672	45.355499
10994.379787	3136.183333	943.213867	-86.925201
10994.379787	3136.183333	942.039063	19.628319
10994.379787	3136.183333	940.864258	110.189598
10994.379787	3136.183333	939.688477	-84.864799
10994.379787	3136.183333	938.513672	-40.941219
10994.379787	3136.183333	937.337891	17.067266
10994.379787	3136.183333	936.161133	28.557318
10994.379787	3136.183333	934.985352	28.606998
10994.379787	3136.183333	933.808594	244.293900
10994.379787	3136.183333	932.631836	37.755543
10994.379787	3136.183333	931.454102	53.890903
10994.379787	3136.183333	930.277344	39.852310
10994.379787	3136.183333	929.099609	-2.032693
10994.379787	3136.183333	927.921875	7.124406
10994.379787	3136.183333	926.743164	34.844631
10994.379787	3136.183333	925.565430	-11.679118
10994.379787	3136.183333	924.386719	46.147247
10994.379787	3136.183333	923.208008	87.726425
10994.379787	3136.183333	922.028320	25.002748
10994.379787	3136.183333	920.849609	31.809780
10994.379787	3136.183333	919.669922	32.757679
10994.379787	3136.183333	919.474609	50.348351
10994.379787	3136.183333	918.309570	-7.725920
10994.379787	3136.183333	917.143555	-37.993298
10994.379787	3136.183333	915.977539	52.136917
10994.379787	3136.183333	914.810547	-93.874374
10994.379787	3136.183333	913.644531	-94.034409
10994.379787	3136.183333	912.477539	60.825027
10994.379787	3136.183333	911.310547	-24.966101
10994.379787	3136.183333	910.143555	39.607994
10994.379787	3136.183333	908.975586	34.781620
10994.379787	3136.183333	907.807617	-90.264656
10994.379787	3136.183333	906.639648	82.909752
10994.379787	3136.183333	905.471680	-81.388847
10994.379787	3136.183333	904.303711	91.706902
10994.379787	3136.183333	903.134766	-84.081917
10994.379787	3136.183333	901.965820	-116.610367
10994.379787	3136.183333	900.796875	-10.583862
10994.379787	3136.183333	899.626953	23.830500
10994.379787	3136.183333	898.457031	67.461235
10994.379787	3136.183333	897.287109	97.225479
10994.379787	3136.183333	896.117188	55.452972
10994.379787	3136.183333	894.947266	64.443169
10994.379787	3136.183333	893.776367	140.309708
10994.379787	3136.183333	892.605469	121.606712
10994.379787	3136.183333	891.434570	98.299149
10994.379787	3136.183333	890.262695	167.194016
10994.379787	3136.183333	889.091797	102.405251
10994.379787	3136.183333	887.919922	-93.679848
10994.379787	3136.183333	886.748047	-73.163445
10994.379787	3136.183333	885.575195	-71.079842
10994.379787	3136.183333	884.403320	-80.510925
10994.379787	3136.183333	883.230469	-46.200268
10994.379787	3136.183333	882.057617	57.142551
10994.379787	3136.183333	880.883789	45.389450
10994.379787	3136.183333	879.710938	-58.383743
10994.379787	3136.183333	878.537109	-10.305859
10994.379787	3136.183333	877.362305	37.753086
10994.379787	3136.183333	876.188477	9.918230
10994.379787	3136.183333	875.013672	-66.177551
10994.379787	3136.183333	873.839844	-89.382759
10994.379787	3136.183333	872.664063	25.289225
10994.379787	3136.183333	871.489258	25.048742
10994.379787	3136.183333	870.313477	29.403172
10994.379787	3136.183333	869.138672	-39.727928
10994.379787	3136.183333	867.962891	-143.268341
10994.379787	3136.183333	866.786133	1.141378
10994.379787	3136.183333	865.610352	26.153698
10994.379787	3136.183333	864.433594	-33.738182
10994.379787	3136.183333	863.256836	27.977785
10994.379787	3136.183333	862.079102	-38.767925
10994.379787	3136.183333	860.902344	-50.452763
10994.379787	3136.183333	859.724609	-7.108428
10994.379787	3136.183333	858.546875	-92.140366
10994.379787	3136.183333	857.368164	-99.218704
10994.379787	3136.183333	856.190430	-26.101671
10994.379787	3136.183333	855.011719	-108.782394
10994.379787	3136.183333	853.833008	0.953770
10994.379787	3136.183333	852.654297	67.140564
10994.379787	3136.183333	851.474609	-139.126526
10994.379787	3136.183333	850.294922	-18.002485
10994.379787	3136.183333	849.115234	-61.689919
10994.379787	3136.183333	847.935547	47.931805
10994.379787	3136.183333	846.754883	43.138832
10994.379787	3136.183333	845.575195	33.774940
10994.379787	3136.183333	844.393555	-73.901794
10994.379787	3136.183333	843.212891	85.932121
10994.379787	3136.183333	842.032227	-26.279694
10994.379787	3136.183333	840.850586	48.934208
10994.379787	3136.183333	839.668945	19.026711
10994.379787	3136.183333	838.486328	-200.450668
10994.379787	3136.183333	837.304688	-68.150772
10994.379787	3136.183333	836.122070	-111.709831
10994.379787	3136.183333	834.939453	-82.201836
10994.379787	3136.183333	833.756836	-89.220543
10994.379787	3136.183333	832.573242	38.392002
10994.379787	3136.183333	831.389648	-43.928940
10994.379787	3136.183333	830.206055	-123.932899
10994.379787	3136.183333	829.022461	-32.873810
10994.379787	3136.183333	827.838867	44.469482
10994.379787	3136.183333	826.654297	64.796921
10994.379787	3136.183333	825.469727	-88.084671
10994.379787	3136.183333	824.284180	-19.886011
10994.379787	3136.183333	823.099609	121.182365
10994.379787	3136.183333	821.914063	48.102871
10994.379787	3136.183333	820.728516	25.151068
10994.379787	3136.183333	819.542969	-31.939217
10994.379787	3136.183333	818.356445	29.355669
10994.379787	3136.183333	817.169922	22.355696
10994.379787	3136.183333	815.983398	13.084236
10994.379787	3136.183333	814.796875	67.510452
10994.379787	3136.183333	813.609375	42.316189
10994.379787	3136.183333	812.422852	-117.022629
10994.379787	3136.183333	811.235352	-12.587069
10994.379787	3136.183333	810.046875	-105.932396
10994.379787	3136.183333	808.859375	73.448067
10994.379787	3136.183333	807.670898	-26.691799
10994.379787	3136.183333	806.482422	-113.161453
10994.379787	3136.183333	805.293945	45.672302
10994.379787	3136.183333	804.104492	149.948318
10994.379787	3136.183333	802.915039	102.087578
10994.379787	3136.183333	801.725586	-140.937851
10994.379787	3136.183333	800.536133	13.232267
10994.379787	3136.183333	799.345703	-23.227110
10994.379787	3136.183333	798.155273	-39.258766
10994.379787	3136.183333	796.964844	-62.086952
10994.379787	3136.183333	795.774414	-82.640022
10994.379787	3136.183333	794.583008	55.489395
10994.379787	3136.183333	793.392578	-28.537287
10994.379787	3136.183333	792.200195	48.344585
10994.379787	3136.183333	791.008789	-1.667230
10994.379787	3136.183333	789.816406	43.466236
10994.379787	3136.183333	788.625000	34.232086
10994.379787	3136.183333	787.432617	-4.430334
10994.379787	3136.183333	786.239258	33.880180
10994.379787	3136.183333	785.046875	78.961273
10994.379787	3136.183333	783.853516	160.222488
10994.379787	3136.183333	782.660156	-14.166204
10994.379787	3136.183333	781.465820	101.000366
10994.379787	3136.183333	780.272461	139.236633
10994.379787	3136.183333	779.078125	30.512186
10994.379787	3136.183333	777.883789	-35.226654
10994.379787	3136.183333	776.688477	-37.668785
10994.379787	3136.183333	775.494141	61.552292
10994.379787	3136.183333	774.298828	-10.938605
10994.379787	3136.183333	773.103516	43.062664
10994.379787	3136.183333	771.907227	-47.464855
10994.379787	3136.183333	770.711914	-2.516469
10994.379787	3136.183333	769.515625	58.207401
10994.379787	3136.183333	768.318359	42.183102
10994.379787	3136.183333	767.122070	89.326965
10994.379787	3136.183333	765.924805	116.147026
10994.379787	3136.183333	764.727539	0.883571
10994.379787	3136.183333	763.530273	79.554451
10994.379787	3136.183333	762.333008	-89.763405
10994.379787	3136.183333	761.134766	198.470001
10994.379787	3136.183333	759.936523	-24.889788
10994.379787	3136.183333	758.738281	55.949955
10994.379787	3136.183333	757.540039	78.191147
10994.379787	3136.183333	756.340820	-25.680910
10994.379787	3136.183333	755.141602	43.831394
10994.379787	3136.183333	753.942383	-53.253128
10994.379787	3136.183333	752.742188	-33.286125
10994.379787	3136.183333	751.541992	126.156303
10994.379787	3136.183333	750.341797	146.061218
10994.379787	3136.183333	749.141602	-18.463720
10994.379787	3136.183333	747.941406	-50.269348
10994.379787	3136.183333	746.740234	102.265785
10994.379787	3136.183333	745.539063	63.688168
10994.379787	3136.183333	744.337891	186.905258
10994.379787	3136.183333	743.135742	152.800186
10994.379787	3136.183333	741.933594	58.053734
10994.379787	3136.183333	740.731445	223.832153
10994.379787	3136.183333	739.529297	104.392502
10994.379787	3136.183333	738.326172	99.472847
10994.379787	3136.183333	737.124023	224.709518
10994.379787	3136.183333	735.919922	188.331894
10994.379787	3136.183333	734.716797	315.718445
10994.379787	3136.183333	733.513672	295.012054
10994.379787	3136.183333	732.309570	159.941422
10994.379787	3136.183333	731.105469	226.685944
10994.379787	3136.183333	729.900391	212.698959
10994.379787	3136.183333	728.696289	239.040741
10994.379787	3136.183333	727.491211	108.524467
10994.379787	3136.183333	726.286133	121.410110
10994.379787	3136.183333	725.080078	26.778399
10994.379787	3136.183333	723.874023	232.209656
10994.379787	3136.183333	722.668945	191.291550
10994.379787	3136.183333	721.461914	257.808258
10994.379787	3136.183333	720.255859	167.643021
10994.379787	3136.183333	719.048828	81.974571
10994.379787	3136.183333	717.841797	14.220682
10994.379787	3136.183333	716.634766	103.018280
10994.379787	3136.183333	715.427734	30.784067
10994.379787	3136.183333	714.219727	117.272980
10994.379787	3136.183333	713.011719	-89.060059
10994.379787	3136.183333	711.803711	-22.726068
10994.379787	3136.183333	710.594727	34.627007
10994.379787	3136.183333	709.385742	56.202667
10994.379787	3136.183333	708.176758	-16.035496
10994.379787	3136.183333	706.967773	21.132936
10994.379787	3136.183333	705.758789	85.051437
10994.379787	3136.183333	704.548828	26.186239
10994.379787	3136.183333	703.338867	29.798550
10994.379787	3136.183333	702.127930	-102.681068
10994.379787	3136.183333	700.917969	-103.543312
10994.379787	3136.183333	699.707031	78.411598
10994.379787	3136.183333	698.496094	-7.240614
10994.379787	3136.183333	697.285156	20.790293
10994.379787	3136.183333	696.073242	22.048584
10994.379787	3136.183333	694.861328	16.601240
10994.379787	3136.183333	693.649414	160.368881
10994.379787	3136.183333	692.436523	-5.486584
10994.379787	3136.183333	691.224609	-26.575903
10994.379787	3136.183333	690.011719	83.654457
10994.379787	3136.183333	688.798828	62.509838
10994.379787	3136.183333	687.584961	192.654037
10994.379787	3136.183333	686.372070	120.284073
10994.379787	3136.183333	685.158203	123.540260
10994.379787	3136.183333	683.943359	80.074631
10994.379787	3136.183333	682.729492	1.032579
10994.379787	3136.183333	681.514648	90.924423
10994.379787	3136.183333	680.299805	154.086914
10994.379787	3136.183333	679.084961	37.234642
10994.379787	3136.183333	677.869141	55.905773
10994.379787	3136.183333	676.653320	32.347279
10994.379787	3136.183333	675.437500	124.231773
10994.379787	3136.183333	674.221680	29.580507
10994.379787	3136.183333	673.004883	-29.546942
10994.379787	3136.183333	671.789063	86.622650
10994.379787	3136.183333	670.571289	229.337723
10994.379787	3136.183333	669.354492	170.125778
10994.379787	3136.183333	668.136719	0.032838
10994.379787	3136.183333	666.919922	193.587692
10994.379787	3136.183333	665.701172	123.254341
10994.379787	3136.183333	664.483398	165.946808
10994.379787	3136.183333	663.264648	170.926270
10994.379787	3136.183333	662.045898	36.315998
10994.379787	3136.183333	660.827148	34.619209
10994.379787	3136.183333	659.608398	-2.533908
10994.379787	3136.183333	658.388672	48.851551
10994.379787	3136.183333	657.168945	9.438979
10994.379787	3136.183333	655.949219	107.212578
10994.379787	3136.183333	654.728516	107.568085
10994.379787	3136.183333	653.507813	48.171398
10994.379787	3136.183333	652.287109	63.959881
10994.379787	3136.183333	651.066406	86.345001
10994.379787	3136.183333	649.844727	75.531494
10994.379787	3136.183333	648.623047	-8.240885
10994.379787	3136.183333	647.401367	117.905182
10994.379787	3136.183333	646.179688	78.281090
10994.379787	3136.183333	644.957031	45.268265
10994.379787	3136.183333	643.734375	-18.676626
10994.379787	3136.183333	642.511719	96.201683
10994.379787	3136.183333	641.289063	131.537857
10994.379787	3136.183333	640.065430	151.379761
10994.379787	3136.183333	638.841797	191.038177
10994.379787	3136.183333	637.618164	3.443199
10994.379787	3136.183333	636.393555	137.884827
10994.379787	3136.183333	635.168945	75.997673
10994.379787	3136.183333	633.944336	9.695741
10994.379787	3136.183333	632.719727	88.854958
10994.379787	3136.183333	631.494141	106.247650
10994.379787	3136.183333	630.269531	-32.816032
10994.379787	3136.183333	629.042969	8.758784
10994.379787	3136.183333	627.817383	-13.577423
10994.379787	3136.183333	626.590820	52.129635
10994.379787	3136.183333	625.365234	53.942772
10994.379787	3136.183333	624.137695	0.701227
10994.379787	3136.183333	622.911133	-76.751625
10994.379787	3136.183333	621.683594	61.376236
10994.379787	3136.183333	620.456055	89.445885
10994.379787	3136.183333	619.228516	11.925133
10994.379787	3136.183333	618.000977	24.539103
10994.379787	3136.183333	616.772461	-20.031876
10994.379787	3136.183333	615.543945	128.761414
10994.379787	3136.183333	614.314453	48.968872
10994.379787	3136.183333	613.085938	87.792587
10994.379787	3136.183333	611.856445	150.722961
10994.379787	3136.183333	610.626953	-54.269783
10994.379787	3136.183333	609.397461	63.478039
10994.379787	3136.183333	608.166992	-47.103855
10994.379787	3136.183333	606.936523	-34.795128
10994.379787	3136.183333	605.706055	-13.748010
10994.379787	3136.183333	604.474609	-54.155380
10994.379787	3136.183333	603.244141	-6.863538
10994.379787	3136.183333	602.012695	-58.279861
10994.379787	3136.183333	600.780273	23.996609
10994.379787	3136.183333	599.548828	101.826286
10994.379787	3136.183333	598.316406	-43.886806
10994.379787	3136.183333	597.083984	82.050102
10994.379787	3136.183333	595.851563	-94.318848
10994.379787	3136.183333	594.618164	-3.520165
10994.379787	3136.183333	593.384766	71.885605
10994.379787	3136.183333	592.151367	-121.970955
10994.379787	3136.183333	590.917969	-123.217552
10994.379787	3136.183333	589.683594	-6.360714
10994.379787	3136.183333	588.449219	7.617254
10994.379787	3136.183333	587.214844	60.921680
10994.379787	3136.183333	585.979492	-76.034569
10994.379787	3136.183333	584.745117	93.054893
10994.379787	3136.183333	583.509766	-2.385850
10994.379787	3136.183333	582.273438	-12.606076
10994.379787	3136.183333	581.038086	38.315983
10994.379787	3136.183333	579.801758	-76.794800
10994.379787	3136.183333	578.565430	2.447207
10994.379787	3136.183333	577.329102	24.868977
10994.379787	3136.183333	576.091797	1.418434
10994.379787	3136.183333	574.854492	-39.505524
10994.379787	3136.183333	573.617188	0.282018
10994.379787	3136.183333	572.378906	-55.946827
10994.379787	3136.183333	571.141602	-57.658081
10994.379787	3136.183333	569.903320	-98.639908
10994.379787	3136.183333	568.664063	73.985458
10994.379787	3136.183333	567.425781	28.584173
10994.379787	3136.183333	566.186523	31.110655
10994.379787	3136.183333	564.947266	127.281891
10994.379787	3136.183333	563.708008	-7.469086
10994.379787	3136.183333	562.467773	82.088257
10994.379787	3136.183333	561.227539	-2.573167
10994.379787	3136.183333	559.987305	36.840057
10994.379787	3136.183333	558.747070	71.863045
10994.379787	3136.183333	557.505859	72.037804
10994.379787	3136.183333	556.264648	11.288053
10994.379787	3136.183333	555.023438	-62.503429
10994.379787	3136.183333	553.781250	65.912880
10994.379787	3136.183333	552.539063	113.826965
10994.379787	3136.183333	551.296875	-31.718208
10994.379787	3136.183333	550.054688	153.044449
10994.379787	3136.183333	548.811523	33.582211
10994.379787	3136.183333	547.569336	-66.297737
10994.379787	3136.183333	546.325195	-16.330355
10994.379787	3136.183333	545.082031	-131.389511
10994.379787	3136.183333	543.837891	57.447063
10994.379787	3136.183333	542.593750	-64.122772
10994.379787	3136.183333	541.349609	24.789206
10994.379787	3136.183333	540.105469	-140.132385
10994.379787	3136.183333	538.860352	-49.104889
10994.379787	3136.183333	537.615234	13.684832
10994.379787	3136.183333	536.369141	69.928604
10994.379787	3136.183333	535.124023	-42.904015
10994.379787	3136.183333	533.877930	-90.699951
10994.379787	3136.183333	532.631836	-2.011235
10994.379787	3136.183333	531.384766	-75.810623
10994.379787	3136.183333	530.138672	-65.136780
10994.379787	3136.183333	528.891602	-80.458221
10994.379787	3136.183333	527.643555	12.436053
10994.379787	3136.183333	526.396484	-54.848049
10994.379787	3136.183333	525.148438	63.946507
10994.379787	3136.183333	523.900391	11.802894
10994.379787	3136.183333	522.652344	132.680679
10994.379787	3136.183333	521.403320	19.990360
10994.379787	3136.183333	520.154297	-105.627625
10994.379787	3136.183333	518.905273	-36.690296
10994.379787	3136.183333	517.656250	-110.394348
10994.379787	3136.183333	516.406250	-13.414243
10994.379787	3136.183333	515.156250	14.408022
10994.379787	3136.183333	513.906250	31.418707
10994.379787	3136.183333	512.655273	-1.236340
10994.379787	3136.183333	511.404297	-161.224319
10994.379787	3136.183333	510.153320	0.386448
10994.379787	3136.183333	508.902344	-155.220367
10994.379787	3136.183333	507.650391	-15.253940
10994.379787	3136.183333	506.398438	-119.036263
10994.379787	3136.183333	505.146484	-5.009699
10994.379787	3136.183333	503.893555	-48.392685
10994.379787	3136.183333	502.641602	-14.167215
10994.379787	3136.183333	501.388672	-12.277052
10994.379787	3136.183333	500.134766	11.154769
10994.379787	3136.183333	498.881836	-144.179001
10994.379787	3136.183333	497.627930	60.154846
10994.379787	3136.183333	496.374023	-108.034477
10994.379787	3136.183333	495.119141	-75.979111
10994.379787	3136.183333	493.865234	-35.322319
10994.379787	3136.183333	492.610352	-91.494705
10994.379787	3136.183333	491.355469	-44.390224
10994.379787	3136.183333	490.099609	56.460594
10994.379787	3136.183333	488.843750	-6.128735
10994.379787	3136.183333	487.587891	15.149264
10994.379787	3136.183333	486.332031	42.873535
10994.379787	3136.183333	485.075195	-103.450851
10994.379787	3136.183333	483.818359	14.524185
10994.379787	3136.183333	482.561523	-17.884678
10994.379787	3136.183333	481.304688	-13.767525
10994.379787	3136.183333	480.046875	33.290329
10994.379787	3136.183333	478.789063	82.483528
10994.379787	3136.183333	477.531250	-44.298111
10994.379787	3136.183333	476.272461	-33.711235
10994.379787	3136.183333	475.013672	-143.237091
10994.379787	3136.183333	473.754883	-38.256432
10994.379787	3136.183333	472.496094	58.112629
10994.379787	3136.183333	471.236328	45.124989
10994.379787	3136.183333	469.976563	107.161552
10994.379787	3136.183333	468.716797	2.054806
10994.379787	3136.183333	467.456055	-124.421379
10994.379787	3136.183333	466.196289	44.726063
10994.379787	3136.183333	464.935547	-8.882872
10994.379787	3136.183333	463.673828	18.888386
10994.379787	3136.183333	462.413086	93.746613
10994.379787	3136.183333	461.151367	35.906464
10994.379787	3136.183333	459.889648	44.421814
10994.379787	3136.183333	458.626953	80.745514
10994.379787	3136.183333	457.364258	117.061211
10994.379787	3136.183333	456.101563	-34.777016
10994.379787	3136.183333	454.838867	-36.913692
10994.379787	3136.183333	453.575195	91.317741
10994.379787	3136.183333	452.312500	72.074249
10994.379787	3136.183333	451.047852	185.281769
10994.379787	3136.183333	449.784180	61.383659
10994.379787	3136.183333	448.519531	50.708988
10994.379787	3136.183333	447.254883	91.276886
10994.379787	3136.183333	445.990234	50.724682
10994.379787	3136.183333	444.725586	174.499222
10994.379787	3136.183333	443.459961	195.814499
10994.379787	3136.183333	442.194336	116.871986
10994.379787	3136.183333	440.927734	40.091606
10994.379787	3136.183333	439.662109	42.228798
10994.379787	3136.183333	438.395508	178.646317
10994.379787	3136.183333	437.127930	5.988350
10994.379787	3136.183333	435.861328	20.895884
10994.379787	3136.183333	434.593750	71.999496
10994.379787	3136.183333	433.326172	71.958199
10994.379787	3136.183333	432.058594	31.449083
10994.379787	3136.183333	430.790039	44.161930
10994.379787	3136.183333	429.521484	137.731094
10994.379787	3136.183333	428.252930	-9.206593
10994.379787	3136.183333	426.984375	82.170135
10994.379787	3136.183333	425.714844	43.739639
10994.379787	3136.183333	424.445313	69.097870
10994.379787	3136.183333	423.174805	81.661049
10994.379787	3136.183333	421.905273	255.736420
10994.379787	3136.183333	420.634766	157.690659
10994.379787	3136.183333	419.364258	174.385025
10994.379787	3136.183333	418.092773	57.211285
10994.379787	3136.183333	416.822266	256.486725
10994.379787	3136.183333	415.550781	64.952423
10994.379787	3136.183333	414.278320	149.418747
10994.379787	3136.183333	413.006836	117.074928
10994.379787	3136.183333	411.734375	86.814285
10994.379787	3136.183333	410.461914	77.726974
10994.379787	3136.183333	409.188477	57.979111
10994.379787	3136.183333	407.916016	50.904743
10994.379787	3136.183333	406.642578	158.247940
10994.379787	3136.183333	405.368164	110.743965
10994.379787	3136.183333	404.094727	162.790253
10994.379787	3136.183333	402.820313	32.529076
10994.379787	3136.183333	401.545898	224.210129
10994.379787	3136.183333	400.270508	197.591949
10994.379787	3136.183333	398.996094	71.386780
10994.379787	3136.183333	397.720703	226.675278
10994.379787	3136.183333	396.444336	41.059837
10994.379787	3136.183333	395.168945	122.026581
10994.379787	3136.183333	393.892578	181.690887
10994.379787	3136.183333	392.616211	167.189041
10994.379787	3136.183333	391.339844	116.625923
10994.379787	3136.183333	390.062500	-3.809243
10994.379787	3136.183333	388.785156	175.806183
10994.379787	3136.183333	387.507813	-23.047470
10994.379787	3136.183333	386.229492	128.741501
10994.379787	3136.183333	384.951172	12.060342
10994.379787	3136.183333	383.672852	195.142715
10994.379787	3136.183333	382.394531	99.287521
10994.379787	3136.183333	381.115234	70.844978
10994.379787	3136.183333	379.835938	111.877754
10994.379787	3136.183333	378.556641	150.595306
10994.379787	3136.183333	377.277344	-7.078794
10994.379787	3136.183333	375.997070	-36.242043
10994.379787	3136.183333	374.716797	86.211403
10994.379787	3136.183333	373.435547	-40.367531
10994.379787	3136.183333	372.155273	56.294724
10994.379787	3136.183333	370.874023	-41.187107
10994.379787	3136.183333	369.591797	6.485140
10994.379787	3136.183333	368.310547	30.718187
10994.379787	3136.183333	367.028320	235.768005
10994.379787	3136.183333	365.746094	82.546104
10994.379787	3136.183333	364.463867	-16.166893
10994.379787	3136.183333	363.180664	196.315292
10994.379787	3136.183333	361.897461	-71.304977
10994.379787	3136.183333	360.614258	39.505527
10994.379787	3136.183333	359.330078	158.343658
10994.379787	3136.183333	358.045898	-13.367183
10994.379787	3136.183333	356.761719	115.250130
10994.379787	3136.183333	355.477539	83.720383
10994.379787	3136.183333	354.192383	-116.277824
10994.379787	3136.183333	352.907227	72.062050
10994.379787	3136.183333	351.622070	-107.634537
10994.379787	3136.183333	350.336914	-121.780525
10994.379787	3136.183333	349.050781	-25.091412
10994.379787	3136.183333	347.764648	-54.823719
10994.379787	3136.183333	346.477539	15.714888
10994.379787	3136.183333	345.191406	-121.941574
10994.379787	3136.183333	343.904297	-37.695732
10994.379787	3136.183333	342.616211	106.814178
10994.379787	3136.183333	341.329102	-74.224823
10994.379787	3136.183333	340.041016	-71.268501
10994.379787	3136.183333	338.752930	-37.428864
10994.379787	3136.183333	337.463867	-31.424564
10994.379787	3136.183333	336.175781	43.133869
10994.379787	3136.183333	334.886719	-81.921700
10994.379787	3136.183333	333.596680	-56.798779
10994.379787	3136.183333	332.307617	-109.769943
10994.379787	3136.183333	331.017578	22.882807
10994.379787	3136.183333	329.727539	-69.101181
10994.379787	3136.183333	328.436523	85.103043
10994.379787	3136.183333	327.146484	-22.913450
10994.379787	3136.183333	325.855469	4.284695
10994.379787	3136.183333	324.563477	-11.122176
10994.379787	3136.183333	323.272461	-83.723618
10994.379787	3136.183333	321.980469	14.244938
10994.379787	3136.183333	320.688477	-36.999512
10994.379787	3136.183333	319.395508	-28.516281
10994.379787	3136.183333	318.103516	106.503586
10994.379787	3136.183333	316.810547	2.516472
10994.379787	3136.183333	315.516602	-50.183754
10994.379787	3136.183333	314.223633	-59.958961
10994.379787	3136.183333	312.929688	56.553688
10994.379787	3136.183333	311.635742	-65.804245
10994.379787	3136.183333	310.340820	2.719680
10994.379787	3136.183333	309.045898	49.306244
10994.379787	3136.183333	307.750977	144.822876
10994.379787	3136.183333	306.456055	80.779053
10994.379787	3136.183333	305.160156	178.133621
10994.379787	3136.183333	303.865234	282.639221
10994.379787	3136.183333	302.568359	144.215179
10994.379787	3136.183333	301.272461	239.971725
10994.379787	3136.183333	299.975586	276.093964
10994.379787	3136.183333	298.678711	302.577606
