#X		#Y		#Wave		#Intensity
11912.745213	2664.545000	1999.980469	103.642296
11912.745213	2664.545000	1999.016602	117.000481
11912.745213	2664.545000	1998.052734	74.888062
11912.745213	2664.545000	1997.087891	-36.622181
11912.745213	2664.545000	1996.123047	-21.756224
11912.745213	2664.545000	1995.158203	111.984062
11912.745213	2664.545000	1994.193359	25.218864
11912.745213	2664.545000	1993.228516	-9.537116
11912.745213	2664.545000	1992.262695	32.446926
11912.745213	2664.545000	1991.297852	-88.983383
11912.745213	2664.545000	1990.332031	32.149582
11912.745213	2664.545000	1989.366211	-27.420065
11912.745213	2664.545000	1988.399414	-10.295151
11912.745213	2664.545000	1987.433594	36.482887
11912.745213	2664.545000	1986.466797	98.060905
11912.745213	2664.545000	1985.500977	211.520081
11912.745213	2664.545000	1984.534180	82.644867
11912.745213	2664.545000	1983.567383	121.873535
11912.745213	2664.545000	1982.599609	-24.274837
11912.745213	2664.545000	1981.632813	51.981747
11912.745213	2664.545000	1980.665039	-32.379593
11912.745213	2664.545000	1979.697266	112.969604
11912.745213	2664.545000	1978.729492	181.695282
11912.745213	2664.545000	1977.761719	8.420375
11912.745213	2664.545000	1976.792969	57.357170
11912.745213	2664.545000	1975.825195	-93.652107
11912.745213	2664.545000	1974.856445	-94.099365
11912.745213	2664.545000	1973.887695	28.792665
11912.745213	2664.545000	1972.918945	52.957432
11912.745213	2664.545000	1971.949219	57.367832
11912.745213	2664.545000	1970.980469	19.843754
11912.745213	2664.545000	1970.010742	-39.868618
11912.745213	2664.545000	1969.041016	8.879101
11912.745213	2664.545000	1968.071289	119.202957
11912.745213	2664.545000	1967.101563	158.019272
11912.745213	2664.545000	1966.130859	29.292507
11912.745213	2664.545000	1965.161133	114.880280
11912.745213	2664.545000	1964.190430	-85.230721
11912.745213	2664.545000	1963.219727	-7.064917
11912.745213	2664.545000	1962.249023	103.059608
11912.745213	2664.545000	1961.277344	48.233681
11912.745213	2664.545000	1960.306641	-146.844650
11912.745213	2664.545000	1959.334961	56.698334
11912.745213	2664.545000	1958.363281	41.232300
11912.745213	2664.545000	1957.391602	15.923503
11912.745213	2664.545000	1956.419922	116.015831
11912.745213	2664.545000	1955.447266	201.308975
11912.745213	2664.545000	1954.474609	-50.180401
11912.745213	2664.545000	1953.501953	-11.601506
11912.745213	2664.545000	1952.529297	100.664032
11912.745213	2664.545000	1951.556641	55.655975
11912.745213	2664.545000	1950.583984	84.338875
11912.745213	2664.545000	1949.610352	19.685669
11912.745213	2664.545000	1948.636719	-57.228859
11912.745213	2664.545000	1947.663086	-65.391342
11912.745213	2664.545000	1946.689453	81.061668
11912.745213	2664.545000	1945.715820	50.773907
11912.745213	2664.545000	1944.741211	3.314914
11912.745213	2664.545000	1943.767578	-14.700020
11912.745213	2664.545000	1942.792969	116.884132
11912.745213	2664.545000	1941.818359	155.233978
11912.745213	2664.545000	1940.842773	-39.337341
11912.745213	2664.545000	1939.868164	-0.988902
11912.745213	2664.545000	1938.892578	71.646149
11912.745213	2664.545000	1937.916992	-37.068302
11912.745213	2664.545000	1936.941406	192.314148
11912.745213	2664.545000	1935.965820	90.949883
11912.745213	2664.545000	1934.990234	65.529930
11912.745213	2664.545000	1934.013672	111.114410
11912.745213	2664.545000	1933.037109	83.236664
11912.745213	2664.545000	1932.060547	92.074532
11912.745213	2664.545000	1931.083984	-36.130695
11912.745213	2664.545000	1930.107422	46.107906
11912.745213	2664.545000	1929.129883	86.724922
11912.745213	2664.545000	1928.153320	90.635597
11912.745213	2664.545000	1927.175781	-32.611290
11912.745213	2664.545000	1926.198242	-102.035622
11912.745213	2664.545000	1925.219727	77.874779
11912.745213	2664.545000	1924.242188	20.661684
11912.745213	2664.545000	1923.263672	78.301025
11912.745213	2664.545000	1922.285156	-42.419933
11912.745213	2664.545000	1921.306641	100.682465
11912.745213	2664.545000	1920.328125	72.785027
11912.745213	2664.545000	1919.349609	25.359489
11912.745213	2664.545000	1918.370117	51.177723
11912.745213	2664.545000	1917.391602	47.692204
11912.745213	2664.545000	1916.412109	132.048187
11912.745213	2664.545000	1915.431641	74.862381
11912.745213	2664.545000	1914.452148	-9.139751
11912.745213	2664.545000	1913.472656	-58.973969
11912.745213	2664.545000	1912.492188	-40.521767
11912.745213	2664.545000	1911.511719	72.994873
11912.745213	2664.545000	1910.531250	120.652641
11912.745213	2664.545000	1909.550781	58.621967
11912.745213	2664.545000	1908.569336	33.156075
11912.745213	2664.545000	1907.588867	134.369141
11912.745213	2664.545000	1906.607422	33.382374
11912.745213	2664.545000	1905.625977	124.804848
11912.745213	2664.545000	1904.644531	45.757175
11912.745213	2664.545000	1903.662109	-69.780884
11912.745213	2664.545000	1902.680664	-12.481725
11912.745213	2664.545000	1901.698242	100.756233
11912.745213	2664.545000	1900.715820	55.807732
11912.745213	2664.545000	1899.733398	-98.588959
11912.745213	2664.545000	1898.750000	-21.896996
11912.745213	2664.545000	1897.767578	-54.657867
11912.745213	2664.545000	1896.784180	133.814423
11912.745213	2664.545000	1895.800781	8.660722
11912.745213	2664.545000	1894.817383	143.574387
11912.745213	2664.545000	1893.833984	118.071037
11912.745213	2664.545000	1892.850586	114.433838
11912.745213	2664.545000	1891.866211	57.358273
11912.745213	2664.545000	1890.881836	-9.415647
11912.745213	2664.545000	1889.897461	-66.459717
11912.745213	2664.545000	1888.913086	51.286568
11912.745213	2664.545000	1887.927734	149.566040
11912.745213	2664.545000	1886.943359	41.548237
11912.745213	2664.545000	1885.958008	-64.009705
11912.745213	2664.545000	1884.972656	-45.828678
11912.745213	2664.545000	1883.987305	139.675247
11912.745213	2664.545000	1883.001953	-55.576061
11912.745213	2664.545000	1882.015625	61.967274
11912.745213	2664.545000	1881.029297	46.151268
11912.745213	2664.545000	1880.042969	-61.753120
11912.745213	2664.545000	1879.056641	-43.633137
11912.745213	2664.545000	1878.070313	-13.414605
11912.745213	2664.545000	1877.083984	84.601166
11912.745213	2664.545000	1876.096680	39.702789
11912.745213	2664.545000	1875.109375	203.026367
11912.745213	2664.545000	1874.122070	-13.755810
11912.745213	2664.545000	1873.134766	59.956333
11912.745213	2664.545000	1872.146484	145.732147
11912.745213	2664.545000	1871.159180	-10.457376
11912.745213	2664.545000	1870.170898	101.891762
11912.745213	2664.545000	1869.182617	40.069973
11912.745213	2664.545000	1868.194336	67.726128
11912.745213	2664.545000	1867.205078	1.083842
11912.745213	2664.545000	1866.216797	6.969171
11912.745213	2664.545000	1865.227539	121.588661
11912.745213	2664.545000	1864.238281	79.112144
11912.745213	2664.545000	1863.249023	92.203156
11912.745213	2664.545000	1862.259766	-13.061704
11912.745213	2664.545000	1861.269531	-74.830933
11912.745213	2664.545000	1860.279297	17.929100
11912.745213	2664.545000	1859.290039	-135.562881
11912.745213	2664.545000	1858.298828	-47.669304
11912.745213	2664.545000	1857.308594	184.958481
11912.745213	2664.545000	1856.318359	142.470779
11912.745213	2664.545000	1855.327148	-3.726743
11912.745213	2664.545000	1854.335938	26.166674
11912.745213	2664.545000	1853.344727	36.751564
11912.745213	2664.545000	1852.353516	105.179733
11912.745213	2664.545000	1851.362305	84.396431
11912.745213	2664.545000	1850.370117	27.465969
11912.745213	2664.545000	1849.377930	228.342468
11912.745213	2664.545000	1848.385742	84.671402
11912.745213	2664.545000	1847.393555	128.899475
11912.745213	2664.545000	1846.401367	134.574966
11912.745213	2664.545000	1845.408203	-16.246620
11912.745213	2664.545000	1844.415039	-10.563285
11912.745213	2664.545000	1843.421875	26.393970
11912.745213	2664.545000	1842.428711	89.795990
11912.745213	2664.545000	1841.435547	6.419575
11912.745213	2664.545000	1840.441406	254.984222
11912.745213	2664.545000	1839.448242	48.947277
11912.745213	2664.545000	1838.454102	76.195511
11912.745213	2664.545000	1837.459961	69.771049
11912.745213	2664.545000	1836.464844	176.298645
11912.745213	2664.545000	1835.470703	11.243970
11912.745213	2664.545000	1834.475586	62.466427
11912.745213	2664.545000	1833.480469	31.990591
11912.745213	2664.545000	1832.485352	-96.948235
11912.745213	2664.545000	1831.490234	136.723633
11912.745213	2664.545000	1830.495117	24.599401
11912.745213	2664.545000	1829.499023	111.726135
11912.745213	2664.545000	1828.502930	59.623558
11912.745213	2664.545000	1827.506836	93.906387
11912.745213	2664.545000	1826.510742	190.537460
11912.745213	2664.545000	1825.513672	13.700506
11912.745213	2664.545000	1824.517578	-33.587788
11912.745213	2664.545000	1823.520508	175.666061
11912.745213	2664.545000	1822.523438	44.446671
11912.745213	2664.545000	1821.526367	-36.404179
11912.745213	2664.545000	1820.529297	110.401550
11912.745213	2664.545000	1819.531250	3.194520
11912.745213	2664.545000	1818.533203	-27.333073
11912.745213	2664.545000	1817.535156	-67.439072
11912.745213	2664.545000	1816.537109	31.333027
11912.745213	2664.545000	1815.539063	29.513468
11912.745213	2664.545000	1814.540039	-15.399168
11912.745213	2664.545000	1813.541992	33.023144
11912.745213	2664.545000	1812.542969	2.461672
11912.745213	2664.545000	1811.543945	93.898735
11912.745213	2664.545000	1810.543945	5.915880
11912.745213	2664.545000	1809.544922	180.988098
11912.745213	2664.545000	1808.544922	102.564156
11912.745213	2664.545000	1807.544922	55.232857
11912.745213	2664.545000	1806.544922	-75.735306
11912.745213	2664.545000	1805.544922	113.513641
11912.745213	2664.545000	1804.544922	13.618836
11912.745213	2664.545000	1803.543945	33.173988
11912.745213	2664.545000	1802.542969	-23.705683
11912.745213	2664.545000	1801.541992	17.316719
11912.745213	2664.545000	1800.541016	-72.980011
11912.745213	2664.545000	1799.539063	127.920639
11912.745213	2664.545000	1798.538086	1.822505
11912.745213	2664.545000	1797.536133	-50.280441
11912.745213	2664.545000	1796.534180	-26.044878
11912.745213	2664.545000	1795.532227	26.789927
11912.745213	2664.545000	1794.529297	8.059787
11912.745213	2664.545000	1793.527344	-1.137428
11912.745213	2664.545000	1792.524414	-10.342980
11912.745213	2664.545000	1791.521484	56.702518
11912.745213	2664.545000	1790.518555	-26.393513
11912.745213	2664.545000	1789.514648	12.020614
11912.745213	2664.545000	1788.511719	-35.331638
11912.745213	2664.545000	1787.507813	67.341881
11912.745213	2664.545000	1786.503906	100.921692
11912.745213	2664.545000	1785.500000	41.643658
11912.745213	2664.545000	1784.496094	58.534626
11912.745213	2664.545000	1783.491211	268.142731
11912.745213	2664.545000	1782.486328	106.535545
11912.745213	2664.545000	1781.481445	216.134003
11912.745213	2664.545000	1780.476563	-14.389054
11912.745213	2664.545000	1779.471680	-26.091217
11912.745213	2664.545000	1778.465820	16.874418
11912.745213	2664.545000	1777.460938	-35.256245
11912.745213	2664.545000	1776.455078	128.863907
11912.745213	2664.545000	1775.449219	98.091614
11912.745213	2664.545000	1774.442383	117.201973
11912.745213	2664.545000	1773.436523	114.920723
11912.745213	2664.545000	1772.429688	53.265797
11912.745213	2664.545000	1771.422852	50.974838
11912.745213	2664.545000	1770.416016	51.047390
11912.745213	2664.545000	1769.409180	-12.965744
11912.745213	2664.545000	1768.402344	-65.102135
11912.745213	2664.545000	1767.394531	1.381038
11912.745213	2664.545000	1766.386719	-38.902069
11912.745213	2664.545000	1765.378906	34.643791
11912.745213	2664.545000	1764.371094	-24.619038
11912.745213	2664.545000	1763.362305	124.727516
11912.745213	2664.545000	1762.354492	-3.281014
11912.745213	2664.545000	1761.345703	34.615307
11912.745213	2664.545000	1760.336914	112.760689
11912.745213	2664.545000	1759.328125	6.112198
11912.745213	2664.545000	1758.318359	-46.039562
11912.745213	2664.545000	1757.308594	-60.298111
11912.745213	2664.545000	1756.299805	15.396659
11912.745213	2664.545000	1755.290039	-43.859001
11912.745213	2664.545000	1754.279297	29.413939
11912.745213	2664.545000	1753.269531	52.965061
11912.745213	2664.545000	1752.258789	116.708923
11912.745213	2664.545000	1751.249023	59.803364
11912.745213	2664.545000	1750.238281	10.001282
11912.745213	2664.545000	1749.226563	-27.972679
11912.745213	2664.545000	1748.215820	-47.031433
11912.745213	2664.545000	1747.204102	14.255122
11912.745213	2664.545000	1746.193359	-16.638191
11912.745213	2664.545000	1745.181641	106.019966
11912.745213	2664.545000	1744.168945	-7.567726
11912.745213	2664.545000	1743.157227	-43.193485
11912.745213	2664.545000	1742.144531	86.451622
11912.745213	2664.545000	1741.132813	133.420624
11912.745213	2664.545000	1740.120117	102.478004
11912.745213	2664.545000	1739.106445	-3.971897
11912.745213	2664.545000	1738.093750	52.394024
11912.745213	2664.545000	1737.080078	219.587265
11912.745213	2664.545000	1736.067383	65.983704
11912.745213	2664.545000	1735.053711	25.603592
11912.745213	2664.545000	1734.040039	4.088290
11912.745213	2664.545000	1733.025391	-76.352356
11912.745213	2664.545000	1732.011719	17.609261
11912.745213	2664.545000	1730.997070	-58.109200
11912.745213	2664.545000	1729.982422	24.015486
11912.745213	2664.545000	1728.967773	4.830088
11912.745213	2664.545000	1727.952148	91.601547
11912.745213	2664.545000	1726.937500	-137.132965
11912.745213	2664.545000	1725.921875	15.520704
11912.745213	2664.545000	1724.906250	31.615116
11912.745213	2664.545000	1723.890625	14.754371
11912.745213	2664.545000	1722.875000	59.055264
11912.745213	2664.545000	1721.858398	-91.884735
11912.745213	2664.545000	1720.841797	13.540701
11912.745213	2664.545000	1719.825195	-57.412968
11912.745213	2664.545000	1718.808594	31.495573
11912.745213	2664.545000	1717.791992	61.607243
11912.745213	2664.545000	1716.774414	94.047813
11912.745213	2664.545000	1715.756836	126.468559
11912.745213	2664.545000	1714.739258	64.915977
11912.745213	2664.545000	1713.721680	170.114288
11912.745213	2664.545000	1712.704102	45.168594
11912.745213	2664.545000	1711.685547	-11.662076
11912.745213	2664.545000	1710.667969	-47.352520
11912.745213	2664.545000	1709.649414	-61.919418
11912.745213	2664.545000	1708.630859	-38.949730
11912.745213	2664.545000	1707.611328	-53.528175
11912.745213	2664.545000	1706.592773	37.429092
11912.745213	2664.545000	1705.573242	36.897041
11912.745213	2664.545000	1704.553711	-3.494943
11912.745213	2664.545000	1703.534180	-48.565590
11912.745213	2664.545000	1702.513672	-28.010967
11912.745213	2664.545000	1701.494141	90.935928
11912.745213	2664.545000	1700.473633	-31.450661
11912.745213	2664.545000	1699.453125	145.989441
11912.745213	2664.545000	1698.432617	-9.154764
11912.745213	2664.545000	1697.412109	177.566055
11912.745213	2664.545000	1696.390625	80.980232
11912.745213	2664.545000	1695.369141	82.717194
11912.745213	2664.545000	1694.347656	-62.960709
11912.745213	2664.545000	1693.326172	79.155624
11912.745213	2664.545000	1692.304688	-40.747631
11912.745213	2664.545000	1691.282227	-10.949104
11912.745213	2664.545000	1690.260742	39.877396
11912.745213	2664.545000	1689.238281	93.015312
11912.745213	2664.545000	1688.214844	127.429123
11912.745213	2664.545000	1687.192383	63.686749
11912.745213	2664.545000	1686.168945	-63.115406
11912.745213	2664.545000	1685.146484	-89.432358
11912.745213	2664.545000	1684.123047	-24.667221
11912.745213	2664.545000	1683.099609	51.743099
11912.745213	2664.545000	1682.075195	-131.002991
11912.745213	2664.545000	1681.051758	-45.273075
11912.745213	2664.545000	1680.027344	-29.587482
11912.745213	2664.545000	1679.002930	79.412308
11912.745213	2664.545000	1677.978516	27.415405
11912.745213	2664.545000	1676.953125	166.672455
11912.745213	2664.545000	1675.928711	28.398411
11912.745213	2664.545000	1674.903320	118.638863
11912.745213	2664.545000	1673.877930	152.901749
11912.745213	2664.545000	1672.852539	58.977741
11912.745213	2664.545000	1671.826172	139.830872
11912.745213	2664.545000	1670.800781	62.247887
11912.745213	2664.545000	1669.774414	110.458443
11912.745213	2664.545000	1668.748047	-2.024137
11912.745213	2664.545000	1667.721680	-5.042473
11912.745213	2664.545000	1666.694336	19.869413
11912.745213	2664.545000	1665.667969	-4.099866
11912.745213	2664.545000	1664.640625	-4.795848
11912.745213	2664.545000	1663.613281	92.214233
11912.745213	2664.545000	1662.585938	72.890976
11912.745213	2664.545000	1661.557617	69.850754
11912.745213	2664.545000	1660.530273	162.137650
11912.745213	2664.545000	1659.501953	80.045784
11912.745213	2664.545000	1658.473633	169.967880
11912.745213	2664.545000	1657.444336	134.376282
11912.745213	2664.545000	1656.416016	142.941025
11912.745213	2664.545000	1655.386719	109.691124
11912.745213	2664.545000	1654.358398	153.092514
11912.745213	2664.545000	1653.328125	110.564842
11912.745213	2664.545000	1652.298828	216.625793
11912.745213	2664.545000	1651.269531	192.673477
11912.745213	2664.545000	1650.239258	254.587494
11912.745213	2664.545000	1649.208984	239.917297
11912.745213	2664.545000	1648.178711	157.985306
11912.745213	2664.545000	1647.148438	256.980652
11912.745213	2664.545000	1646.117188	207.539734
11912.745213	2664.545000	1645.086914	197.531815
11912.745213	2664.545000	1644.055664	312.690033
11912.745213	2664.545000	1643.024414	279.493988
11912.745213	2664.545000	1641.992188	132.782791
11912.745213	2664.545000	1640.960938	268.741058
11912.745213	2664.545000	1639.928711	339.798737
11912.745213	2664.545000	1638.896484	304.315338
11912.745213	2664.545000	1637.864258	449.427734
11912.745213	2664.545000	1636.832031	286.636566
11912.745213	2664.545000	1635.798828	318.303864
11912.745213	2664.545000	1634.766602	345.336426
11912.745213	2664.545000	1633.733398	388.553406
11912.745213	2664.545000	1632.699219	454.884186
11912.745213	2664.545000	1631.666016	317.701782
11912.745213	2664.545000	1630.632813	284.615326
11912.745213	2664.545000	1629.598633	237.674927
11912.745213	2664.545000	1628.564453	389.509033
11912.745213	2664.545000	1627.530273	310.226715
11912.745213	2664.545000	1626.495117	281.801880
11912.745213	2664.545000	1625.460938	239.536240
11912.745213	2664.545000	1624.425781	264.259277
11912.745213	2664.545000	1623.390625	210.477371
11912.745213	2664.545000	1622.355469	382.943146
11912.745213	2664.545000	1621.319336	259.930359
11912.745213	2664.545000	1620.284180	203.890060
11912.745213	2664.545000	1619.248047	311.675232
11912.745213	2664.545000	1618.211914	285.641846
11912.745213	2664.545000	1617.174805	319.583221
11912.745213	2664.545000	1616.138672	309.711121
11912.745213	2664.545000	1615.101563	279.100220
11912.745213	2664.545000	1614.065430	324.568207
11912.745213	2664.545000	1613.027344	222.543564
11912.745213	2664.545000	1611.990234	205.811539
11912.745213	2664.545000	1610.953125	281.230865
11912.745213	2664.545000	1609.915039	292.142731
11912.745213	2664.545000	1608.876953	399.764893
11912.745213	2664.545000	1607.838867	334.695160
11912.745213	2664.545000	1606.800781	419.266174
11912.745213	2664.545000	1605.761719	322.015533
11912.745213	2664.545000	1604.723633	158.090775
11912.745213	2664.545000	1603.684570	152.957474
11912.745213	2664.545000	1602.644531	334.121643
11912.745213	2664.545000	1601.605469	294.482300
11912.745213	2664.545000	1600.566406	252.567719
11912.745213	2664.545000	1599.526367	298.020935
11912.745213	2664.545000	1598.486328	341.167023
11912.745213	2664.545000	1597.446289	384.305939
11912.745213	2664.545000	1596.405273	521.619812
11912.745213	2664.545000	1595.365234	296.010010
11912.745213	2664.545000	1594.324219	401.158966
11912.745213	2664.545000	1593.283203	377.710571
11912.745213	2664.545000	1592.242188	510.367157
11912.745213	2664.545000	1591.200195	310.217102
11912.745213	2664.545000	1590.159180	231.763733
11912.745213	2664.545000	1589.117188	410.281403
11912.745213	2664.545000	1588.075195	361.676147
11912.745213	2664.545000	1587.032227	244.305008
11912.745213	2664.545000	1585.990234	168.260986
11912.745213	2664.545000	1584.947266	300.849335
11912.745213	2664.545000	1583.904297	474.649353
11912.745213	2664.545000	1582.861328	336.771545
11912.745213	2664.545000	1581.818359	318.085205
11912.745213	2664.545000	1580.775391	368.131500
11912.745213	2664.545000	1579.731445	296.799255
11912.745213	2664.545000	1578.687500	388.064178
11912.745213	2664.545000	1577.643555	284.733612
11912.745213	2664.545000	1576.598633	327.927338
11912.745213	2664.545000	1575.554688	190.350967
11912.745213	2664.545000	1574.509766	224.420792
11912.745213	2664.545000	1573.464844	215.031906
11912.745213	2664.545000	1572.419922	191.938370
11912.745213	2664.545000	1571.374023	427.229340
11912.745213	2664.545000	1570.329102	164.104843
11912.745213	2664.545000	1569.283203	369.624420
11912.745213	2664.545000	1568.237305	120.351044
11912.745213	2664.545000	1567.191406	220.734085
11912.745213	2664.545000	1566.144531	177.188416
11912.745213	2664.545000	1565.098633	-42.170479
11912.745213	2664.545000	1564.051758	78.776108
11912.745213	2664.545000	1563.004883	85.549095
11912.745213	2664.545000	1561.957031	144.826614
11912.745213	2664.545000	1560.910156	140.203506
11912.745213	2664.545000	1559.862305	172.099380
11912.745213	2664.545000	1558.814453	338.578064
11912.745213	2664.545000	1557.766602	137.834518
11912.745213	2664.545000	1556.718750	158.356644
11912.745213	2664.545000	1555.669922	69.460861
11912.745213	2664.545000	1554.621094	146.999496
11912.745213	2664.545000	1553.573242	224.524048
11912.745213	2664.545000	1552.523438	19.518686
11912.745213	2664.545000	1551.474609	144.904282
11912.745213	2664.545000	1550.424805	170.048447
11912.745213	2664.545000	1549.375000	208.860580
11912.745213	2664.545000	1548.325195	1.808076
11912.745213	2664.545000	1547.275391	106.677681
11912.745213	2664.545000	1546.225586	18.093037
11912.745213	2664.545000	1545.174805	95.648033
11912.745213	2664.545000	1544.124023	70.826187
11912.745213	2664.545000	1543.073242	91.516777
11912.745213	2664.545000	1542.022461	187.253601
11912.745213	2664.545000	1540.970703	153.384995
11912.745213	2664.545000	1539.919922	21.811306
11912.745213	2664.545000	1538.868164	47.108513
11912.745213	2664.545000	1537.815430	124.670326
11912.745213	2664.545000	1536.763672	127.256844
11912.745213	2664.545000	1535.710938	129.859192
11912.745213	2664.545000	1534.659180	148.374588
11912.745213	2664.545000	1533.606445	148.737595
11912.745213	2664.545000	1532.552734	130.959091
11912.745213	2664.545000	1531.500000	106.399101
11912.745213	2664.545000	1530.446289	4.722733
11912.745213	2664.545000	1529.393555	100.463280
11912.745213	2664.545000	1528.338867	123.606033
11912.745213	2664.545000	1527.285156	185.307968
11912.745213	2664.545000	1526.231445	86.038208
11912.745213	2664.545000	1525.176758	43.493477
11912.745213	2664.545000	1524.122070	80.301971
11912.745213	2664.545000	1523.067383	164.697174
11912.745213	2664.545000	1522.012695	-49.946335
11912.745213	2664.545000	1520.957031	20.889555
11912.745213	2664.545000	1519.901367	57.750423
11912.745213	2664.545000	1518.845703	8.584597
11912.745213	2664.545000	1517.790039	158.649963
11912.745213	2664.545000	1516.734375	91.417793
11912.745213	2664.545000	1515.677734	-64.011215
11912.745213	2664.545000	1514.621094	153.904510
11912.745213	2664.545000	1513.564453	14.396508
11912.745213	2664.545000	1512.507813	-7.448254
11912.745213	2664.545000	1511.450195	52.126755
11912.745213	2664.545000	1510.393555	71.011055
11912.745213	2664.545000	1509.335938	56.008175
11912.745213	2664.545000	1508.278320	-4.158298
11912.745213	2664.545000	1507.219727	-50.725910
11912.745213	2664.545000	1506.162109	2.124391
11912.745213	2664.545000	1505.103516	68.523422
11912.745213	2664.545000	1504.044922	-34.412235
11912.745213	2664.545000	1502.986328	-4.107334
11912.745213	2664.545000	1501.926758	37.490711
11912.745213	2664.545000	1500.868164	-112.699158
11912.745213	2664.545000	1499.808594	14.671359
11912.745213	2664.545000	1498.749023	99.157692
11912.745213	2664.545000	1497.688477	5.483881
11912.745213	2664.545000	1496.628906	-119.695450
11912.745213	2664.545000	1495.568359	-107.301392
11912.745213	2664.545000	1494.507813	123.717506
11912.745213	2664.545000	1493.447266	-35.145550
11912.745213	2664.545000	1492.386719	-20.458397
11912.745213	2664.545000	1491.325195	41.543652
11912.745213	2664.545000	1490.263672	38.237148
11912.745213	2664.545000	1489.202148	152.029846
11912.745213	2664.545000	1488.140625	15.936912
11912.745213	2664.545000	1487.079102	12.703012
11912.745213	2664.545000	1486.016602	-121.014503
11912.745213	2664.545000	1484.954102	-2.694652
11912.745213	2664.545000	1483.891602	-64.336929
11912.745213	2664.545000	1482.829102	35.979115
11912.745213	2664.545000	1481.765625	95.808365
11912.745213	2664.545000	1480.702148	9.528633
11912.745213	2664.545000	1479.638672	26.679499
11912.745213	2664.545000	1478.575195	7.897213
11912.745213	2664.545000	1477.511719	16.113436
11912.745213	2664.545000	1476.447266	26.578951
11912.745213	2664.545000	1475.382813	-12.291912
11912.745213	2664.545000	1474.318359	-17.515253
11912.745213	2664.545000	1473.253906	82.784431
11912.745213	2664.545000	1472.189453	55.245327
11912.745213	2664.545000	1471.124023	-37.307457
11912.745213	2664.545000	1470.058594	49.505138
11912.745213	2664.545000	1468.993164	93.656258
11912.745213	2664.545000	1467.927734	23.754799
11912.745213	2664.545000	1466.861328	110.520462
11912.745213	2664.545000	1465.794922	116.646194
11912.745213	2664.545000	1464.728516	104.867332
11912.745213	2664.545000	1463.662109	10.367472
11912.745213	2664.545000	1462.594727	141.888367
11912.745213	2664.545000	1461.528320	123.738518
11912.745213	2664.545000	1460.460938	212.794022
11912.745213	2664.545000	1459.393555	261.605591
11912.745213	2664.545000	1458.326172	200.670792
11912.745213	2664.545000	1457.257813	104.018555
11912.745213	2664.545000	1456.189453	191.050613
11912.745213	2664.545000	1455.121094	27.663935
11912.745213	2664.545000	1454.052734	212.771088
11912.745213	2664.545000	1452.984375	53.932102
11912.745213	2664.545000	1451.915039	118.900169
11912.745213	2664.545000	1450.845703	207.396225
11912.745213	2664.545000	1449.776367	174.337738
11912.745213	2664.545000	1448.707031	44.614319
11912.745213	2664.545000	1447.636719	110.513885
11912.745213	2664.545000	1446.567383	106.301361
11912.745213	2664.545000	1445.497070	157.288467
11912.745213	2664.545000	1444.425781	127.890282
11912.745213	2664.545000	1443.355469	210.606445
11912.745213	2664.545000	1442.285156	229.460754
11912.745213	2664.545000	1441.213867	187.886734
11912.745213	2664.545000	1440.142578	154.027496
11912.745213	2664.545000	1439.070313	90.489464
11912.745213	2664.545000	1437.999023	11.169528
11912.745213	2664.545000	1436.926758	-11.319000
11912.745213	2664.545000	1435.854492	27.560919
11912.745213	2664.545000	1434.782227	50.135406
11912.745213	2664.545000	1433.709961	123.505005
11912.745213	2664.545000	1432.636719	43.348522
11912.745213	2664.545000	1431.563477	-91.126678
11912.745213	2664.545000	1430.490234	-114.313728
11912.745213	2664.545000	1429.416992	-74.404083
11912.745213	2664.545000	1428.343750	-55.377285
11912.745213	2664.545000	1427.269531	-55.229244
11912.745213	2664.545000	1426.195313	50.730690
11912.745213	2664.545000	1425.121094	22.147964
11912.745213	2664.545000	1424.046875	17.512751
11912.745213	2664.545000	1422.971680	-110.049202
11912.745213	2664.545000	1421.896484	-111.487465
11912.745213	2664.545000	1420.821289	-66.052101
11912.745213	2664.545000	1419.746094	-59.614769
11912.745213	2664.545000	1418.669922	25.326336
11912.745213	2664.545000	1417.594727	-26.073891
11912.745213	2664.545000	1416.518555	-14.453364
11912.745213	2664.545000	1415.442383	142.913513
11912.745213	2664.545000	1414.365234	-31.144251
11912.745213	2664.545000	1413.289063	-13.477765
11912.745213	2664.545000	1412.211914	-42.708202
11912.745213	2664.545000	1411.134766	73.013489
11912.745213	2664.545000	1410.057617	-48.781044
11912.745213	2664.545000	1408.979492	254.597656
11912.745213	2664.545000	1407.902344	137.450150
11912.745213	2664.545000	1406.824219	49.586567
11912.745213	2664.545000	1405.746094	245.574631
11912.745213	2664.545000	1404.666992	138.593109
11912.745213	2664.545000	1403.588867	216.631851
11912.745213	2664.545000	1402.509766	148.323410
11912.745213	2664.545000	1401.430664	58.277908
11912.745213	2664.545000	1400.351563	34.065548
11912.745213	2664.545000	1399.271484	16.724085
11912.745213	2664.545000	1398.192383	46.479492
11912.745213	2664.545000	1397.112305	93.902512
11912.745213	2664.545000	1396.031250	54.681572
11912.745213	2664.545000	1394.951172	14.905813
11912.745213	2664.545000	1393.871094	-4.872817
11912.745213	2664.545000	1392.790039	-1.389415
11912.745213	2664.545000	1391.708984	77.898064
11912.745213	2664.545000	1390.626953	19.135426
11912.745213	2664.545000	1389.545898	222.865723
11912.745213	2664.545000	1388.463867	98.934380
11912.745213	2664.545000	1387.381836	92.022530
11912.745213	2664.545000	1386.299805	109.482605
11912.745213	2664.545000	1385.217773	71.552773
11912.745213	2664.545000	1384.134766	59.013191
11912.745213	2664.545000	1383.051758	16.083014
11912.745213	2664.545000	1381.968750	40.759190
11912.745213	2664.545000	1380.885742	59.098244
11912.745213	2664.545000	1379.802734	37.162060
11912.745213	2664.545000	1378.718750	-17.391180
11912.745213	2664.545000	1377.634766	171.154160
11912.745213	2664.545000	1376.550781	140.079681
11912.745213	2664.545000	1375.465820	21.690115
11912.745213	2664.545000	1374.381836	-27.823549
11912.745213	2664.545000	1373.296875	15.217092
11912.745213	2664.545000	1372.211914	-14.108158
11912.745213	2664.545000	1371.126953	37.198132
11912.745213	2664.545000	1370.041016	39.133610
11912.745213	2664.545000	1368.955078	96.330284
11912.745213	2664.545000	1367.869141	15.306563
11912.745213	2664.545000	1366.783203	124.009590
11912.745213	2664.545000	1365.697266	-27.176498
11912.745213	2664.545000	1364.610352	26.406664
11912.745213	2664.545000	1363.523438	-64.807243
11912.745213	2664.545000	1362.436523	156.597641
11912.745213	2664.545000	1361.349609	-40.948616
11912.745213	2664.545000	1360.261719	-98.492210
11912.745213	2664.545000	1359.174805	12.392299
11912.745213	2664.545000	1358.086914	124.893967
11912.745213	2664.545000	1356.998047	31.287598
11912.745213	2664.545000	1355.910156	11.727541
11912.745213	2664.545000	1354.821289	181.729599
11912.745213	2664.545000	1353.732422	153.784424
11912.745213	2664.545000	1352.643555	127.715134
11912.745213	2664.545000	1351.554688	18.920984
11912.745213	2664.545000	1350.464844	227.090286
11912.745213	2664.545000	1349.375000	213.373337
11912.745213	2664.545000	1348.285156	305.107361
11912.745213	2664.545000	1347.195313	266.478271
11912.745213	2664.545000	1346.105469	198.035706
11912.745213	2664.545000	1345.014648	291.982208
11912.745213	2664.545000	1343.923828	292.277039
11912.745213	2664.545000	1342.833008	356.443542
11912.745213	2664.545000	1341.741211	352.701324
11912.745213	2664.545000	1340.650391	446.456818
11912.745213	2664.545000	1339.558594	378.842896
11912.745213	2664.545000	1338.466797	453.617554
11912.745213	2664.545000	1337.374023	360.065491
11912.745213	2664.545000	1336.282227	300.914795
11912.745213	2664.545000	1335.189453	371.677307
11912.745213	2664.545000	1334.096680	395.215027
11912.745213	2664.545000	1333.003906	397.828064
11912.745213	2664.545000	1331.910156	444.787506
11912.745213	2664.545000	1330.817383	329.993134
11912.745213	2664.545000	1329.723633	391.953064
11912.745213	2664.545000	1328.629883	307.187408
11912.745213	2664.545000	1327.535156	258.179169
11912.745213	2664.545000	1326.441406	381.284149
11912.745213	2664.545000	1325.346680	274.013885
11912.745213	2664.545000	1324.251953	348.372894
11912.745213	2664.545000	1323.156250	201.803665
11912.745213	2664.545000	1322.061523	284.703888
11912.745213	2664.545000	1320.965820	190.426544
11912.745213	2664.545000	1319.870117	189.957977
11912.745213	2664.545000	1318.774414	213.014832
11912.745213	2664.545000	1317.678711	205.768311
11912.745213	2664.545000	1316.582031	164.560883
11912.745213	2664.545000	1315.485352	256.915466
11912.745213	2664.545000	1314.388672	215.088303
11912.745213	2664.545000	1313.291016	332.042908
11912.745213	2664.545000	1312.194336	231.051865
11912.745213	2664.545000	1311.096680	225.829086
11912.745213	2664.545000	1309.999023	226.362839
11912.745213	2664.545000	1308.901367	253.808701
11912.745213	2664.545000	1307.802734	207.418365
11912.745213	2664.545000	1306.705078	221.272903
11912.745213	2664.545000	1305.606445	154.648346
11912.745213	2664.545000	1304.506836	103.182709
11912.745213	2664.545000	1303.408203	220.267578
11912.745213	2664.545000	1302.308594	172.593094
11912.745213	2664.545000	1301.208984	168.790466
11912.745213	2664.545000	1300.109375	24.348818
11912.745213	2664.545000	1299.009766	206.436905
11912.745213	2664.545000	1297.909180	189.729324
11912.745213	2664.545000	1296.808594	191.002808
11912.745213	2664.545000	1295.708008	142.248398
11912.745213	2664.545000	1294.607422	51.839939
11912.745213	2664.545000	1293.506836	122.860275
11912.745213	2664.545000	1292.405273	-17.390005
11912.745213	2664.545000	1291.303711	118.360924
11912.745213	2664.545000	1290.202148	32.505474
11912.745213	2664.545000	1289.099609	-2.591296
11912.745213	2664.545000	1287.998047	54.413692
11912.745213	2664.545000	1286.895508	55.863068
11912.745213	2664.545000	1285.792969	85.219536
11912.745213	2664.545000	1284.689453	59.950722
11912.745213	2664.545000	1283.586914	44.238537
11912.745213	2664.545000	1282.483398	-57.795063
11912.745213	2664.545000	1281.379883	-14.885146
11912.745213	2664.545000	1280.276367	-50.443012
11912.745213	2664.545000	1279.171875	61.293907
11912.745213	2664.545000	1278.067383	-8.081826
11912.745213	2664.545000	1276.962891	-61.269115
11912.745213	2664.545000	1275.858398	64.289001
11912.745213	2664.545000	1274.753906	-5.603946
11912.745213	2664.545000	1273.648438	-85.100891
11912.745213	2664.545000	1272.542969	-14.414948
11912.745213	2664.545000	1271.437500	-39.237701
11912.745213	2664.545000	1270.331055	-11.762608
11912.745213	2664.545000	1269.225586	9.230238
11912.745213	2664.545000	1268.119141	53.308681
11912.745213	2664.545000	1267.012695	-33.095875
11912.745213	2664.545000	1265.906250	49.765911
11912.745213	2664.545000	1264.798828	5.058009
11912.745213	2664.545000	1263.691406	34.244534
11912.745213	2664.545000	1262.583984	29.623167
11912.745213	2664.545000	1261.476563	-58.853622
11912.745213	2664.545000	1260.368164	-58.822144
11912.745213	2664.545000	1259.260742	56.466774
11912.745213	2664.545000	1258.152344	-1.183150
11912.745213	2664.545000	1257.043945	-114.402054
11912.745213	2664.545000	1255.934570	4.518004
11912.745213	2664.545000	1254.825195	-52.619041
11912.745213	2664.545000	1253.716797	-17.180626
11912.745213	2664.545000	1252.606445	-23.236469
11912.745213	2664.545000	1251.497070	-41.278706
11912.745213	2664.545000	1250.387695	-70.102821
11912.745213	2664.545000	1249.277344	-50.471569
11912.745213	2664.545000	1248.166992	-50.995079
11912.745213	2664.545000	1247.055664	-51.136311
11912.745213	2664.545000	1245.945313	11.248933
11912.745213	2664.545000	1244.833984	15.535666
11912.745213	2664.545000	1243.722656	-2.609368
11912.745213	2664.545000	1242.611328	-89.557907
11912.745213	2664.545000	1241.499023	84.482452
11912.745213	2664.545000	1240.387695	-26.643890
11912.745213	2664.545000	1239.275391	-27.167389
11912.745213	2664.545000	1238.162109	54.085133
11912.745213	2664.545000	1237.049805	60.910233
11912.745213	2664.545000	1235.936523	-3.590518
11912.745213	2664.545000	1234.823242	-78.957886
11912.745213	2664.545000	1233.709961	8.057491
11912.745213	2664.545000	1232.596680	-47.246689
11912.745213	2664.545000	1231.482422	-5.987697
11912.745213	2664.545000	1230.369141	2.637404
11912.745213	2664.545000	1229.253906	112.868889
11912.745213	2664.545000	1228.139648	-12.767215
11912.745213	2664.545000	1227.025391	-11.641595
11912.745213	2664.545000	1225.910156	-7.438919
11912.745213	2664.545000	1224.794922	21.389927
11912.745213	2664.545000	1223.679688	45.308666
11912.745213	2664.545000	1222.563477	-83.152046
11912.745213	2664.545000	1221.447266	-34.611053
11912.745213	2664.545000	1220.331055	23.717146
11912.745213	2664.545000	1219.214844	70.426651
11912.745213	2664.545000	1218.098633	-37.530041
11912.745213	2664.545000	1216.981445	6.573021
11912.745213	2664.545000	1215.864258	51.138016
11912.745213	2664.545000	1214.747070	34.035900
11912.745213	2664.545000	1213.629883	46.164974
11912.745213	2664.545000	1212.511719	19.732624
11912.745213	2664.545000	1211.393555	37.713314
11912.745213	2664.545000	1210.275391	70.827606
11912.745213	2664.545000	1209.157227	115.050476
11912.745213	2664.545000	1208.038086	143.904724
11912.745213	2664.545000	1206.918945	103.988846
11912.745213	2664.545000	1205.799805	132.820313
11912.745213	2664.545000	1204.680664	53.390671
11912.745213	2664.545000	1203.560547	93.596741
11912.745213	2664.545000	1202.441406	151.716782
11912.745213	2664.545000	1201.321289	59.499622
11912.745213	2664.545000	1200.200195	32.426556
11912.745213	2664.545000	1199.080078	43.436047
11912.745213	2664.545000	1197.958984	50.623550
11912.745213	2664.545000	1196.837891	132.046143
11912.745213	2664.545000	1195.716797	102.478111
11912.745213	2664.545000	1194.594727	144.095520
11912.745213	2664.545000	1193.473633	51.127426
11912.745213	2664.545000	1192.351563	89.663376
11912.745213	2664.545000	1191.229492	-25.356714
11912.745213	2664.545000	1190.106445	-18.710419
11912.745213	2664.545000	1188.984375	12.549152
11912.745213	2664.545000	1187.861328	-35.116924
11912.745213	2664.545000	1186.738281	-14.342916
11912.745213	2664.545000	1185.614258	-0.321952
11912.745213	2664.545000	1184.491211	29.004736
11912.745213	2664.545000	1183.367188	49.519073
11912.745213	2664.545000	1182.243164	-19.052826
11912.745213	2664.545000	1181.119141	-4.063606
11912.745213	2664.545000	1179.994141	15.722778
11912.745213	2664.545000	1178.869141	-20.775639
11912.745213	2664.545000	1177.744141	-33.216671
11912.745213	2664.545000	1176.619141	22.890306
11912.745213	2664.545000	1175.493164	10.354553
11912.745213	2664.545000	1174.368164	0.611937
11912.745213	2664.545000	1173.242188	-120.920097
11912.745213	2664.545000	1172.115234	-23.540010
11912.745213	2664.545000	1170.989258	-96.261589
11912.745213	2664.545000	1169.862305	32.341850
11912.745213	2664.545000	1168.735352	-28.943424
11912.745213	2664.545000	1167.608398	29.043640
11912.745213	2664.545000	1166.481445	-15.340601
11912.745213	2664.545000	1165.353516	31.355631
11912.745213	2664.545000	1164.225586	11.924515
11912.745213	2664.545000	1163.097656	-81.480225
11912.745213	2664.545000	1161.968750	-30.092865
11912.745213	2664.545000	1160.840820	-49.286892
11912.745213	2664.545000	1159.711914	-86.333046
11912.745213	2664.545000	1158.583008	-45.480587
11912.745213	2664.545000	1157.453125	-59.363255
11912.745213	2664.545000	1156.324219	-47.031693
11912.745213	2664.545000	1155.194336	-97.902214
11912.745213	2664.545000	1154.064453	-16.984791
11912.745213	2664.545000	1152.933594	-61.309669
11912.745213	2664.545000	1151.803711	5.706861
11912.745213	2664.545000	1150.672852	-75.025894
11912.745213	2664.545000	1149.541992	-38.199516
11912.745213	2664.545000	1148.411133	-107.496674
11912.745213	2664.545000	1147.279297	-37.418362
11912.745213	2664.545000	1146.147461	-1.373400
11912.745213	2664.545000	1145.015625	-55.642612
11912.745213	2664.545000	1143.883789	-6.976052
11912.745213	2664.545000	1142.750977	3.132579
11912.745213	2664.545000	1141.619141	-72.603912
11912.745213	2664.545000	1140.486328	74.120575
11912.745213	2664.545000	1139.352539	-27.592951
11912.745213	2664.545000	1138.219727	36.671978
11912.745213	2664.545000	1137.085938	65.077873
11912.745213	2664.545000	1135.952148	27.557308
11912.745213	2664.545000	1134.818359	87.582413
11912.745213	2664.545000	1133.683594	28.778564
11912.745213	2664.545000	1132.549805	7.283049
11912.745213	2664.545000	1131.415039	49.769505
11912.745213	2664.545000	1130.279297	106.429756
11912.745213	2664.545000	1129.144531	95.785927
11912.745213	2664.545000	1128.008789	34.493038
11912.745213	2664.545000	1126.873047	130.022827
11912.745213	2664.545000	1125.737305	38.379677
11912.745213	2664.545000	1124.601563	121.841858
11912.745213	2664.545000	1123.464844	85.009750
11912.745213	2664.545000	1122.328125	177.974792
11912.745213	2664.545000	1121.191406	180.691055
11912.745213	2664.545000	1120.054688	18.488575
11912.745213	2664.545000	1118.916992	-38.316463
11912.745213	2664.545000	1117.779297	-6.650171
11912.745213	2664.545000	1116.641602	126.317505
11912.745213	2664.545000	1115.503906	72.906364
11912.745213	2664.545000	1114.365234	57.483818
11912.745213	2664.545000	1113.226563	1.246849
11912.745213	2664.545000	1112.087891	118.825325
11912.745213	2664.545000	1110.949219	72.751450
11912.745213	2664.545000	1109.809570	61.203629
11912.745213	2664.545000	1108.669922	62.913567
11912.745213	2664.545000	1107.530273	63.421288
11912.745213	2664.545000	1106.390625	136.387909
11912.745213	2664.545000	1105.250000	36.940544
11912.745213	2664.545000	1104.109375	37.582413
11912.745213	2664.545000	1102.968750	133.994659
11912.745213	2664.545000	1101.828125	64.933151
11912.745213	2664.545000	1100.686523	96.983421
11912.745213	2664.545000	1099.544922	242.514008
11912.745213	2664.545000	1098.403320	170.085938
11912.745213	2664.545000	1097.261719	206.543442
11912.745213	2664.545000	1096.120117	199.153137
11912.745213	2664.545000	1094.977539	112.279320
11912.745213	2664.545000	1093.834961	100.135315
11912.745213	2664.545000	1092.691406	149.603470
11912.745213	2664.545000	1091.548828	92.197884
11912.745213	2664.545000	1090.405273	-13.472984
11912.745213	2664.545000	1089.261719	120.583023
11912.745213	2664.545000	1088.118164	117.755089
11912.745213	2664.545000	1086.973633	-29.802517
11912.745213	2664.545000	1085.829102	101.401436
11912.745213	2664.545000	1084.684570	36.288845
11912.745213	2664.545000	1083.540039	63.244484
11912.745213	2664.545000	1082.395508	25.551081
11912.745213	2664.545000	1081.250000	90.596764
11912.745213	2664.545000	1080.104492	61.478287
11912.745213	2664.545000	1078.958984	154.127792
11912.745213	2664.545000	1077.812500	45.483196
11912.745213	2664.545000	1076.666016	-46.159023
11912.745213	2664.545000	1075.519531	-48.203617
11912.745213	2664.545000	1074.373047	26.245436
11912.745213	2664.545000	1073.226563	34.934254
11912.745213	2664.545000	1072.079102	183.207916
11912.745213	2664.545000	1070.931641	-20.939281
11912.745213	2664.545000	1069.784180	23.617710
11912.745213	2664.545000	1068.635742	20.421686
11912.745213	2664.545000	1067.487305	112.714066
11912.745213	2664.545000	1066.338867	149.101807
11912.745213	2664.545000	1065.190430	58.772465
11912.745213	2664.545000	1064.041992	141.837875
11912.745213	2664.545000	1062.892578	178.997025
11912.745213	2664.545000	1061.743164	138.738495
11912.745213	2664.545000	1060.593750	117.434860
11912.745213	2664.545000	1059.443359	187.429642
11912.745213	2664.545000	1058.292969	168.732880
11912.745213	2664.545000	1057.142578	39.104412
11912.745213	2664.545000	1055.992188	119.318680
11912.745213	2664.545000	1054.841797	210.568100
11912.745213	2664.545000	1053.690430	155.770370
11912.745213	2664.545000	1052.539063	136.424866
11912.745213	2664.545000	1051.387695	67.442268
11912.745213	2664.545000	1050.235352	35.069820
11912.745213	2664.545000	1049.083984	54.623234
11912.745213	2664.545000	1047.931641	130.669205
11912.745213	2664.545000	1046.778320	-12.264925
11912.745213	2664.545000	1045.625977	91.116127
11912.745213	2664.545000	1044.472656	22.950773
11912.745213	2664.545000	1043.319336	69.757027
11912.745213	2664.545000	1042.166016	87.286903
11912.745213	2664.545000	1041.012695	79.926193
11912.745213	2664.545000	1039.858398	82.611984
11912.745213	2664.545000	1038.704102	144.977600
11912.745213	2664.545000	1037.549805	104.310196
11912.745213	2664.545000	1036.394531	-7.394082
11912.745213	2664.545000	1035.239258	137.154846
11912.745213	2664.545000	1034.083984	360.970703
11912.745213	2664.545000	1032.928711	184.498398
11912.745213	2664.545000	1031.773438	167.042648
11912.745213	2664.545000	1030.617188	158.804153
11912.745213	2664.545000	1029.460938	140.590134
11912.745213	2664.545000	1028.304688	207.923126
11912.745213	2664.545000	1027.147461	181.475464
11912.745213	2664.545000	1025.991211	122.232689
11912.745213	2664.545000	1024.833984	225.580963
11912.745213	2664.545000	1023.675781	184.377243
11912.745213	2664.545000	1022.518555	126.381554
11912.745213	2664.545000	1021.360352	184.943344
11912.745213	2664.545000	1020.202148	7.494442
11912.745213	2664.545000	1019.043945	105.224838
11912.745213	2664.545000	1017.884766	137.960632
11912.745213	2664.545000	1016.726563	-7.847638
11912.745213	2664.545000	1015.567383	76.906242
11912.745213	2664.545000	1014.407227	30.435692
11912.745213	2664.545000	1013.248047	27.481346
11912.745213	2664.545000	1012.087891	66.557571
11912.745213	2664.545000	1010.927734	89.523979
11912.745213	2664.545000	1009.767578	83.092552
11912.745213	2664.545000	1008.606445	-14.149453
11912.745213	2664.545000	1007.446289	17.652946
11912.745213	2664.545000	1006.285156	25.339712
11912.745213	2664.545000	1005.123047	-27.391356
11912.745213	2664.545000	1003.961914	31.738113
11912.745213	2664.545000	1002.799805	14.968426
11912.745213	2664.545000	1001.637695	-0.609289
11912.745213	2664.545000	1000.475586	46.593906
11912.745213	2664.545000	999.312500	64.695969
11912.745213	2664.545000	998.149414	63.497517
11912.745213	2664.545000	996.986328	118.670990
11912.745213	2664.545000	995.823242	64.119301
11912.745213	2664.545000	994.659180	28.677639
11912.745213	2664.545000	993.496094	-36.214333
11912.745213	2664.545000	992.332031	43.777786
11912.745213	2664.545000	991.166992	139.944565
11912.745213	2664.545000	990.002930	-40.273804
11912.745213	2664.545000	988.837891	96.445313
11912.745213	2664.545000	987.672852	98.819122
11912.745213	2664.545000	986.506836	17.235016
11912.745213	2664.545000	985.341797	80.543892
11912.745213	2664.545000	984.175781	-14.886266
11912.745213	2664.545000	983.009766	89.146637
11912.745213	2664.545000	981.843750	32.780861
11912.745213	2664.545000	980.676758	34.984818
11912.745213	2664.545000	979.509766	8.256038
11912.745213	2664.545000	978.342773	-10.913221
11912.745213	2664.545000	977.175781	-60.617130
11912.745213	2664.545000	976.007813	-5.963952
11912.745213	2664.545000	974.839844	93.789955
11912.745213	2664.545000	973.671875	43.136364
11912.745213	2664.545000	972.503906	28.270163
11912.745213	2664.545000	971.334961	124.888725
11912.745213	2664.545000	970.166016	-28.403442
11912.745213	2664.545000	968.997070	-130.127258
11912.745213	2664.545000	967.828125	-78.900833
11912.745213	2664.545000	966.658203	-0.767534
11912.745213	2664.545000	965.488281	-27.645292
11912.745213	2664.545000	964.318359	16.010883
11912.745213	2664.545000	963.148438	165.426636
11912.745213	2664.545000	961.977539	0.435533
11912.745213	2664.545000	960.806641	-105.505836
11912.745213	2664.545000	959.635742	-103.481628
11912.745213	2664.545000	958.463867	7.854139
11912.745213	2664.545000	957.292969	64.682007
11912.745213	2664.545000	956.121094	26.373791
11912.745213	2664.545000	954.948242	126.053558
11912.745213	2664.545000	953.776367	9.007113
11912.745213	2664.545000	952.603516	20.766148
11912.745213	2664.545000	951.430664	-25.534462
11912.745213	2664.545000	950.257813	-23.186644
11912.745213	2664.545000	949.084961	54.068935
11912.745213	2664.545000	947.911133	11.181469
11912.745213	2664.545000	946.737305	68.279503
11912.745213	2664.545000	945.563477	-29.303886
11912.745213	2664.545000	944.388672	-17.686432
11912.745213	2664.545000	943.213867	84.567566
11912.745213	2664.545000	942.039063	-58.110195
11912.745213	2664.545000	940.864258	-10.390076
11912.745213	2664.545000	939.688477	0.979810
11912.745213	2664.545000	938.513672	-7.863522
11912.745213	2664.545000	937.337891	-19.083849
11912.745213	2664.545000	936.161133	24.080093
11912.745213	2664.545000	934.985352	92.330780
11912.745213	2664.545000	933.808594	153.633316
11912.745213	2664.545000	932.631836	63.165115
11912.745213	2664.545000	931.454102	29.297180
11912.745213	2664.545000	930.277344	92.890701
11912.745213	2664.545000	929.099609	83.909760
11912.745213	2664.545000	927.921875	219.861893
11912.745213	2664.545000	926.743164	111.264030
11912.745213	2664.545000	925.565430	20.786030
11912.745213	2664.545000	924.386719	-60.606625
11912.745213	2664.545000	923.208008	41.348988
11912.745213	2664.545000	922.028320	116.111687
11912.745213	2664.545000	920.849609	23.412874
11912.745213	2664.545000	919.669922	24.342018
11912.745213	2664.545000	919.474609	102.819122
11912.745213	2664.545000	918.309570	-44.141750
11912.745213	2664.545000	917.143555	-116.428078
11912.745213	2664.545000	915.977539	-5.572823
11912.745213	2664.545000	914.810547	-48.464363
11912.745213	2664.545000	913.644531	78.140457
11912.745213	2664.545000	912.477539	93.981445
11912.745213	2664.545000	911.310547	-12.169171
11912.745213	2664.545000	910.143555	69.167641
11912.745213	2664.545000	908.975586	105.307579
11912.745213	2664.545000	907.807617	-59.490059
11912.745213	2664.545000	906.639648	-54.947662
11912.745213	2664.545000	905.471680	-77.491226
11912.745213	2664.545000	904.303711	-34.602913
11912.745213	2664.545000	903.134766	-14.293222
11912.745213	2664.545000	901.965820	6.003069
11912.745213	2664.545000	900.796875	24.031099
11912.745213	2664.545000	899.626953	-43.615162
11912.745213	2664.545000	898.457031	-59.400997
11912.745213	2664.545000	897.287109	-68.425270
11912.745213	2664.545000	896.117188	-81.956764
11912.745213	2664.545000	894.947266	-41.428810
11912.745213	2664.545000	893.776367	-0.922273
11912.745213	2664.545000	892.605469	26.054365
11912.745213	2664.545000	891.434570	-7.764509
11912.745213	2664.545000	890.262695	-48.325249
11912.745213	2664.545000	889.091797	48.383766
11912.745213	2664.545000	887.919922	140.549652
11912.745213	2664.545000	886.748047	79.725212
11912.745213	2664.545000	885.575195	54.901821
11912.745213	2664.545000	884.403320	0.855051
11912.745213	2664.545000	883.230469	-122.857918
11912.745213	2664.545000	882.057617	9.677567
11912.745213	2664.545000	880.883789	-46.587685
11912.745213	2664.545000	879.710938	130.797714
11912.745213	2664.545000	878.537109	-49.009983
11912.745213	2664.545000	877.362305	-138.926788
11912.745213	2664.545000	876.188477	-127.782814
11912.745213	2664.545000	875.013672	49.455147
11912.745213	2664.545000	873.839844	6.686018
11912.745213	2664.545000	872.664063	-24.851599
11912.745213	2664.545000	871.489258	-47.408539
11912.745213	2664.545000	870.313477	71.335716
11912.745213	2664.545000	869.138672	1.669018
11912.745213	2664.545000	867.962891	37.394295
11912.745213	2664.545000	866.786133	75.342072
11912.745213	2664.545000	865.610352	12.425249
11912.745213	2664.545000	864.433594	88.440842
11912.745213	2664.545000	863.256836	79.298416
11912.745213	2664.545000	862.079102	16.404758
11912.745213	2664.545000	860.902344	-21.838936
11912.745213	2664.545000	859.724609	-46.639099
11912.745213	2664.545000	858.546875	-8.764872
11912.745213	2664.545000	857.368164	8.949301
11912.745213	2664.545000	856.190430	-56.129288
11912.745213	2664.545000	855.011719	-38.423664
11912.745213	2664.545000	853.833008	6.105883
11912.745213	2664.545000	852.654297	-0.814361
11912.745213	2664.545000	851.474609	16.853199
11912.745213	2664.545000	850.294922	-115.236977
11912.745213	2664.545000	849.115234	-68.515579
11912.745213	2664.545000	847.935547	58.608173
11912.745213	2664.545000	846.754883	-10.884309
11912.745213	2664.545000	845.575195	17.904127
11912.745213	2664.545000	844.393555	28.814770
11912.745213	2664.545000	843.212891	-9.394632
11912.745213	2664.545000	842.032227	-139.097656
11912.745213	2664.545000	840.850586	-9.918857
11912.745213	2664.545000	839.668945	0.964462
11912.745213	2664.545000	838.486328	92.132805
11912.745213	2664.545000	837.304688	-68.727570
11912.745213	2664.545000	836.122070	-66.774460
11912.745213	2664.545000	834.939453	37.706944
11912.745213	2664.545000	833.756836	126.539345
11912.745213	2664.545000	832.573242	-78.781761
11912.745213	2664.545000	831.389648	30.074425
11912.745213	2664.545000	830.206055	9.701846
11912.745213	2664.545000	829.022461	-6.215231
11912.745213	2664.545000	827.838867	31.298235
11912.745213	2664.545000	826.654297	42.080486
11912.745213	2664.545000	825.469727	50.625671
11912.745213	2664.545000	824.284180	43.586967
11912.745213	2664.545000	823.099609	38.768181
11912.745213	2664.545000	821.914063	105.112930
11912.745213	2664.545000	820.728516	69.140274
11912.745213	2664.545000	819.542969	46.514698
11912.745213	2664.545000	818.356445	90.569519
11912.745213	2664.545000	817.169922	5.713961
11912.745213	2664.545000	815.983398	167.494339
11912.745213	2664.545000	814.796875	-23.975653
11912.745213	2664.545000	813.609375	57.781815
11912.745213	2664.545000	812.422852	48.464207
11912.745213	2664.545000	811.235352	114.619019
11912.745213	2664.545000	810.046875	105.279366
11912.745213	2664.545000	808.859375	111.467949
11912.745213	2664.545000	807.670898	68.840126
11912.745213	2664.545000	806.482422	83.890129
11912.745213	2664.545000	805.293945	-62.955601
11912.745213	2664.545000	804.104492	16.396173
11912.745213	2664.545000	802.915039	29.207518
11912.745213	2664.545000	801.725586	86.329185
11912.745213	2664.545000	800.536133	76.946648
11912.745213	2664.545000	799.345703	96.358925
11912.745213	2664.545000	798.155273	69.243393
11912.745213	2664.545000	796.964844	90.846542
11912.745213	2664.545000	795.774414	85.865089
11912.745213	2664.545000	794.583008	43.248898
11912.745213	2664.545000	793.392578	122.355301
11912.745213	2664.545000	792.200195	8.931024
11912.745213	2664.545000	791.008789	-40.305729
11912.745213	2664.545000	789.816406	138.264313
11912.745213	2664.545000	788.625000	24.879631
11912.745213	2664.545000	787.432617	-42.042179
11912.745213	2664.545000	786.239258	-18.326427
11912.745213	2664.545000	785.046875	-69.762161
11912.745213	2664.545000	783.853516	35.675331
11912.745213	2664.545000	782.660156	-57.737373
11912.745213	2664.545000	781.465820	-51.743114
11912.745213	2664.545000	780.272461	16.060772
11912.745213	2664.545000	779.078125	86.034134
11912.745213	2664.545000	777.883789	-9.557397
11912.745213	2664.545000	776.688477	22.860928
11912.745213	2664.545000	775.494141	4.515319
11912.745213	2664.545000	774.298828	63.364445
11912.745213	2664.545000	773.103516	53.818249
11912.745213	2664.545000	771.907227	-54.946739
11912.745213	2664.545000	770.711914	142.715912
11912.745213	2664.545000	769.515625	-69.622871
11912.745213	2664.545000	768.318359	105.905930
11912.745213	2664.545000	767.122070	87.496658
11912.745213	2664.545000	765.924805	33.844936
11912.745213	2664.545000	764.727539	-26.401445
11912.745213	2664.545000	763.530273	27.845320
11912.745213	2664.545000	762.333008	-14.788623
11912.745213	2664.545000	761.134766	37.210094
11912.745213	2664.545000	759.936523	62.774212
11912.745213	2664.545000	758.738281	53.121185
11912.745213	2664.545000	757.540039	34.664021
11912.745213	2664.545000	756.340820	-7.983850
11912.745213	2664.545000	755.141602	70.281746
11912.745213	2664.545000	753.942383	205.647003
11912.745213	2664.545000	752.742188	127.796623
11912.745213	2664.545000	751.541992	69.739349
11912.745213	2664.545000	750.341797	145.679199
11912.745213	2664.545000	749.141602	162.283096
11912.745213	2664.545000	747.941406	102.022659
11912.745213	2664.545000	746.740234	175.677017
11912.745213	2664.545000	745.539063	82.494698
11912.745213	2664.545000	744.337891	125.378960
11912.745213	2664.545000	743.135742	137.520050
11912.745213	2664.545000	741.933594	26.820337
11912.745213	2664.545000	740.731445	27.987770
11912.745213	2664.545000	739.529297	86.143379
11912.745213	2664.545000	738.326172	135.494461
11912.745213	2664.545000	737.124023	173.854721
11912.745213	2664.545000	735.919922	387.464844
11912.745213	2664.545000	734.716797	268.012238
11912.745213	2664.545000	733.513672	301.901520
11912.745213	2664.545000	732.309570	305.108459
11912.745213	2664.545000	731.105469	413.380737
11912.745213	2664.545000	729.900391	300.535004
11912.745213	2664.545000	728.696289	220.547729
11912.745213	2664.545000	727.491211	125.265060
11912.745213	2664.545000	726.286133	163.436188
11912.745213	2664.545000	725.080078	221.259552
11912.745213	2664.545000	723.874023	187.215332
11912.745213	2664.545000	722.668945	72.292046
11912.745213	2664.545000	721.461914	204.363800
11912.745213	2664.545000	720.255859	106.937759
11912.745213	2664.545000	719.048828	72.891212
11912.745213	2664.545000	717.841797	89.079903
11912.745213	2664.545000	716.634766	-1.751586
11912.745213	2664.545000	715.427734	16.601318
11912.745213	2664.545000	714.219727	-19.636202
11912.745213	2664.545000	713.011719	64.153366
11912.745213	2664.545000	711.803711	49.711704
11912.745213	2664.545000	710.594727	17.810352
11912.745213	2664.545000	709.385742	57.878391
11912.745213	2664.545000	708.176758	148.066681
11912.745213	2664.545000	706.967773	50.722378
11912.745213	2664.545000	705.758789	51.484146
11912.745213	2664.545000	704.548828	52.231403
11912.745213	2664.545000	703.338867	46.428440
11912.745213	2664.545000	702.127930	12.296459
11912.745213	2664.545000	700.917969	23.897446
11912.745213	2664.545000	699.707031	150.873978
11912.745213	2664.545000	698.496094	66.632813
11912.745213	2664.545000	697.285156	41.173935
11912.745213	2664.545000	696.073242	-58.269035
11912.745213	2664.545000	694.861328	11.999496
11912.745213	2664.545000	693.649414	36.549614
11912.745213	2664.545000	692.436523	15.409822
11912.745213	2664.545000	691.224609	-1.386503
11912.745213	2664.545000	690.011719	36.149754
11912.745213	2664.545000	688.798828	43.232082
11912.745213	2664.545000	687.584961	154.585968
11912.745213	2664.545000	686.372070	-33.889614
11912.745213	2664.545000	685.158203	101.295090
11912.745213	2664.545000	683.943359	43.160358
11912.745213	2664.545000	682.729492	41.479248
11912.745213	2664.545000	681.514648	-5.794419
11912.745213	2664.545000	680.299805	38.075901
11912.745213	2664.545000	679.084961	175.202560
11912.745213	2664.545000	677.869141	-28.282742
11912.745213	2664.545000	676.653320	-32.186157
11912.745213	2664.545000	675.437500	-57.783012
11912.745213	2664.545000	674.221680	57.515636
11912.745213	2664.545000	673.004883	-41.802353
11912.745213	2664.545000	671.789063	-21.919518
11912.745213	2664.545000	670.571289	97.589470
11912.745213	2664.545000	669.354492	-23.373404
11912.745213	2664.545000	668.136719	89.562500
11912.745213	2664.545000	666.919922	-104.981316
11912.745213	2664.545000	665.701172	-41.885532
11912.745213	2664.545000	664.483398	49.303493
11912.745213	2664.545000	663.264648	92.842064
11912.745213	2664.545000	662.045898	-30.210073
11912.745213	2664.545000	660.827148	34.927956
11912.745213	2664.545000	659.608398	192.999924
11912.745213	2664.545000	658.388672	134.818069
11912.745213	2664.545000	657.168945	232.260330
11912.745213	2664.545000	655.949219	135.175446
11912.745213	2664.545000	654.728516	260.636414
11912.745213	2664.545000	653.507813	234.838058
11912.745213	2664.545000	652.287109	370.997833
11912.745213	2664.545000	651.066406	260.963013
11912.745213	2664.545000	649.844727	202.766556
11912.745213	2664.545000	648.623047	45.311855
11912.745213	2664.545000	647.401367	183.506775
11912.745213	2664.545000	646.179688	116.701065
11912.745213	2664.545000	644.957031	190.098557
11912.745213	2664.545000	643.734375	125.452789
11912.745213	2664.545000	642.511719	108.251717
11912.745213	2664.545000	641.289063	82.425705
11912.745213	2664.545000	640.065430	84.613098
11912.745213	2664.545000	638.841797	-10.160523
11912.745213	2664.545000	637.618164	91.108444
11912.745213	2664.545000	636.393555	149.253159
11912.745213	2664.545000	635.168945	73.872978
11912.745213	2664.545000	633.944336	-53.146656
11912.745213	2664.545000	632.719727	101.809692
11912.745213	2664.545000	631.494141	-35.939945
11912.745213	2664.545000	630.269531	60.845959
11912.745213	2664.545000	629.042969	15.628368
11912.745213	2664.545000	627.817383	92.991188
11912.745213	2664.545000	626.590820	82.167419
11912.745213	2664.545000	625.365234	-53.324986
11912.745213	2664.545000	624.137695	-3.959195
11912.745213	2664.545000	622.911133	-4.036470
11912.745213	2664.545000	621.683594	75.355843
11912.745213	2664.545000	620.456055	25.851858
11912.745213	2664.545000	619.228516	-60.139477
11912.745213	2664.545000	618.000977	-73.113518
11912.745213	2664.545000	616.772461	6.198424
11912.745213	2664.545000	615.543945	6.076992
11912.745213	2664.545000	614.314453	25.256208
11912.745213	2664.545000	613.085938	5.815691
11912.745213	2664.545000	611.856445	-58.655197
11912.745213	2664.545000	610.626953	-3.042770
11912.745213	2664.545000	609.397461	11.814865
11912.745213	2664.545000	608.166992	-121.209351
11912.745213	2664.545000	606.936523	-37.779797
11912.745213	2664.545000	605.706055	-10.085398
11912.745213	2664.545000	604.474609	-8.107212
11912.745213	2664.545000	603.244141	-59.662529
11912.745213	2664.545000	602.012695	-21.288458
11912.745213	2664.545000	600.780273	-49.283543
11912.745213	2664.545000	599.548828	14.745403
11912.745213	2664.545000	598.316406	6.004426
11912.745213	2664.545000	597.083984	57.155605
11912.745213	2664.545000	595.851563	-37.133762
11912.745213	2664.545000	594.618164	-58.692627
11912.745213	2664.545000	593.384766	62.975082
11912.745213	2664.545000	592.151367	82.008347
11912.745213	2664.545000	590.917969	-76.310287
11912.745213	2664.545000	589.683594	-57.257023
11912.745213	2664.545000	588.449219	-63.840187
11912.745213	2664.545000	587.214844	-44.796764
11912.745213	2664.545000	585.979492	12.665903
11912.745213	2664.545000	584.745117	33.821869
11912.745213	2664.545000	583.509766	-98.674545
11912.745213	2664.545000	582.273438	-66.835220
11912.745213	2664.545000	581.038086	80.177376
11912.745213	2664.545000	579.801758	-79.961426
11912.745213	2664.545000	578.565430	20.089174
11912.745213	2664.545000	577.329102	-44.038177
11912.745213	2664.545000	576.091797	68.755348
11912.745213	2664.545000	574.854492	-44.355469
11912.745213	2664.545000	573.617188	-23.205275
11912.745213	2664.545000	572.378906	-10.579497
11912.745213	2664.545000	571.141602	-14.988816
11912.745213	2664.545000	569.903320	108.344696
11912.745213	2664.545000	568.664063	89.020988
11912.745213	2664.545000	567.425781	163.346252
11912.745213	2664.545000	566.186523	99.352333
11912.745213	2664.545000	564.947266	214.070419
11912.745213	2664.545000	563.708008	150.106293
11912.745213	2664.545000	562.467773	103.185760
11912.745213	2664.545000	561.227539	224.226715
11912.745213	2664.545000	559.987305	115.691864
11912.745213	2664.545000	558.747070	34.833939
11912.745213	2664.545000	557.505859	32.620483
11912.745213	2664.545000	556.264648	-5.689848
11912.745213	2664.545000	555.023438	68.569244
11912.745213	2664.545000	553.781250	-16.421787
11912.745213	2664.545000	552.539063	115.135216
11912.745213	2664.545000	551.296875	132.051575
11912.745213	2664.545000	550.054688	151.092682
11912.745213	2664.545000	548.811523	165.892136
11912.745213	2664.545000	547.569336	66.176231
11912.745213	2664.545000	546.325195	34.361813
11912.745213	2664.545000	545.082031	57.689285
11912.745213	2664.545000	543.837891	-1.639380
11912.745213	2664.545000	542.593750	30.183638
11912.745213	2664.545000	541.349609	66.242058
11912.745213	2664.545000	540.105469	53.581993
11912.745213	2664.545000	538.860352	28.233534
11912.745213	2664.545000	537.615234	28.314482
11912.745213	2664.545000	536.369141	-13.926815
11912.745213	2664.545000	535.124023	-85.762856
11912.745213	2664.545000	533.877930	121.725723
11912.745213	2664.545000	532.631836	-72.771591
11912.745213	2664.545000	531.384766	130.421295
11912.745213	2664.545000	530.138672	35.409683
11912.745213	2664.545000	528.891602	94.771172
11912.745213	2664.545000	527.643555	52.671440
11912.745213	2664.545000	526.396484	93.014015
11912.745213	2664.545000	525.148438	-107.483330
11912.745213	2664.545000	523.900391	-16.405182
11912.745213	2664.545000	522.652344	-77.393097
11912.745213	2664.545000	521.403320	-26.445789
11912.745213	2664.545000	520.154297	-59.937492
11912.745213	2664.545000	518.905273	22.667940
11912.745213	2664.545000	517.656250	60.944725
11912.745213	2664.545000	516.406250	29.607494
11912.745213	2664.545000	515.156250	-27.009106
11912.745213	2664.545000	513.906250	-11.897322
11912.745213	2664.545000	512.655273	-28.399668
11912.745213	2664.545000	511.404297	117.405327
11912.745213	2664.545000	510.153320	58.767536
11912.745213	2664.545000	508.902344	12.808904
11912.745213	2664.545000	507.650391	-24.692032
11912.745213	2664.545000	506.398438	-64.268524
11912.745213	2664.545000	505.146484	58.297001
11912.745213	2664.545000	503.893555	92.416832
11912.745213	2664.545000	502.641602	80.237862
11912.745213	2664.545000	501.388672	2.852926
11912.745213	2664.545000	500.134766	110.624069
11912.745213	2664.545000	498.881836	153.165802
11912.745213	2664.545000	497.627930	-37.691257
11912.745213	2664.545000	496.374023	49.032543
11912.745213	2664.545000	495.119141	32.744980
11912.745213	2664.545000	493.865234	-2.435706
11912.745213	2664.545000	492.610352	-52.297592
11912.745213	2664.545000	491.355469	80.603653
11912.745213	2664.545000	490.099609	-15.434630
11912.745213	2664.545000	488.843750	111.120186
11912.745213	2664.545000	487.587891	149.469650
11912.745213	2664.545000	486.332031	61.896816
11912.745213	2664.545000	485.075195	117.039246
11912.745213	2664.545000	483.818359	88.257042
11912.745213	2664.545000	482.561523	137.089493
11912.745213	2664.545000	481.304688	53.809742
11912.745213	2664.545000	480.046875	-6.371538
11912.745213	2664.545000	478.789063	101.143852
11912.745213	2664.545000	477.531250	59.841339
11912.745213	2664.545000	476.272461	33.222000
11912.745213	2664.545000	475.013672	88.298943
11912.745213	2664.545000	473.754883	201.984695
11912.745213	2664.545000	472.496094	64.388062
11912.745213	2664.545000	471.236328	236.631500
11912.745213	2664.545000	469.976563	19.556562
11912.745213	2664.545000	468.716797	128.958389
11912.745213	2664.545000	467.456055	163.000824
11912.745213	2664.545000	466.196289	180.290344
11912.745213	2664.545000	464.935547	222.652802
11912.745213	2664.545000	463.673828	244.081390
11912.745213	2664.545000	462.413086	244.588242
11912.745213	2664.545000	461.151367	125.977997
11912.745213	2664.545000	459.889648	180.795929
11912.745213	2664.545000	458.626953	129.052063
11912.745213	2664.545000	457.364258	196.337463
11912.745213	2664.545000	456.101563	167.538055
11912.745213	2664.545000	454.838867	226.393204
11912.745213	2664.545000	453.575195	141.207077
11912.745213	2664.545000	452.312500	231.286453
11912.745213	2664.545000	451.047852	231.602615
11912.745213	2664.545000	449.784180	300.708954
11912.745213	2664.545000	448.519531	290.520996
11912.745213	2664.545000	447.254883	194.834488
11912.745213	2664.545000	445.990234	301.311157
11912.745213	2664.545000	444.725586	324.354889
11912.745213	2664.545000	443.459961	409.841797
11912.745213	2664.545000	442.194336	393.191010
11912.745213	2664.545000	440.927734	305.700287
11912.745213	2664.545000	439.662109	276.489197
11912.745213	2664.545000	438.395508	440.808136
11912.745213	2664.545000	437.127930	351.121368
11912.745213	2664.545000	435.861328	377.923492
11912.745213	2664.545000	434.593750	319.368103
11912.745213	2664.545000	433.326172	373.071777
11912.745213	2664.545000	432.058594	299.854004
11912.745213	2664.545000	430.790039	313.900696
11912.745213	2664.545000	429.521484	248.891663
11912.745213	2664.545000	428.252930	277.332733
11912.745213	2664.545000	426.984375	270.363373
11912.745213	2664.545000	425.714844	269.539886
11912.745213	2664.545000	424.445313	310.155243
11912.745213	2664.545000	423.174805	400.480804
11912.745213	2664.545000	421.905273	399.345825
11912.745213	2664.545000	420.634766	223.798019
11912.745213	2664.545000	419.364258	222.490036
11912.745213	2664.545000	418.092773	331.002045
11912.745213	2664.545000	416.822266	300.411041
11912.745213	2664.545000	415.550781	265.563934
11912.745213	2664.545000	414.278320	282.425476
11912.745213	2664.545000	413.006836	251.486450
11912.745213	2664.545000	411.734375	220.422409
11912.745213	2664.545000	410.461914	346.666107
11912.745213	2664.545000	409.188477	282.169128
11912.745213	2664.545000	407.916016	225.833267
11912.745213	2664.545000	406.642578	260.449371
11912.745213	2664.545000	405.368164	272.117950
11912.745213	2664.545000	404.094727	264.992584
11912.745213	2664.545000	402.820313	325.963013
11912.745213	2664.545000	401.545898	246.077591
11912.745213	2664.545000	400.270508	325.266022
11912.745213	2664.545000	398.996094	211.955338
11912.745213	2664.545000	397.720703	214.243591
11912.745213	2664.545000	396.444336	158.455750
11912.745213	2664.545000	395.168945	263.639404
11912.745213	2664.545000	393.892578	195.036224
11912.745213	2664.545000	392.616211	293.517700
11912.745213	2664.545000	391.339844	228.603973
11912.745213	2664.545000	390.062500	351.323730
11912.745213	2664.545000	388.785156	265.287720
11912.745213	2664.545000	387.507813	344.104462
11912.745213	2664.545000	386.229492	172.994888
11912.745213	2664.545000	384.951172	261.561951
11912.745213	2664.545000	383.672852	217.834061
11912.745213	2664.545000	382.394531	270.729004
11912.745213	2664.545000	381.115234	352.150208
11912.745213	2664.545000	379.835938	194.180222
11912.745213	2664.545000	378.556641	312.037598
11912.745213	2664.545000	377.277344	295.624756
11912.745213	2664.545000	375.997070	274.754456
11912.745213	2664.545000	374.716797	333.842896
11912.745213	2664.545000	373.435547	273.146301
11912.745213	2664.545000	372.155273	327.365479
11912.745213	2664.545000	370.874023	282.407654
11912.745213	2664.545000	369.591797	329.642365
11912.745213	2664.545000	368.310547	417.597198
11912.745213	2664.545000	367.028320	213.103714
11912.745213	2664.545000	365.746094	439.993530
11912.745213	2664.545000	364.463867	310.771912
11912.745213	2664.545000	363.180664	166.763962
11912.745213	2664.545000	361.897461	305.873383
11912.745213	2664.545000	360.614258	280.128601
11912.745213	2664.545000	359.330078	196.397903
11912.745213	2664.545000	358.045898	103.992424
11912.745213	2664.545000	356.761719	119.907150
11912.745213	2664.545000	355.477539	221.482498
11912.745213	2664.545000	354.192383	133.698410
11912.745213	2664.545000	352.907227	223.864532
11912.745213	2664.545000	351.622070	190.370789
11912.745213	2664.545000	350.336914	240.377335
11912.745213	2664.545000	349.050781	99.101494
11912.745213	2664.545000	347.764648	174.525864
11912.745213	2664.545000	346.477539	25.922382
11912.745213	2664.545000	345.191406	36.549973
11912.745213	2664.545000	343.904297	136.617355
11912.745213	2664.545000	342.616211	12.741861
11912.745213	2664.545000	341.329102	37.698147
11912.745213	2664.545000	340.041016	4.602580
11912.745213	2664.545000	338.752930	54.696301
11912.745213	2664.545000	337.463867	140.830887
11912.745213	2664.545000	336.175781	48.222496
11912.745213	2664.545000	334.886719	55.061390
11912.745213	2664.545000	333.596680	-18.666010
11912.745213	2664.545000	332.307617	-58.409515
11912.745213	2664.545000	331.017578	-43.816967
11912.745213	2664.545000	329.727539	39.381721
11912.745213	2664.545000	328.436523	-2.973472
11912.745213	2664.545000	327.146484	141.713287
11912.745213	2664.545000	325.855469	-123.000031
11912.745213	2664.545000	324.563477	25.858934
11912.745213	2664.545000	323.272461	65.537476
11912.745213	2664.545000	321.980469	57.250298
11912.745213	2664.545000	320.688477	-133.618652
11912.745213	2664.545000	319.395508	-54.182941
11912.745213	2664.545000	318.103516	22.151398
11912.745213	2664.545000	316.810547	-73.919823
11912.745213	2664.545000	315.516602	-40.628506
11912.745213	2664.545000	314.223633	-75.702309
11912.745213	2664.545000	312.929688	-105.834915
11912.745213	2664.545000	311.635742	-39.357086
11912.745213	2664.545000	310.340820	-69.869774
11912.745213	2664.545000	309.045898	-7.940232
11912.745213	2664.545000	307.750977	44.558346
11912.745213	2664.545000	306.456055	50.970596
11912.745213	2664.545000	305.160156	-78.272919
11912.745213	2664.545000	303.865234	10.948011
11912.745213	2664.545000	302.568359	9.183358
11912.745213	2664.545000	301.272461	103.664352
11912.745213	2664.545000	299.975586	294.215790
11912.745213	2664.545000	298.678711	290.121979
