#X		#Y		#Wave		#Intensity
11956.127128	2840.825000	1999.980469	-41.180183
11956.127128	2840.825000	1999.016602	63.007462
11956.127128	2840.825000	1998.052734	-42.751114
11956.127128	2840.825000	1997.087891	-29.633669
11956.127128	2840.825000	1996.123047	47.782536
11956.127128	2840.825000	1995.158203	58.171307
11956.127128	2840.825000	1994.193359	-87.588509
11956.127128	2840.825000	1993.228516	93.468788
11956.127128	2840.825000	1992.262695	-30.168364
11956.127128	2840.825000	1991.297852	-44.950130
11956.127128	2840.825000	1990.332031	36.699951
11956.127128	2840.825000	1989.366211	91.002945
11956.127128	2840.825000	1988.399414	219.416443
11956.127128	2840.825000	1987.433594	78.069992
11956.127128	2840.825000	1986.466797	10.882865
11956.127128	2840.825000	1985.500977	99.404816
11956.127128	2840.825000	1984.534180	56.789021
11956.127128	2840.825000	1983.567383	-163.856415
11956.127128	2840.825000	1982.599609	-73.120567
11956.127128	2840.825000	1981.632813	-199.928741
11956.127128	2840.825000	1980.665039	-109.372742
11956.127128	2840.825000	1979.697266	-68.322792
11956.127128	2840.825000	1978.729492	214.643204
11956.127128	2840.825000	1977.761719	-33.388653
11956.127128	2840.825000	1976.792969	-34.545216
11956.127128	2840.825000	1975.825195	8.656073
11956.127128	2840.825000	1974.856445	12.299088
11956.127128	2840.825000	1973.887695	191.045044
11956.127128	2840.825000	1972.918945	177.265015
11956.127128	2840.825000	1971.949219	269.482025
11956.127128	2840.825000	1970.980469	21.334366
11956.127128	2840.825000	1970.010742	-115.836113
11956.127128	2840.825000	1969.041016	101.927841
11956.127128	2840.825000	1968.071289	208.663132
11956.127128	2840.825000	1967.101563	76.310928
11956.127128	2840.825000	1966.130859	-9.231257
11956.127128	2840.825000	1965.161133	171.213348
11956.127128	2840.825000	1964.190430	107.758255
11956.127128	2840.825000	1963.219727	137.843216
11956.127128	2840.825000	1962.249023	113.719788
11956.127128	2840.825000	1961.277344	151.097595
11956.127128	2840.825000	1960.306641	92.453468
11956.127128	2840.825000	1959.334961	19.035116
11956.127128	2840.825000	1958.363281	-15.035042
11956.127128	2840.825000	1957.391602	41.869385
11956.127128	2840.825000	1956.419922	71.672607
11956.127128	2840.825000	1955.447266	236.648285
11956.127128	2840.825000	1954.474609	204.895447
11956.127128	2840.825000	1953.501953	165.753250
11956.127128	2840.825000	1952.529297	16.030533
11956.127128	2840.825000	1951.556641	43.212891
11956.127128	2840.825000	1950.583984	28.604229
11956.127128	2840.825000	1949.610352	23.802107
11956.127128	2840.825000	1948.636719	-22.759510
11956.127128	2840.825000	1947.663086	60.775940
11956.127128	2840.825000	1946.689453	-42.267235
11956.127128	2840.825000	1945.715820	-52.046196
11956.127128	2840.825000	1944.741211	208.035385
11956.127128	2840.825000	1943.767578	286.483154
11956.127128	2840.825000	1942.792969	185.854889
11956.127128	2840.825000	1941.818359	26.399965
11956.127128	2840.825000	1940.842773	-7.979791
11956.127128	2840.825000	1939.868164	31.171474
11956.127128	2840.825000	1938.892578	107.055870
11956.127128	2840.825000	1937.916992	65.289902
11956.127128	2840.825000	1936.941406	40.676136
11956.127128	2840.825000	1935.965820	297.729034
11956.127128	2840.825000	1934.990234	-8.555536
11956.127128	2840.825000	1934.013672	-13.584580
11956.127128	2840.825000	1933.037109	-170.390091
11956.127128	2840.825000	1932.060547	44.867504
11956.127128	2840.825000	1931.083984	108.323624
11956.127128	2840.825000	1930.107422	132.604904
11956.127128	2840.825000	1929.129883	95.720184
11956.127128	2840.825000	1928.153320	-51.212605
11956.127128	2840.825000	1927.175781	-12.259426
11956.127128	2840.825000	1926.198242	241.810318
11956.127128	2840.825000	1925.219727	173.139191
11956.127128	2840.825000	1924.242188	-25.032881
11956.127128	2840.825000	1923.263672	-56.984859
11956.127128	2840.825000	1922.285156	47.876102
11956.127128	2840.825000	1921.306641	-98.877266
11956.127128	2840.825000	1920.328125	25.484976
11956.127128	2840.825000	1919.349609	-65.056290
11956.127128	2840.825000	1918.370117	88.544647
11956.127128	2840.825000	1917.391602	24.872372
11956.127128	2840.825000	1916.412109	-41.216518
11956.127128	2840.825000	1915.431641	12.268568
11956.127128	2840.825000	1914.452148	141.348679
11956.127128	2840.825000	1913.472656	131.370193
11956.127128	2840.825000	1912.492188	-188.270645
11956.127128	2840.825000	1911.511719	-100.663826
11956.127128	2840.825000	1910.531250	60.035656
11956.127128	2840.825000	1909.550781	-74.197334
11956.127128	2840.825000	1908.569336	79.132942
11956.127128	2840.825000	1907.588867	-81.845177
11956.127128	2840.825000	1906.607422	17.851736
11956.127128	2840.825000	1905.625977	-143.048019
11956.127128	2840.825000	1904.644531	-194.322586
11956.127128	2840.825000	1903.662109	-99.518272
11956.127128	2840.825000	1902.680664	-43.687515
11956.127128	2840.825000	1901.698242	-131.439697
11956.127128	2840.825000	1900.715820	94.686798
11956.127128	2840.825000	1899.733398	94.516289
11956.127128	2840.825000	1898.750000	48.143051
11956.127128	2840.825000	1897.767578	-61.428818
11956.127128	2840.825000	1896.784180	-107.747208
11956.127128	2840.825000	1895.800781	-25.220711
11956.127128	2840.825000	1894.817383	32.976894
11956.127128	2840.825000	1893.833984	76.579025
11956.127128	2840.825000	1892.850586	93.447037
11956.127128	2840.825000	1891.866211	103.027679
11956.127128	2840.825000	1890.881836	-8.807439
11956.127128	2840.825000	1889.897461	124.620377
11956.127128	2840.825000	1888.913086	112.356026
11956.127128	2840.825000	1887.927734	-4.258263
11956.127128	2840.825000	1886.943359	109.693504
11956.127128	2840.825000	1885.958008	-65.093437
11956.127128	2840.825000	1884.972656	-60.315918
11956.127128	2840.825000	1883.987305	24.493750
11956.127128	2840.825000	1883.001953	77.754425
11956.127128	2840.825000	1882.015625	179.486038
11956.127128	2840.825000	1881.029297	67.888191
11956.127128	2840.825000	1880.042969	92.042801
11956.127128	2840.825000	1879.056641	-77.639130
11956.127128	2840.825000	1878.070313	-5.010275
11956.127128	2840.825000	1877.083984	48.218296
11956.127128	2840.825000	1876.096680	6.992258
11956.127128	2840.825000	1875.109375	55.363678
11956.127128	2840.825000	1874.122070	45.625366
11956.127128	2840.825000	1873.134766	-39.133015
11956.127128	2840.825000	1872.146484	-104.497047
11956.127128	2840.825000	1871.159180	-15.004100
11956.127128	2840.825000	1870.170898	-111.789055
11956.127128	2840.825000	1869.182617	-27.159285
11956.127128	2840.825000	1868.194336	134.812744
11956.127128	2840.825000	1867.205078	-58.637283
11956.127128	2840.825000	1866.216797	122.618233
11956.127128	2840.825000	1865.227539	146.733475
11956.127128	2840.825000	1864.238281	40.371742
11956.127128	2840.825000	1863.249023	-99.768974
11956.127128	2840.825000	1862.259766	-44.226982
11956.127128	2840.825000	1861.269531	-114.269577
11956.127128	2840.825000	1860.279297	-17.702234
11956.127128	2840.825000	1859.290039	16.067030
11956.127128	2840.825000	1858.298828	28.106947
11956.127128	2840.825000	1857.308594	71.506462
11956.127128	2840.825000	1856.318359	98.001205
11956.127128	2840.825000	1855.327148	102.777946
11956.127128	2840.825000	1854.335938	126.843689
11956.127128	2840.825000	1853.344727	-70.922935
11956.127128	2840.825000	1852.353516	71.283455
11956.127128	2840.825000	1851.362305	73.642258
11956.127128	2840.825000	1850.370117	1.296271
11956.127128	2840.825000	1849.377930	-83.071716
11956.127128	2840.825000	1848.385742	-34.926857
11956.127128	2840.825000	1847.393555	119.166107
11956.127128	2840.825000	1846.401367	157.616058
11956.127128	2840.825000	1845.408203	10.672190
11956.127128	2840.825000	1844.415039	-30.311798
11956.127128	2840.825000	1843.421875	22.570030
11956.127128	2840.825000	1842.428711	-16.005880
11956.127128	2840.825000	1841.435547	-81.034958
11956.127128	2840.825000	1840.441406	72.829628
11956.127128	2840.825000	1839.448242	19.820021
11956.127128	2840.825000	1838.454102	238.511047
11956.127128	2840.825000	1837.459961	195.092361
11956.127128	2840.825000	1836.464844	-28.571682
11956.127128	2840.825000	1835.470703	103.476715
11956.127128	2840.825000	1834.475586	-4.781445
11956.127128	2840.825000	1833.480469	158.424561
11956.127128	2840.825000	1832.485352	-2.655573
11956.127128	2840.825000	1831.490234	117.249290
11956.127128	2840.825000	1830.495117	-10.170731
11956.127128	2840.825000	1829.499023	157.677185
11956.127128	2840.825000	1828.502930	212.662430
11956.127128	2840.825000	1827.506836	-53.894028
11956.127128	2840.825000	1826.510742	75.454750
11956.127128	2840.825000	1825.513672	101.612091
11956.127128	2840.825000	1824.517578	86.981293
11956.127128	2840.825000	1823.520508	93.923035
11956.127128	2840.825000	1822.523438	4.966933
11956.127128	2840.825000	1821.526367	-33.638313
11956.127128	2840.825000	1820.529297	119.451698
11956.127128	2840.825000	1819.531250	-34.180077
11956.127128	2840.825000	1818.533203	3.854419
11956.127128	2840.825000	1817.535156	39.466000
11956.127128	2840.825000	1816.537109	103.782272
11956.127128	2840.825000	1815.539063	10.061710
11956.127128	2840.825000	1814.540039	126.986809
11956.127128	2840.825000	1813.541992	126.594940
11956.127128	2840.825000	1812.542969	16.131279
11956.127128	2840.825000	1811.543945	58.787704
11956.127128	2840.825000	1810.543945	-3.818778
11956.127128	2840.825000	1809.544922	96.181366
11956.127128	2840.825000	1808.544922	148.314438
11956.127128	2840.825000	1807.544922	-48.180729
11956.127128	2840.825000	1806.544922	-67.770264
11956.127128	2840.825000	1805.544922	22.541626
11956.127128	2840.825000	1804.544922	-13.811761
11956.127128	2840.825000	1803.543945	179.126328
11956.127128	2840.825000	1802.542969	30.483477
11956.127128	2840.825000	1801.541992	22.745724
11956.127128	2840.825000	1800.541016	-18.429012
11956.127128	2840.825000	1799.539063	-2.325257
11956.127128	2840.825000	1798.538086	18.523605
11956.127128	2840.825000	1797.536133	82.289032
11956.127128	2840.825000	1796.534180	91.148537
11956.127128	2840.825000	1795.532227	83.289352
11956.127128	2840.825000	1794.529297	-86.727913
11956.127128	2840.825000	1793.527344	127.116783
11956.127128	2840.825000	1792.524414	245.518646
11956.127128	2840.825000	1791.521484	32.607933
11956.127128	2840.825000	1790.518555	-44.434937
11956.127128	2840.825000	1789.514648	190.593628
11956.127128	2840.825000	1788.511719	44.435066
11956.127128	2840.825000	1787.507813	172.155014
11956.127128	2840.825000	1786.503906	-16.844173
11956.127128	2840.825000	1785.500000	25.100349
11956.127128	2840.825000	1784.496094	5.127019
11956.127128	2840.825000	1783.491211	92.213722
11956.127128	2840.825000	1782.486328	84.082260
11956.127128	2840.825000	1781.481445	54.523426
11956.127128	2840.825000	1780.476563	-3.586048
11956.127128	2840.825000	1779.471680	80.960655
11956.127128	2840.825000	1778.465820	72.739952
11956.127128	2840.825000	1777.460938	52.612991
11956.127128	2840.825000	1776.455078	-207.537201
11956.127128	2840.825000	1775.449219	-4.324088
11956.127128	2840.825000	1774.442383	8.753965
11956.127128	2840.825000	1773.436523	93.049049
11956.127128	2840.825000	1772.429688	13.446435
11956.127128	2840.825000	1771.422852	2.693627
11956.127128	2840.825000	1770.416016	-117.265701
11956.127128	2840.825000	1769.409180	175.719147
11956.127128	2840.825000	1768.402344	-62.916451
11956.127128	2840.825000	1767.394531	40.113663
11956.127128	2840.825000	1766.386719	-56.152824
11956.127128	2840.825000	1765.378906	42.038811
11956.127128	2840.825000	1764.371094	2.654731
11956.127128	2840.825000	1763.362305	84.149452
11956.127128	2840.825000	1762.354492	11.535347
11956.127128	2840.825000	1761.345703	21.854399
11956.127128	2840.825000	1760.336914	-102.896042
11956.127128	2840.825000	1759.328125	-2.608199
11956.127128	2840.825000	1758.318359	-155.782257
11956.127128	2840.825000	1757.308594	-50.844578
11956.127128	2840.825000	1756.299805	23.249739
11956.127128	2840.825000	1755.290039	-212.768661
11956.127128	2840.825000	1754.279297	-105.601608
11956.127128	2840.825000	1753.269531	-204.340210
11956.127128	2840.825000	1752.258789	25.730412
11956.127128	2840.825000	1751.249023	16.816641
11956.127128	2840.825000	1750.238281	-63.061581
11956.127128	2840.825000	1749.226563	-72.015259
11956.127128	2840.825000	1748.215820	-26.631266
11956.127128	2840.825000	1747.204102	-106.545586
11956.127128	2840.825000	1746.193359	47.455326
11956.127128	2840.825000	1745.181641	170.656769
11956.127128	2840.825000	1744.168945	50.507820
11956.127128	2840.825000	1743.157227	-131.022903
11956.127128	2840.825000	1742.144531	-135.442261
11956.127128	2840.825000	1741.132813	-28.945084
11956.127128	2840.825000	1740.120117	-71.204330
11956.127128	2840.825000	1739.106445	-35.611244
11956.127128	2840.825000	1738.093750	-21.294064
11956.127128	2840.825000	1737.080078	89.693230
11956.127128	2840.825000	1736.067383	101.561378
11956.127128	2840.825000	1735.053711	35.585396
11956.127128	2840.825000	1734.040039	16.750315
11956.127128	2840.825000	1733.025391	-98.741997
11956.127128	2840.825000	1732.011719	-108.179085
11956.127128	2840.825000	1730.997070	14.292956
11956.127128	2840.825000	1729.982422	-65.892456
11956.127128	2840.825000	1728.967773	75.303261
11956.127128	2840.825000	1727.952148	-49.663742
11956.127128	2840.825000	1726.937500	-113.403938
11956.127128	2840.825000	1725.921875	-118.306839
11956.127128	2840.825000	1724.906250	-29.105871
11956.127128	2840.825000	1723.890625	-29.379105
11956.127128	2840.825000	1722.875000	-55.559597
11956.127128	2840.825000	1721.858398	9.965390
11956.127128	2840.825000	1720.841797	75.433769
11956.127128	2840.825000	1719.825195	75.016998
11956.127128	2840.825000	1718.808594	-54.714550
11956.127128	2840.825000	1717.791992	67.041954
11956.127128	2840.825000	1716.774414	52.435734
11956.127128	2840.825000	1715.756836	-32.673538
11956.127128	2840.825000	1714.739258	44.287472
11956.127128	2840.825000	1713.721680	-36.150867
11956.127128	2840.825000	1712.704102	85.331856
11956.127128	2840.825000	1711.685547	-206.418442
11956.127128	2840.825000	1710.667969	-169.502472
11956.127128	2840.825000	1709.649414	69.172836
11956.127128	2840.825000	1708.630859	173.998611
11956.127128	2840.825000	1707.611328	88.753296
11956.127128	2840.825000	1706.592773	66.833504
11956.127128	2840.825000	1705.573242	77.717827
11956.127128	2840.825000	1704.553711	-131.797684
11956.127128	2840.825000	1703.534180	-118.594215
11956.127128	2840.825000	1702.513672	201.561615
11956.127128	2840.825000	1701.494141	71.716637
11956.127128	2840.825000	1700.473633	77.757385
11956.127128	2840.825000	1699.453125	36.924915
11956.127128	2840.825000	1698.432617	-99.926117
11956.127128	2840.825000	1697.412109	58.234726
11956.127128	2840.825000	1696.390625	99.268166
11956.127128	2840.825000	1695.369141	98.133133
11956.127128	2840.825000	1694.347656	29.114975
11956.127128	2840.825000	1693.326172	-93.709457
11956.127128	2840.825000	1692.304688	101.579460
11956.127128	2840.825000	1691.282227	44.208061
11956.127128	2840.825000	1690.260742	101.397614
11956.127128	2840.825000	1689.238281	51.007778
11956.127128	2840.825000	1688.214844	-1.729859
11956.127128	2840.825000	1687.192383	202.563843
11956.127128	2840.825000	1686.168945	175.463272
11956.127128	2840.825000	1685.146484	213.750977
11956.127128	2840.825000	1684.123047	86.186798
11956.127128	2840.825000	1683.099609	-15.669379
11956.127128	2840.825000	1682.075195	41.226456
11956.127128	2840.825000	1681.051758	51.397312
11956.127128	2840.825000	1680.027344	26.534500
11956.127128	2840.825000	1679.002930	164.972412
11956.127128	2840.825000	1677.978516	63.070679
11956.127128	2840.825000	1676.953125	61.465031
11956.127128	2840.825000	1675.928711	141.449219
11956.127128	2840.825000	1674.903320	-128.316391
11956.127128	2840.825000	1673.877930	-29.730213
11956.127128	2840.825000	1672.852539	120.064003
11956.127128	2840.825000	1671.826172	162.596924
11956.127128	2840.825000	1670.800781	100.267014
11956.127128	2840.825000	1669.774414	19.302303
11956.127128	2840.825000	1668.748047	82.720062
11956.127128	2840.825000	1667.721680	222.919998
11956.127128	2840.825000	1666.694336	132.599213
11956.127128	2840.825000	1665.667969	160.984497
11956.127128	2840.825000	1664.640625	-43.344727
11956.127128	2840.825000	1663.613281	-17.307594
11956.127128	2840.825000	1662.585938	292.457520
11956.127128	2840.825000	1661.557617	109.086136
11956.127128	2840.825000	1660.530273	90.842354
11956.127128	2840.825000	1659.501953	151.617920
11956.127128	2840.825000	1658.473633	251.860031
11956.127128	2840.825000	1657.444336	263.743164
11956.127128	2840.825000	1656.416016	245.403702
11956.127128	2840.825000	1655.386719	308.347504
11956.127128	2840.825000	1654.358398	250.490250
11956.127128	2840.825000	1653.328125	250.679901
11956.127128	2840.825000	1652.298828	197.460815
11956.127128	2840.825000	1651.269531	241.726196
11956.127128	2840.825000	1650.239258	246.505951
11956.127128	2840.825000	1649.208984	302.308929
11956.127128	2840.825000	1648.178711	450.858154
11956.127128	2840.825000	1647.148438	258.417633
11956.127128	2840.825000	1646.117188	207.475235
11956.127128	2840.825000	1645.086914	307.226227
11956.127128	2840.825000	1644.055664	386.061005
11956.127128	2840.825000	1643.024414	270.192657
11956.127128	2840.825000	1641.992188	348.972198
11956.127128	2840.825000	1640.960938	263.241577
11956.127128	2840.825000	1639.928711	402.182098
11956.127128	2840.825000	1638.896484	406.752930
11956.127128	2840.825000	1637.864258	531.694702
11956.127128	2840.825000	1636.832031	568.618164
11956.127128	2840.825000	1635.798828	510.630249
11956.127128	2840.825000	1634.766602	293.005524
11956.127128	2840.825000	1633.733398	545.056091
11956.127128	2840.825000	1632.699219	593.461975
11956.127128	2840.825000	1631.666016	644.153137
11956.127128	2840.825000	1630.632813	498.298004
11956.127128	2840.825000	1629.598633	364.044464
11956.127128	2840.825000	1628.564453	391.608704
11956.127128	2840.825000	1627.530273	546.238159
11956.127128	2840.825000	1626.495117	506.740845
11956.127128	2840.825000	1625.460938	492.661163
11956.127128	2840.825000	1624.425781	416.225006
11956.127128	2840.825000	1623.390625	238.223862
11956.127128	2840.825000	1622.355469	510.418823
11956.127128	2840.825000	1621.319336	477.851349
11956.127128	2840.825000	1620.284180	523.747437
11956.127128	2840.825000	1619.248047	336.607422
11956.127128	2840.825000	1618.211914	294.849762
11956.127128	2840.825000	1617.174805	375.325378
11956.127128	2840.825000	1616.138672	432.711517
11956.127128	2840.825000	1615.101563	614.550476
11956.127128	2840.825000	1614.065430	365.323303
11956.127128	2840.825000	1613.027344	436.487274
11956.127128	2840.825000	1611.990234	454.633728
11956.127128	2840.825000	1610.953125	399.060913
11956.127128	2840.825000	1609.915039	467.865875
11956.127128	2840.825000	1608.876953	416.910400
11956.127128	2840.825000	1607.838867	508.703705
11956.127128	2840.825000	1606.800781	441.646606
11956.127128	2840.825000	1605.761719	655.359619
11956.127128	2840.825000	1604.723633	733.247437
11956.127128	2840.825000	1603.684570	585.672852
11956.127128	2840.825000	1602.644531	525.548340
11956.127128	2840.825000	1601.605469	562.025757
11956.127128	2840.825000	1600.566406	566.306641
11956.127128	2840.825000	1599.526367	699.300598
11956.127128	2840.825000	1598.486328	607.036377
11956.127128	2840.825000	1597.446289	689.429504
11956.127128	2840.825000	1596.405273	445.593597
11956.127128	2840.825000	1595.365234	521.102417
11956.127128	2840.825000	1594.324219	594.288330
11956.127128	2840.825000	1593.283203	681.224060
11956.127128	2840.825000	1592.242188	573.025330
11956.127128	2840.825000	1591.200195	623.220764
11956.127128	2840.825000	1590.159180	503.614624
11956.127128	2840.825000	1589.117188	764.867432
11956.127128	2840.825000	1588.075195	693.456177
11956.127128	2840.825000	1587.032227	722.975098
11956.127128	2840.825000	1585.990234	745.614929
11956.127128	2840.825000	1584.947266	610.087219
11956.127128	2840.825000	1583.904297	550.249634
11956.127128	2840.825000	1582.861328	648.546997
11956.127128	2840.825000	1581.818359	407.764862
11956.127128	2840.825000	1580.775391	599.978882
11956.127128	2840.825000	1579.731445	652.435608
11956.127128	2840.825000	1578.687500	636.196045
11956.127128	2840.825000	1577.643555	670.334717
11956.127128	2840.825000	1576.598633	812.035828
11956.127128	2840.825000	1575.554688	711.146118
11956.127128	2840.825000	1574.509766	683.514099
11956.127128	2840.825000	1573.464844	845.752197
11956.127128	2840.825000	1572.419922	744.951721
11956.127128	2840.825000	1571.374023	744.802795
11956.127128	2840.825000	1570.329102	570.939087
11956.127128	2840.825000	1569.283203	614.278564
11956.127128	2840.825000	1568.237305	499.946289
11956.127128	2840.825000	1567.191406	577.582397
11956.127128	2840.825000	1566.144531	367.396606
11956.127128	2840.825000	1565.098633	461.045868
11956.127128	2840.825000	1564.051758	550.105530
11956.127128	2840.825000	1563.004883	538.704468
11956.127128	2840.825000	1561.957031	614.051575
11956.127128	2840.825000	1560.910156	543.347595
11956.127128	2840.825000	1559.862305	650.640686
11956.127128	2840.825000	1558.814453	527.528442
11956.127128	2840.825000	1557.766602	532.194824
11956.127128	2840.825000	1556.718750	632.645142
11956.127128	2840.825000	1555.669922	361.485748
11956.127128	2840.825000	1554.621094	639.746826
11956.127128	2840.825000	1553.573242	491.790588
11956.127128	2840.825000	1552.523438	378.082825
11956.127128	2840.825000	1551.474609	405.673126
11956.127128	2840.825000	1550.424805	456.046387
11956.127128	2840.825000	1549.375000	517.807922
11956.127128	2840.825000	1548.325195	579.566467
11956.127128	2840.825000	1547.275391	409.163239
11956.127128	2840.825000	1546.225586	516.479431
11956.127128	2840.825000	1545.174805	280.220306
11956.127128	2840.825000	1544.124023	339.794647
11956.127128	2840.825000	1543.073242	438.033936
11956.127128	2840.825000	1542.022461	267.945343
11956.127128	2840.825000	1540.970703	84.307381
11956.127128	2840.825000	1539.919922	23.508453
11956.127128	2840.825000	1538.868164	215.005661
11956.127128	2840.825000	1537.815430	388.275024
11956.127128	2840.825000	1536.763672	268.468384
11956.127128	2840.825000	1535.710938	305.443451
11956.127128	2840.825000	1534.659180	374.224030
11956.127128	2840.825000	1533.606445	263.652283
11956.127128	2840.825000	1532.552734	316.577240
11956.127128	2840.825000	1531.500000	317.317474
11956.127128	2840.825000	1530.446289	286.318787
11956.127128	2840.825000	1529.393555	330.223907
11956.127128	2840.825000	1528.338867	206.303146
11956.127128	2840.825000	1527.285156	304.686218
11956.127128	2840.825000	1526.231445	174.080627
11956.127128	2840.825000	1525.176758	52.622726
11956.127128	2840.825000	1524.122070	148.802841
11956.127128	2840.825000	1523.067383	109.028503
11956.127128	2840.825000	1522.012695	107.812729
11956.127128	2840.825000	1520.957031	346.705994
11956.127128	2840.825000	1519.901367	103.211235
11956.127128	2840.825000	1518.845703	86.245712
11956.127128	2840.825000	1517.790039	211.923019
11956.127128	2840.825000	1516.734375	120.326439
11956.127128	2840.825000	1515.677734	49.161892
11956.127128	2840.825000	1514.621094	27.828600
11956.127128	2840.825000	1513.564453	49.511406
11956.127128	2840.825000	1512.507813	215.943985
11956.127128	2840.825000	1511.450195	68.085312
11956.127128	2840.825000	1510.393555	220.955795
11956.127128	2840.825000	1509.335938	68.704575
11956.127128	2840.825000	1508.278320	-22.442215
11956.127128	2840.825000	1507.219727	44.616119
11956.127128	2840.825000	1506.162109	256.236633
11956.127128	2840.825000	1505.103516	153.923187
11956.127128	2840.825000	1504.044922	22.337332
11956.127128	2840.825000	1502.986328	12.734200
11956.127128	2840.825000	1501.926758	-26.168175
11956.127128	2840.825000	1500.868164	59.085510
11956.127128	2840.825000	1499.808594	-160.209503
11956.127128	2840.825000	1498.749023	-32.033474
11956.127128	2840.825000	1497.688477	-158.690704
11956.127128	2840.825000	1496.628906	-68.816032
11956.127128	2840.825000	1495.568359	-96.154953
11956.127128	2840.825000	1494.507813	-152.741608
11956.127128	2840.825000	1493.447266	-186.733994
11956.127128	2840.825000	1492.386719	-213.914108
11956.127128	2840.825000	1491.325195	-189.240356
11956.127128	2840.825000	1490.263672	-90.222633
11956.127128	2840.825000	1489.202148	-117.285522
11956.127128	2840.825000	1488.140625	-148.798965
11956.127128	2840.825000	1487.079102	-83.485428
11956.127128	2840.825000	1486.016602	-31.656645
11956.127128	2840.825000	1484.954102	-90.041458
11956.127128	2840.825000	1483.891602	-159.607468
11956.127128	2840.825000	1482.829102	-118.914063
11956.127128	2840.825000	1481.765625	-1.755271
11956.127128	2840.825000	1480.702148	70.438728
11956.127128	2840.825000	1479.638672	-82.096565
11956.127128	2840.825000	1478.575195	86.766945
11956.127128	2840.825000	1477.511719	51.193466
11956.127128	2840.825000	1476.447266	-195.424316
11956.127128	2840.825000	1475.382813	-4.033408
11956.127128	2840.825000	1474.318359	34.571407
11956.127128	2840.825000	1473.253906	169.773071
11956.127128	2840.825000	1472.189453	49.168404
11956.127128	2840.825000	1471.124023	11.719599
11956.127128	2840.825000	1470.058594	66.209900
11956.127128	2840.825000	1468.993164	109.448006
11956.127128	2840.825000	1467.927734	47.446739
11956.127128	2840.825000	1466.861328	117.999496
11956.127128	2840.825000	1465.794922	178.949890
11956.127128	2840.825000	1464.728516	72.367348
11956.127128	2840.825000	1463.662109	66.747086
11956.127128	2840.825000	1462.594727	289.078949
11956.127128	2840.825000	1461.528320	294.493896
11956.127128	2840.825000	1460.460938	127.590706
11956.127128	2840.825000	1459.393555	214.006668
11956.127128	2840.825000	1458.326172	335.973267
11956.127128	2840.825000	1457.257813	294.598755
11956.127128	2840.825000	1456.189453	141.753601
11956.127128	2840.825000	1455.121094	120.266037
11956.127128	2840.825000	1454.052734	182.688828
11956.127128	2840.825000	1452.984375	178.560120
11956.127128	2840.825000	1451.915039	231.696304
11956.127128	2840.825000	1450.845703	326.376862
11956.127128	2840.825000	1449.776367	176.081329
11956.127128	2840.825000	1448.707031	351.317535
11956.127128	2840.825000	1447.636719	155.441101
11956.127128	2840.825000	1446.567383	185.637421
11956.127128	2840.825000	1445.497070	44.403843
11956.127128	2840.825000	1444.425781	79.733665
11956.127128	2840.825000	1443.355469	99.208511
11956.127128	2840.825000	1442.285156	-27.605022
11956.127128	2840.825000	1441.213867	83.230934
11956.127128	2840.825000	1440.142578	104.878212
11956.127128	2840.825000	1439.070313	50.403652
11956.127128	2840.825000	1437.999023	133.544678
11956.127128	2840.825000	1436.926758	112.218224
11956.127128	2840.825000	1435.854492	90.214828
11956.127128	2840.825000	1434.782227	54.562805
11956.127128	2840.825000	1433.709961	43.490627
11956.127128	2840.825000	1432.636719	134.324158
11956.127128	2840.825000	1431.563477	44.309830
11956.127128	2840.825000	1430.490234	-1.380546
11956.127128	2840.825000	1429.416992	53.877995
11956.127128	2840.825000	1428.343750	-182.221237
11956.127128	2840.825000	1427.269531	-110.403961
11956.127128	2840.825000	1426.195313	-39.348789
11956.127128	2840.825000	1425.121094	-102.081169
11956.127128	2840.825000	1424.046875	-130.921494
11956.127128	2840.825000	1422.971680	-18.350201
11956.127128	2840.825000	1421.896484	105.757622
11956.127128	2840.825000	1420.821289	-113.233856
11956.127128	2840.825000	1419.746094	28.582508
11956.127128	2840.825000	1418.669922	15.574086
11956.127128	2840.825000	1417.594727	90.554726
11956.127128	2840.825000	1416.518555	-62.420387
11956.127128	2840.825000	1415.442383	19.866140
11956.127128	2840.825000	1414.365234	-24.395905
11956.127128	2840.825000	1413.289063	149.543503
11956.127128	2840.825000	1412.211914	125.593369
11956.127128	2840.825000	1411.134766	157.225800
11956.127128	2840.825000	1410.057617	112.956291
11956.127128	2840.825000	1408.979492	-23.939255
11956.127128	2840.825000	1407.902344	-53.447563
11956.127128	2840.825000	1406.824219	124.954041
11956.127128	2840.825000	1405.746094	298.184692
11956.127128	2840.825000	1404.666992	265.309509
11956.127128	2840.825000	1403.588867	55.077759
11956.127128	2840.825000	1402.509766	226.841507
11956.127128	2840.825000	1401.430664	128.355667
11956.127128	2840.825000	1400.351563	319.211853
11956.127128	2840.825000	1399.271484	17.962696
11956.127128	2840.825000	1398.192383	34.028877
11956.127128	2840.825000	1397.112305	-90.161926
11956.127128	2840.825000	1396.031250	-61.544346
11956.127128	2840.825000	1394.951172	90.763992
11956.127128	2840.825000	1393.871094	230.469055
11956.127128	2840.825000	1392.790039	115.196922
11956.127128	2840.825000	1391.708984	159.456970
11956.127128	2840.825000	1390.626953	138.181946
11956.127128	2840.825000	1389.545898	171.907150
11956.127128	2840.825000	1388.463867	232.522751
11956.127128	2840.825000	1387.381836	136.769424
11956.127128	2840.825000	1386.299805	382.550232
11956.127128	2840.825000	1385.217773	179.616974
11956.127128	2840.825000	1384.134766	162.348862
11956.127128	2840.825000	1383.051758	80.670013
11956.127128	2840.825000	1381.968750	98.729591
11956.127128	2840.825000	1380.885742	137.246140
11956.127128	2840.825000	1379.802734	159.225266
11956.127128	2840.825000	1378.718750	175.145035
11956.127128	2840.825000	1377.634766	244.600235
11956.127128	2840.825000	1376.550781	180.484177
11956.127128	2840.825000	1375.465820	256.689056
11956.127128	2840.825000	1374.381836	230.961014
11956.127128	2840.825000	1373.296875	160.739044
11956.127128	2840.825000	1372.211914	308.790588
11956.127128	2840.825000	1371.126953	256.039185
11956.127128	2840.825000	1370.041016	252.943634
11956.127128	2840.825000	1368.955078	140.841583
11956.127128	2840.825000	1367.869141	119.813797
11956.127128	2840.825000	1366.783203	70.536774
11956.127128	2840.825000	1365.697266	195.920380
11956.127128	2840.825000	1364.610352	102.769272
11956.127128	2840.825000	1363.523438	229.887680
11956.127128	2840.825000	1362.436523	233.192307
11956.127128	2840.825000	1361.349609	200.512955
11956.127128	2840.825000	1360.261719	182.484436
11956.127128	2840.825000	1359.174805	351.472015
11956.127128	2840.825000	1358.086914	404.256378
11956.127128	2840.825000	1356.998047	260.790497
11956.127128	2840.825000	1355.910156	335.622925
11956.127128	2840.825000	1354.821289	52.753380
11956.127128	2840.825000	1353.732422	-90.489822
11956.127128	2840.825000	1352.643555	226.471130
11956.127128	2840.825000	1351.554688	202.445496
11956.127128	2840.825000	1350.464844	391.035156
11956.127128	2840.825000	1349.375000	162.193329
11956.127128	2840.825000	1348.285156	347.388428
11956.127128	2840.825000	1347.195313	402.907227
11956.127128	2840.825000	1346.105469	227.118546
11956.127128	2840.825000	1345.014648	79.753334
11956.127128	2840.825000	1343.923828	208.898392
11956.127128	2840.825000	1342.833008	278.432312
11956.127128	2840.825000	1341.741211	292.344879
11956.127128	2840.825000	1340.650391	449.650604
11956.127128	2840.825000	1339.558594	338.873444
11956.127128	2840.825000	1338.466797	451.314880
11956.127128	2840.825000	1337.374023	359.889618
11956.127128	2840.825000	1336.282227	595.905884
11956.127128	2840.825000	1335.189453	333.758911
11956.127128	2840.825000	1334.096680	442.018677
11956.127128	2840.825000	1333.003906	449.548035
11956.127128	2840.825000	1331.910156	383.818512
11956.127128	2840.825000	1330.817383	453.265991
11956.127128	2840.825000	1329.723633	275.175537
11956.127128	2840.825000	1328.629883	179.042816
11956.127128	2840.825000	1327.535156	280.955536
11956.127128	2840.825000	1326.441406	358.044769
11956.127128	2840.825000	1325.346680	281.390656
11956.127128	2840.825000	1324.251953	283.041443
11956.127128	2840.825000	1323.156250	139.723679
11956.127128	2840.825000	1322.061523	349.715607
11956.127128	2840.825000	1320.965820	220.333008
11956.127128	2840.825000	1319.870117	104.361282
11956.127128	2840.825000	1318.774414	177.242432
11956.127128	2840.825000	1317.678711	415.157745
11956.127128	2840.825000	1316.582031	178.265457
11956.127128	2840.825000	1315.485352	187.338242
11956.127128	2840.825000	1314.388672	147.897186
11956.127128	2840.825000	1313.291016	190.835007
11956.127128	2840.825000	1312.194336	167.493088
11956.127128	2840.825000	1311.096680	163.850586
11956.127128	2840.825000	1309.999023	109.653687
11956.127128	2840.825000	1308.901367	114.336571
11956.127128	2840.825000	1307.802734	284.303741
11956.127128	2840.825000	1306.705078	90.124893
11956.127128	2840.825000	1305.606445	278.784271
11956.127128	2840.825000	1304.506836	138.263000
11956.127128	2840.825000	1303.408203	3.245889
11956.127128	2840.825000	1302.308594	28.433090
11956.127128	2840.825000	1301.208984	98.651680
11956.127128	2840.825000	1300.109375	200.458893
11956.127128	2840.825000	1299.009766	80.290833
11956.127128	2840.825000	1297.909180	253.482819
11956.127128	2840.825000	1296.808594	134.443893
11956.127128	2840.825000	1295.708008	-36.455730
11956.127128	2840.825000	1294.607422	250.990082
11956.127128	2840.825000	1293.506836	79.746262
11956.127128	2840.825000	1292.405273	32.708736
11956.127128	2840.825000	1291.303711	105.607269
11956.127128	2840.825000	1290.202148	-22.223087
11956.127128	2840.825000	1289.099609	33.302582
11956.127128	2840.825000	1287.998047	-9.833915
11956.127128	2840.825000	1286.895508	107.970772
11956.127128	2840.825000	1285.792969	149.381897
11956.127128	2840.825000	1284.689453	47.382374
11956.127128	2840.825000	1283.586914	187.945129
11956.127128	2840.825000	1282.483398	27.319588
11956.127128	2840.825000	1281.379883	69.885818
11956.127128	2840.825000	1280.276367	-3.755028
11956.127128	2840.825000	1279.171875	87.591438
11956.127128	2840.825000	1278.067383	-43.424259
11956.127128	2840.825000	1276.962891	23.480692
11956.127128	2840.825000	1275.858398	-1.217062
11956.127128	2840.825000	1274.753906	100.592430
11956.127128	2840.825000	1273.648438	29.698313
11956.127128	2840.825000	1272.542969	-33.500870
11956.127128	2840.825000	1271.437500	106.154152
11956.127128	2840.825000	1270.331055	27.563381
11956.127128	2840.825000	1269.225586	-129.931808
11956.127128	2840.825000	1268.119141	-36.330791
11956.127128	2840.825000	1267.012695	-50.950401
11956.127128	2840.825000	1265.906250	-63.069839
11956.127128	2840.825000	1264.798828	34.227531
11956.127128	2840.825000	1263.691406	51.592651
11956.127128	2840.825000	1262.583984	-44.230732
11956.127128	2840.825000	1261.476563	42.261868
11956.127128	2840.825000	1260.368164	69.222939
11956.127128	2840.825000	1259.260742	-30.249367
11956.127128	2840.825000	1258.152344	26.190845
11956.127128	2840.825000	1257.043945	66.153976
11956.127128	2840.825000	1255.934570	129.929245
11956.127128	2840.825000	1254.825195	17.391708
11956.127128	2840.825000	1253.716797	18.115128
11956.127128	2840.825000	1252.606445	-18.224926
11956.127128	2840.825000	1251.497070	-92.253029
11956.127128	2840.825000	1250.387695	-40.575470
11956.127128	2840.825000	1249.277344	-8.700377
11956.127128	2840.825000	1248.166992	106.336647
11956.127128	2840.825000	1247.055664	111.527962
11956.127128	2840.825000	1245.945313	20.480988
11956.127128	2840.825000	1244.833984	75.576797
11956.127128	2840.825000	1243.722656	74.780792
11956.127128	2840.825000	1242.611328	-56.016781
11956.127128	2840.825000	1241.499023	-11.707364
11956.127128	2840.825000	1240.387695	-40.705963
11956.127128	2840.825000	1239.275391	20.537428
11956.127128	2840.825000	1238.162109	-157.372589
11956.127128	2840.825000	1237.049805	-7.189373
11956.127128	2840.825000	1235.936523	1.856304
11956.127128	2840.825000	1234.823242	-54.532825
11956.127128	2840.825000	1233.709961	-13.184269
11956.127128	2840.825000	1232.596680	-26.628654
11956.127128	2840.825000	1231.482422	-95.875618
11956.127128	2840.825000	1230.369141	10.054471
11956.127128	2840.825000	1229.253906	18.841410
11956.127128	2840.825000	1228.139648	128.374039
11956.127128	2840.825000	1227.025391	50.417130
11956.127128	2840.825000	1225.910156	51.315041
11956.127128	2840.825000	1224.794922	-57.419853
11956.127128	2840.825000	1223.679688	31.458685
11956.127128	2840.825000	1222.563477	-13.961849
11956.127128	2840.825000	1221.447266	55.701065
11956.127128	2840.825000	1220.331055	-45.921555
11956.127128	2840.825000	1219.214844	-89.370079
11956.127128	2840.825000	1218.098633	-163.095032
11956.127128	2840.825000	1216.981445	-129.821945
11956.127128	2840.825000	1215.864258	-85.631622
11956.127128	2840.825000	1214.747070	-75.937943
11956.127128	2840.825000	1213.629883	-44.970242
11956.127128	2840.825000	1212.511719	3.517116
11956.127128	2840.825000	1211.393555	-28.092756
11956.127128	2840.825000	1210.275391	-15.900752
11956.127128	2840.825000	1209.157227	-25.542433
11956.127128	2840.825000	1208.038086	-51.289295
11956.127128	2840.825000	1206.918945	-65.720566
11956.127128	2840.825000	1205.799805	-21.864872
11956.127128	2840.825000	1204.680664	-26.462250
11956.127128	2840.825000	1203.560547	-69.079155
11956.127128	2840.825000	1202.441406	4.321220
11956.127128	2840.825000	1201.321289	8.234179
11956.127128	2840.825000	1200.200195	-80.185822
11956.127128	2840.825000	1199.080078	33.252911
11956.127128	2840.825000	1197.958984	-44.769348
11956.127128	2840.825000	1196.837891	-80.730606
11956.127128	2840.825000	1195.716797	-118.766876
11956.127128	2840.825000	1194.594727	15.860955
11956.127128	2840.825000	1193.473633	135.674820
11956.127128	2840.825000	1192.351563	65.572624
11956.127128	2840.825000	1191.229492	10.340137
11956.127128	2840.825000	1190.106445	-64.601456
11956.127128	2840.825000	1188.984375	-52.192490
11956.127128	2840.825000	1187.861328	90.114746
11956.127128	2840.825000	1186.738281	-37.543343
11956.127128	2840.825000	1185.614258	96.703125
11956.127128	2840.825000	1184.491211	56.265022
11956.127128	2840.825000	1183.367188	59.884773
11956.127128	2840.825000	1182.243164	-8.201044
11956.127128	2840.825000	1181.119141	-19.543922
11956.127128	2840.825000	1179.994141	5.433946
11956.127128	2840.825000	1178.869141	-16.567900
11956.127128	2840.825000	1177.744141	42.052856
11956.127128	2840.825000	1176.619141	-1.016006
11956.127128	2840.825000	1175.493164	-20.459927
11956.127128	2840.825000	1174.368164	-27.251947
11956.127128	2840.825000	1173.242188	-85.388229
11956.127128	2840.825000	1172.115234	-1.771363
11956.127128	2840.825000	1170.989258	-76.302994
11956.127128	2840.825000	1169.862305	-189.634155
11956.127128	2840.825000	1168.735352	-78.610046
11956.127128	2840.825000	1167.608398	3.924924
11956.127128	2840.825000	1166.481445	-105.696434
11956.127128	2840.825000	1165.353516	-187.800308
11956.127128	2840.825000	1164.225586	-77.930046
11956.127128	2840.825000	1163.097656	-76.097534
11956.127128	2840.825000	1161.968750	28.143925
11956.127128	2840.825000	1160.840820	-90.179665
11956.127128	2840.825000	1159.711914	-46.956490
11956.127128	2840.825000	1158.583008	-16.260527
11956.127128	2840.825000	1157.453125	-46.465462
11956.127128	2840.825000	1156.324219	80.929016
11956.127128	2840.825000	1155.194336	7.461320
11956.127128	2840.825000	1154.064453	-39.083054
11956.127128	2840.825000	1152.933594	-63.922581
11956.127128	2840.825000	1151.803711	13.524770
11956.127128	2840.825000	1150.672852	-116.534286
11956.127128	2840.825000	1149.541992	-13.294122
11956.127128	2840.825000	1148.411133	-47.404770
11956.127128	2840.825000	1147.279297	-26.717617
11956.127128	2840.825000	1146.147461	-69.723839
11956.127128	2840.825000	1145.015625	23.390905
11956.127128	2840.825000	1143.883789	-184.813431
11956.127128	2840.825000	1142.750977	-47.144375
11956.127128	2840.825000	1141.619141	134.681732
11956.127128	2840.825000	1140.486328	25.104143
11956.127128	2840.825000	1139.352539	63.539200
11956.127128	2840.825000	1138.219727	60.520210
11956.127128	2840.825000	1137.085938	-42.187527
11956.127128	2840.825000	1135.952148	69.598877
11956.127128	2840.825000	1134.818359	9.829059
11956.127128	2840.825000	1133.683594	55.260769
11956.127128	2840.825000	1132.549805	184.518875
11956.127128	2840.825000	1131.415039	139.577469
11956.127128	2840.825000	1130.279297	257.762573
11956.127128	2840.825000	1129.144531	109.018036
11956.127128	2840.825000	1128.008789	270.900848
11956.127128	2840.825000	1126.873047	357.523285
11956.127128	2840.825000	1125.737305	267.964417
11956.127128	2840.825000	1124.601563	264.633362
11956.127128	2840.825000	1123.464844	266.269653
11956.127128	2840.825000	1122.328125	245.662964
11956.127128	2840.825000	1121.191406	256.253174
11956.127128	2840.825000	1120.054688	147.450439
11956.127128	2840.825000	1118.916992	106.718788
11956.127128	2840.825000	1117.779297	41.625340
11956.127128	2840.825000	1116.641602	243.479156
11956.127128	2840.825000	1115.503906	94.548302
11956.127128	2840.825000	1114.365234	46.988628
11956.127128	2840.825000	1113.226563	42.264336
11956.127128	2840.825000	1112.087891	180.236267
11956.127128	2840.825000	1110.949219	127.926384
11956.127128	2840.825000	1109.809570	63.837650
11956.127128	2840.825000	1108.669922	88.899208
11956.127128	2840.825000	1107.530273	181.719955
11956.127128	2840.825000	1106.390625	135.929321
11956.127128	2840.825000	1105.250000	116.540886
11956.127128	2840.825000	1104.109375	177.220749
11956.127128	2840.825000	1102.968750	163.267776
11956.127128	2840.825000	1101.828125	144.570145
11956.127128	2840.825000	1100.686523	203.260071
11956.127128	2840.825000	1099.544922	146.197586
11956.127128	2840.825000	1098.403320	149.020889
11956.127128	2840.825000	1097.261719	74.941978
11956.127128	2840.825000	1096.120117	197.839783
11956.127128	2840.825000	1094.977539	171.898636
11956.127128	2840.825000	1093.834961	73.122749
11956.127128	2840.825000	1092.691406	157.920044
11956.127128	2840.825000	1091.548828	133.685791
11956.127128	2840.825000	1090.405273	142.794327
11956.127128	2840.825000	1089.261719	240.323227
11956.127128	2840.825000	1088.118164	186.469833
11956.127128	2840.825000	1086.973633	306.145874
11956.127128	2840.825000	1085.829102	107.326912
11956.127128	2840.825000	1084.684570	249.584351
11956.127128	2840.825000	1083.540039	231.566696
11956.127128	2840.825000	1082.395508	188.750137
11956.127128	2840.825000	1081.250000	141.877335
11956.127128	2840.825000	1080.104492	166.288757
11956.127128	2840.825000	1078.958984	76.804832
11956.127128	2840.825000	1077.812500	148.770218
11956.127128	2840.825000	1076.666016	267.357513
11956.127128	2840.825000	1075.519531	-51.532810
11956.127128	2840.825000	1074.373047	116.262466
11956.127128	2840.825000	1073.226563	93.475883
11956.127128	2840.825000	1072.079102	115.346039
11956.127128	2840.825000	1070.931641	87.288338
11956.127128	2840.825000	1069.784180	72.891754
11956.127128	2840.825000	1068.635742	206.543289
11956.127128	2840.825000	1067.487305	236.282440
11956.127128	2840.825000	1066.338867	103.323685
11956.127128	2840.825000	1065.190430	-12.267901
11956.127128	2840.825000	1064.041992	207.582520
11956.127128	2840.825000	1062.892578	202.570465
11956.127128	2840.825000	1061.743164	255.000656
11956.127128	2840.825000	1060.593750	197.653519
11956.127128	2840.825000	1059.443359	206.298218
11956.127128	2840.825000	1058.292969	54.219566
11956.127128	2840.825000	1057.142578	284.348846
11956.127128	2840.825000	1055.992188	165.333221
11956.127128	2840.825000	1054.841797	81.687950
11956.127128	2840.825000	1053.690430	125.627441
11956.127128	2840.825000	1052.539063	153.894119
11956.127128	2840.825000	1051.387695	44.913933
11956.127128	2840.825000	1050.235352	146.077988
11956.127128	2840.825000	1049.083984	169.203674
11956.127128	2840.825000	1047.931641	112.183853
11956.127128	2840.825000	1046.778320	-6.656648
11956.127128	2840.825000	1045.625977	-9.682432
11956.127128	2840.825000	1044.472656	130.986069
11956.127128	2840.825000	1043.319336	-23.055042
11956.127128	2840.825000	1042.166016	-75.445213
11956.127128	2840.825000	1041.012695	58.744438
11956.127128	2840.825000	1039.858398	77.803299
11956.127128	2840.825000	1038.704102	161.876892
11956.127128	2840.825000	1037.549805	18.636292
11956.127128	2840.825000	1036.394531	236.817627
11956.127128	2840.825000	1035.239258	91.514214
11956.127128	2840.825000	1034.083984	202.929871
11956.127128	2840.825000	1032.928711	45.228859
11956.127128	2840.825000	1031.773438	286.553467
11956.127128	2840.825000	1030.617188	-21.173788
11956.127128	2840.825000	1029.460938	87.396423
11956.127128	2840.825000	1028.304688	136.719376
11956.127128	2840.825000	1027.147461	94.194122
11956.127128	2840.825000	1025.991211	101.086121
11956.127128	2840.825000	1024.833984	167.316803
11956.127128	2840.825000	1023.675781	123.410767
11956.127128	2840.825000	1022.518555	23.787338
11956.127128	2840.825000	1021.360352	57.703831
11956.127128	2840.825000	1020.202148	99.102936
11956.127128	2840.825000	1019.043945	128.028824
11956.127128	2840.825000	1017.884766	-136.818314
11956.127128	2840.825000	1016.726563	-125.810455
11956.127128	2840.825000	1015.567383	-69.924332
11956.127128	2840.825000	1014.407227	150.548218
11956.127128	2840.825000	1013.248047	78.421829
11956.127128	2840.825000	1012.087891	-24.995667
11956.127128	2840.825000	1010.927734	24.795694
11956.127128	2840.825000	1009.767578	114.449448
11956.127128	2840.825000	1008.606445	66.526047
11956.127128	2840.825000	1007.446289	11.575615
11956.127128	2840.825000	1006.285156	-116.453033
11956.127128	2840.825000	1005.123047	13.522308
11956.127128	2840.825000	1003.961914	159.676361
11956.127128	2840.825000	1002.799805	33.647793
11956.127128	2840.825000	1001.637695	200.175446
11956.127128	2840.825000	1000.475586	29.518337
11956.127128	2840.825000	999.312500	214.904282
11956.127128	2840.825000	998.149414	76.898346
11956.127128	2840.825000	996.986328	58.103283
11956.127128	2840.825000	995.823242	78.231705
11956.127128	2840.825000	994.659180	99.742844
11956.127128	2840.825000	993.496094	-8.673703
11956.127128	2840.825000	992.332031	-44.518166
11956.127128	2840.825000	991.166992	51.275558
11956.127128	2840.825000	990.002930	169.698898
11956.127128	2840.825000	988.837891	106.140694
11956.127128	2840.825000	987.672852	116.945915
11956.127128	2840.825000	986.506836	44.670864
11956.127128	2840.825000	985.341797	39.593185
11956.127128	2840.825000	984.175781	49.518646
11956.127128	2840.825000	983.009766	-40.099369
11956.127128	2840.825000	981.843750	-97.146889
11956.127128	2840.825000	980.676758	-20.155045
11956.127128	2840.825000	979.509766	-34.258324
11956.127128	2840.825000	978.342773	142.490250
11956.127128	2840.825000	977.175781	-63.260170
11956.127128	2840.825000	976.007813	19.772202
11956.127128	2840.825000	974.839844	7.066693
11956.127128	2840.825000	973.671875	12.662570
11956.127128	2840.825000	972.503906	-35.906765
11956.127128	2840.825000	971.334961	10.718084
11956.127128	2840.825000	970.166016	11.265014
11956.127128	2840.825000	968.997070	-15.718907
11956.127128	2840.825000	967.828125	134.118073
11956.127128	2840.825000	966.658203	69.696358
11956.127128	2840.825000	965.488281	-35.597931
11956.127128	2840.825000	964.318359	-34.715782
11956.127128	2840.825000	963.148438	0.755104
11956.127128	2840.825000	961.977539	-82.374290
11956.127128	2840.825000	960.806641	9.764603
11956.127128	2840.825000	959.635742	-4.757721
11956.127128	2840.825000	958.463867	-28.741632
11956.127128	2840.825000	957.292969	201.263260
11956.127128	2840.825000	956.121094	211.341568
11956.127128	2840.825000	954.948242	24.757113
11956.127128	2840.825000	953.776367	117.700562
11956.127128	2840.825000	952.603516	-73.821640
11956.127128	2840.825000	951.430664	25.364771
11956.127128	2840.825000	950.257813	46.468945
11956.127128	2840.825000	949.084961	51.445148
11956.127128	2840.825000	947.911133	-54.315174
11956.127128	2840.825000	946.737305	-44.380413
11956.127128	2840.825000	945.563477	-129.189377
11956.127128	2840.825000	944.388672	100.994072
11956.127128	2840.825000	943.213867	-189.408188
11956.127128	2840.825000	942.039063	-53.170456
11956.127128	2840.825000	940.864258	-86.501068
11956.127128	2840.825000	939.688477	137.513351
11956.127128	2840.825000	938.513672	59.065983
11956.127128	2840.825000	937.337891	-21.406702
11956.127128	2840.825000	936.161133	24.254585
11956.127128	2840.825000	934.985352	-67.634369
11956.127128	2840.825000	933.808594	-6.259715
11956.127128	2840.825000	932.631836	129.671997
11956.127128	2840.825000	931.454102	19.701052
11956.127128	2840.825000	930.277344	-0.039867
11956.127128	2840.825000	929.099609	-60.343880
11956.127128	2840.825000	927.921875	70.914497
11956.127128	2840.825000	926.743164	21.837519
11956.127128	2840.825000	925.565430	245.454880
11956.127128	2840.825000	924.386719	18.382088
11956.127128	2840.825000	923.208008	-10.387678
11956.127128	2840.825000	922.028320	-131.483154
11956.127128	2840.825000	920.849609	51.442738
11956.127128	2840.825000	919.669922	53.308228
11956.127128	2840.825000	919.474609	-114.346252
11956.127128	2840.825000	918.309570	-176.866150
11956.127128	2840.825000	917.143555	-50.331451
11956.127128	2840.825000	915.977539	105.396492
11956.127128	2840.825000	914.810547	-17.871635
11956.127128	2840.825000	913.644531	-69.126625
11956.127128	2840.825000	912.477539	122.479370
11956.127128	2840.825000	911.310547	129.661667
11956.127128	2840.825000	910.143555	-38.476173
11956.127128	2840.825000	908.975586	-114.413040
11956.127128	2840.825000	907.807617	103.996063
11956.127128	2840.825000	906.639648	-21.362581
11956.127128	2840.825000	905.471680	71.168770
11956.127128	2840.825000	904.303711	87.318184
11956.127128	2840.825000	903.134766	89.990997
11956.127128	2840.825000	901.965820	18.593443
11956.127128	2840.825000	900.796875	63.908749
11956.127128	2840.825000	899.626953	26.194284
11956.127128	2840.825000	898.457031	37.839680
11956.127128	2840.825000	897.287109	11.353244
11956.127128	2840.825000	896.117188	83.528931
11956.127128	2840.825000	894.947266	151.189484
11956.127128	2840.825000	893.776367	95.553696
11956.127128	2840.825000	892.605469	113.883232
11956.127128	2840.825000	891.434570	-6.695927
11956.127128	2840.825000	890.262695	150.512985
11956.127128	2840.825000	889.091797	153.135910
11956.127128	2840.825000	887.919922	-65.897484
11956.127128	2840.825000	886.748047	10.634468
11956.127128	2840.825000	885.575195	71.467072
11956.127128	2840.825000	884.403320	4.729695
11956.127128	2840.825000	883.230469	128.172287
11956.127128	2840.825000	882.057617	-61.569443
11956.127128	2840.825000	880.883789	46.178268
11956.127128	2840.825000	879.710938	-221.725723
11956.127128	2840.825000	878.537109	91.649170
11956.127128	2840.825000	877.362305	152.360489
11956.127128	2840.825000	876.188477	-41.675274
11956.127128	2840.825000	875.013672	5.628183
11956.127128	2840.825000	873.839844	-98.966949
11956.127128	2840.825000	872.664063	17.545998
11956.127128	2840.825000	871.489258	-91.479454
11956.127128	2840.825000	870.313477	-66.538071
11956.127128	2840.825000	869.138672	81.126945
11956.127128	2840.825000	867.962891	7.844056
11956.127128	2840.825000	866.786133	-74.334122
11956.127128	2840.825000	865.610352	102.224731
11956.127128	2840.825000	864.433594	-0.015231
11956.127128	2840.825000	863.256836	-108.905640
11956.127128	2840.825000	862.079102	-48.360233
11956.127128	2840.825000	860.902344	-114.864861
11956.127128	2840.825000	859.724609	-94.455406
11956.127128	2840.825000	858.546875	-49.556252
11956.127128	2840.825000	857.368164	115.581413
11956.127128	2840.825000	856.190430	22.360451
11956.127128	2840.825000	855.011719	9.315223
11956.127128	2840.825000	853.833008	54.137074
11956.127128	2840.825000	852.654297	-83.533028
11956.127128	2840.825000	851.474609	45.821274
11956.127128	2840.825000	850.294922	-89.576454
11956.127128	2840.825000	849.115234	-149.313278
11956.127128	2840.825000	847.935547	-155.670135
11956.127128	2840.825000	846.754883	-70.888985
11956.127128	2840.825000	845.575195	44.964306
11956.127128	2840.825000	844.393555	-72.546844
11956.127128	2840.825000	843.212891	-23.399773
11956.127128	2840.825000	842.032227	101.237740
11956.127128	2840.825000	840.850586	37.062618
11956.127128	2840.825000	839.668945	26.191034
11956.127128	2840.825000	838.486328	-75.691338
11956.127128	2840.825000	837.304688	-22.191296
11956.127128	2840.825000	836.122070	49.030468
11956.127128	2840.825000	834.939453	-1.795127
11956.127128	2840.825000	833.756836	-116.927559
11956.127128	2840.825000	832.573242	-3.622604
11956.127128	2840.825000	831.389648	-151.978439
11956.127128	2840.825000	830.206055	-38.730614
11956.127128	2840.825000	829.022461	105.486847
11956.127128	2840.825000	827.838867	45.797764
11956.127128	2840.825000	826.654297	123.464851
11956.127128	2840.825000	825.469727	48.274727
11956.127128	2840.825000	824.284180	-51.249653
11956.127128	2840.825000	823.099609	-22.344835
11956.127128	2840.825000	821.914063	-70.928078
11956.127128	2840.825000	820.728516	165.960602
11956.127128	2840.825000	819.542969	33.263824
11956.127128	2840.825000	818.356445	81.993759
11956.127128	2840.825000	817.169922	13.481481
11956.127128	2840.825000	815.983398	35.638863
11956.127128	2840.825000	814.796875	24.616039
11956.127128	2840.825000	813.609375	146.195633
11956.127128	2840.825000	812.422852	9.176864
11956.127128	2840.825000	811.235352	2.547576
11956.127128	2840.825000	810.046875	-79.189598
11956.127128	2840.825000	808.859375	-57.116219
11956.127128	2840.825000	807.670898	-10.778222
11956.127128	2840.825000	806.482422	33.319611
11956.127128	2840.825000	805.293945	-32.963604
11956.127128	2840.825000	804.104492	-10.972322
11956.127128	2840.825000	802.915039	-119.161972
11956.127128	2840.825000	801.725586	61.609760
11956.127128	2840.825000	800.536133	79.111633
11956.127128	2840.825000	799.345703	-15.847036
11956.127128	2840.825000	798.155273	109.639687
11956.127128	2840.825000	796.964844	127.073471
11956.127128	2840.825000	795.774414	91.604446
11956.127128	2840.825000	794.583008	64.945168
11956.127128	2840.825000	793.392578	-47.614033
11956.127128	2840.825000	792.200195	86.474228
11956.127128	2840.825000	791.008789	39.966694
11956.127128	2840.825000	789.816406	61.692997
11956.127128	2840.825000	788.625000	28.377167
11956.127128	2840.825000	787.432617	56.660301
11956.127128	2840.825000	786.239258	-53.664474
11956.127128	2840.825000	785.046875	-40.809063
11956.127128	2840.825000	783.853516	-111.529442
11956.127128	2840.825000	782.660156	66.165962
11956.127128	2840.825000	781.465820	-39.752163
11956.127128	2840.825000	780.272461	43.326672
11956.127128	2840.825000	779.078125	-97.734497
11956.127128	2840.825000	777.883789	147.819153
11956.127128	2840.825000	776.688477	-21.795172
11956.127128	2840.825000	775.494141	-92.561577
11956.127128	2840.825000	774.298828	-49.174767
11956.127128	2840.825000	773.103516	16.118189
11956.127128	2840.825000	771.907227	41.866463
11956.127128	2840.825000	770.711914	-114.498367
11956.127128	2840.825000	769.515625	31.850323
11956.127128	2840.825000	768.318359	-49.937401
11956.127128	2840.825000	767.122070	102.867027
11956.127128	2840.825000	765.924805	152.565231
11956.127128	2840.825000	764.727539	90.454712
11956.127128	2840.825000	763.530273	39.299854
11956.127128	2840.825000	762.333008	60.429508
11956.127128	2840.825000	761.134766	50.864849
11956.127128	2840.825000	759.936523	45.657379
11956.127128	2840.825000	758.738281	57.940147
11956.127128	2840.825000	757.540039	61.437023
11956.127128	2840.825000	756.340820	108.671555
11956.127128	2840.825000	755.141602	160.235382
11956.127128	2840.825000	753.942383	264.247406
11956.127128	2840.825000	752.742188	75.146156
11956.127128	2840.825000	751.541992	-15.513773
11956.127128	2840.825000	750.341797	84.016418
11956.127128	2840.825000	749.141602	58.902523
11956.127128	2840.825000	747.941406	16.290300
11956.127128	2840.825000	746.740234	96.006386
11956.127128	2840.825000	745.539063	282.684113
11956.127128	2840.825000	744.337891	119.863327
11956.127128	2840.825000	743.135742	245.269501
11956.127128	2840.825000	741.933594	51.907665
11956.127128	2840.825000	740.731445	164.123306
11956.127128	2840.825000	739.529297	149.713608
11956.127128	2840.825000	738.326172	172.364441
11956.127128	2840.825000	737.124023	260.404633
11956.127128	2840.825000	735.919922	215.366272
11956.127128	2840.825000	734.716797	586.707153
11956.127128	2840.825000	733.513672	436.937927
11956.127128	2840.825000	732.309570	389.620270
11956.127128	2840.825000	731.105469	473.012390
11956.127128	2840.825000	729.900391	360.297638
11956.127128	2840.825000	728.696289	367.376007
11956.127128	2840.825000	727.491211	385.307129
11956.127128	2840.825000	726.286133	200.750168
11956.127128	2840.825000	725.080078	190.350784
11956.127128	2840.825000	723.874023	160.340988
11956.127128	2840.825000	722.668945	139.013458
11956.127128	2840.825000	721.461914	89.386719
11956.127128	2840.825000	720.255859	46.272144
11956.127128	2840.825000	719.048828	66.192886
11956.127128	2840.825000	717.841797	86.073044
11956.127128	2840.825000	716.634766	-35.347233
11956.127128	2840.825000	715.427734	-115.466919
11956.127128	2840.825000	714.219727	-106.521408
11956.127128	2840.825000	713.011719	-56.347218
11956.127128	2840.825000	711.803711	-82.225639
11956.127128	2840.825000	710.594727	126.335419
11956.127128	2840.825000	709.385742	-29.866659
11956.127128	2840.825000	708.176758	-60.174175
11956.127128	2840.825000	706.967773	44.012005
11956.127128	2840.825000	705.758789	-12.393560
11956.127128	2840.825000	704.548828	-185.917892
11956.127128	2840.825000	703.338867	43.885952
11956.127128	2840.825000	702.127930	6.925495
11956.127128	2840.825000	700.917969	-6.211816
11956.127128	2840.825000	699.707031	-129.886810
11956.127128	2840.825000	698.496094	47.586899
11956.127128	2840.825000	697.285156	49.511623
11956.127128	2840.825000	696.073242	-13.563108
11956.127128	2840.825000	694.861328	-3.032367
11956.127128	2840.825000	693.649414	100.538048
11956.127128	2840.825000	692.436523	115.302597
11956.127128	2840.825000	691.224609	158.156845
11956.127128	2840.825000	690.011719	4.107816
11956.127128	2840.825000	688.798828	96.645882
11956.127128	2840.825000	687.584961	-46.578957
11956.127128	2840.825000	686.372070	-36.283180
11956.127128	2840.825000	685.158203	8.557657
11956.127128	2840.825000	683.943359	237.027191
11956.127128	2840.825000	682.729492	219.075134
11956.127128	2840.825000	681.514648	237.819092
11956.127128	2840.825000	680.299805	256.524078
11956.127128	2840.825000	679.084961	311.895996
11956.127128	2840.825000	677.869141	207.471893
11956.127128	2840.825000	676.653320	64.213737
11956.127128	2840.825000	675.437500	223.072021
11956.127128	2840.825000	674.221680	125.114944
11956.127128	2840.825000	673.004883	219.128113
11956.127128	2840.825000	671.789063	181.534439
11956.127128	2840.825000	670.571289	25.348299
11956.127128	2840.825000	669.354492	48.106823
11956.127128	2840.825000	668.136719	57.896500
11956.127128	2840.825000	666.919922	35.336758
11956.127128	2840.825000	665.701172	-60.482563
11956.127128	2840.825000	664.483398	123.689384
11956.127128	2840.825000	663.264648	-4.459470
11956.127128	2840.825000	662.045898	69.778847
11956.127128	2840.825000	660.827148	204.225601
11956.127128	2840.825000	659.608398	-14.313043
11956.127128	2840.825000	658.388672	120.043663
11956.127128	2840.825000	657.168945	-23.151434
11956.127128	2840.825000	655.949219	-15.775253
11956.127128	2840.825000	654.728516	13.073470
11956.127128	2840.825000	653.507813	-72.039635
11956.127128	2840.825000	652.287109	25.536890
11956.127128	2840.825000	651.066406	13.468673
11956.127128	2840.825000	649.844727	16.421133
11956.127128	2840.825000	648.623047	40.829659
11956.127128	2840.825000	647.401367	-48.598576
11956.127128	2840.825000	646.179688	38.034546
11956.127128	2840.825000	644.957031	23.730387
11956.127128	2840.825000	643.734375	-67.839218
11956.127128	2840.825000	642.511719	42.289314
11956.127128	2840.825000	641.289063	19.363287
11956.127128	2840.825000	640.065430	105.803505
11956.127128	2840.825000	638.841797	117.148132
11956.127128	2840.825000	637.618164	83.456512
11956.127128	2840.825000	636.393555	-33.820736
11956.127128	2840.825000	635.168945	-9.638053
11956.127128	2840.825000	633.944336	55.226559
11956.127128	2840.825000	632.719727	137.188477
11956.127128	2840.825000	631.494141	-27.158115
11956.127128	2840.825000	630.269531	24.793875
11956.127128	2840.825000	629.042969	3.935746
11956.127128	2840.825000	627.817383	19.461437
11956.127128	2840.825000	626.590820	114.137169
11956.127128	2840.825000	625.365234	69.725388
11956.127128	2840.825000	624.137695	121.564682
11956.127128	2840.825000	622.911133	222.560028
11956.127128	2840.825000	621.683594	15.667616
11956.127128	2840.825000	620.456055	69.614906
11956.127128	2840.825000	619.228516	-21.768503
11956.127128	2840.825000	618.000977	85.574043
11956.127128	2840.825000	616.772461	169.375092
11956.127128	2840.825000	615.543945	86.573074
11956.127128	2840.825000	614.314453	57.183788
11956.127128	2840.825000	613.085938	25.679285
11956.127128	2840.825000	611.856445	109.435341
11956.127128	2840.825000	610.626953	5.397274
11956.127128	2840.825000	609.397461	8.073503
11956.127128	2840.825000	608.166992	-6.306712
11956.127128	2840.825000	606.936523	-123.023125
11956.127128	2840.825000	605.706055	-171.458893
11956.127128	2840.825000	604.474609	-17.377337
11956.127128	2840.825000	603.244141	6.664260
11956.127128	2840.825000	602.012695	-5.510330
11956.127128	2840.825000	600.780273	-4.885731
11956.127128	2840.825000	599.548828	-4.241899
11956.127128	2840.825000	598.316406	-152.624100
11956.127128	2840.825000	597.083984	7.739683
11956.127128	2840.825000	595.851563	-115.002365
11956.127128	2840.825000	594.618164	-244.055771
11956.127128	2840.825000	593.384766	-111.366295
11956.127128	2840.825000	592.151367	-12.739345
11956.127128	2840.825000	590.917969	-28.956379
11956.127128	2840.825000	589.683594	50.528183
11956.127128	2840.825000	588.449219	-116.555702
11956.127128	2840.825000	587.214844	-92.280487
11956.127128	2840.825000	585.979492	-91.357338
11956.127128	2840.825000	584.745117	-122.263840
11956.127128	2840.825000	583.509766	-6.587133
11956.127128	2840.825000	582.273438	-124.486969
11956.127128	2840.825000	581.038086	95.230301
11956.127128	2840.825000	579.801758	24.124701
11956.127128	2840.825000	578.565430	158.915268
11956.127128	2840.825000	577.329102	34.868973
11956.127128	2840.825000	576.091797	182.406265
11956.127128	2840.825000	574.854492	192.086945
11956.127128	2840.825000	573.617188	276.011963
11956.127128	2840.825000	572.378906	381.142395
11956.127128	2840.825000	571.141602	329.454620
11956.127128	2840.825000	569.903320	112.573654
11956.127128	2840.825000	568.664063	50.470181
11956.127128	2840.825000	567.425781	149.402039
11956.127128	2840.825000	566.186523	138.238647
11956.127128	2840.825000	564.947266	27.637636
11956.127128	2840.825000	563.708008	-32.065205
11956.127128	2840.825000	562.467773	109.337654
11956.127128	2840.825000	561.227539	138.611618
11956.127128	2840.825000	559.987305	142.550964
11956.127128	2840.825000	558.747070	11.209702
11956.127128	2840.825000	557.505859	-86.186386
11956.127128	2840.825000	556.264648	142.044876
11956.127128	2840.825000	555.023438	120.870560
11956.127128	2840.825000	553.781250	95.545387
11956.127128	2840.825000	552.539063	-41.660282
11956.127128	2840.825000	551.296875	78.922272
11956.127128	2840.825000	550.054688	-104.535805
11956.127128	2840.825000	548.811523	20.371721
11956.127128	2840.825000	547.569336	81.980072
11956.127128	2840.825000	546.325195	-16.737459
11956.127128	2840.825000	545.082031	-43.606815
11956.127128	2840.825000	543.837891	-97.809174
11956.127128	2840.825000	542.593750	33.664036
11956.127128	2840.825000	541.349609	82.933533
11956.127128	2840.825000	540.105469	-67.989357
11956.127128	2840.825000	538.860352	135.285828
11956.127128	2840.825000	537.615234	140.497284
11956.127128	2840.825000	536.369141	143.683517
11956.127128	2840.825000	535.124023	47.964905
11956.127128	2840.825000	533.877930	101.873978
11956.127128	2840.825000	532.631836	-58.884144
11956.127128	2840.825000	531.384766	7.826351
11956.127128	2840.825000	530.138672	-9.575984
11956.127128	2840.825000	528.891602	76.206932
11956.127128	2840.825000	527.643555	-54.606152
11956.127128	2840.825000	526.396484	-10.729033
11956.127128	2840.825000	525.148438	14.298783
11956.127128	2840.825000	523.900391	-6.837362
11956.127128	2840.825000	522.652344	-29.973282
11956.127128	2840.825000	521.403320	-126.544693
11956.127128	2840.825000	520.154297	-73.831924
11956.127128	2840.825000	518.905273	58.761684
11956.127128	2840.825000	517.656250	-29.084248
11956.127128	2840.825000	516.406250	65.846039
11956.127128	2840.825000	515.156250	83.173080
11956.127128	2840.825000	513.906250	161.443039
11956.127128	2840.825000	512.655273	-18.274275
11956.127128	2840.825000	511.404297	-38.405102
11956.127128	2840.825000	510.153320	94.656113
11956.127128	2840.825000	508.902344	-32.224892
11956.127128	2840.825000	507.650391	168.051544
11956.127128	2840.825000	506.398438	167.148956
11956.127128	2840.825000	505.146484	195.677490
11956.127128	2840.825000	503.893555	228.481964
11956.127128	2840.825000	502.641602	190.157684
11956.127128	2840.825000	501.388672	244.081406
11956.127128	2840.825000	500.134766	212.247498
11956.127128	2840.825000	498.881836	82.147575
11956.127128	2840.825000	497.627930	205.402252
11956.127128	2840.825000	496.374023	332.882324
11956.127128	2840.825000	495.119141	88.085838
11956.127128	2840.825000	493.865234	54.697826
11956.127128	2840.825000	492.610352	207.496826
11956.127128	2840.825000	491.355469	347.779236
11956.127128	2840.825000	490.099609	306.274475
11956.127128	2840.825000	488.843750	340.094513
11956.127128	2840.825000	487.587891	194.335602
11956.127128	2840.825000	486.332031	341.117828
11956.127128	2840.825000	485.075195	224.826630
11956.127128	2840.825000	483.818359	306.992279
11956.127128	2840.825000	482.561523	274.407837
11956.127128	2840.825000	481.304688	398.420410
11956.127128	2840.825000	480.046875	370.161377
11956.127128	2840.825000	478.789063	454.623596
11956.127128	2840.825000	477.531250	343.095764
11956.127128	2840.825000	476.272461	452.691345
11956.127128	2840.825000	475.013672	545.630737
11956.127128	2840.825000	473.754883	473.956573
11956.127128	2840.825000	472.496094	483.633698
11956.127128	2840.825000	471.236328	585.026733
11956.127128	2840.825000	469.976563	340.707336
11956.127128	2840.825000	468.716797	492.168213
11956.127128	2840.825000	467.456055	433.356628
11956.127128	2840.825000	466.196289	455.782928
11956.127128	2840.825000	464.935547	515.700806
11956.127128	2840.825000	463.673828	521.542419
11956.127128	2840.825000	462.413086	560.690430
11956.127128	2840.825000	461.151367	656.001282
11956.127128	2840.825000	459.889648	697.239197
11956.127128	2840.825000	458.626953	516.069275
11956.127128	2840.825000	457.364258	646.719666
11956.127128	2840.825000	456.101563	598.638000
11956.127128	2840.825000	454.838867	637.827148
11956.127128	2840.825000	453.575195	780.843567
11956.127128	2840.825000	452.312500	666.315674
11956.127128	2840.825000	451.047852	643.173401
11956.127128	2840.825000	449.784180	698.886414
11956.127128	2840.825000	448.519531	856.231567
11956.127128	2840.825000	447.254883	797.718628
11956.127128	2840.825000	445.990234	587.779236
11956.127128	2840.825000	444.725586	672.350220
11956.127128	2840.825000	443.459961	812.812561
11956.127128	2840.825000	442.194336	789.401733
11956.127128	2840.825000	440.927734	753.502502
11956.127128	2840.825000	439.662109	636.734314
11956.127128	2840.825000	438.395508	712.579895
11956.127128	2840.825000	437.127930	740.669678
11956.127128	2840.825000	435.861328	1029.530884
11956.127128	2840.825000	434.593750	1009.712463
11956.127128	2840.825000	433.326172	838.696411
11956.127128	2840.825000	432.058594	864.198181
11956.127128	2840.825000	430.790039	810.937500
11956.127128	2840.825000	429.521484	865.100952
11956.127128	2840.825000	428.252930	970.775024
11956.127128	2840.825000	426.984375	898.431885
11956.127128	2840.825000	425.714844	1009.898254
11956.127128	2840.825000	424.445313	883.469849
11956.127128	2840.825000	423.174805	944.903198
11956.127128	2840.825000	421.905273	1047.399048
11956.127128	2840.825000	420.634766	959.622131
11956.127128	2840.825000	419.364258	1187.540771
11956.127128	2840.825000	418.092773	870.130371
11956.127128	2840.825000	416.822266	1206.818970
11956.127128	2840.825000	415.550781	1171.664185
11956.127128	2840.825000	414.278320	1099.089600
11956.127128	2840.825000	413.006836	1123.164795
11956.127128	2840.825000	411.734375	1227.317017
11956.127128	2840.825000	410.461914	957.924866
11956.127128	2840.825000	409.188477	1077.841797
11956.127128	2840.825000	407.916016	898.522400
11956.127128	2840.825000	406.642578	1141.234131
11956.127128	2840.825000	405.368164	1107.407715
11956.127128	2840.825000	404.094727	912.531738
11956.127128	2840.825000	402.820313	1182.600586
11956.127128	2840.825000	401.545898	1207.122314
11956.127128	2840.825000	400.270508	1189.978027
11956.127128	2840.825000	398.996094	1092.086670
11956.127128	2840.825000	397.720703	1096.559326
11956.127128	2840.825000	396.444336	1203.307007
11956.127128	2840.825000	395.168945	1122.320313
11956.127128	2840.825000	393.892578	1024.321655
11956.127128	2840.825000	392.616211	1096.339233
11956.127128	2840.825000	391.339844	1052.610229
11956.127128	2840.825000	390.062500	1080.133667
11956.127128	2840.825000	388.785156	1059.713135
11956.127128	2840.825000	387.507813	1167.961060
11956.127128	2840.825000	386.229492	1154.281006
11956.127128	2840.825000	384.951172	1008.469666
11956.127128	2840.825000	383.672852	1083.568726
11956.127128	2840.825000	382.394531	1065.486328
11956.127128	2840.825000	381.115234	927.577576
11956.127128	2840.825000	379.835938	998.042114
11956.127128	2840.825000	378.556641	1001.957703
11956.127128	2840.825000	377.277344	896.288574
11956.127128	2840.825000	375.997070	1226.239502
11956.127128	2840.825000	374.716797	870.653931
11956.127128	2840.825000	373.435547	1102.142822
11956.127128	2840.825000	372.155273	937.183105
11956.127128	2840.825000	370.874023	1121.352539
11956.127128	2840.825000	369.591797	978.775085
11956.127128	2840.825000	368.310547	1113.488770
11956.127128	2840.825000	367.028320	999.311401
11956.127128	2840.825000	365.746094	871.674927
11956.127128	2840.825000	364.463867	1004.651428
11956.127128	2840.825000	363.180664	1087.159424
11956.127128	2840.825000	361.897461	777.759033
11956.127128	2840.825000	360.614258	947.492310
11956.127128	2840.825000	359.330078	868.407898
11956.127128	2840.825000	358.045898	841.016357
11956.127128	2840.825000	356.761719	810.084778
11956.127128	2840.825000	355.477539	755.149353
11956.127128	2840.825000	354.192383	808.880127
11956.127128	2840.825000	352.907227	905.860657
11956.127128	2840.825000	351.622070	756.185120
11956.127128	2840.825000	350.336914	657.900391
11956.127128	2840.825000	349.050781	743.503845
11956.127128	2840.825000	347.764648	735.454346
11956.127128	2840.825000	346.477539	707.141418
11956.127128	2840.825000	345.191406	652.486389
11956.127128	2840.825000	343.904297	712.028076
11956.127128	2840.825000	342.616211	630.890625
11956.127128	2840.825000	341.329102	649.623352
11956.127128	2840.825000	340.041016	623.388672
11956.127128	2840.825000	338.752930	415.749176
11956.127128	2840.825000	337.463867	541.873840
11956.127128	2840.825000	336.175781	488.575287
11956.127128	2840.825000	334.886719	542.792358
11956.127128	2840.825000	333.596680	519.215881
11956.127128	2840.825000	332.307617	401.670135
11956.127128	2840.825000	331.017578	391.405579
11956.127128	2840.825000	329.727539	236.187851
11956.127128	2840.825000	328.436523	293.805664
11956.127128	2840.825000	327.146484	304.001526
11956.127128	2840.825000	325.855469	402.770020
11956.127128	2840.825000	324.563477	264.899261
11956.127128	2840.825000	323.272461	264.370300
11956.127128	2840.825000	321.980469	378.543884
11956.127128	2840.825000	320.688477	-15.995039
11956.127128	2840.825000	319.395508	104.041573
11956.127128	2840.825000	318.103516	93.006248
11956.127128	2840.825000	316.810547	178.007523
11956.127128	2840.825000	315.516602	22.144846
11956.127128	2840.825000	314.223633	-27.512407
11956.127128	2840.825000	312.929688	-48.342697
11956.127128	2840.825000	311.635742	-103.205841
11956.127128	2840.825000	310.340820	-86.861099
11956.127128	2840.825000	309.045898	-94.592690
11956.127128	2840.825000	307.750977	-45.429070
11956.127128	2840.825000	306.456055	64.554932
11956.127128	2840.825000	305.160156	-74.715416
11956.127128	2840.825000	303.865234	152.539337
11956.127128	2840.825000	302.568359	174.826752
11956.127128	2840.825000	301.272461	-90.453613
11956.127128	2840.825000	299.975586	188.147766
11956.127128	2840.825000	298.678711	280.029083
