#X		#Y		#Wave		#Intensity
12408.922872	1311.786667	1999.980469	71.128487
12408.922872	1311.786667	1999.016602	-13.655757
12408.922872	1311.786667	1998.052734	31.860559
12408.922872	1311.786667	1997.087891	47.531380
12408.922872	1311.786667	1996.123047	-31.045567
12408.922872	1311.786667	1995.158203	71.155144
12408.922872	1311.786667	1994.193359	-101.687782
12408.922872	1311.786667	1993.228516	25.081827
12408.922872	1311.786667	1992.262695	-108.237915
12408.922872	1311.786667	1991.297852	35.652813
12408.922872	1311.786667	1990.332031	-23.527763
12408.922872	1311.786667	1989.366211	-1.103980
12408.922872	1311.786667	1988.399414	-15.870002
12408.922872	1311.786667	1987.433594	-97.487480
12408.922872	1311.786667	1986.466797	-65.381050
12408.922872	1311.786667	1985.500977	85.332275
12408.922872	1311.786667	1984.534180	65.347130
12408.922872	1311.786667	1983.567383	40.363297
12408.922872	1311.786667	1982.599609	-41.510220
12408.922872	1311.786667	1981.632813	-9.756789
12408.922872	1311.786667	1980.665039	86.156929
12408.922872	1311.786667	1979.697266	-27.958826
12408.922872	1311.786667	1978.729492	196.222885
12408.922872	1311.786667	1977.761719	91.898628
12408.922872	1311.786667	1976.792969	148.015701
12408.922872	1311.786667	1975.825195	142.361679
12408.922872	1311.786667	1974.856445	-6.456247
12408.922872	1311.786667	1973.887695	-51.645317
12408.922872	1311.786667	1972.918945	56.070419
12408.922872	1311.786667	1971.949219	74.920593
12408.922872	1311.786667	1970.980469	12.353223
12408.922872	1311.786667	1970.010742	31.123800
12408.922872	1311.786667	1969.041016	-68.462646
12408.922872	1311.786667	1968.071289	43.886265
12408.922872	1311.786667	1967.101563	45.281742
12408.922872	1311.786667	1966.130859	162.424683
12408.922872	1311.786667	1965.161133	-3.753750
12408.922872	1311.786667	1964.190430	29.562857
12408.922872	1311.786667	1963.219727	-1.177383
12408.922872	1311.786667	1962.249023	-22.089489
12408.922872	1311.786667	1961.277344	67.729759
12408.922872	1311.786667	1960.306641	108.274696
12408.922872	1311.786667	1959.334961	134.016052
12408.922872	1311.786667	1958.363281	137.584579
12408.922872	1311.786667	1957.391602	13.242073
12408.922872	1311.786667	1956.419922	-71.735077
12408.922872	1311.786667	1955.447266	143.223541
12408.922872	1311.786667	1954.474609	171.275986
12408.922872	1311.786667	1953.501953	66.592651
12408.922872	1311.786667	1952.529297	13.526003
12408.922872	1311.786667	1951.556641	-41.995331
12408.922872	1311.786667	1950.583984	-60.672150
12408.922872	1311.786667	1949.610352	-8.144775
12408.922872	1311.786667	1948.636719	-17.033960
12408.922872	1311.786667	1947.663086	-60.301319
12408.922872	1311.786667	1946.689453	11.784878
12408.922872	1311.786667	1945.715820	-29.046114
12408.922872	1311.786667	1944.741211	77.327408
12408.922872	1311.786667	1943.767578	53.643665
12408.922872	1311.786667	1942.792969	49.576435
12408.922872	1311.786667	1941.818359	87.184105
12408.922872	1311.786667	1940.842773	2.188346
12408.922872	1311.786667	1939.868164	-23.958754
12408.922872	1311.786667	1938.892578	11.160560
12408.922872	1311.786667	1937.916992	173.668106
12408.922872	1311.786667	1936.941406	181.773438
12408.922872	1311.786667	1935.965820	192.317413
12408.922872	1311.786667	1934.990234	-44.481674
12408.922872	1311.786667	1934.013672	93.401360
12408.922872	1311.786667	1933.037109	116.174225
12408.922872	1311.786667	1932.060547	156.065414
12408.922872	1311.786667	1931.083984	-2.270833
12408.922872	1311.786667	1930.107422	-48.011810
12408.922872	1311.786667	1929.129883	16.333372
12408.922872	1311.786667	1928.153320	31.738226
12408.922872	1311.786667	1927.175781	47.132835
12408.922872	1311.786667	1926.198242	28.292206
12408.922872	1311.786667	1925.219727	85.227669
12408.922872	1311.786667	1924.242188	186.128021
12408.922872	1311.786667	1923.263672	-11.101643
12408.922872	1311.786667	1922.285156	-3.056476
12408.922872	1311.786667	1921.306641	66.045540
12408.922872	1311.786667	1920.328125	-16.283613
12408.922872	1311.786667	1919.349609	130.921173
12408.922872	1311.786667	1918.370117	77.900597
12408.922872	1311.786667	1917.391602	20.018681
12408.922872	1311.786667	1916.412109	-28.082781
12408.922872	1311.786667	1915.431641	119.009987
12408.922872	1311.786667	1914.452148	24.561840
12408.922872	1311.786667	1913.472656	-47.901913
12408.922872	1311.786667	1912.492188	38.153313
12408.922872	1311.786667	1911.511719	29.099012
12408.922872	1311.786667	1910.531250	144.357681
12408.922872	1311.786667	1909.550781	264.447540
12408.922872	1311.786667	1908.569336	84.800064
12408.922872	1311.786667	1907.588867	97.670761
12408.922872	1311.786667	1906.607422	-13.679544
12408.922872	1311.786667	1905.625977	57.649384
12408.922872	1311.786667	1904.644531	175.212311
12408.922872	1311.786667	1903.662109	270.823517
12408.922872	1311.786667	1902.680664	-35.175663
12408.922872	1311.786667	1901.698242	2.041025
12408.922872	1311.786667	1900.715820	-84.832306
12408.922872	1311.786667	1899.733398	8.328395
12408.922872	1311.786667	1898.750000	-15.280304
12408.922872	1311.786667	1897.767578	119.170677
12408.922872	1311.786667	1896.784180	-52.742455
12408.922872	1311.786667	1895.800781	-64.169380
12408.922872	1311.786667	1894.817383	-29.417730
12408.922872	1311.786667	1893.833984	46.626728
12408.922872	1311.786667	1892.850586	35.191017
12408.922872	1311.786667	1891.866211	-5.385272
12408.922872	1311.786667	1890.881836	0.193445
12408.922872	1311.786667	1889.897461	37.333366
12408.922872	1311.786667	1888.913086	118.154060
12408.922872	1311.786667	1887.927734	12.067854
12408.922872	1311.786667	1886.943359	158.380753
12408.922872	1311.786667	1885.958008	6.232905
12408.922872	1311.786667	1884.972656	14.233306
12408.922872	1311.786667	1883.987305	-2.019983
12408.922872	1311.786667	1883.001953	-27.966021
12408.922872	1311.786667	1882.015625	50.340691
12408.922872	1311.786667	1881.029297	-45.895161
12408.922872	1311.786667	1880.042969	136.589493
12408.922872	1311.786667	1879.056641	-8.083862
12408.922872	1311.786667	1878.070313	-55.805992
12408.922872	1311.786667	1877.083984	39.386852
12408.922872	1311.786667	1876.096680	44.946983
12408.922872	1311.786667	1875.109375	33.556595
12408.922872	1311.786667	1874.122070	48.796600
12408.922872	1311.786667	1873.134766	126.954948
12408.922872	1311.786667	1872.146484	86.516159
12408.922872	1311.786667	1871.159180	-140.190414
12408.922872	1311.786667	1870.170898	97.596878
12408.922872	1311.786667	1869.182617	-75.826508
12408.922872	1311.786667	1868.194336	55.469448
12408.922872	1311.786667	1867.205078	15.075202
12408.922872	1311.786667	1866.216797	110.046165
12408.922872	1311.786667	1865.227539	-152.668518
12408.922872	1311.786667	1864.238281	38.937031
12408.922872	1311.786667	1863.249023	-88.394676
12408.922872	1311.786667	1862.259766	-17.636467
12408.922872	1311.786667	1861.269531	24.115072
12408.922872	1311.786667	1860.279297	5.491323
12408.922872	1311.786667	1859.290039	-66.231804
12408.922872	1311.786667	1858.298828	-166.893021
12408.922872	1311.786667	1857.308594	41.333809
12408.922872	1311.786667	1856.318359	111.968803
12408.922872	1311.786667	1855.327148	20.968569
12408.922872	1311.786667	1854.335938	-48.297714
12408.922872	1311.786667	1853.344727	152.500824
12408.922872	1311.786667	1852.353516	167.600311
12408.922872	1311.786667	1851.362305	-5.306072
12408.922872	1311.786667	1850.370117	-14.290062
12408.922872	1311.786667	1849.377930	41.774857
12408.922872	1311.786667	1848.385742	52.046204
12408.922872	1311.786667	1847.393555	11.731796
12408.922872	1311.786667	1846.401367	31.625872
12408.922872	1311.786667	1845.408203	191.139099
12408.922872	1311.786667	1844.415039	93.035217
12408.922872	1311.786667	1843.421875	26.247625
12408.922872	1311.786667	1842.428711	12.413337
12408.922872	1311.786667	1841.435547	174.191330
12408.922872	1311.786667	1840.441406	121.836990
12408.922872	1311.786667	1839.448242	31.020130
12408.922872	1311.786667	1838.454102	-45.345001
12408.922872	1311.786667	1837.459961	-39.957027
12408.922872	1311.786667	1836.464844	39.925724
12408.922872	1311.786667	1835.470703	88.533676
12408.922872	1311.786667	1834.475586	-7.035373
12408.922872	1311.786667	1833.480469	84.782669
12408.922872	1311.786667	1832.485352	-10.766296
12408.922872	1311.786667	1831.490234	30.577805
12408.922872	1311.786667	1830.495117	28.684896
12408.922872	1311.786667	1829.499023	257.205292
12408.922872	1311.786667	1828.502930	0.874537
12408.922872	1311.786667	1827.506836	-29.831495
12408.922872	1311.786667	1826.510742	-110.912003
12408.922872	1311.786667	1825.513672	91.042084
12408.922872	1311.786667	1824.517578	53.113441
12408.922872	1311.786667	1823.520508	70.331322
12408.922872	1311.786667	1822.523438	51.576347
12408.922872	1311.786667	1821.526367	99.924011
12408.922872	1311.786667	1820.529297	107.507462
12408.922872	1311.786667	1819.531250	-81.372208
12408.922872	1311.786667	1818.533203	-42.640965
12408.922872	1311.786667	1817.535156	-56.621738
12408.922872	1311.786667	1816.537109	68.264412
12408.922872	1311.786667	1815.539063	-43.904556
12408.922872	1311.786667	1814.540039	147.924881
12408.922872	1311.786667	1813.541992	109.943039
12408.922872	1311.786667	1812.542969	-152.937714
12408.922872	1311.786667	1811.543945	10.063283
12408.922872	1311.786667	1810.543945	280.612762
12408.922872	1311.786667	1809.544922	156.502258
12408.922872	1311.786667	1808.544922	140.007797
12408.922872	1311.786667	1807.544922	61.359779
12408.922872	1311.786667	1806.544922	59.203094
12408.922872	1311.786667	1805.544922	71.370613
12408.922872	1311.786667	1804.544922	33.352917
12408.922872	1311.786667	1803.543945	57.435841
12408.922872	1311.786667	1802.542969	224.778091
12408.922872	1311.786667	1801.541992	19.581186
12408.922872	1311.786667	1800.541016	48.386517
12408.922872	1311.786667	1799.539063	-39.781357
12408.922872	1311.786667	1798.538086	-135.087189
12408.922872	1311.786667	1797.536133	65.464096
12408.922872	1311.786667	1796.534180	41.704597
12408.922872	1311.786667	1795.532227	-53.606503
12408.922872	1311.786667	1794.529297	137.233536
12408.922872	1311.786667	1793.527344	-27.223593
12408.922872	1311.786667	1792.524414	70.552704
12408.922872	1311.786667	1791.521484	6.228606
12408.922872	1311.786667	1790.518555	46.748852
12408.922872	1311.786667	1789.514648	30.065632
12408.922872	1311.786667	1788.511719	61.009129
12408.922872	1311.786667	1787.507813	63.349541
12408.922872	1311.786667	1786.503906	34.722874
12408.922872	1311.786667	1785.500000	137.011368
12408.922872	1311.786667	1784.496094	241.626083
12408.922872	1311.786667	1783.491211	46.372181
12408.922872	1311.786667	1782.486328	24.843735
12408.922872	1311.786667	1781.481445	10.443997
12408.922872	1311.786667	1780.476563	-34.881783
12408.922872	1311.786667	1779.471680	121.894165
12408.922872	1311.786667	1778.465820	36.118938
12408.922872	1311.786667	1777.460938	12.157238
12408.922872	1311.786667	1776.455078	47.594421
12408.922872	1311.786667	1775.449219	-64.300995
12408.922872	1311.786667	1774.442383	-28.896317
12408.922872	1311.786667	1773.436523	68.228470
12408.922872	1311.786667	1772.429688	41.824631
12408.922872	1311.786667	1771.422852	119.872177
12408.922872	1311.786667	1770.416016	167.017578
12408.922872	1311.786667	1769.409180	14.784218
12408.922872	1311.786667	1768.402344	0.208710
12408.922872	1311.786667	1767.394531	42.554035
12408.922872	1311.786667	1766.386719	56.405277
12408.922872	1311.786667	1765.378906	157.974350
12408.922872	1311.786667	1764.371094	22.399401
12408.922872	1311.786667	1763.362305	126.272003
12408.922872	1311.786667	1762.354492	147.139954
12408.922872	1311.786667	1761.345703	11.593120
12408.922872	1311.786667	1760.336914	72.714729
12408.922872	1311.786667	1759.328125	-46.219822
12408.922872	1311.786667	1758.318359	-110.659073
12408.922872	1311.786667	1757.308594	-134.839066
12408.922872	1311.786667	1756.299805	42.194176
12408.922872	1311.786667	1755.290039	-55.411076
12408.922872	1311.786667	1754.279297	-13.380921
12408.922872	1311.786667	1753.269531	-16.334229
12408.922872	1311.786667	1752.258789	101.334221
12408.922872	1311.786667	1751.249023	43.931412
12408.922872	1311.786667	1750.238281	83.479500
12408.922872	1311.786667	1749.226563	33.157185
12408.922872	1311.786667	1748.215820	6.476139
12408.922872	1311.786667	1747.204102	-107.652397
12408.922872	1311.786667	1746.193359	2.711530
12408.922872	1311.786667	1745.181641	84.667099
12408.922872	1311.786667	1744.168945	27.222620
12408.922872	1311.786667	1743.157227	9.929963
12408.922872	1311.786667	1742.144531	-5.013629
12408.922872	1311.786667	1741.132813	-31.768135
12408.922872	1311.786667	1740.120117	134.995468
12408.922872	1311.786667	1739.106445	-5.074346
12408.922872	1311.786667	1738.093750	36.551983
12408.922872	1311.786667	1737.080078	-89.324905
12408.922872	1311.786667	1736.067383	-33.580662
12408.922872	1311.786667	1735.053711	97.575043
12408.922872	1311.786667	1734.040039	35.359718
12408.922872	1311.786667	1733.025391	142.848938
12408.922872	1311.786667	1732.011719	78.261436
12408.922872	1311.786667	1730.997070	74.937241
12408.922872	1311.786667	1729.982422	-8.491044
12408.922872	1311.786667	1728.967773	68.246223
12408.922872	1311.786667	1727.952148	-17.536177
12408.922872	1311.786667	1726.937500	75.622337
12408.922872	1311.786667	1725.921875	109.883438
12408.922872	1311.786667	1724.906250	38.217243
12408.922872	1311.786667	1723.890625	11.267897
12408.922872	1311.786667	1722.875000	-41.562622
12408.922872	1311.786667	1721.858398	-2.662711
12408.922872	1311.786667	1720.841797	-74.313675
12408.922872	1311.786667	1719.825195	-101.281502
12408.922872	1311.786667	1718.808594	-116.500137
12408.922872	1311.786667	1717.791992	-105.875702
12408.922872	1311.786667	1716.774414	-41.227314
12408.922872	1311.786667	1715.756836	-87.033943
12408.922872	1311.786667	1714.739258	50.371536
12408.922872	1311.786667	1713.721680	-30.687975
12408.922872	1311.786667	1712.704102	-114.078056
12408.922872	1311.786667	1711.685547	-35.476257
12408.922872	1311.786667	1710.667969	31.349432
12408.922872	1311.786667	1709.649414	32.429974
12408.922872	1311.786667	1708.630859	35.843128
12408.922872	1311.786667	1707.611328	100.227226
12408.922872	1311.786667	1706.592773	16.827562
12408.922872	1311.786667	1705.573242	3.787818
12408.922872	1311.786667	1704.553711	-4.570051
12408.922872	1311.786667	1703.534180	-12.937771
12408.922872	1311.786667	1702.513672	-35.376762
12408.922872	1311.786667	1701.494141	33.559563
12408.922872	1311.786667	1700.473633	27.493790
12408.922872	1311.786667	1699.453125	77.629295
12408.922872	1311.786667	1698.432617	52.801697
12408.922872	1311.786667	1697.412109	20.949175
12408.922872	1311.786667	1696.390625	-6.223627
12408.922872	1311.786667	1695.369141	-45.097763
12408.922872	1311.786667	1694.347656	14.304985
12408.922872	1311.786667	1693.326172	-69.027405
12408.922872	1311.786667	1692.304688	-47.086922
12408.922872	1311.786667	1691.282227	42.648914
12408.922872	1311.786667	1690.260742	76.229950
12408.922872	1311.786667	1689.238281	135.498810
12408.922872	1311.786667	1688.214844	101.248146
12408.922872	1311.786667	1687.192383	-47.493626
12408.922872	1311.786667	1686.168945	9.397816
12408.922872	1311.786667	1685.146484	124.655998
12408.922872	1311.786667	1684.123047	146.445251
12408.922872	1311.786667	1683.099609	175.222046
12408.922872	1311.786667	1682.075195	-52.810516
12408.922872	1311.786667	1681.051758	155.693954
12408.922872	1311.786667	1680.027344	14.077460
12408.922872	1311.786667	1679.002930	89.484512
12408.922872	1311.786667	1677.978516	134.530548
12408.922872	1311.786667	1676.953125	88.594444
12408.922872	1311.786667	1675.928711	215.219910
12408.922872	1311.786667	1674.903320	90.008179
12408.922872	1311.786667	1673.877930	65.063751
12408.922872	1311.786667	1672.852539	72.748192
12408.922872	1311.786667	1671.826172	113.039452
12408.922872	1311.786667	1670.800781	67.121437
12408.922872	1311.786667	1669.774414	112.045067
12408.922872	1311.786667	1668.748047	156.945618
12408.922872	1311.786667	1667.721680	162.245224
12408.922872	1311.786667	1666.694336	67.444260
12408.922872	1311.786667	1665.667969	-1.723009
12408.922872	1311.786667	1664.640625	-82.504044
12408.922872	1311.786667	1663.613281	211.282364
12408.922872	1311.786667	1662.585938	60.705311
12408.922872	1311.786667	1661.557617	184.582565
12408.922872	1311.786667	1660.530273	152.636215
12408.922872	1311.786667	1659.501953	195.081650
12408.922872	1311.786667	1658.473633	249.127960
12408.922872	1311.786667	1657.444336	73.106087
12408.922872	1311.786667	1656.416016	134.118988
12408.922872	1311.786667	1655.386719	148.647705
12408.922872	1311.786667	1654.358398	165.493896
12408.922872	1311.786667	1653.328125	-61.468155
12408.922872	1311.786667	1652.298828	275.758850
12408.922872	1311.786667	1651.269531	190.440491
12408.922872	1311.786667	1650.239258	177.086914
12408.922872	1311.786667	1649.208984	-75.228073
12408.922872	1311.786667	1648.178711	185.186234
12408.922872	1311.786667	1647.148438	104.583481
12408.922872	1311.786667	1646.117188	197.911835
12408.922872	1311.786667	1645.086914	249.478363
12408.922872	1311.786667	1644.055664	273.208435
12408.922872	1311.786667	1643.024414	83.732529
12408.922872	1311.786667	1641.992188	86.632103
12408.922872	1311.786667	1640.960938	270.217621
12408.922872	1311.786667	1639.928711	374.986725
12408.922872	1311.786667	1638.896484	236.582108
12408.922872	1311.786667	1637.864258	213.988388
12408.922872	1311.786667	1636.832031	182.147202
12408.922872	1311.786667	1635.798828	180.402283
12408.922872	1311.786667	1634.766602	391.530365
12408.922872	1311.786667	1633.733398	167.672180
12408.922872	1311.786667	1632.699219	221.445709
12408.922872	1311.786667	1631.666016	298.328308
12408.922872	1311.786667	1630.632813	372.873199
12408.922872	1311.786667	1629.598633	299.451935
12408.922872	1311.786667	1628.564453	491.837006
12408.922872	1311.786667	1627.530273	455.400269
12408.922872	1311.786667	1626.495117	340.432709
12408.922872	1311.786667	1625.460938	431.083527
12408.922872	1311.786667	1624.425781	396.999969
12408.922872	1311.786667	1623.390625	473.759186
12408.922872	1311.786667	1622.355469	365.823334
12408.922872	1311.786667	1621.319336	331.786713
12408.922872	1311.786667	1620.284180	475.447815
12408.922872	1311.786667	1619.248047	522.161499
12408.922872	1311.786667	1618.211914	525.038574
12408.922872	1311.786667	1617.174805	555.592224
12408.922872	1311.786667	1616.138672	505.444702
12408.922872	1311.786667	1615.101563	427.658447
12408.922872	1311.786667	1614.065430	469.761810
12408.922872	1311.786667	1613.027344	412.764343
12408.922872	1311.786667	1611.990234	424.916809
12408.922872	1311.786667	1610.953125	303.473175
12408.922872	1311.786667	1609.915039	380.140564
12408.922872	1311.786667	1608.876953	491.325165
12408.922872	1311.786667	1607.838867	418.307495
12408.922872	1311.786667	1606.800781	294.691315
12408.922872	1311.786667	1605.761719	369.033905
12408.922872	1311.786667	1604.723633	461.765350
12408.922872	1311.786667	1603.684570	501.562042
12408.922872	1311.786667	1602.644531	343.562897
12408.922872	1311.786667	1601.605469	452.369843
12408.922872	1311.786667	1600.566406	443.898102
12408.922872	1311.786667	1599.526367	463.020935
12408.922872	1311.786667	1598.486328	335.071136
12408.922872	1311.786667	1597.446289	450.730133
12408.922872	1311.786667	1596.405273	564.056213
12408.922872	1311.786667	1595.365234	546.439758
12408.922872	1311.786667	1594.324219	453.063232
12408.922872	1311.786667	1593.283203	465.343262
12408.922872	1311.786667	1592.242188	518.948120
12408.922872	1311.786667	1591.200195	416.487915
12408.922872	1311.786667	1590.159180	426.512604
12408.922872	1311.786667	1589.117188	319.549377
12408.922872	1311.786667	1588.075195	526.861633
12408.922872	1311.786667	1587.032227	378.669403
12408.922872	1311.786667	1585.990234	443.771484
12408.922872	1311.786667	1584.947266	355.280273
12408.922872	1311.786667	1583.904297	475.390594
12408.922872	1311.786667	1582.861328	437.366852
12408.922872	1311.786667	1581.818359	545.990051
12408.922872	1311.786667	1580.775391	423.252075
12408.922872	1311.786667	1579.731445	387.594849
12408.922872	1311.786667	1578.687500	388.599854
12408.922872	1311.786667	1577.643555	396.488037
12408.922872	1311.786667	1576.598633	534.839966
12408.922872	1311.786667	1575.554688	469.506866
12408.922872	1311.786667	1574.509766	459.120361
12408.922872	1311.786667	1573.464844	393.859161
12408.922872	1311.786667	1572.419922	417.828369
12408.922872	1311.786667	1571.374023	549.263977
12408.922872	1311.786667	1570.329102	383.493988
12408.922872	1311.786667	1569.283203	519.491150
12408.922872	1311.786667	1568.237305	376.676605
12408.922872	1311.786667	1567.191406	496.665802
12408.922872	1311.786667	1566.144531	479.575165
12408.922872	1311.786667	1565.098633	309.503021
12408.922872	1311.786667	1564.051758	301.626373
12408.922872	1311.786667	1563.004883	298.337463
12408.922872	1311.786667	1561.957031	130.737152
12408.922872	1311.786667	1560.910156	403.633636
12408.922872	1311.786667	1559.862305	366.161499
12408.922872	1311.786667	1558.814453	296.789154
12408.922872	1311.786667	1557.766602	291.320465
12408.922872	1311.786667	1556.718750	308.675537
12408.922872	1311.786667	1555.669922	326.042755
12408.922872	1311.786667	1554.621094	309.235077
12408.922872	1311.786667	1553.573242	365.377533
12408.922872	1311.786667	1552.523438	332.660828
12408.922872	1311.786667	1551.474609	286.312561
12408.922872	1311.786667	1550.424805	358.428558
12408.922872	1311.786667	1549.375000	432.815430
12408.922872	1311.786667	1548.325195	425.238983
12408.922872	1311.786667	1547.275391	485.970306
12408.922872	1311.786667	1546.225586	414.712738
12408.922872	1311.786667	1545.174805	218.368195
12408.922872	1311.786667	1544.124023	188.180115
12408.922872	1311.786667	1543.073242	319.501709
12408.922872	1311.786667	1542.022461	216.587479
12408.922872	1311.786667	1540.970703	184.211060
12408.922872	1311.786667	1539.919922	288.249542
12408.922872	1311.786667	1538.868164	187.743164
12408.922872	1311.786667	1537.815430	137.283905
12408.922872	1311.786667	1536.763672	314.030975
12408.922872	1311.786667	1535.710938	138.700531
12408.922872	1311.786667	1534.659180	251.844711
12408.922872	1311.786667	1533.606445	128.859924
12408.922872	1311.786667	1532.552734	276.054932
12408.922872	1311.786667	1531.500000	373.291382
12408.922872	1311.786667	1530.446289	273.117157
12408.922872	1311.786667	1529.393555	286.431305
12408.922872	1311.786667	1528.338867	249.866608
12408.922872	1311.786667	1527.285156	281.369659
12408.922872	1311.786667	1526.231445	217.666443
12408.922872	1311.786667	1525.176758	226.545990
12408.922872	1311.786667	1524.122070	137.999802
12408.922872	1311.786667	1523.067383	174.132019
12408.922872	1311.786667	1522.012695	244.256195
12408.922872	1311.786667	1520.957031	434.416382
12408.922872	1311.786667	1519.901367	201.076630
12408.922872	1311.786667	1518.845703	239.534393
12408.922872	1311.786667	1517.790039	275.739990
12408.922872	1311.786667	1516.734375	350.430328
12408.922872	1311.786667	1515.677734	255.417587
12408.922872	1311.786667	1514.621094	160.469421
12408.922872	1311.786667	1513.564453	205.813950
12408.922872	1311.786667	1512.507813	246.645111
12408.922872	1311.786667	1511.450195	330.442200
12408.922872	1311.786667	1510.393555	161.068192
12408.922872	1311.786667	1509.335938	190.664230
12408.922872	1311.786667	1508.278320	170.566132
12408.922872	1311.786667	1507.219727	161.798691
12408.922872	1311.786667	1506.162109	112.407326
12408.922872	1311.786667	1505.103516	203.068970
12408.922872	1311.786667	1504.044922	119.877670
12408.922872	1311.786667	1502.986328	81.892555
12408.922872	1311.786667	1501.926758	-26.011858
12408.922872	1311.786667	1500.868164	21.845324
12408.922872	1311.786667	1499.808594	-29.550106
12408.922872	1311.786667	1498.749023	-60.597435
12408.922872	1311.786667	1497.688477	-84.840027
12408.922872	1311.786667	1496.628906	-34.642624
12408.922872	1311.786667	1495.568359	33.595520
12408.922872	1311.786667	1494.507813	16.195219
12408.922872	1311.786667	1493.447266	-41.728741
12408.922872	1311.786667	1492.386719	-27.511269
12408.922872	1311.786667	1491.325195	-89.851341
12408.922872	1311.786667	1490.263672	-37.290573
12408.922872	1311.786667	1489.202148	-11.739568
12408.922872	1311.786667	1488.140625	-139.238327
12408.922872	1311.786667	1487.079102	-16.845900
12408.922872	1311.786667	1486.016602	56.024502
12408.922872	1311.786667	1484.954102	-37.580494
12408.922872	1311.786667	1483.891602	-16.408909
12408.922872	1311.786667	1482.829102	76.744354
12408.922872	1311.786667	1481.765625	75.461800
12408.922872	1311.786667	1480.702148	74.212280
12408.922872	1311.786667	1479.638672	261.772675
12408.922872	1311.786667	1478.575195	294.227997
12408.922872	1311.786667	1477.511719	153.746155
12408.922872	1311.786667	1476.447266	163.854645
12408.922872	1311.786667	1475.382813	164.980179
12408.922872	1311.786667	1474.318359	289.629578
12408.922872	1311.786667	1473.253906	111.252602
12408.922872	1311.786667	1472.189453	139.349701
12408.922872	1311.786667	1471.124023	259.569061
12408.922872	1311.786667	1470.058594	402.069672
12408.922872	1311.786667	1468.993164	410.124969
12408.922872	1311.786667	1467.927734	319.618774
12408.922872	1311.786667	1466.861328	435.266174
12408.922872	1311.786667	1465.794922	476.936066
12408.922872	1311.786667	1464.728516	382.244171
12408.922872	1311.786667	1463.662109	316.161621
12408.922872	1311.786667	1462.594727	463.074585
12408.922872	1311.786667	1461.528320	455.769806
12408.922872	1311.786667	1460.460938	376.690552
12408.922872	1311.786667	1459.393555	386.881256
12408.922872	1311.786667	1458.326172	254.678299
12408.922872	1311.786667	1457.257813	412.250732
12408.922872	1311.786667	1456.189453	298.035461
12408.922872	1311.786667	1455.121094	410.569061
12408.922872	1311.786667	1454.052734	336.186981
12408.922872	1311.786667	1452.984375	307.223114
12408.922872	1311.786667	1451.915039	273.571228
12408.922872	1311.786667	1450.845703	188.186691
12408.922872	1311.786667	1449.776367	301.263245
12408.922872	1311.786667	1448.707031	254.058716
12408.922872	1311.786667	1447.636719	222.436142
12408.922872	1311.786667	1446.567383	277.820618
12408.922872	1311.786667	1445.497070	186.163437
12408.922872	1311.786667	1444.425781	68.425598
12408.922872	1311.786667	1443.355469	128.331802
12408.922872	1311.786667	1442.285156	112.409729
12408.922872	1311.786667	1441.213867	168.128555
12408.922872	1311.786667	1440.142578	170.293915
12408.922872	1311.786667	1439.070313	276.324249
12408.922872	1311.786667	1437.999023	151.928894
12408.922872	1311.786667	1436.926758	348.849579
12408.922872	1311.786667	1435.854492	43.867954
12408.922872	1311.786667	1434.782227	217.106461
12408.922872	1311.786667	1433.709961	275.219330
12408.922872	1311.786667	1432.636719	57.984051
12408.922872	1311.786667	1431.563477	179.114716
12408.922872	1311.786667	1430.490234	87.579987
12408.922872	1311.786667	1429.416992	264.564850
12408.922872	1311.786667	1428.343750	203.018890
12408.922872	1311.786667	1427.269531	279.416992
12408.922872	1311.786667	1426.195313	95.761703
12408.922872	1311.786667	1425.121094	215.535339
12408.922872	1311.786667	1424.046875	161.219254
12408.922872	1311.786667	1422.971680	9.458801
12408.922872	1311.786667	1421.896484	134.680252
12408.922872	1311.786667	1420.821289	142.306351
12408.922872	1311.786667	1419.746094	92.175850
12408.922872	1311.786667	1418.669922	141.443008
12408.922872	1311.786667	1417.594727	91.194534
12408.922872	1311.786667	1416.518555	161.229782
12408.922872	1311.786667	1415.442383	14.257547
12408.922872	1311.786667	1414.365234	239.872620
12408.922872	1311.786667	1413.289063	60.283550
12408.922872	1311.786667	1412.211914	92.705917
12408.922872	1311.786667	1411.134766	145.132584
12408.922872	1311.786667	1410.057617	58.298805
12408.922872	1311.786667	1408.979492	186.220825
12408.922872	1311.786667	1407.902344	213.806702
12408.922872	1311.786667	1406.824219	195.725800
12408.922872	1311.786667	1405.746094	205.674515
12408.922872	1311.786667	1404.666992	229.667252
12408.922872	1311.786667	1403.588867	300.833008
12408.922872	1311.786667	1402.509766	111.115822
12408.922872	1311.786667	1401.430664	222.160660
12408.922872	1311.786667	1400.351563	275.488403
12408.922872	1311.786667	1399.271484	238.553482
12408.922872	1311.786667	1398.192383	297.876770
12408.922872	1311.786667	1397.112305	317.252136
12408.922872	1311.786667	1396.031250	297.142822
12408.922872	1311.786667	1394.951172	383.893341
12408.922872	1311.786667	1393.871094	115.068535
12408.922872	1311.786667	1392.790039	247.107819
12408.922872	1311.786667	1391.708984	214.798080
12408.922872	1311.786667	1390.626953	348.303894
12408.922872	1311.786667	1389.545898	200.602783
12408.922872	1311.786667	1388.463867	390.326355
12408.922872	1311.786667	1387.381836	385.211060
12408.922872	1311.786667	1386.299805	211.039459
12408.922872	1311.786667	1385.217773	221.719604
12408.922872	1311.786667	1384.134766	218.503616
12408.922872	1311.786667	1383.051758	407.304138
12408.922872	1311.786667	1381.968750	350.361694
12408.922872	1311.786667	1380.885742	356.288513
12408.922872	1311.786667	1379.802734	359.414429
12408.922872	1311.786667	1378.718750	313.603973
12408.922872	1311.786667	1377.634766	293.045105
12408.922872	1311.786667	1376.550781	319.068176
12408.922872	1311.786667	1375.465820	168.279495
12408.922872	1311.786667	1374.381836	201.642792
12408.922872	1311.786667	1373.296875	308.598297
12408.922872	1311.786667	1372.211914	165.701065
12408.922872	1311.786667	1371.126953	228.963577
12408.922872	1311.786667	1370.041016	205.973175
12408.922872	1311.786667	1368.955078	240.067505
12408.922872	1311.786667	1367.869141	288.881653
12408.922872	1311.786667	1366.783203	181.332947
12408.922872	1311.786667	1365.697266	235.260025
12408.922872	1311.786667	1364.610352	249.542328
12408.922872	1311.786667	1363.523438	172.280075
12408.922872	1311.786667	1362.436523	236.093246
12408.922872	1311.786667	1361.349609	165.175476
12408.922872	1311.786667	1360.261719	165.186020
12408.922872	1311.786667	1359.174805	211.834656
12408.922872	1311.786667	1358.086914	132.999161
12408.922872	1311.786667	1356.998047	208.324921
12408.922872	1311.786667	1355.910156	283.479614
12408.922872	1311.786667	1354.821289	287.768341
12408.922872	1311.786667	1353.732422	321.101746
12408.922872	1311.786667	1352.643555	326.594910
12408.922872	1311.786667	1351.554688	311.233429
12408.922872	1311.786667	1350.464844	227.243149
12408.922872	1311.786667	1349.375000	289.465271
12408.922872	1311.786667	1348.285156	243.619843
12408.922872	1311.786667	1347.195313	448.830688
12408.922872	1311.786667	1346.105469	273.170349
12408.922872	1311.786667	1345.014648	302.083008
12408.922872	1311.786667	1343.923828	335.281830
12408.922872	1311.786667	1342.833008	427.892120
12408.922872	1311.786667	1341.741211	583.138367
12408.922872	1311.786667	1340.650391	568.400146
12408.922872	1311.786667	1339.558594	398.139313
12408.922872	1311.786667	1338.466797	340.359985
12408.922872	1311.786667	1337.374023	384.685120
12408.922872	1311.786667	1336.282227	397.882935
12408.922872	1311.786667	1335.189453	411.555420
12408.922872	1311.786667	1334.096680	381.721375
12408.922872	1311.786667	1333.003906	320.109589
12408.922872	1311.786667	1331.910156	352.427032
12408.922872	1311.786667	1330.817383	383.536011
12408.922872	1311.786667	1329.723633	381.931305
12408.922872	1311.786667	1328.629883	283.544647
12408.922872	1311.786667	1327.535156	262.057220
12408.922872	1311.786667	1326.441406	240.190094
12408.922872	1311.786667	1325.346680	240.594864
12408.922872	1311.786667	1324.251953	330.743256
12408.922872	1311.786667	1323.156250	340.446411
12408.922872	1311.786667	1322.061523	254.990707
12408.922872	1311.786667	1320.965820	135.040527
12408.922872	1311.786667	1319.870117	164.508011
12408.922872	1311.786667	1318.774414	117.380760
12408.922872	1311.786667	1317.678711	191.999374
12408.922872	1311.786667	1316.582031	130.783417
12408.922872	1311.786667	1315.485352	193.000458
12408.922872	1311.786667	1314.388672	256.969604
12408.922872	1311.786667	1313.291016	254.048950
12408.922872	1311.786667	1312.194336	186.953384
12408.922872	1311.786667	1311.096680	149.654633
12408.922872	1311.786667	1309.999023	78.103310
12408.922872	1311.786667	1308.901367	177.176636
12408.922872	1311.786667	1307.802734	108.738602
12408.922872	1311.786667	1306.705078	57.775005
12408.922872	1311.786667	1305.606445	-88.038727
12408.922872	1311.786667	1304.506836	163.362671
12408.922872	1311.786667	1303.408203	46.345791
12408.922872	1311.786667	1302.308594	136.079788
12408.922872	1311.786667	1301.208984	58.106968
12408.922872	1311.786667	1300.109375	77.204491
12408.922872	1311.786667	1299.009766	128.827713
12408.922872	1311.786667	1297.909180	162.849487
12408.922872	1311.786667	1296.808594	114.103111
12408.922872	1311.786667	1295.708008	139.217789
12408.922872	1311.786667	1294.607422	164.098099
12408.922872	1311.786667	1293.506836	4.332218
12408.922872	1311.786667	1292.405273	-104.450615
12408.922872	1311.786667	1291.303711	-24.629051
12408.922872	1311.786667	1290.202148	99.722496
12408.922872	1311.786667	1289.099609	-17.778435
12408.922872	1311.786667	1287.998047	88.403000
12408.922872	1311.786667	1286.895508	77.514275
12408.922872	1311.786667	1285.792969	26.354464
12408.922872	1311.786667	1284.689453	-17.343645
12408.922872	1311.786667	1283.586914	-30.832850
12408.922872	1311.786667	1282.483398	-6.038468
12408.922872	1311.786667	1281.379883	-91.569176
12408.922872	1311.786667	1280.276367	59.102657
12408.922872	1311.786667	1279.171875	13.124411
12408.922872	1311.786667	1278.067383	58.206238
12408.922872	1311.786667	1276.962891	143.670212
12408.922872	1311.786667	1275.858398	4.367219
12408.922872	1311.786667	1274.753906	-40.778137
12408.922872	1311.786667	1273.648438	-37.809376
12408.922872	1311.786667	1272.542969	36.208256
12408.922872	1311.786667	1271.437500	54.545067
12408.922872	1311.786667	1270.331055	51.918785
12408.922872	1311.786667	1269.225586	36.748375
12408.922872	1311.786667	1268.119141	21.962646
12408.922872	1311.786667	1267.012695	-29.919691
12408.922872	1311.786667	1265.906250	60.735947
12408.922872	1311.786667	1264.798828	-19.448896
12408.922872	1311.786667	1263.691406	-84.013123
12408.922872	1311.786667	1262.583984	-28.825579
12408.922872	1311.786667	1261.476563	-22.937222
12408.922872	1311.786667	1260.368164	-26.687920
12408.922872	1311.786667	1259.260742	68.264107
12408.922872	1311.786667	1258.152344	63.310116
12408.922872	1311.786667	1257.043945	141.686096
12408.922872	1311.786667	1255.934570	-0.557675
12408.922872	1311.786667	1254.825195	106.530121
12408.922872	1311.786667	1253.716797	55.987698
12408.922872	1311.786667	1252.606445	5.677713
12408.922872	1311.786667	1251.497070	15.966652
12408.922872	1311.786667	1250.387695	28.835958
12408.922872	1311.786667	1249.277344	-45.199226
12408.922872	1311.786667	1248.166992	43.042873
12408.922872	1311.786667	1247.055664	3.301520
12408.922872	1311.786667	1245.945313	-5.977518
12408.922872	1311.786667	1244.833984	148.067749
12408.922872	1311.786667	1243.722656	60.951153
12408.922872	1311.786667	1242.611328	68.834618
12408.922872	1311.786667	1241.499023	47.761612
12408.922872	1311.786667	1240.387695	-26.454901
12408.922872	1311.786667	1239.275391	-3.674116
12408.922872	1311.786667	1238.162109	-61.183308
12408.922872	1311.786667	1237.049805	1.793867
12408.922872	1311.786667	1235.936523	15.769312
12408.922872	1311.786667	1234.823242	5.913103
12408.922872	1311.786667	1233.709961	9.278790
12408.922872	1311.786667	1232.596680	60.838383
12408.922872	1311.786667	1231.482422	18.677334
12408.922872	1311.786667	1230.369141	58.911373
12408.922872	1311.786667	1229.253906	14.578913
12408.922872	1311.786667	1228.139648	-8.258673
12408.922872	1311.786667	1227.025391	24.599308
12408.922872	1311.786667	1225.910156	-53.383766
12408.922872	1311.786667	1224.794922	-22.713573
12408.922872	1311.786667	1223.679688	-37.477665
12408.922872	1311.786667	1222.563477	-43.607689
12408.922872	1311.786667	1221.447266	-56.767025
12408.922872	1311.786667	1220.331055	-37.429939
12408.922872	1311.786667	1219.214844	-55.470112
12408.922872	1311.786667	1218.098633	-123.823723
12408.922872	1311.786667	1216.981445	80.014091
12408.922872	1311.786667	1215.864258	0.943457
12408.922872	1311.786667	1214.747070	2.848504
12408.922872	1311.786667	1213.629883	-51.020412
12408.922872	1311.786667	1212.511719	-149.251709
12408.922872	1311.786667	1211.393555	-15.719151
12408.922872	1311.786667	1210.275391	5.078081
12408.922872	1311.786667	1209.157227	-43.872345
12408.922872	1311.786667	1208.038086	-19.914217
12408.922872	1311.786667	1206.918945	-74.765541
12408.922872	1311.786667	1205.799805	-131.521667
12408.922872	1311.786667	1204.680664	83.410553
12408.922872	1311.786667	1203.560547	68.161919
12408.922872	1311.786667	1202.441406	-76.127228
12408.922872	1311.786667	1201.321289	28.626635
12408.922872	1311.786667	1200.200195	15.103542
12408.922872	1311.786667	1199.080078	11.338897
12408.922872	1311.786667	1197.958984	47.118824
12408.922872	1311.786667	1196.837891	-29.755585
12408.922872	1311.786667	1195.716797	-5.253685
12408.922872	1311.786667	1194.594727	37.899834
12408.922872	1311.786667	1193.473633	-28.170706
12408.922872	1311.786667	1192.351563	158.048325
12408.922872	1311.786667	1191.229492	29.709106
12408.922872	1311.786667	1190.106445	74.012238
12408.922872	1311.786667	1188.984375	60.084534
12408.922872	1311.786667	1187.861328	81.877563
12408.922872	1311.786667	1186.738281	36.700291
12408.922872	1311.786667	1185.614258	151.761581
12408.922872	1311.786667	1184.491211	104.134598
12408.922872	1311.786667	1183.367188	81.564804
12408.922872	1311.786667	1182.243164	15.013550
12408.922872	1311.786667	1181.119141	25.820576
12408.922872	1311.786667	1179.994141	-72.006943
12408.922872	1311.786667	1178.869141	-93.873360
12408.922872	1311.786667	1177.744141	-26.511196
12408.922872	1311.786667	1176.619141	-70.806274
12408.922872	1311.786667	1175.493164	-58.502434
12408.922872	1311.786667	1174.368164	-82.000969
12408.922872	1311.786667	1173.242188	48.313587
12408.922872	1311.786667	1172.115234	-42.332806
12408.922872	1311.786667	1170.989258	-14.487391
12408.922872	1311.786667	1169.862305	-130.749115
12408.922872	1311.786667	1168.735352	-30.232677
12408.922872	1311.786667	1167.608398	-42.414742
12408.922872	1311.786667	1166.481445	-42.631325
12408.922872	1311.786667	1165.353516	-58.555500
12408.922872	1311.786667	1164.225586	-6.341022
12408.922872	1311.786667	1163.097656	101.421219
12408.922872	1311.786667	1161.968750	74.674316
12408.922872	1311.786667	1160.840820	-70.040909
12408.922872	1311.786667	1159.711914	-17.702444
12408.922872	1311.786667	1158.583008	-108.884880
12408.922872	1311.786667	1157.453125	-6.272587
12408.922872	1311.786667	1156.324219	7.932150
12408.922872	1311.786667	1155.194336	-28.869797
12408.922872	1311.786667	1154.064453	-13.928772
12408.922872	1311.786667	1152.933594	-42.578579
12408.922872	1311.786667	1151.803711	-16.380806
12408.922872	1311.786667	1150.672852	-8.967364
12408.922872	1311.786667	1149.541992	56.288887
12408.922872	1311.786667	1148.411133	-6.605760
12408.922872	1311.786667	1147.279297	-6.078897
12408.922872	1311.786667	1146.147461	-50.720154
12408.922872	1311.786667	1145.015625	-120.108681
12408.922872	1311.786667	1143.883789	-60.066307
12408.922872	1311.786667	1142.750977	-62.416168
12408.922872	1311.786667	1141.619141	76.898491
12408.922872	1311.786667	1140.486328	38.965816
12408.922872	1311.786667	1139.352539	57.852154
12408.922872	1311.786667	1138.219727	21.219278
12408.922872	1311.786667	1137.085938	95.066437
12408.922872	1311.786667	1135.952148	70.961807
12408.922872	1311.786667	1134.818359	61.645592
12408.922872	1311.786667	1133.683594	63.884918
12408.922872	1311.786667	1132.549805	61.096069
12408.922872	1311.786667	1131.415039	113.707397
12408.922872	1311.786667	1130.279297	76.838959
12408.922872	1311.786667	1129.144531	108.525749
12408.922872	1311.786667	1128.008789	146.275162
12408.922872	1311.786667	1126.873047	155.743347
12408.922872	1311.786667	1125.737305	203.437134
12408.922872	1311.786667	1124.601563	224.041534
12408.922872	1311.786667	1123.464844	200.458389
12408.922872	1311.786667	1122.328125	288.820465
12408.922872	1311.786667	1121.191406	233.720474
12408.922872	1311.786667	1120.054688	264.604736
12408.922872	1311.786667	1118.916992	173.027832
12408.922872	1311.786667	1117.779297	370.976593
12408.922872	1311.786667	1116.641602	255.879227
12408.922872	1311.786667	1115.503906	255.089722
12408.922872	1311.786667	1114.365234	172.957077
12408.922872	1311.786667	1113.226563	188.169830
12408.922872	1311.786667	1112.087891	115.072205
12408.922872	1311.786667	1110.949219	122.701775
12408.922872	1311.786667	1109.809570	69.009102
12408.922872	1311.786667	1108.669922	127.909790
12408.922872	1311.786667	1107.530273	100.022972
12408.922872	1311.786667	1106.390625	74.469246
12408.922872	1311.786667	1105.250000	116.934967
12408.922872	1311.786667	1104.109375	53.346039
12408.922872	1311.786667	1102.968750	66.088699
12408.922872	1311.786667	1101.828125	161.819183
12408.922872	1311.786667	1100.686523	132.464035
12408.922872	1311.786667	1099.544922	192.212906
12408.922872	1311.786667	1098.403320	104.802597
12408.922872	1311.786667	1097.261719	86.943062
12408.922872	1311.786667	1096.120117	244.989288
12408.922872	1311.786667	1094.977539	226.767212
12408.922872	1311.786667	1093.834961	217.231628
12408.922872	1311.786667	1092.691406	174.228958
12408.922872	1311.786667	1091.548828	183.998520
12408.922872	1311.786667	1090.405273	204.515823
12408.922872	1311.786667	1089.261719	101.096573
12408.922872	1311.786667	1088.118164	111.333557
12408.922872	1311.786667	1086.973633	171.471588
12408.922872	1311.786667	1085.829102	205.389374
12408.922872	1311.786667	1084.684570	47.049335
12408.922872	1311.786667	1083.540039	72.752747
12408.922872	1311.786667	1082.395508	148.186630
12408.922872	1311.786667	1081.250000	157.419495
12408.922872	1311.786667	1080.104492	66.275406
12408.922872	1311.786667	1078.958984	11.611806
12408.922872	1311.786667	1077.812500	119.384865
12408.922872	1311.786667	1076.666016	155.684814
12408.922872	1311.786667	1075.519531	104.976990
12408.922872	1311.786667	1074.373047	284.291687
12408.922872	1311.786667	1073.226563	179.086945
12408.922872	1311.786667	1072.079102	199.907242
12408.922872	1311.786667	1070.931641	182.624130
12408.922872	1311.786667	1069.784180	-3.413759
12408.922872	1311.786667	1068.635742	103.522141
12408.922872	1311.786667	1067.487305	-11.055984
12408.922872	1311.786667	1066.338867	136.379730
12408.922872	1311.786667	1065.190430	158.717957
12408.922872	1311.786667	1064.041992	70.142822
12408.922872	1311.786667	1062.892578	78.021004
12408.922872	1311.786667	1061.743164	45.756351
12408.922872	1311.786667	1060.593750	108.935806
12408.922872	1311.786667	1059.443359	229.272705
12408.922872	1311.786667	1058.292969	112.704117
12408.922872	1311.786667	1057.142578	9.505974
12408.922872	1311.786667	1055.992188	85.381409
12408.922872	1311.786667	1054.841797	117.723038
12408.922872	1311.786667	1053.690430	93.762207
12408.922872	1311.786667	1052.539063	138.123077
12408.922872	1311.786667	1051.387695	2.960458
12408.922872	1311.786667	1050.235352	89.569641
12408.922872	1311.786667	1049.083984	114.769783
12408.922872	1311.786667	1047.931641	-11.194752
12408.922872	1311.786667	1046.778320	209.939713
12408.922872	1311.786667	1045.625977	48.992378
12408.922872	1311.786667	1044.472656	118.616745
12408.922872	1311.786667	1043.319336	102.457542
12408.922872	1311.786667	1042.166016	204.015778
12408.922872	1311.786667	1041.012695	99.426743
12408.922872	1311.786667	1039.858398	135.625290
12408.922872	1311.786667	1038.704102	11.098004
12408.922872	1311.786667	1037.549805	54.890808
12408.922872	1311.786667	1036.394531	216.989807
12408.922872	1311.786667	1035.239258	67.349373
12408.922872	1311.786667	1034.083984	22.906561
12408.922872	1311.786667	1032.928711	95.154076
12408.922872	1311.786667	1031.773438	67.406883
12408.922872	1311.786667	1030.617188	-67.125793
12408.922872	1311.786667	1029.460938	-23.574018
12408.922872	1311.786667	1028.304688	113.369865
12408.922872	1311.786667	1027.147461	62.933586
12408.922872	1311.786667	1025.991211	98.490883
12408.922872	1311.786667	1024.833984	32.232033
12408.922872	1311.786667	1023.675781	-12.828297
12408.922872	1311.786667	1022.518555	40.572830
12408.922872	1311.786667	1021.360352	36.777023
12408.922872	1311.786667	1020.202148	62.873043
12408.922872	1311.786667	1019.043945	104.373138
12408.922872	1311.786667	1017.884766	-15.108305
12408.922872	1311.786667	1016.726563	-54.156895
12408.922872	1311.786667	1015.567383	81.359901
12408.922872	1311.786667	1014.407227	13.195512
12408.922872	1311.786667	1013.248047	-43.557388
12408.922872	1311.786667	1012.087891	-4.300506
12408.922872	1311.786667	1010.927734	-51.155933
12408.922872	1311.786667	1009.767578	81.101952
12408.922872	1311.786667	1008.606445	-18.356394
12408.922872	1311.786667	1007.446289	27.222929
12408.922872	1311.786667	1006.285156	54.552879
12408.922872	1311.786667	1005.123047	63.473797
12408.922872	1311.786667	1003.961914	45.131714
12408.922872	1311.786667	1002.799805	40.923134
12408.922872	1311.786667	1001.637695	135.005310
12408.922872	1311.786667	1000.475586	73.749886
12408.922872	1311.786667	999.312500	-1.119548
12408.922872	1311.786667	998.149414	-104.646858
12408.922872	1311.786667	996.986328	32.582539
12408.922872	1311.786667	995.823242	39.084789
12408.922872	1311.786667	994.659180	-108.667992
12408.922872	1311.786667	993.496094	4.394701
12408.922872	1311.786667	992.332031	3.526633
12408.922872	1311.786667	991.166992	11.876740
12408.922872	1311.786667	990.002930	20.156189
12408.922872	1311.786667	988.837891	24.293509
12408.922872	1311.786667	987.672852	-76.188705
12408.922872	1311.786667	986.506836	56.382778
12408.922872	1311.786667	985.341797	-56.119183
12408.922872	1311.786667	984.175781	-27.298849
12408.922872	1311.786667	983.009766	36.792683
12408.922872	1311.786667	981.843750	50.061687
12408.922872	1311.786667	980.676758	64.128624
12408.922872	1311.786667	979.509766	-43.208473
12408.922872	1311.786667	978.342773	-95.927109
12408.922872	1311.786667	977.175781	-88.913483
12408.922872	1311.786667	976.007813	-7.035954
12408.922872	1311.786667	974.839844	-54.543804
12408.922872	1311.786667	973.671875	3.403810
12408.922872	1311.786667	972.503906	13.698025
12408.922872	1311.786667	971.334961	-57.662838
12408.922872	1311.786667	970.166016	-65.231270
12408.922872	1311.786667	968.997070	-19.030672
12408.922872	1311.786667	967.828125	-60.931152
12408.922872	1311.786667	966.658203	-20.464205
12408.922872	1311.786667	965.488281	19.160976
12408.922872	1311.786667	964.318359	14.440016
12408.922872	1311.786667	963.148438	-67.461540
12408.922872	1311.786667	961.977539	25.519020
12408.922872	1311.786667	960.806641	-26.228842
12408.922872	1311.786667	959.635742	0.915009
12408.922872	1311.786667	958.463867	-42.203053
12408.922872	1311.786667	957.292969	55.425930
12408.922872	1311.786667	956.121094	58.697803
12408.922872	1311.786667	954.948242	-65.246323
12408.922872	1311.786667	953.776367	12.075200
12408.922872	1311.786667	952.603516	8.791575
12408.922872	1311.786667	951.430664	-28.537756
12408.922872	1311.786667	950.257813	108.399719
12408.922872	1311.786667	949.084961	118.899910
12408.922872	1311.786667	947.911133	94.247101
12408.922872	1311.786667	946.737305	-124.214073
12408.922872	1311.786667	945.563477	82.490509
12408.922872	1311.786667	944.388672	-53.210358
12408.922872	1311.786667	943.213867	84.078758
12408.922872	1311.786667	942.039063	59.473095
12408.922872	1311.786667	940.864258	74.189949
12408.922872	1311.786667	939.688477	-22.055792
12408.922872	1311.786667	938.513672	122.134224
12408.922872	1311.786667	937.337891	162.325516
12408.922872	1311.786667	936.161133	-61.125511
12408.922872	1311.786667	934.985352	64.494011
12408.922872	1311.786667	933.808594	67.560562
12408.922872	1311.786667	932.631836	-12.477127
12408.922872	1311.786667	931.454102	161.619202
12408.922872	1311.786667	930.277344	90.730423
12408.922872	1311.786667	929.099609	26.897528
12408.922872	1311.786667	927.921875	34.581455
12408.922872	1311.786667	926.743164	153.093689
12408.922872	1311.786667	925.565430	-47.032513
12408.922872	1311.786667	924.386719	76.079735
12408.922872	1311.786667	923.208008	118.345970
12408.922872	1311.786667	922.028320	82.150406
12408.922872	1311.786667	920.849609	96.708992
12408.922872	1311.786667	919.669922	98.379951
12408.922872	1311.786667	919.474609	23.885296
12408.922872	1311.786667	918.309570	91.453758
12408.922872	1311.786667	917.143555	2.208018
12408.922872	1311.786667	915.977539	113.534874
12408.922872	1311.786667	914.810547	102.662712
12408.922872	1311.786667	913.644531	-136.328171
12408.922872	1311.786667	912.477539	50.956486
12408.922872	1311.786667	911.310547	139.116898
12408.922872	1311.786667	910.143555	112.094452
12408.922872	1311.786667	908.975586	66.657043
12408.922872	1311.786667	907.807617	48.851177
12408.922872	1311.786667	906.639648	-37.997471
12408.922872	1311.786667	905.471680	47.748280
12408.922872	1311.786667	904.303711	39.132355
12408.922872	1311.786667	903.134766	2.912361
12408.922872	1311.786667	901.965820	-49.397392
12408.922872	1311.786667	900.796875	-41.920944
12408.922872	1311.786667	899.626953	-36.753265
12408.922872	1311.786667	898.457031	-47.683727
12408.922872	1311.786667	897.287109	171.143112
12408.922872	1311.786667	896.117188	111.916687
12408.922872	1311.786667	894.947266	2.177978
12408.922872	1311.786667	893.776367	-130.485397
12408.922872	1311.786667	892.605469	-67.966301
12408.922872	1311.786667	891.434570	10.585346
12408.922872	1311.786667	890.262695	63.854286
12408.922872	1311.786667	889.091797	-52.690697
12408.922872	1311.786667	887.919922	51.015720
12408.922872	1311.786667	886.748047	-40.268894
12408.922872	1311.786667	885.575195	-78.787071
12408.922872	1311.786667	884.403320	-41.648575
12408.922872	1311.786667	883.230469	-15.993723
12408.922872	1311.786667	882.057617	-54.521458
12408.922872	1311.786667	880.883789	-5.981667
12408.922872	1311.786667	879.710938	-14.737480
12408.922872	1311.786667	878.537109	8.563399
12408.922872	1311.786667	877.362305	160.067398
12408.922872	1311.786667	876.188477	-4.409864
12408.922872	1311.786667	875.013672	135.571274
12408.922872	1311.786667	873.839844	101.577438
12408.922872	1311.786667	872.664063	147.661606
12408.922872	1311.786667	871.489258	127.384026
12408.922872	1311.786667	870.313477	43.074379
12408.922872	1311.786667	869.138672	114.261299
12408.922872	1311.786667	867.962891	18.539106
12408.922872	1311.786667	866.786133	-65.726051
12408.922872	1311.786667	865.610352	-33.434219
12408.922872	1311.786667	864.433594	53.663170
12408.922872	1311.786667	863.256836	1.388296
12408.922872	1311.786667	862.079102	22.199617
12408.922872	1311.786667	860.902344	77.237686
12408.922872	1311.786667	859.724609	40.938007
12408.922872	1311.786667	858.546875	127.880119
12408.922872	1311.786667	857.368164	41.367657
12408.922872	1311.786667	856.190430	98.596413
12408.922872	1311.786667	855.011719	66.842651
12408.922872	1311.786667	853.833008	133.143448
12408.922872	1311.786667	852.654297	-71.892838
12408.922872	1311.786667	851.474609	-42.081272
12408.922872	1311.786667	850.294922	21.890644
12408.922872	1311.786667	849.115234	76.711334
12408.922872	1311.786667	847.935547	69.994034
12408.922872	1311.786667	846.754883	-39.217964
12408.922872	1311.786667	845.575195	-18.606636
12408.922872	1311.786667	844.393555	-18.502947
12408.922872	1311.786667	843.212891	52.147594
12408.922872	1311.786667	842.032227	-91.150291
12408.922872	1311.786667	840.850586	68.194977
12408.922872	1311.786667	839.668945	-86.442497
12408.922872	1311.786667	838.486328	-24.977488
12408.922872	1311.786667	837.304688	66.008743
12408.922872	1311.786667	836.122070	84.201828
12408.922872	1311.786667	834.939453	-36.265808
12408.922872	1311.786667	833.756836	34.180988
12408.922872	1311.786667	832.573242	-36.268120
12408.922872	1311.786667	831.389648	59.112106
12408.922872	1311.786667	830.206055	2.288414
12408.922872	1311.786667	829.022461	145.276855
12408.922872	1311.786667	827.838867	27.144762
12408.922872	1311.786667	826.654297	-29.673136
12408.922872	1311.786667	825.469727	-22.945686
12408.922872	1311.786667	824.284180	-41.187397
12408.922872	1311.786667	823.099609	-66.239059
12408.922872	1311.786667	821.914063	90.120354
12408.922872	1311.786667	820.728516	21.950655
12408.922872	1311.786667	819.542969	-21.269211
12408.922872	1311.786667	818.356445	125.882233
12408.922872	1311.786667	817.169922	69.039040
12408.922872	1311.786667	815.983398	-51.222176
12408.922872	1311.786667	814.796875	-51.409782
12408.922872	1311.786667	813.609375	106.897659
12408.922872	1311.786667	812.422852	34.206234
12408.922872	1311.786667	811.235352	-2.251996
12408.922872	1311.786667	810.046875	42.759216
12408.922872	1311.786667	808.859375	26.650312
12408.922872	1311.786667	807.670898	89.707008
12408.922872	1311.786667	806.482422	-32.725113
12408.922872	1311.786667	805.293945	-30.758896
12408.922872	1311.786667	804.104492	14.145658
12408.922872	1311.786667	802.915039	16.074886
12408.922872	1311.786667	801.725586	94.819756
12408.922872	1311.786667	800.536133	132.852386
12408.922872	1311.786667	799.345703	35.329422
12408.922872	1311.786667	798.155273	-75.716942
12408.922872	1311.786667	796.964844	50.342155
12408.922872	1311.786667	795.774414	58.951973
12408.922872	1311.786667	794.583008	-58.842205
12408.922872	1311.786667	793.392578	10.682371
12408.922872	1311.786667	792.200195	91.444832
12408.922872	1311.786667	791.008789	81.939041
12408.922872	1311.786667	789.816406	4.772655
12408.922872	1311.786667	788.625000	29.078672
12408.922872	1311.786667	787.432617	-0.736953
12408.922872	1311.786667	786.239258	61.844257
12408.922872	1311.786667	785.046875	106.359184
12408.922872	1311.786667	783.853516	117.051598
12408.922872	1311.786667	782.660156	55.653549
12408.922872	1311.786667	781.465820	70.826424
12408.922872	1311.786667	780.272461	45.455334
12408.922872	1311.786667	779.078125	-42.943081
12408.922872	1311.786667	777.883789	-30.053221
12408.922872	1311.786667	776.688477	21.065056
12408.922872	1311.786667	775.494141	-85.312897
12408.922872	1311.786667	774.298828	-11.744748
12408.922872	1311.786667	773.103516	39.293644
12408.922872	1311.786667	771.907227	-100.786423
12408.922872	1311.786667	770.711914	-72.256378
12408.922872	1311.786667	769.515625	-19.035305
12408.922872	1311.786667	768.318359	-62.455784
12408.922872	1311.786667	767.122070	129.973038
12408.922872	1311.786667	765.924805	162.862778
12408.922872	1311.786667	764.727539	49.784538
12408.922872	1311.786667	763.530273	-2.653794
12408.922872	1311.786667	762.333008	189.541901
12408.922872	1311.786667	761.134766	85.458130
12408.922872	1311.786667	759.936523	138.437531
12408.922872	1311.786667	758.738281	184.650497
12408.922872	1311.786667	757.540039	35.738609
12408.922872	1311.786667	756.340820	75.197510
12408.922872	1311.786667	755.141602	15.999293
12408.922872	1311.786667	753.942383	62.137604
12408.922872	1311.786667	752.742188	-75.483276
12408.922872	1311.786667	751.541992	-4.734458
12408.922872	1311.786667	750.341797	-34.813709
12408.922872	1311.786667	749.141602	76.171066
12408.922872	1311.786667	747.941406	25.908831
12408.922872	1311.786667	746.740234	96.515244
12408.922872	1311.786667	745.539063	66.378532
12408.922872	1311.786667	744.337891	110.069016
12408.922872	1311.786667	743.135742	91.094910
12408.922872	1311.786667	741.933594	114.603745
12408.922872	1311.786667	740.731445	46.415855
12408.922872	1311.786667	739.529297	170.487305
12408.922872	1311.786667	738.326172	149.218857
12408.922872	1311.786667	737.124023	270.951599
12408.922872	1311.786667	735.919922	258.576233
12408.922872	1311.786667	734.716797	275.227020
12408.922872	1311.786667	733.513672	303.020508
12408.922872	1311.786667	732.309570	237.017090
12408.922872	1311.786667	731.105469	291.562195
12408.922872	1311.786667	729.900391	288.044769
12408.922872	1311.786667	728.696289	288.976013
12408.922872	1311.786667	727.491211	189.507416
12408.922872	1311.786667	726.286133	119.059105
12408.922872	1311.786667	725.080078	117.748535
12408.922872	1311.786667	723.874023	-15.108067
12408.922872	1311.786667	722.668945	41.531147
12408.922872	1311.786667	721.461914	66.932396
12408.922872	1311.786667	720.255859	-32.456573
12408.922872	1311.786667	719.048828	-60.539673
12408.922872	1311.786667	717.841797	27.178095
12408.922872	1311.786667	716.634766	-27.654770
12408.922872	1311.786667	715.427734	-0.114382
12408.922872	1311.786667	714.219727	0.691512
12408.922872	1311.786667	713.011719	-2.968101
12408.922872	1311.786667	711.803711	22.279894
12408.922872	1311.786667	710.594727	0.793542
12408.922872	1311.786667	709.385742	-125.214767
12408.922872	1311.786667	708.176758	-19.963219
12408.922872	1311.786667	706.967773	-17.020096
12408.922872	1311.786667	705.758789	-91.875061
12408.922872	1311.786667	704.548828	17.702942
12408.922872	1311.786667	703.338867	-139.349518
12408.922872	1311.786667	702.127930	-65.371712
12408.922872	1311.786667	700.917969	-49.171635
12408.922872	1311.786667	699.707031	49.148228
12408.922872	1311.786667	698.496094	-47.908592
12408.922872	1311.786667	697.285156	34.807907
12408.922872	1311.786667	696.073242	-2.330163
12408.922872	1311.786667	694.861328	173.476669
12408.922872	1311.786667	693.649414	116.337875
12408.922872	1311.786667	692.436523	103.553780
12408.922872	1311.786667	691.224609	-13.425126
12408.922872	1311.786667	690.011719	20.338570
12408.922872	1311.786667	688.798828	111.686882
12408.922872	1311.786667	687.584961	8.030939
12408.922872	1311.786667	686.372070	19.580599
12408.922872	1311.786667	685.158203	51.042252
12408.922872	1311.786667	683.943359	168.821762
12408.922872	1311.786667	682.729492	136.021652
12408.922872	1311.786667	681.514648	87.731064
12408.922872	1311.786667	680.299805	63.786247
12408.922872	1311.786667	679.084961	-4.402006
12408.922872	1311.786667	677.869141	13.678932
12408.922872	1311.786667	676.653320	75.963982
12408.922872	1311.786667	675.437500	133.789230
12408.922872	1311.786667	674.221680	134.112854
12408.922872	1311.786667	673.004883	21.725290
12408.922872	1311.786667	671.789063	128.095932
12408.922872	1311.786667	670.571289	13.524964
12408.922872	1311.786667	669.354492	-8.256207
12408.922872	1311.786667	668.136719	38.405376
12408.922872	1311.786667	666.919922	29.851259
12408.922872	1311.786667	665.701172	-7.402152
12408.922872	1311.786667	664.483398	-68.920708
12408.922872	1311.786667	663.264648	138.713150
12408.922872	1311.786667	662.045898	39.673737
12408.922872	1311.786667	660.827148	143.536911
12408.922872	1311.786667	659.608398	106.249176
12408.922872	1311.786667	658.388672	124.071106
12408.922872	1311.786667	657.168945	119.839188
12408.922872	1311.786667	655.949219	18.657122
12408.922872	1311.786667	654.728516	131.178574
12408.922872	1311.786667	653.507813	96.088158
12408.922872	1311.786667	652.287109	85.223999
12408.922872	1311.786667	651.066406	85.363647
12408.922872	1311.786667	649.844727	59.083107
12408.922872	1311.786667	648.623047	17.402493
12408.922872	1311.786667	647.401367	-83.667717
12408.922872	1311.786667	646.179688	-94.521828
12408.922872	1311.786667	644.957031	19.967424
12408.922872	1311.786667	643.734375	46.456909
12408.922872	1311.786667	642.511719	33.362381
12408.922872	1311.786667	641.289063	51.034180
12408.922872	1311.786667	640.065430	-3.816463
12408.922872	1311.786667	638.841797	0.661695
12408.922872	1311.786667	637.618164	-34.400249
12408.922872	1311.786667	636.393555	84.252884
12408.922872	1311.786667	635.168945	66.738960
12408.922872	1311.786667	633.944336	-29.788460
12408.922872	1311.786667	632.719727	-12.169944
12408.922872	1311.786667	631.494141	97.581123
12408.922872	1311.786667	630.269531	62.512772
12408.922872	1311.786667	629.042969	42.804070
12408.922872	1311.786667	627.817383	18.715914
12408.922872	1311.786667	626.590820	-57.976963
12408.922872	1311.786667	625.365234	-128.064880
12408.922872	1311.786667	624.137695	45.091164
12408.922872	1311.786667	622.911133	-14.041842
12408.922872	1311.786667	621.683594	-24.967976
12408.922872	1311.786667	620.456055	-7.425278
12408.922872	1311.786667	619.228516	-35.867096
12408.922872	1311.786667	618.000977	-62.109570
12408.922872	1311.786667	616.772461	40.770939
12408.922872	1311.786667	615.543945	-16.111065
12408.922872	1311.786667	614.314453	-11.722573
12408.922872	1311.786667	613.085938	-11.709351
12408.922872	1311.786667	611.856445	73.576866
12408.922872	1311.786667	610.626953	38.593861
12408.922872	1311.786667	609.397461	71.379013
12408.922872	1311.786667	608.166992	-11.661618
12408.922872	1311.786667	606.936523	-94.666443
12408.922872	1311.786667	605.706055	36.416077
12408.922872	1311.786667	604.474609	38.603348
12408.922872	1311.786667	603.244141	25.509356
12408.922872	1311.786667	602.012695	18.970375
12408.922872	1311.786667	600.780273	-120.687622
12408.922872	1311.786667	599.548828	25.543383
12408.922872	1311.786667	598.316406	110.633957
12408.922872	1311.786667	597.083984	-0.593887
12408.922872	1311.786667	595.851563	-31.093479
12408.922872	1311.786667	594.618164	256.705811
12408.922872	1311.786667	593.384766	71.422882
12408.922872	1311.786667	592.151367	60.550186
12408.922872	1311.786667	590.917969	149.902924
12408.922872	1311.786667	589.683594	213.084000
12408.922872	1311.786667	588.449219	62.827972
12408.922872	1311.786667	587.214844	69.402702
12408.922872	1311.786667	585.979492	21.559509
12408.922872	1311.786667	584.745117	-28.432945
12408.922872	1311.786667	583.509766	-41.409679
12408.922872	1311.786667	582.273438	36.990425
12408.922872	1311.786667	581.038086	-30.354641
12408.922872	1311.786667	579.801758	6.708905
12408.922872	1311.786667	578.565430	-86.676208
12408.922872	1311.786667	577.329102	13.430207
12408.922872	1311.786667	576.091797	-3.845491
12408.922872	1311.786667	574.854492	-49.349373
12408.922872	1311.786667	573.617188	22.469584
12408.922872	1311.786667	572.378906	178.960892
12408.922872	1311.786667	571.141602	172.553665
12408.922872	1311.786667	569.903320	35.912525
12408.922872	1311.786667	568.664063	72.960564
12408.922872	1311.786667	567.425781	-26.695900
12408.922872	1311.786667	566.186523	21.215191
12408.922872	1311.786667	564.947266	88.635269
12408.922872	1311.786667	563.708008	69.299416
12408.922872	1311.786667	562.467773	10.958027
12408.922872	1311.786667	561.227539	141.223892
12408.922872	1311.786667	559.987305	26.569872
12408.922872	1311.786667	558.747070	119.966339
12408.922872	1311.786667	557.505859	111.526031
12408.922872	1311.786667	556.264648	85.774757
12408.922872	1311.786667	555.023438	90.358673
12408.922872	1311.786667	553.781250	-26.273542
12408.922872	1311.786667	552.539063	-2.166932
12408.922872	1311.786667	551.296875	41.414970
12408.922872	1311.786667	550.054688	0.619753
12408.922872	1311.786667	548.811523	-35.820694
12408.922872	1311.786667	547.569336	5.613612
12408.922872	1311.786667	546.325195	8.126410
12408.922872	1311.786667	545.082031	-13.125491
12408.922872	1311.786667	543.837891	34.796188
12408.922872	1311.786667	542.593750	30.856028
12408.922872	1311.786667	541.349609	104.693733
12408.922872	1311.786667	540.105469	100.765907
12408.922872	1311.786667	538.860352	114.125244
12408.922872	1311.786667	537.615234	92.952049
12408.922872	1311.786667	536.369141	80.432800
12408.922872	1311.786667	535.124023	44.197052
12408.922872	1311.786667	533.877930	-50.258743
12408.922872	1311.786667	532.631836	30.043980
12408.922872	1311.786667	531.384766	-81.594536
12408.922872	1311.786667	530.138672	-14.229460
12408.922872	1311.786667	528.891602	-46.032749
12408.922872	1311.786667	527.643555	12.700142
12408.922872	1311.786667	526.396484	-42.770622
12408.922872	1311.786667	525.148438	0.883013
12408.922872	1311.786667	523.900391	115.598915
12408.922872	1311.786667	522.652344	4.196767
12408.922872	1311.786667	521.403320	-122.215103
12408.922872	1311.786667	520.154297	-61.316109
12408.922872	1311.786667	518.905273	-174.725067
12408.922872	1311.786667	517.656250	-6.252255
12408.922872	1311.786667	516.406250	35.258968
12408.922872	1311.786667	515.156250	-0.650208
12408.922872	1311.786667	513.906250	107.512154
12408.922872	1311.786667	512.655273	39.382130
12408.922872	1311.786667	511.404297	31.463732
12408.922872	1311.786667	510.153320	4.222463
12408.922872	1311.786667	508.902344	52.184853
12408.922872	1311.786667	507.650391	-101.740112
12408.922872	1311.786667	506.398438	-60.198948
12408.922872	1311.786667	505.146484	22.120462
12408.922872	1311.786667	503.893555	-30.800190
12408.922872	1311.786667	502.641602	-6.442163
12408.922872	1311.786667	501.388672	39.365345
12408.922872	1311.786667	500.134766	123.766884
12408.922872	1311.786667	498.881836	49.454426
12408.922872	1311.786667	497.627930	-39.827538
12408.922872	1311.786667	496.374023	-24.036791
12408.922872	1311.786667	495.119141	-93.968147
12408.922872	1311.786667	493.865234	43.961346
12408.922872	1311.786667	492.610352	12.610361
12408.922872	1311.786667	491.355469	-12.299328
12408.922872	1311.786667	490.099609	24.897335
12408.922872	1311.786667	488.843750	171.254578
12408.922872	1311.786667	487.587891	71.422516
12408.922872	1311.786667	486.332031	151.374008
12408.922872	1311.786667	485.075195	145.717346
12408.922872	1311.786667	483.818359	39.535912
12408.922872	1311.786667	482.561523	-2.451433
12408.922872	1311.786667	481.304688	0.472656
12408.922872	1311.786667	480.046875	-37.221359
12408.922872	1311.786667	478.789063	93.918922
12408.922872	1311.786667	477.531250	109.622475
12408.922872	1311.786667	476.272461	133.855728
12408.922872	1311.786667	475.013672	177.290237
12408.922872	1311.786667	473.754883	101.127022
12408.922872	1311.786667	472.496094	-21.977859
12408.922872	1311.786667	471.236328	123.872520
12408.922872	1311.786667	469.976563	128.816864
12408.922872	1311.786667	468.716797	146.544327
12408.922872	1311.786667	467.456055	189.841797
12408.922872	1311.786667	466.196289	68.908821
12408.922872	1311.786667	464.935547	156.939072
12408.922872	1311.786667	463.673828	157.519424
12408.922872	1311.786667	462.413086	145.292236
12408.922872	1311.786667	461.151367	233.182419
12408.922872	1311.786667	459.889648	338.050598
12408.922872	1311.786667	458.626953	151.086105
12408.922872	1311.786667	457.364258	164.316452
12408.922872	1311.786667	456.101563	311.620331
12408.922872	1311.786667	454.838867	188.539917
12408.922872	1311.786667	453.575195	182.506897
12408.922872	1311.786667	452.312500	104.112305
12408.922872	1311.786667	451.047852	251.161499
12408.922872	1311.786667	449.784180	302.419464
12408.922872	1311.786667	448.519531	321.723694
12408.922872	1311.786667	447.254883	298.465820
12408.922872	1311.786667	445.990234	196.545532
12408.922872	1311.786667	444.725586	300.705292
12408.922872	1311.786667	443.459961	190.232513
12408.922872	1311.786667	442.194336	219.916229
12408.922872	1311.786667	440.927734	221.929382
12408.922872	1311.786667	439.662109	272.707886
12408.922872	1311.786667	438.395508	202.433411
12408.922872	1311.786667	437.127930	261.556396
12408.922872	1311.786667	435.861328	214.521118
12408.922872	1311.786667	434.593750	373.165009
12408.922872	1311.786667	433.326172	270.854095
12408.922872	1311.786667	432.058594	308.432220
12408.922872	1311.786667	430.790039	242.059769
12408.922872	1311.786667	429.521484	349.399536
12408.922872	1311.786667	428.252930	291.358215
12408.922872	1311.786667	426.984375	445.071350
12408.922872	1311.786667	425.714844	295.796936
12408.922872	1311.786667	424.445313	423.852539
12408.922872	1311.786667	423.174805	200.369812
12408.922872	1311.786667	421.905273	201.216034
12408.922872	1311.786667	420.634766	309.865601
12408.922872	1311.786667	419.364258	221.629730
12408.922872	1311.786667	418.092773	296.170258
12408.922872	1311.786667	416.822266	226.781448
12408.922872	1311.786667	415.550781	326.425079
12408.922872	1311.786667	414.278320	356.153198
12408.922872	1311.786667	413.006836	423.780884
12408.922872	1311.786667	411.734375	372.938507
12408.922872	1311.786667	410.461914	153.009094
12408.922872	1311.786667	409.188477	275.134125
12408.922872	1311.786667	407.916016	420.289856
12408.922872	1311.786667	406.642578	284.494598
12408.922872	1311.786667	405.368164	190.809982
12408.922872	1311.786667	404.094727	263.694550
12408.922872	1311.786667	402.820313	203.487930
12408.922872	1311.786667	401.545898	172.666992
12408.922872	1311.786667	400.270508	289.281433
12408.922872	1311.786667	398.996094	306.593140
12408.922872	1311.786667	397.720703	186.717651
12408.922872	1311.786667	396.444336	176.275436
12408.922872	1311.786667	395.168945	268.877045
12408.922872	1311.786667	393.892578	314.899567
12408.922872	1311.786667	392.616211	301.737091
12408.922872	1311.786667	391.339844	279.949951
12408.922872	1311.786667	390.062500	203.226013
12408.922872	1311.786667	388.785156	187.342728
12408.922872	1311.786667	387.507813	236.461197
12408.922872	1311.786667	386.229492	316.872864
12408.922872	1311.786667	384.951172	293.960876
12408.922872	1311.786667	383.672852	281.325897
12408.922872	1311.786667	382.394531	327.303406
12408.922872	1311.786667	381.115234	259.506348
12408.922872	1311.786667	379.835938	302.836639
12408.922872	1311.786667	378.556641	156.808075
12408.922872	1311.786667	377.277344	56.769314
12408.922872	1311.786667	375.997070	197.960876
12408.922872	1311.786667	374.716797	265.318665
12408.922872	1311.786667	373.435547	204.303696
12408.922872	1311.786667	372.155273	172.391388
12408.922872	1311.786667	370.874023	167.442078
12408.922872	1311.786667	369.591797	53.089520
12408.922872	1311.786667	368.310547	146.073349
12408.922872	1311.786667	367.028320	121.255440
12408.922872	1311.786667	365.746094	117.060173
12408.922872	1311.786667	364.463867	120.891487
12408.922872	1311.786667	363.180664	147.393250
12408.922872	1311.786667	361.897461	-8.740779
12408.922872	1311.786667	360.614258	-52.096371
12408.922872	1311.786667	359.330078	38.172165
12408.922872	1311.786667	358.045898	148.932785
12408.922872	1311.786667	356.761719	152.490372
12408.922872	1311.786667	355.477539	48.905525
12408.922872	1311.786667	354.192383	154.129944
12408.922872	1311.786667	352.907227	43.430630
12408.922872	1311.786667	351.622070	164.446274
12408.922872	1311.786667	350.336914	186.684128
12408.922872	1311.786667	349.050781	185.434647
12408.922872	1311.786667	347.764648	64.584167
12408.922872	1311.786667	346.477539	154.301956
12408.922872	1311.786667	345.191406	34.601524
12408.922872	1311.786667	343.904297	12.578669
12408.922872	1311.786667	342.616211	42.223259
12408.922872	1311.786667	341.329102	40.017365
12408.922872	1311.786667	340.041016	83.161789
12408.922872	1311.786667	338.752930	61.040295
12408.922872	1311.786667	337.463867	17.475290
12408.922872	1311.786667	336.175781	58.872326
12408.922872	1311.786667	334.886719	60.015469
12408.922872	1311.786667	333.596680	-60.390106
12408.922872	1311.786667	332.307617	-35.447498
12408.922872	1311.786667	331.017578	95.104988
12408.922872	1311.786667	329.727539	37.440872
12408.922872	1311.786667	328.436523	6.195279
12408.922872	1311.786667	327.146484	-77.758705
12408.922872	1311.786667	325.855469	-162.389709
12408.922872	1311.786667	324.563477	-52.042057
12408.922872	1311.786667	323.272461	-25.689310
12408.922872	1311.786667	321.980469	6.135548
12408.922872	1311.786667	320.688477	-133.385117
12408.922872	1311.786667	319.395508	-61.496933
12408.922872	1311.786667	318.103516	-61.095734
12408.922872	1311.786667	316.810547	-109.330734
12408.922872	1311.786667	315.516602	-56.541668
12408.922872	1311.786667	314.223633	-4.579998
12408.922872	1311.786667	312.929688	23.634142
12408.922872	1311.786667	311.635742	-23.800882
12408.922872	1311.786667	310.340820	29.630394
12408.922872	1311.786667	309.045898	254.461166
12408.922872	1311.786667	307.750977	139.940933
12408.922872	1311.786667	306.456055	138.676788
12408.922872	1311.786667	305.160156	32.693184
12408.922872	1311.786667	303.865234	21.238550
12408.922872	1311.786667	302.568359	118.654976
12408.922872	1311.786667	301.272461	-23.389278
12408.922872	1311.786667	299.975586	34.649422
12408.922872	1311.786667	298.678711	199.389801
