#X		#Y		#Wave		#Intensity
11799.162234	1417.915000	1999.980469	-107.149948
11799.162234	1417.915000	1999.016602	-49.041748
11799.162234	1417.915000	1998.052734	54.113579
11799.162234	1417.915000	1997.087891	-185.302887
11799.162234	1417.915000	1996.123047	-51.047440
11799.162234	1417.915000	1995.158203	-135.364914
11799.162234	1417.915000	1994.193359	-143.385208
11799.162234	1417.915000	1993.228516	85.823540
11799.162234	1417.915000	1992.262695	-89.092537
11799.162234	1417.915000	1991.297852	-143.123535
11799.162234	1417.915000	1990.332031	-153.037140
11799.162234	1417.915000	1989.366211	69.209946
11799.162234	1417.915000	1988.399414	137.562805
11799.162234	1417.915000	1987.433594	-36.933380
11799.162234	1417.915000	1986.466797	-132.625076
11799.162234	1417.915000	1985.500977	35.899303
11799.162234	1417.915000	1984.534180	129.822891
11799.162234	1417.915000	1983.567383	178.858017
11799.162234	1417.915000	1982.599609	99.020164
11799.162234	1417.915000	1981.632813	75.700462
11799.162234	1417.915000	1980.665039	108.880424
11799.162234	1417.915000	1979.697266	97.274887
11799.162234	1417.915000	1978.729492	-8.467934
11799.162234	1417.915000	1977.761719	285.505066
11799.162234	1417.915000	1976.792969	179.189957
11799.162234	1417.915000	1975.825195	72.643806
11799.162234	1417.915000	1974.856445	17.693743
11799.162234	1417.915000	1973.887695	164.816284
11799.162234	1417.915000	1972.918945	101.977646
11799.162234	1417.915000	1971.949219	-64.652130
11799.162234	1417.915000	1970.980469	-63.768936
11799.162234	1417.915000	1970.010742	87.281418
11799.162234	1417.915000	1969.041016	247.931198
11799.162234	1417.915000	1968.071289	100.281830
11799.162234	1417.915000	1967.101563	161.934021
11799.162234	1417.915000	1966.130859	95.283440
11799.162234	1417.915000	1965.161133	65.437607
11799.162234	1417.915000	1964.190430	151.178101
11799.162234	1417.915000	1963.219727	123.479164
11799.162234	1417.915000	1962.249023	139.955200
11799.162234	1417.915000	1961.277344	220.274582
11799.162234	1417.915000	1960.306641	24.839870
11799.162234	1417.915000	1959.334961	80.296959
11799.162234	1417.915000	1958.363281	-95.601280
11799.162234	1417.915000	1957.391602	-20.690065
11799.162234	1417.915000	1956.419922	36.880249
11799.162234	1417.915000	1955.447266	-26.132816
11799.162234	1417.915000	1954.474609	48.435966
11799.162234	1417.915000	1953.501953	179.417694
11799.162234	1417.915000	1952.529297	339.759979
11799.162234	1417.915000	1951.556641	-50.302586
11799.162234	1417.915000	1950.583984	95.153343
11799.162234	1417.915000	1949.610352	-14.898803
11799.162234	1417.915000	1948.636719	179.485504
11799.162234	1417.915000	1947.663086	84.088539
11799.162234	1417.915000	1946.689453	-26.040457
11799.162234	1417.915000	1945.715820	126.396606
11799.162234	1417.915000	1944.741211	133.989883
11799.162234	1417.915000	1943.767578	75.330177
11799.162234	1417.915000	1942.792969	188.337646
11799.162234	1417.915000	1941.818359	137.000504
11799.162234	1417.915000	1940.842773	48.889740
11799.162234	1417.915000	1939.868164	-68.604446
11799.162234	1417.915000	1938.892578	-29.223690
11799.162234	1417.915000	1937.916992	12.592032
11799.162234	1417.915000	1936.941406	51.945732
11799.162234	1417.915000	1935.965820	-163.433731
11799.162234	1417.915000	1934.990234	-11.398188
11799.162234	1417.915000	1934.013672	-79.764229
11799.162234	1417.915000	1933.037109	45.298016
11799.162234	1417.915000	1932.060547	-35.252113
11799.162234	1417.915000	1931.083984	-208.734222
11799.162234	1417.915000	1930.107422	-54.287350
11799.162234	1417.915000	1929.129883	337.397430
11799.162234	1417.915000	1928.153320	-4.716315
11799.162234	1417.915000	1927.175781	120.356796
11799.162234	1417.915000	1926.198242	-16.163225
11799.162234	1417.915000	1925.219727	3.835513
11799.162234	1417.915000	1924.242188	121.627853
11799.162234	1417.915000	1923.263672	127.021820
11799.162234	1417.915000	1922.285156	-31.212341
11799.162234	1417.915000	1921.306641	-11.039365
11799.162234	1417.915000	1920.328125	-17.684313
11799.162234	1417.915000	1919.349609	63.622761
11799.162234	1417.915000	1918.370117	-165.068115
11799.162234	1417.915000	1917.391602	-29.957619
11799.162234	1417.915000	1916.412109	124.677391
11799.162234	1417.915000	1915.431641	208.559326
11799.162234	1417.915000	1914.452148	-49.019981
11799.162234	1417.915000	1913.472656	78.891037
11799.162234	1417.915000	1912.492188	28.815411
11799.162234	1417.915000	1911.511719	-35.803463
11799.162234	1417.915000	1910.531250	-119.830696
11799.162234	1417.915000	1909.550781	-96.530907
11799.162234	1417.915000	1908.569336	43.778076
11799.162234	1417.915000	1907.588867	57.432953
11799.162234	1417.915000	1906.607422	-16.532549
11799.162234	1417.915000	1905.625977	65.451538
11799.162234	1417.915000	1904.644531	40.350201
11799.162234	1417.915000	1903.662109	161.381241
11799.162234	1417.915000	1902.680664	-114.263260
11799.162234	1417.915000	1901.698242	133.433685
11799.162234	1417.915000	1900.715820	167.017426
11799.162234	1417.915000	1899.733398	-25.551809
11799.162234	1417.915000	1898.750000	-96.379395
11799.162234	1417.915000	1897.767578	-125.766052
11799.162234	1417.915000	1896.784180	-26.223145
11799.162234	1417.915000	1895.800781	5.301288
11799.162234	1417.915000	1894.817383	-108.920303
11799.162234	1417.915000	1893.833984	24.806334
11799.162234	1417.915000	1892.850586	-33.352901
11799.162234	1417.915000	1891.866211	-6.410015
11799.162234	1417.915000	1890.881836	-74.108154
11799.162234	1417.915000	1889.897461	-110.142921
11799.162234	1417.915000	1888.913086	-48.992184
11799.162234	1417.915000	1887.927734	-191.659073
11799.162234	1417.915000	1886.943359	66.179871
11799.162234	1417.915000	1885.958008	-95.716087
11799.162234	1417.915000	1884.972656	-97.388206
11799.162234	1417.915000	1883.987305	-249.347321
11799.162234	1417.915000	1883.001953	-68.992966
11799.162234	1417.915000	1882.015625	-85.001442
11799.162234	1417.915000	1881.029297	-50.033623
11799.162234	1417.915000	1880.042969	-63.475502
11799.162234	1417.915000	1879.056641	-30.808826
11799.162234	1417.915000	1878.070313	64.897224
11799.162234	1417.915000	1877.083984	-18.590641
11799.162234	1417.915000	1876.096680	-97.140427
11799.162234	1417.915000	1875.109375	-105.383369
11799.162234	1417.915000	1874.122070	51.044296
11799.162234	1417.915000	1873.134766	-66.002464
11799.162234	1417.915000	1872.146484	-13.562931
11799.162234	1417.915000	1871.159180	-69.947357
11799.162234	1417.915000	1870.170898	-56.104359
11799.162234	1417.915000	1869.182617	-18.024643
11799.162234	1417.915000	1868.194336	-69.361710
11799.162234	1417.915000	1867.205078	-74.692276
11799.162234	1417.915000	1866.216797	-142.804886
11799.162234	1417.915000	1865.227539	-128.675034
11799.162234	1417.915000	1864.238281	-3.357343
11799.162234	1417.915000	1863.249023	68.823662
11799.162234	1417.915000	1862.259766	44.420399
11799.162234	1417.915000	1861.269531	-199.663712
11799.162234	1417.915000	1860.279297	-132.166199
11799.162234	1417.915000	1859.290039	-96.025017
11799.162234	1417.915000	1858.298828	5.307465
11799.162234	1417.915000	1857.308594	55.977600
11799.162234	1417.915000	1856.318359	-13.951506
11799.162234	1417.915000	1855.327148	-122.405365
11799.162234	1417.915000	1854.335938	-8.914400
11799.162234	1417.915000	1853.344727	-40.092869
11799.162234	1417.915000	1852.353516	-30.240589
11799.162234	1417.915000	1851.362305	35.078438
11799.162234	1417.915000	1850.370117	4.018410
11799.162234	1417.915000	1849.377930	-2.904974
11799.162234	1417.915000	1848.385742	-130.234756
11799.162234	1417.915000	1847.393555	-76.857719
11799.162234	1417.915000	1846.401367	46.357868
11799.162234	1417.915000	1845.408203	-20.636328
11799.162234	1417.915000	1844.415039	30.364622
11799.162234	1417.915000	1843.421875	100.622818
11799.162234	1417.915000	1842.428711	223.811462
11799.162234	1417.915000	1841.435547	96.785431
11799.162234	1417.915000	1840.441406	193.511581
11799.162234	1417.915000	1839.448242	37.720341
11799.162234	1417.915000	1838.454102	273.904663
11799.162234	1417.915000	1837.459961	139.822037
11799.162234	1417.915000	1836.464844	248.545792
11799.162234	1417.915000	1835.470703	321.195862
11799.162234	1417.915000	1834.475586	62.283882
11799.162234	1417.915000	1833.480469	120.547691
11799.162234	1417.915000	1832.485352	13.086267
11799.162234	1417.915000	1831.490234	-24.697723
11799.162234	1417.915000	1830.495117	194.410889
11799.162234	1417.915000	1829.499023	262.223785
11799.162234	1417.915000	1828.502930	212.421188
11799.162234	1417.915000	1827.506836	265.807098
11799.162234	1417.915000	1826.510742	129.658264
11799.162234	1417.915000	1825.513672	401.288269
11799.162234	1417.915000	1824.517578	42.142212
11799.162234	1417.915000	1823.520508	253.734665
11799.162234	1417.915000	1822.523438	323.810333
11799.162234	1417.915000	1821.526367	307.569733
11799.162234	1417.915000	1820.529297	205.061096
11799.162234	1417.915000	1819.531250	116.949585
11799.162234	1417.915000	1818.533203	333.055115
11799.162234	1417.915000	1817.535156	132.363449
11799.162234	1417.915000	1816.537109	214.263596
11799.162234	1417.915000	1815.539063	59.114380
11799.162234	1417.915000	1814.540039	42.822090
11799.162234	1417.915000	1813.541992	138.983521
11799.162234	1417.915000	1812.542969	208.764389
11799.162234	1417.915000	1811.543945	84.732841
11799.162234	1417.915000	1810.543945	56.384968
11799.162234	1417.915000	1809.544922	190.618561
11799.162234	1417.915000	1808.544922	80.914612
11799.162234	1417.915000	1807.544922	-21.610756
11799.162234	1417.915000	1806.544922	76.615219
11799.162234	1417.915000	1805.544922	136.537354
11799.162234	1417.915000	1804.544922	215.511627
11799.162234	1417.915000	1803.543945	108.114029
11799.162234	1417.915000	1802.542969	136.833984
11799.162234	1417.915000	1801.541992	141.626114
11799.162234	1417.915000	1800.541016	215.599396
11799.162234	1417.915000	1799.539063	361.100189
11799.162234	1417.915000	1798.538086	248.787018
11799.162234	1417.915000	1797.536133	262.914551
11799.162234	1417.915000	1796.534180	210.199112
11799.162234	1417.915000	1795.532227	226.614944
11799.162234	1417.915000	1794.529297	145.209427
11799.162234	1417.915000	1793.527344	144.838882
11799.162234	1417.915000	1792.524414	225.451935
11799.162234	1417.915000	1791.521484	217.805222
11799.162234	1417.915000	1790.518555	255.374054
11799.162234	1417.915000	1789.514648	381.009338
11799.162234	1417.915000	1788.511719	208.825806
11799.162234	1417.915000	1787.507813	286.676880
11799.162234	1417.915000	1786.503906	193.017822
11799.162234	1417.915000	1785.500000	125.515419
11799.162234	1417.915000	1784.496094	188.868698
11799.162234	1417.915000	1783.491211	180.747635
11799.162234	1417.915000	1782.486328	174.940811
11799.162234	1417.915000	1781.481445	240.425629
11799.162234	1417.915000	1780.476563	320.084778
11799.162234	1417.915000	1779.471680	45.374241
11799.162234	1417.915000	1778.465820	210.475449
11799.162234	1417.915000	1777.460938	292.258606
11799.162234	1417.915000	1776.455078	345.418732
11799.162234	1417.915000	1775.449219	213.168777
11799.162234	1417.915000	1774.442383	194.909714
11799.162234	1417.915000	1773.436523	148.083679
11799.162234	1417.915000	1772.429688	265.035553
11799.162234	1417.915000	1771.422852	355.750183
11799.162234	1417.915000	1770.416016	230.353561
11799.162234	1417.915000	1769.409180	422.925903
11799.162234	1417.915000	1768.402344	74.369644
11799.162234	1417.915000	1767.394531	207.425201
11799.162234	1417.915000	1766.386719	219.385513
11799.162234	1417.915000	1765.378906	217.030014
11799.162234	1417.915000	1764.371094	273.861847
11799.162234	1417.915000	1763.362305	86.428780
11799.162234	1417.915000	1762.354492	60.142651
11799.162234	1417.915000	1761.345703	206.752121
11799.162234	1417.915000	1760.336914	61.819229
11799.162234	1417.915000	1759.328125	-83.145950
11799.162234	1417.915000	1758.318359	1.563231
11799.162234	1417.915000	1757.308594	187.963242
11799.162234	1417.915000	1756.299805	-101.618515
11799.162234	1417.915000	1755.290039	82.179955
11799.162234	1417.915000	1754.279297	116.730873
11799.162234	1417.915000	1753.269531	217.425293
11799.162234	1417.915000	1752.258789	57.781029
11799.162234	1417.915000	1751.249023	189.005951
11799.162234	1417.915000	1750.238281	-74.802383
11799.162234	1417.915000	1749.226563	4.188299
11799.162234	1417.915000	1748.215820	47.602470
11799.162234	1417.915000	1747.204102	159.433716
11799.162234	1417.915000	1746.193359	72.655548
11799.162234	1417.915000	1745.181641	-80.336433
11799.162234	1417.915000	1744.168945	21.710052
11799.162234	1417.915000	1743.157227	251.142181
11799.162234	1417.915000	1742.144531	5.825758
11799.162234	1417.915000	1741.132813	86.262672
11799.162234	1417.915000	1740.120117	-1.001902
11799.162234	1417.915000	1739.106445	171.220932
11799.162234	1417.915000	1738.093750	81.415115
11799.162234	1417.915000	1737.080078	128.343109
11799.162234	1417.915000	1736.067383	52.528328
11799.162234	1417.915000	1735.053711	54.443825
11799.162234	1417.915000	1734.040039	-148.833755
11799.162234	1417.915000	1733.025391	-8.030207
11799.162234	1417.915000	1732.011719	3.017425
11799.162234	1417.915000	1730.997070	89.346931
11799.162234	1417.915000	1729.982422	83.673119
11799.162234	1417.915000	1728.967773	35.507618
11799.162234	1417.915000	1727.952148	-78.679428
11799.162234	1417.915000	1726.937500	106.067970
11799.162234	1417.915000	1725.921875	-15.354842
11799.162234	1417.915000	1724.906250	180.865158
11799.162234	1417.915000	1723.890625	-88.961449
11799.162234	1417.915000	1722.875000	-15.333645
11799.162234	1417.915000	1721.858398	-0.643066
11799.162234	1417.915000	1720.841797	-28.387753
11799.162234	1417.915000	1719.825195	122.456818
11799.162234	1417.915000	1718.808594	-67.699066
11799.162234	1417.915000	1717.791992	-72.220497
11799.162234	1417.915000	1716.774414	-72.150856
11799.162234	1417.915000	1715.756836	-121.517891
11799.162234	1417.915000	1714.739258	16.937393
11799.162234	1417.915000	1713.721680	33.121479
11799.162234	1417.915000	1712.704102	84.417419
11799.162234	1417.915000	1711.685547	126.194534
11799.162234	1417.915000	1710.667969	-29.288042
11799.162234	1417.915000	1709.649414	108.501968
11799.162234	1417.915000	1708.630859	-183.202621
11799.162234	1417.915000	1707.611328	-230.954666
11799.162234	1417.915000	1706.592773	-114.615295
11799.162234	1417.915000	1705.573242	-52.357986
11799.162234	1417.915000	1704.553711	-159.015884
11799.162234	1417.915000	1703.534180	-89.941116
11799.162234	1417.915000	1702.513672	-107.708389
11799.162234	1417.915000	1701.494141	-102.128029
11799.162234	1417.915000	1700.473633	-31.067692
11799.162234	1417.915000	1699.453125	7.079474
11799.162234	1417.915000	1698.432617	98.971199
11799.162234	1417.915000	1697.412109	-176.833420
11799.162234	1417.915000	1696.390625	-134.299164
11799.162234	1417.915000	1695.369141	-236.975006
11799.162234	1417.915000	1694.347656	-94.025398
11799.162234	1417.915000	1693.326172	-93.927315
11799.162234	1417.915000	1692.304688	-33.111805
11799.162234	1417.915000	1691.282227	-84.670952
11799.162234	1417.915000	1690.260742	85.819473
11799.162234	1417.915000	1689.238281	-251.113464
11799.162234	1417.915000	1688.214844	-83.199821
11799.162234	1417.915000	1687.192383	-86.008957
11799.162234	1417.915000	1686.168945	13.875386
11799.162234	1417.915000	1685.146484	-110.594299
11799.162234	1417.915000	1684.123047	-106.672943
11799.162234	1417.915000	1683.099609	53.594627
11799.162234	1417.915000	1682.075195	-5.733883
11799.162234	1417.915000	1681.051758	-30.108597
11799.162234	1417.915000	1680.027344	-26.568237
11799.162234	1417.915000	1679.002930	7.214833
11799.162234	1417.915000	1677.978516	29.235563
11799.162234	1417.915000	1676.953125	128.113831
11799.162234	1417.915000	1675.928711	82.313461
11799.162234	1417.915000	1674.903320	87.724716
11799.162234	1417.915000	1673.877930	107.037003
11799.162234	1417.915000	1672.852539	165.876205
11799.162234	1417.915000	1671.826172	59.175388
11799.162234	1417.915000	1670.800781	-0.964114
11799.162234	1417.915000	1669.774414	83.231087
11799.162234	1417.915000	1668.748047	227.857086
11799.162234	1417.915000	1667.721680	202.397263
11799.162234	1417.915000	1666.694336	249.016800
11799.162234	1417.915000	1665.667969	139.628342
11799.162234	1417.915000	1664.640625	195.399185
11799.162234	1417.915000	1663.613281	274.337952
11799.162234	1417.915000	1662.585938	48.481781
11799.162234	1417.915000	1661.557617	176.096176
11799.162234	1417.915000	1660.530273	338.476318
11799.162234	1417.915000	1659.501953	277.556519
11799.162234	1417.915000	1658.473633	358.361389
11799.162234	1417.915000	1657.444336	494.822266
11799.162234	1417.915000	1656.416016	456.935059
11799.162234	1417.915000	1655.386719	537.445129
11799.162234	1417.915000	1654.358398	411.187531
11799.162234	1417.915000	1653.328125	540.292542
11799.162234	1417.915000	1652.298828	671.619385
11799.162234	1417.915000	1651.269531	723.921570
11799.162234	1417.915000	1650.239258	527.836121
11799.162234	1417.915000	1649.208984	610.173401
11799.162234	1417.915000	1648.178711	557.883911
11799.162234	1417.915000	1647.148438	760.664001
11799.162234	1417.915000	1646.117188	1005.033386
11799.162234	1417.915000	1645.086914	873.708130
11799.162234	1417.915000	1644.055664	920.838623
11799.162234	1417.915000	1643.024414	1125.477905
11799.162234	1417.915000	1641.992188	1181.691528
11799.162234	1417.915000	1640.960938	1293.440796
11799.162234	1417.915000	1639.928711	1333.288086
11799.162234	1417.915000	1638.896484	1468.009155
11799.162234	1417.915000	1637.864258	1410.476563
11799.162234	1417.915000	1636.832031	1489.486084
11799.162234	1417.915000	1635.798828	1473.524292
11799.162234	1417.915000	1634.766602	1450.597778
11799.162234	1417.915000	1633.733398	1709.848633
11799.162234	1417.915000	1632.699219	1770.038818
11799.162234	1417.915000	1631.666016	1770.055298
11799.162234	1417.915000	1630.632813	1892.567871
11799.162234	1417.915000	1629.598633	1959.505737
11799.162234	1417.915000	1628.564453	2222.822998
11799.162234	1417.915000	1627.530273	2268.805176
11799.162234	1417.915000	1626.495117	2250.036621
11799.162234	1417.915000	1625.460938	2353.672607
11799.162234	1417.915000	1624.425781	2397.181396
11799.162234	1417.915000	1623.390625	2318.276367
11799.162234	1417.915000	1622.355469	2479.444824
11799.162234	1417.915000	1621.319336	2379.714844
11799.162234	1417.915000	1620.284180	2593.827393
11799.162234	1417.915000	1619.248047	2466.377686
11799.162234	1417.915000	1618.211914	2899.455322
11799.162234	1417.915000	1617.174805	2661.242188
11799.162234	1417.915000	1616.138672	3036.427490
11799.162234	1417.915000	1615.101563	2925.028809
11799.162234	1417.915000	1614.065430	3060.281250
11799.162234	1417.915000	1613.027344	3174.698486
11799.162234	1417.915000	1611.990234	3360.489502
11799.162234	1417.915000	1610.953125	3113.145996
11799.162234	1417.915000	1609.915039	3275.805908
11799.162234	1417.915000	1608.876953	3330.171631
11799.162234	1417.915000	1607.838867	3453.568115
11799.162234	1417.915000	1606.800781	3521.668213
11799.162234	1417.915000	1605.761719	3829.045654
11799.162234	1417.915000	1604.723633	3910.836670
11799.162234	1417.915000	1603.684570	3728.042236
11799.162234	1417.915000	1602.644531	4002.973877
11799.162234	1417.915000	1601.605469	4004.179199
11799.162234	1417.915000	1600.566406	3986.991943
11799.162234	1417.915000	1599.526367	4027.260986
11799.162234	1417.915000	1598.486328	4120.371582
11799.162234	1417.915000	1597.446289	4073.294434
11799.162234	1417.915000	1596.405273	4164.056641
11799.162234	1417.915000	1595.365234	4128.482910
11799.162234	1417.915000	1594.324219	3959.734131
11799.162234	1417.915000	1593.283203	4071.148193
11799.162234	1417.915000	1592.242188	4047.103271
11799.162234	1417.915000	1591.200195	4117.156250
11799.162234	1417.915000	1590.159180	4070.189453
11799.162234	1417.915000	1589.117188	4218.234375
11799.162234	1417.915000	1588.075195	4242.383301
11799.162234	1417.915000	1587.032227	4133.524414
11799.162234	1417.915000	1585.990234	4157.713867
11799.162234	1417.915000	1584.947266	3959.554932
11799.162234	1417.915000	1583.904297	3848.581055
11799.162234	1417.915000	1582.861328	4058.459229
11799.162234	1417.915000	1581.818359	4151.443359
11799.162234	1417.915000	1580.775391	3877.945557
11799.162234	1417.915000	1579.731445	3643.497559
11799.162234	1417.915000	1578.687500	3690.781494
11799.162234	1417.915000	1577.643555	3742.654541
11799.162234	1417.915000	1576.598633	3638.896240
11799.162234	1417.915000	1575.554688	3482.594238
11799.162234	1417.915000	1574.509766	3271.466553
11799.162234	1417.915000	1573.464844	3744.357910
11799.162234	1417.915000	1572.419922	3592.788574
11799.162234	1417.915000	1571.374023	3560.195801
11799.162234	1417.915000	1570.329102	3557.383789
11799.162234	1417.915000	1569.283203	3401.470459
11799.162234	1417.915000	1568.237305	3567.851074
11799.162234	1417.915000	1567.191406	3549.154541
11799.162234	1417.915000	1566.144531	3400.299561
11799.162234	1417.915000	1565.098633	3178.480225
11799.162234	1417.915000	1564.051758	3207.939453
11799.162234	1417.915000	1563.004883	3342.443848
11799.162234	1417.915000	1561.957031	3492.908203
11799.162234	1417.915000	1560.910156	3342.161133
11799.162234	1417.915000	1559.862305	3132.192871
11799.162234	1417.915000	1558.814453	3250.826660
11799.162234	1417.915000	1557.766602	3088.956055
11799.162234	1417.915000	1556.718750	3091.372559
11799.162234	1417.915000	1555.669922	2861.304443
11799.162234	1417.915000	1554.621094	3057.599121
11799.162234	1417.915000	1553.573242	2834.590820
11799.162234	1417.915000	1552.523438	2823.590576
11799.162234	1417.915000	1551.474609	2960.729492
11799.162234	1417.915000	1550.424805	2867.842773
11799.162234	1417.915000	1549.375000	2688.530029
11799.162234	1417.915000	1548.325195	2372.759766
11799.162234	1417.915000	1547.275391	2480.531494
11799.162234	1417.915000	1546.225586	2344.834229
11799.162234	1417.915000	1545.174805	2216.071045
11799.162234	1417.915000	1544.124023	2028.283691
11799.162234	1417.915000	1543.073242	2288.677490
11799.162234	1417.915000	1542.022461	2103.364990
11799.162234	1417.915000	1540.970703	1915.912842
11799.162234	1417.915000	1539.919922	2096.837891
11799.162234	1417.915000	1538.868164	2057.321289
11799.162234	1417.915000	1537.815430	2197.377686
11799.162234	1417.915000	1536.763672	1808.180786
11799.162234	1417.915000	1535.710938	1843.911621
11799.162234	1417.915000	1534.659180	1904.696655
11799.162234	1417.915000	1533.606445	1736.229126
11799.162234	1417.915000	1532.552734	1733.595093
11799.162234	1417.915000	1531.500000	1787.788818
11799.162234	1417.915000	1530.446289	1551.612183
11799.162234	1417.915000	1529.393555	1640.014893
11799.162234	1417.915000	1528.338867	1431.335083
11799.162234	1417.915000	1527.285156	1574.308838
11799.162234	1417.915000	1526.231445	1404.450195
11799.162234	1417.915000	1525.176758	1280.070435
11799.162234	1417.915000	1524.122070	1484.431519
11799.162234	1417.915000	1523.067383	1235.645752
11799.162234	1417.915000	1522.012695	1286.074341
11799.162234	1417.915000	1520.957031	1207.466431
11799.162234	1417.915000	1519.901367	1036.140381
11799.162234	1417.915000	1518.845703	955.536377
11799.162234	1417.915000	1517.790039	700.765686
11799.162234	1417.915000	1516.734375	973.493225
11799.162234	1417.915000	1515.677734	995.046570
11799.162234	1417.915000	1514.621094	964.658630
11799.162234	1417.915000	1513.564453	1119.845825
11799.162234	1417.915000	1512.507813	822.808105
11799.162234	1417.915000	1511.450195	765.632202
11799.162234	1417.915000	1510.393555	604.609192
11799.162234	1417.915000	1509.335938	651.659668
11799.162234	1417.915000	1508.278320	588.078491
11799.162234	1417.915000	1507.219727	626.275818
11799.162234	1417.915000	1506.162109	712.001831
11799.162234	1417.915000	1505.103516	718.755188
11799.162234	1417.915000	1504.044922	682.715820
11799.162234	1417.915000	1502.986328	484.273193
11799.162234	1417.915000	1501.926758	403.364380
11799.162234	1417.915000	1500.868164	444.448334
11799.162234	1417.915000	1499.808594	465.314728
11799.162234	1417.915000	1498.749023	380.273865
11799.162234	1417.915000	1497.688477	439.692902
11799.162234	1417.915000	1496.628906	230.911804
11799.162234	1417.915000	1495.568359	315.355743
11799.162234	1417.915000	1494.507813	447.207611
11799.162234	1417.915000	1493.447266	331.262909
11799.162234	1417.915000	1492.386719	163.663834
11799.162234	1417.915000	1491.325195	-37.545109
11799.162234	1417.915000	1490.263672	-62.911011
11799.162234	1417.915000	1489.202148	55.943626
11799.162234	1417.915000	1488.140625	8.291781
11799.162234	1417.915000	1487.079102	-214.766418
11799.162234	1417.915000	1486.016602	-228.363708
11799.162234	1417.915000	1484.954102	-10.122016
11799.162234	1417.915000	1483.891602	-21.268391
11799.162234	1417.915000	1482.829102	-155.976212
11799.162234	1417.915000	1481.765625	-274.783081
11799.162234	1417.915000	1480.702148	65.127075
11799.162234	1417.915000	1479.638672	-55.686745
11799.162234	1417.915000	1478.575195	-81.980965
11799.162234	1417.915000	1477.511719	-144.068665
11799.162234	1417.915000	1476.447266	-109.411743
11799.162234	1417.915000	1475.382813	-34.281696
11799.162234	1417.915000	1474.318359	-194.797302
11799.162234	1417.915000	1473.253906	-99.240448
11799.162234	1417.915000	1472.189453	52.453648
11799.162234	1417.915000	1471.124023	-20.059202
11799.162234	1417.915000	1470.058594	111.598274
11799.162234	1417.915000	1468.993164	-18.738674
11799.162234	1417.915000	1467.927734	43.567928
11799.162234	1417.915000	1466.861328	146.250473
11799.162234	1417.915000	1465.794922	110.422058
11799.162234	1417.915000	1464.728516	98.669815
11799.162234	1417.915000	1463.662109	190.444183
11799.162234	1417.915000	1462.594727	157.294357
11799.162234	1417.915000	1461.528320	72.445908
11799.162234	1417.915000	1460.460938	180.434631
11799.162234	1417.915000	1459.393555	265.799622
11799.162234	1417.915000	1458.326172	-30.640671
11799.162234	1417.915000	1457.257813	262.791504
11799.162234	1417.915000	1456.189453	158.457993
11799.162234	1417.915000	1455.121094	211.994690
11799.162234	1417.915000	1454.052734	173.671219
11799.162234	1417.915000	1452.984375	324.067749
11799.162234	1417.915000	1451.915039	-135.397278
11799.162234	1417.915000	1450.845703	-4.037407
11799.162234	1417.915000	1449.776367	324.464783
11799.162234	1417.915000	1448.707031	335.983307
11799.162234	1417.915000	1447.636719	264.014282
11799.162234	1417.915000	1446.567383	284.133148
11799.162234	1417.915000	1445.497070	170.171921
11799.162234	1417.915000	1444.425781	197.084061
11799.162234	1417.915000	1443.355469	102.395454
11799.162234	1417.915000	1442.285156	111.194130
11799.162234	1417.915000	1441.213867	292.038300
11799.162234	1417.915000	1440.142578	235.914780
11799.162234	1417.915000	1439.070313	87.895691
11799.162234	1417.915000	1437.999023	22.724384
11799.162234	1417.915000	1436.926758	271.056000
11799.162234	1417.915000	1435.854492	24.909992
11799.162234	1417.915000	1434.782227	34.238419
11799.162234	1417.915000	1433.709961	227.021591
11799.162234	1417.915000	1432.636719	196.911362
11799.162234	1417.915000	1431.563477	103.987236
11799.162234	1417.915000	1430.490234	75.654312
11799.162234	1417.915000	1429.416992	198.937775
11799.162234	1417.915000	1428.343750	61.415554
11799.162234	1417.915000	1427.269531	28.120892
11799.162234	1417.915000	1426.195313	-12.125182
11799.162234	1417.915000	1425.121094	-88.093414
11799.162234	1417.915000	1424.046875	101.940536
11799.162234	1417.915000	1422.971680	79.098244
11799.162234	1417.915000	1421.896484	17.425789
11799.162234	1417.915000	1420.821289	55.029331
11799.162234	1417.915000	1419.746094	50.016956
11799.162234	1417.915000	1418.669922	-23.748137
11799.162234	1417.915000	1417.594727	45.972626
11799.162234	1417.915000	1416.518555	170.726364
11799.162234	1417.915000	1415.442383	95.823029
11799.162234	1417.915000	1414.365234	35.389915
11799.162234	1417.915000	1413.289063	58.897026
11799.162234	1417.915000	1412.211914	52.389446
11799.162234	1417.915000	1411.134766	181.210785
11799.162234	1417.915000	1410.057617	120.681931
11799.162234	1417.915000	1408.979492	185.196304
11799.162234	1417.915000	1407.902344	104.573273
11799.162234	1417.915000	1406.824219	224.105133
11799.162234	1417.915000	1405.746094	216.324295
11799.162234	1417.915000	1404.666992	117.153915
11799.162234	1417.915000	1403.588867	277.539337
11799.162234	1417.915000	1402.509766	195.867493
11799.162234	1417.915000	1401.430664	216.611679
11799.162234	1417.915000	1400.351563	273.222565
11799.162234	1417.915000	1399.271484	193.505615
11799.162234	1417.915000	1398.192383	259.517365
11799.162234	1417.915000	1397.112305	276.577362
11799.162234	1417.915000	1396.031250	300.031067
11799.162234	1417.915000	1394.951172	319.031006
11799.162234	1417.915000	1393.871094	300.489258
11799.162234	1417.915000	1392.790039	58.723583
11799.162234	1417.915000	1391.708984	114.441605
11799.162234	1417.915000	1390.626953	287.498413
11799.162234	1417.915000	1389.545898	328.098083
11799.162234	1417.915000	1388.463867	273.635071
11799.162234	1417.915000	1387.381836	256.315552
11799.162234	1417.915000	1386.299805	257.201385
11799.162234	1417.915000	1385.217773	423.841644
11799.162234	1417.915000	1384.134766	501.902618
11799.162234	1417.915000	1383.051758	583.430725
11799.162234	1417.915000	1381.968750	562.299377
11799.162234	1417.915000	1380.885742	438.000000
11799.162234	1417.915000	1379.802734	543.905884
11799.162234	1417.915000	1378.718750	476.718933
11799.162234	1417.915000	1377.634766	482.087555
11799.162234	1417.915000	1376.550781	453.763000
11799.162234	1417.915000	1375.465820	377.161194
11799.162234	1417.915000	1374.381836	618.536926
11799.162234	1417.915000	1373.296875	388.653625
11799.162234	1417.915000	1372.211914	414.095734
11799.162234	1417.915000	1371.126953	205.473816
11799.162234	1417.915000	1370.041016	266.243317
11799.162234	1417.915000	1368.955078	326.209076
11799.162234	1417.915000	1367.869141	343.826324
11799.162234	1417.915000	1366.783203	549.941895
11799.162234	1417.915000	1365.697266	464.139923
11799.162234	1417.915000	1364.610352	390.952484
11799.162234	1417.915000	1363.523438	384.917297
11799.162234	1417.915000	1362.436523	396.066681
11799.162234	1417.915000	1361.349609	371.428101
11799.162234	1417.915000	1360.261719	368.982208
11799.162234	1417.915000	1359.174805	206.471268
11799.162234	1417.915000	1358.086914	262.033234
11799.162234	1417.915000	1356.998047	339.045410
11799.162234	1417.915000	1355.910156	437.027832
11799.162234	1417.915000	1354.821289	316.967621
11799.162234	1417.915000	1353.732422	301.722900
11799.162234	1417.915000	1352.643555	108.900169
11799.162234	1417.915000	1351.554688	239.855942
11799.162234	1417.915000	1350.464844	322.122314
11799.162234	1417.915000	1349.375000	106.887115
11799.162234	1417.915000	1348.285156	200.842789
11799.162234	1417.915000	1347.195313	308.786194
11799.162234	1417.915000	1346.105469	297.961517
11799.162234	1417.915000	1345.014648	459.601410
11799.162234	1417.915000	1343.923828	320.891327
11799.162234	1417.915000	1342.833008	405.198456
11799.162234	1417.915000	1341.741211	421.960724
11799.162234	1417.915000	1340.650391	376.233948
11799.162234	1417.915000	1339.558594	347.046417
11799.162234	1417.915000	1338.466797	488.470917
11799.162234	1417.915000	1337.374023	338.718048
11799.162234	1417.915000	1336.282227	384.948547
11799.162234	1417.915000	1335.189453	524.450989
11799.162234	1417.915000	1334.096680	406.147400
11799.162234	1417.915000	1333.003906	352.164703
11799.162234	1417.915000	1331.910156	285.499084
11799.162234	1417.915000	1330.817383	275.573120
11799.162234	1417.915000	1329.723633	313.951508
11799.162234	1417.915000	1328.629883	332.383087
11799.162234	1417.915000	1327.535156	253.010712
11799.162234	1417.915000	1326.441406	334.508423
11799.162234	1417.915000	1325.346680	207.460953
11799.162234	1417.915000	1324.251953	115.436150
11799.162234	1417.915000	1323.156250	312.895508
11799.162234	1417.915000	1322.061523	402.697113
11799.162234	1417.915000	1320.965820	196.301132
11799.162234	1417.915000	1319.870117	180.931458
11799.162234	1417.915000	1318.774414	269.670013
11799.162234	1417.915000	1317.678711	260.576263
11799.162234	1417.915000	1316.582031	293.560211
11799.162234	1417.915000	1315.485352	355.823029
11799.162234	1417.915000	1314.388672	222.116562
11799.162234	1417.915000	1313.291016	319.396881
11799.162234	1417.915000	1312.194336	350.524963
11799.162234	1417.915000	1311.096680	285.218750
11799.162234	1417.915000	1309.999023	388.115692
11799.162234	1417.915000	1308.901367	384.313324
11799.162234	1417.915000	1307.802734	373.868469
11799.162234	1417.915000	1306.705078	397.674866
11799.162234	1417.915000	1305.606445	276.313202
11799.162234	1417.915000	1304.506836	374.491486
11799.162234	1417.915000	1303.408203	238.350250
11799.162234	1417.915000	1302.308594	518.581787
11799.162234	1417.915000	1301.208984	413.690247
11799.162234	1417.915000	1300.109375	351.290802
11799.162234	1417.915000	1299.009766	406.610840
11799.162234	1417.915000	1297.909180	307.865723
11799.162234	1417.915000	1296.808594	497.324249
11799.162234	1417.915000	1295.708008	411.056488
11799.162234	1417.915000	1294.607422	318.511597
11799.162234	1417.915000	1293.506836	378.522369
11799.162234	1417.915000	1292.405273	285.381561
11799.162234	1417.915000	1291.303711	202.365494
11799.162234	1417.915000	1290.202148	312.743591
11799.162234	1417.915000	1289.099609	187.453171
11799.162234	1417.915000	1287.998047	242.623993
11799.162234	1417.915000	1286.895508	229.849686
11799.162234	1417.915000	1285.792969	151.527557
11799.162234	1417.915000	1284.689453	101.762032
11799.162234	1417.915000	1283.586914	189.236374
11799.162234	1417.915000	1282.483398	253.035614
11799.162234	1417.915000	1281.379883	-2.403966
11799.162234	1417.915000	1280.276367	115.947739
11799.162234	1417.915000	1279.171875	129.761703
11799.162234	1417.915000	1278.067383	96.218246
11799.162234	1417.915000	1276.962891	21.819185
11799.162234	1417.915000	1275.858398	19.349529
11799.162234	1417.915000	1274.753906	61.167526
11799.162234	1417.915000	1273.648438	-33.164169
11799.162234	1417.915000	1272.542969	121.624535
11799.162234	1417.915000	1271.437500	101.810852
11799.162234	1417.915000	1270.331055	-69.330620
11799.162234	1417.915000	1269.225586	52.795040
11799.162234	1417.915000	1268.119141	32.375862
11799.162234	1417.915000	1267.012695	25.066664
11799.162234	1417.915000	1265.906250	-57.831909
11799.162234	1417.915000	1264.798828	-61.641876
11799.162234	1417.915000	1263.691406	73.422417
11799.162234	1417.915000	1262.583984	-36.133301
11799.162234	1417.915000	1261.476563	146.858826
11799.162234	1417.915000	1260.368164	116.740860
11799.162234	1417.915000	1259.260742	140.807816
11799.162234	1417.915000	1258.152344	92.992004
11799.162234	1417.915000	1257.043945	132.602509
11799.162234	1417.915000	1255.934570	-1.693411
11799.162234	1417.915000	1254.825195	10.799083
11799.162234	1417.915000	1253.716797	-29.422455
11799.162234	1417.915000	1252.606445	-89.969261
11799.162234	1417.915000	1251.497070	-102.466599
11799.162234	1417.915000	1250.387695	69.896370
11799.162234	1417.915000	1249.277344	-2.127133
11799.162234	1417.915000	1248.166992	-77.084435
11799.162234	1417.915000	1247.055664	-68.778969
11799.162234	1417.915000	1245.945313	-21.417564
11799.162234	1417.915000	1244.833984	-83.073814
11799.162234	1417.915000	1243.722656	10.508710
11799.162234	1417.915000	1242.611328	-190.053833
11799.162234	1417.915000	1241.499023	-11.128387
11799.162234	1417.915000	1240.387695	-41.849384
11799.162234	1417.915000	1239.275391	-95.384254
11799.162234	1417.915000	1238.162109	-2.632488
11799.162234	1417.915000	1237.049805	-30.707914
11799.162234	1417.915000	1235.936523	47.946571
11799.162234	1417.915000	1234.823242	38.177380
11799.162234	1417.915000	1233.709961	-54.914913
11799.162234	1417.915000	1232.596680	-1.492424
11799.162234	1417.915000	1231.482422	-82.388016
11799.162234	1417.915000	1230.369141	-30.792419
11799.162234	1417.915000	1229.253906	17.820127
11799.162234	1417.915000	1228.139648	56.534252
11799.162234	1417.915000	1227.025391	-0.659671
11799.162234	1417.915000	1225.910156	-15.005726
11799.162234	1417.915000	1224.794922	86.428665
11799.162234	1417.915000	1223.679688	71.488281
11799.162234	1417.915000	1222.563477	-66.417709
11799.162234	1417.915000	1221.447266	-162.961121
11799.162234	1417.915000	1220.331055	-132.751266
11799.162234	1417.915000	1219.214844	-30.853516
11799.162234	1417.915000	1218.098633	-68.862503
11799.162234	1417.915000	1216.981445	-80.139679
11799.162234	1417.915000	1215.864258	-36.381100
11799.162234	1417.915000	1214.747070	-27.824949
11799.162234	1417.915000	1213.629883	-60.157642
11799.162234	1417.915000	1212.511719	-22.364761
11799.162234	1417.915000	1211.393555	30.783583
11799.162234	1417.915000	1210.275391	4.428143
11799.162234	1417.915000	1209.157227	122.826866
11799.162234	1417.915000	1208.038086	-49.966877
11799.162234	1417.915000	1206.918945	-26.881237
11799.162234	1417.915000	1205.799805	19.870081
11799.162234	1417.915000	1204.680664	-123.891472
11799.162234	1417.915000	1203.560547	-169.642914
11799.162234	1417.915000	1202.441406	-80.409195
11799.162234	1417.915000	1201.321289	47.994099
11799.162234	1417.915000	1200.200195	-167.300140
11799.162234	1417.915000	1199.080078	98.125793
11799.162234	1417.915000	1197.958984	62.501999
11799.162234	1417.915000	1196.837891	-67.765266
11799.162234	1417.915000	1195.716797	-28.035151
11799.162234	1417.915000	1194.594727	77.816605
11799.162234	1417.915000	1193.473633	-140.147263
11799.162234	1417.915000	1192.351563	-132.658020
11799.162234	1417.915000	1191.229492	-246.014221
11799.162234	1417.915000	1190.106445	-166.834915
11799.162234	1417.915000	1188.984375	-199.075516
11799.162234	1417.915000	1187.861328	-189.524277
11799.162234	1417.915000	1186.738281	-90.781288
11799.162234	1417.915000	1185.614258	-191.165955
11799.162234	1417.915000	1184.491211	-75.618614
11799.162234	1417.915000	1183.367188	-12.073385
11799.162234	1417.915000	1182.243164	21.728287
11799.162234	1417.915000	1181.119141	-8.492544
11799.162234	1417.915000	1179.994141	-169.293808
11799.162234	1417.915000	1178.869141	-165.437256
11799.162234	1417.915000	1177.744141	-183.197922
11799.162234	1417.915000	1176.619141	-136.426956
11799.162234	1417.915000	1175.493164	-89.949089
11799.162234	1417.915000	1174.368164	-154.866684
11799.162234	1417.915000	1173.242188	-32.667469
11799.162234	1417.915000	1172.115234	-93.963501
11799.162234	1417.915000	1170.989258	-50.405613
11799.162234	1417.915000	1169.862305	-0.521890
11799.162234	1417.915000	1168.735352	-234.693634
11799.162234	1417.915000	1167.608398	-58.266087
11799.162234	1417.915000	1166.481445	-77.591309
11799.162234	1417.915000	1165.353516	102.830750
11799.162234	1417.915000	1164.225586	80.267509
11799.162234	1417.915000	1163.097656	-67.381126
11799.162234	1417.915000	1161.968750	20.489254
11799.162234	1417.915000	1160.840820	-17.813032
11799.162234	1417.915000	1159.711914	-63.655918
11799.162234	1417.915000	1158.583008	42.097496
11799.162234	1417.915000	1157.453125	-94.894890
11799.162234	1417.915000	1156.324219	47.942383
11799.162234	1417.915000	1155.194336	-96.487579
11799.162234	1417.915000	1154.064453	21.038330
11799.162234	1417.915000	1152.933594	-71.343674
11799.162234	1417.915000	1151.803711	-76.630821
11799.162234	1417.915000	1150.672852	27.497477
11799.162234	1417.915000	1149.541992	-71.206062
11799.162234	1417.915000	1148.411133	-119.855057
11799.162234	1417.915000	1147.279297	53.692284
11799.162234	1417.915000	1146.147461	-12.708562
11799.162234	1417.915000	1145.015625	29.982140
11799.162234	1417.915000	1143.883789	121.068779
11799.162234	1417.915000	1142.750977	40.621635
11799.162234	1417.915000	1141.619141	0.629125
11799.162234	1417.915000	1140.486328	-92.842186
11799.162234	1417.915000	1139.352539	-106.502701
11799.162234	1417.915000	1138.219727	45.519230
11799.162234	1417.915000	1137.085938	-143.841049
11799.162234	1417.915000	1135.952148	-169.746887
11799.162234	1417.915000	1134.818359	-75.837173
11799.162234	1417.915000	1133.683594	22.972561
11799.162234	1417.915000	1132.549805	-2.992170
11799.162234	1417.915000	1131.415039	85.104721
11799.162234	1417.915000	1130.279297	61.060699
11799.162234	1417.915000	1129.144531	-6.879316
11799.162234	1417.915000	1128.008789	73.631111
11799.162234	1417.915000	1126.873047	69.045464
11799.162234	1417.915000	1125.737305	42.338226
11799.162234	1417.915000	1124.601563	58.572758
11799.162234	1417.915000	1123.464844	3.446276
11799.162234	1417.915000	1122.328125	71.610825
11799.162234	1417.915000	1121.191406	31.975504
11799.162234	1417.915000	1120.054688	117.993355
11799.162234	1417.915000	1118.916992	199.357468
11799.162234	1417.915000	1117.779297	63.432098
11799.162234	1417.915000	1116.641602	209.184021
11799.162234	1417.915000	1115.503906	131.493073
11799.162234	1417.915000	1114.365234	146.229828
11799.162234	1417.915000	1113.226563	199.417099
11799.162234	1417.915000	1112.087891	306.722839
11799.162234	1417.915000	1110.949219	63.345303
11799.162234	1417.915000	1109.809570	74.077675
11799.162234	1417.915000	1108.669922	108.618866
11799.162234	1417.915000	1107.530273	115.708168
11799.162234	1417.915000	1106.390625	-104.617271
11799.162234	1417.915000	1105.250000	-12.734411
11799.162234	1417.915000	1104.109375	59.529598
11799.162234	1417.915000	1102.968750	12.840854
11799.162234	1417.915000	1101.828125	92.795143
11799.162234	1417.915000	1100.686523	-44.025757
11799.162234	1417.915000	1099.544922	144.974182
11799.162234	1417.915000	1098.403320	136.454254
11799.162234	1417.915000	1097.261719	285.659698
11799.162234	1417.915000	1096.120117	182.193207
11799.162234	1417.915000	1094.977539	189.331558
11799.162234	1417.915000	1093.834961	165.450485
11799.162234	1417.915000	1092.691406	140.024872
11799.162234	1417.915000	1091.548828	150.498917
11799.162234	1417.915000	1090.405273	236.211868
11799.162234	1417.915000	1089.261719	225.841537
11799.162234	1417.915000	1088.118164	136.225006
11799.162234	1417.915000	1086.973633	176.203140
11799.162234	1417.915000	1085.829102	293.659027
11799.162234	1417.915000	1084.684570	165.790161
11799.162234	1417.915000	1083.540039	333.226685
11799.162234	1417.915000	1082.395508	175.421005
11799.162234	1417.915000	1081.250000	398.450928
11799.162234	1417.915000	1080.104492	373.656036
11799.162234	1417.915000	1078.958984	268.827637
11799.162234	1417.915000	1077.812500	261.540405
11799.162234	1417.915000	1076.666016	541.052124
11799.162234	1417.915000	1075.519531	589.721558
11799.162234	1417.915000	1074.373047	96.299904
11799.162234	1417.915000	1073.226563	316.273865
11799.162234	1417.915000	1072.079102	136.722763
11799.162234	1417.915000	1070.931641	251.624451
11799.162234	1417.915000	1069.784180	337.692169
11799.162234	1417.915000	1068.635742	287.247284
11799.162234	1417.915000	1067.487305	233.728760
11799.162234	1417.915000	1066.338867	343.571594
11799.162234	1417.915000	1065.190430	199.416794
11799.162234	1417.915000	1064.041992	355.559631
11799.162234	1417.915000	1062.892578	332.010681
11799.162234	1417.915000	1061.743164	330.012024
11799.162234	1417.915000	1060.593750	350.290649
11799.162234	1417.915000	1059.443359	136.072739
11799.162234	1417.915000	1058.292969	208.326202
11799.162234	1417.915000	1057.142578	226.111038
11799.162234	1417.915000	1055.992188	296.659149
11799.162234	1417.915000	1054.841797	395.529602
11799.162234	1417.915000	1053.690430	470.276398
11799.162234	1417.915000	1052.539063	372.855133
11799.162234	1417.915000	1051.387695	314.527008
11799.162234	1417.915000	1050.235352	254.457245
11799.162234	1417.915000	1049.083984	201.463287
11799.162234	1417.915000	1047.931641	316.552795
11799.162234	1417.915000	1046.778320	160.778809
11799.162234	1417.915000	1045.625977	7.687693
11799.162234	1417.915000	1044.472656	74.694946
11799.162234	1417.915000	1043.319336	-4.297045
11799.162234	1417.915000	1042.166016	221.676102
11799.162234	1417.915000	1041.012695	158.690140
11799.162234	1417.915000	1039.858398	94.717453
11799.162234	1417.915000	1038.704102	337.330566
11799.162234	1417.915000	1037.549805	308.023224
11799.162234	1417.915000	1036.394531	175.822357
11799.162234	1417.915000	1035.239258	198.660065
11799.162234	1417.915000	1034.083984	185.791794
11799.162234	1417.915000	1032.928711	88.507210
11799.162234	1417.915000	1031.773438	187.972900
11799.162234	1417.915000	1030.617188	109.082756
11799.162234	1417.915000	1029.460938	95.772110
11799.162234	1417.915000	1028.304688	92.932182
11799.162234	1417.915000	1027.147461	171.795609
11799.162234	1417.915000	1025.991211	107.364731
11799.162234	1417.915000	1024.833984	48.714504
11799.162234	1417.915000	1023.675781	-7.815720
11799.162234	1417.915000	1022.518555	-130.235001
11799.162234	1417.915000	1021.360352	29.408298
11799.162234	1417.915000	1020.202148	285.975708
11799.162234	1417.915000	1019.043945	276.830200
11799.162234	1417.915000	1017.884766	144.380783
11799.162234	1417.915000	1016.726563	189.964615
11799.162234	1417.915000	1015.567383	137.634460
11799.162234	1417.915000	1014.407227	254.742386
11799.162234	1417.915000	1013.248047	139.081863
11799.162234	1417.915000	1012.087891	203.833344
11799.162234	1417.915000	1010.927734	316.334351
11799.162234	1417.915000	1009.767578	309.356049
11799.162234	1417.915000	1008.606445	223.367722
11799.162234	1417.915000	1007.446289	88.696487
11799.162234	1417.915000	1006.285156	143.338791
11799.162234	1417.915000	1005.123047	-8.516323
11799.162234	1417.915000	1003.961914	302.456543
11799.162234	1417.915000	1002.799805	255.374710
11799.162234	1417.915000	1001.637695	208.773331
11799.162234	1417.915000	1000.475586	191.583740
11799.162234	1417.915000	999.312500	50.669483
11799.162234	1417.915000	998.149414	78.016998
11799.162234	1417.915000	996.986328	61.593800
11799.162234	1417.915000	995.823242	236.825394
11799.162234	1417.915000	994.659180	-73.656281
11799.162234	1417.915000	993.496094	-20.939171
11799.162234	1417.915000	992.332031	66.455688
11799.162234	1417.915000	991.166992	-9.907608
11799.162234	1417.915000	990.002930	-59.878540
11799.162234	1417.915000	988.837891	174.269730
11799.162234	1417.915000	987.672852	-341.626434
11799.162234	1417.915000	986.506836	58.143845
11799.162234	1417.915000	985.341797	94.869972
11799.162234	1417.915000	984.175781	-4.208748
11799.162234	1417.915000	983.009766	-5.694286
11799.162234	1417.915000	981.843750	148.366226
11799.162234	1417.915000	980.676758	252.861252
11799.162234	1417.915000	979.509766	31.453526
11799.162234	1417.915000	978.342773	4.265861
11799.162234	1417.915000	977.175781	-45.118984
11799.162234	1417.915000	976.007813	316.612122
11799.162234	1417.915000	974.839844	134.022476
11799.162234	1417.915000	973.671875	-34.081570
11799.162234	1417.915000	972.503906	49.235302
11799.162234	1417.915000	971.334961	137.990234
11799.162234	1417.915000	970.166016	-67.403793
11799.162234	1417.915000	968.997070	-15.938250
11799.162234	1417.915000	967.828125	170.282120
11799.162234	1417.915000	966.658203	-18.448275
11799.162234	1417.915000	965.488281	-43.027901
11799.162234	1417.915000	964.318359	129.522476
11799.162234	1417.915000	963.148438	114.509232
11799.162234	1417.915000	961.977539	230.454254
11799.162234	1417.915000	960.806641	83.832176
11799.162234	1417.915000	959.635742	84.412270
11799.162234	1417.915000	958.463867	3.038628
11799.162234	1417.915000	957.292969	160.360153
11799.162234	1417.915000	956.121094	77.065269
11799.162234	1417.915000	954.948242	199.932953
11799.162234	1417.915000	953.776367	110.162018
11799.162234	1417.915000	952.603516	32.906590
11799.162234	1417.915000	951.430664	-87.943527
11799.162234	1417.915000	950.257813	5.579158
11799.162234	1417.915000	949.084961	-62.074467
11799.162234	1417.915000	947.911133	95.006935
11799.162234	1417.915000	946.737305	50.387020
11799.162234	1417.915000	945.563477	-10.941339
11799.162234	1417.915000	944.388672	75.695847
11799.162234	1417.915000	943.213867	111.041954
11799.162234	1417.915000	942.039063	7.714828
11799.162234	1417.915000	940.864258	42.935856
11799.162234	1417.915000	939.688477	42.878983
11799.162234	1417.915000	938.513672	52.411190
11799.162234	1417.915000	937.337891	93.617004
11799.162234	1417.915000	936.161133	-147.631851
11799.162234	1417.915000	934.985352	-93.252541
11799.162234	1417.915000	933.808594	266.465393
11799.162234	1417.915000	932.631836	-183.913376
11799.162234	1417.915000	931.454102	114.660034
11799.162234	1417.915000	930.277344	159.340729
11799.162234	1417.915000	929.099609	191.095978
11799.162234	1417.915000	927.921875	197.114441
11799.162234	1417.915000	926.743164	129.211624
11799.162234	1417.915000	925.565430	35.633408
11799.162234	1417.915000	924.386719	96.249374
11799.162234	1417.915000	923.208008	105.451324
11799.162234	1417.915000	922.028320	162.803726
11799.162234	1417.915000	920.849609	59.632549
11799.162234	1417.915000	919.669922	57.766327
11799.162234	1417.915000	919.474609	338.085114
11799.162234	1417.915000	918.309570	113.005775
11799.162234	1417.915000	917.143555	118.992310
11799.162234	1417.915000	915.977539	48.003841
11799.162234	1417.915000	914.810547	111.724922
11799.162234	1417.915000	913.644531	117.717743
11799.162234	1417.915000	912.477539	-14.117882
11799.162234	1417.915000	911.310547	-46.549431
11799.162234	1417.915000	910.143555	-104.593971
11799.162234	1417.915000	908.975586	-15.255418
11799.162234	1417.915000	907.807617	-162.947784
11799.162234	1417.915000	906.639648	-166.479156
11799.162234	1417.915000	905.471680	-157.196701
11799.162234	1417.915000	904.303711	-0.673194
11799.162234	1417.915000	903.134766	-324.225037
11799.162234	1417.915000	901.965820	-222.106155
11799.162234	1417.915000	900.796875	-91.230156
11799.162234	1417.915000	899.626953	-101.117531
11799.162234	1417.915000	898.457031	-210.114059
11799.162234	1417.915000	897.287109	-98.471230
11799.162234	1417.915000	896.117188	54.688320
11799.162234	1417.915000	894.947266	-108.562706
11799.162234	1417.915000	893.776367	28.584284
11799.162234	1417.915000	892.605469	66.666267
11799.162234	1417.915000	891.434570	12.131886
11799.162234	1417.915000	890.262695	-83.877235
11799.162234	1417.915000	889.091797	123.437889
11799.162234	1417.915000	887.919922	46.623795
11799.162234	1417.915000	886.748047	8.147026
11799.162234	1417.915000	885.575195	-148.341965
11799.162234	1417.915000	884.403320	78.012291
11799.162234	1417.915000	883.230469	33.221260
11799.162234	1417.915000	882.057617	-314.433167
11799.162234	1417.915000	880.883789	-183.770248
11799.162234	1417.915000	879.710938	-292.172943
11799.162234	1417.915000	878.537109	134.804886
11799.162234	1417.915000	877.362305	13.669421
11799.162234	1417.915000	876.188477	96.451668
11799.162234	1417.915000	875.013672	93.235497
11799.162234	1417.915000	873.839844	29.547918
11799.162234	1417.915000	872.664063	172.808640
11799.162234	1417.915000	871.489258	20.056499
11799.162234	1417.915000	870.313477	83.752403
11799.162234	1417.915000	869.138672	36.099949
11799.162234	1417.915000	867.962891	-5.153753
11799.162234	1417.915000	866.786133	64.926140
11799.162234	1417.915000	865.610352	74.591927
11799.162234	1417.915000	864.433594	-313.053741
11799.162234	1417.915000	863.256836	-153.910049
11799.162234	1417.915000	862.079102	-179.095901
11799.162234	1417.915000	860.902344	-10.473459
11799.162234	1417.915000	859.724609	-92.804214
11799.162234	1417.915000	858.546875	-111.572411
11799.162234	1417.915000	857.368164	101.440956
11799.162234	1417.915000	856.190430	3.332532
11799.162234	1417.915000	855.011719	-59.808479
11799.162234	1417.915000	853.833008	83.328491
11799.162234	1417.915000	852.654297	147.126373
11799.162234	1417.915000	851.474609	-131.598129
11799.162234	1417.915000	850.294922	52.751587
11799.162234	1417.915000	849.115234	65.860191
11799.162234	1417.915000	847.935547	-203.099396
11799.162234	1417.915000	846.754883	88.958099
11799.162234	1417.915000	845.575195	95.782249
11799.162234	1417.915000	844.393555	-217.296967
11799.162234	1417.915000	843.212891	-39.355564
11799.162234	1417.915000	842.032227	5.554043
11799.162234	1417.915000	840.850586	-44.501366
11799.162234	1417.915000	839.668945	38.414413
11799.162234	1417.915000	838.486328	118.154320
11799.162234	1417.915000	837.304688	-71.024635
11799.162234	1417.915000	836.122070	-320.199768
11799.162234	1417.915000	834.939453	-151.820755
11799.162234	1417.915000	833.756836	165.110443
11799.162234	1417.915000	832.573242	150.024902
11799.162234	1417.915000	831.389648	201.337173
11799.162234	1417.915000	830.206055	-63.322968
11799.162234	1417.915000	829.022461	-103.556168
11799.162234	1417.915000	827.838867	-39.521702
11799.162234	1417.915000	826.654297	-130.222977
11799.162234	1417.915000	825.469727	-88.265167
11799.162234	1417.915000	824.284180	-191.501251
11799.162234	1417.915000	823.099609	-452.462891
11799.162234	1417.915000	821.914063	-69.638222
11799.162234	1417.915000	820.728516	-141.202805
11799.162234	1417.915000	819.542969	49.057079
11799.162234	1417.915000	818.356445	-47.684200
11799.162234	1417.915000	817.169922	-216.873795
11799.162234	1417.915000	815.983398	8.019355
11799.162234	1417.915000	814.796875	59.520447
11799.162234	1417.915000	813.609375	117.322464
11799.162234	1417.915000	812.422852	58.572037
11799.162234	1417.915000	811.235352	166.780334
11799.162234	1417.915000	810.046875	145.869049
11799.162234	1417.915000	808.859375	121.839172
11799.162234	1417.915000	807.670898	107.281052
11799.162234	1417.915000	806.482422	-158.989044
11799.162234	1417.915000	805.293945	153.746399
11799.162234	1417.915000	804.104492	60.613014
11799.162234	1417.915000	802.915039	-117.371811
11799.162234	1417.915000	801.725586	100.894150
11799.162234	1417.915000	800.536133	155.628387
11799.162234	1417.915000	799.345703	40.646011
11799.162234	1417.915000	798.155273	-187.388229
11799.162234	1417.915000	796.964844	5.651303
11799.162234	1417.915000	795.774414	132.669540
11799.162234	1417.915000	794.583008	-41.807407
11799.162234	1417.915000	793.392578	-46.660912
11799.162234	1417.915000	792.200195	99.173409
11799.162234	1417.915000	791.008789	-37.481873
11799.162234	1417.915000	789.816406	-76.798767
11799.162234	1417.915000	788.625000	12.530667
11799.162234	1417.915000	787.432617	23.431124
11799.162234	1417.915000	786.239258	100.189346
11799.162234	1417.915000	785.046875	-108.356544
11799.162234	1417.915000	783.853516	-15.903874
11799.162234	1417.915000	782.660156	-1.819456
11799.162234	1417.915000	781.465820	-62.920887
11799.162234	1417.915000	780.272461	-4.954153
11799.162234	1417.915000	779.078125	-56.610661
11799.162234	1417.915000	777.883789	20.141140
11799.162234	1417.915000	776.688477	84.349876
11799.162234	1417.915000	775.494141	-64.285240
11799.162234	1417.915000	774.298828	-134.618637
11799.162234	1417.915000	773.103516	64.137001
11799.162234	1417.915000	771.907227	28.230522
11799.162234	1417.915000	770.711914	-23.288366
11799.162234	1417.915000	769.515625	122.194672
11799.162234	1417.915000	768.318359	-76.224167
11799.162234	1417.915000	767.122070	-49.536243
11799.162234	1417.915000	765.924805	20.892326
11799.162234	1417.915000	764.727539	-11.792804
11799.162234	1417.915000	763.530273	21.130489
11799.162234	1417.915000	762.333008	25.939987
11799.162234	1417.915000	761.134766	74.461655
11799.162234	1417.915000	759.936523	19.961222
11799.162234	1417.915000	758.738281	40.383438
11799.162234	1417.915000	757.540039	-32.801548
11799.162234	1417.915000	756.340820	-62.282429
11799.162234	1417.915000	755.141602	-7.542542
11799.162234	1417.915000	753.942383	31.584538
11799.162234	1417.915000	752.742188	-29.062555
11799.162234	1417.915000	751.541992	94.206657
11799.162234	1417.915000	750.341797	27.338852
11799.162234	1417.915000	749.141602	100.694771
11799.162234	1417.915000	747.941406	40.079479
11799.162234	1417.915000	746.740234	57.342335
11799.162234	1417.915000	745.539063	-56.174831
11799.162234	1417.915000	744.337891	7.788111
11799.162234	1417.915000	743.135742	6.361753
11799.162234	1417.915000	741.933594	197.851776
11799.162234	1417.915000	740.731445	190.154068
11799.162234	1417.915000	739.529297	117.137131
11799.162234	1417.915000	738.326172	327.122955
11799.162234	1417.915000	737.124023	322.491089
11799.162234	1417.915000	735.919922	265.012421
11799.162234	1417.915000	734.716797	639.520325
11799.162234	1417.915000	733.513672	529.159973
11799.162234	1417.915000	732.309570	487.177094
11799.162234	1417.915000	731.105469	892.432129
11799.162234	1417.915000	729.900391	586.434509
11799.162234	1417.915000	728.696289	718.281677
11799.162234	1417.915000	727.491211	216.882614
11799.162234	1417.915000	726.286133	382.861511
11799.162234	1417.915000	725.080078	151.634933
11799.162234	1417.915000	723.874023	84.889496
11799.162234	1417.915000	722.668945	179.420242
11799.162234	1417.915000	721.461914	13.447874
11799.162234	1417.915000	720.255859	-19.175356
11799.162234	1417.915000	719.048828	10.184082
11799.162234	1417.915000	717.841797	-99.924835
11799.162234	1417.915000	716.634766	-98.479294
11799.162234	1417.915000	715.427734	-84.663528
11799.162234	1417.915000	714.219727	34.413544
11799.162234	1417.915000	713.011719	-16.861153
11799.162234	1417.915000	711.803711	21.630899
11799.162234	1417.915000	710.594727	-79.178253
11799.162234	1417.915000	709.385742	101.594467
11799.162234	1417.915000	708.176758	121.410347
11799.162234	1417.915000	706.967773	-38.188255
11799.162234	1417.915000	705.758789	173.313660
11799.162234	1417.915000	704.548828	115.741631
11799.162234	1417.915000	703.338867	197.256165
11799.162234	1417.915000	702.127930	145.831177
11799.162234	1417.915000	700.917969	29.521893
11799.162234	1417.915000	699.707031	64.589233
11799.162234	1417.915000	698.496094	-51.709507
11799.162234	1417.915000	697.285156	270.450287
11799.162234	1417.915000	696.073242	-18.771042
11799.162234	1417.915000	694.861328	90.233498
11799.162234	1417.915000	693.649414	115.848099
11799.162234	1417.915000	692.436523	30.360973
11799.162234	1417.915000	691.224609	0.397069
11799.162234	1417.915000	690.011719	106.095894
11799.162234	1417.915000	688.798828	193.219849
11799.162234	1417.915000	687.584961	-43.380432
11799.162234	1417.915000	686.372070	108.388008
11799.162234	1417.915000	685.158203	189.191818
11799.162234	1417.915000	683.943359	97.420052
11799.162234	1417.915000	682.729492	242.797653
11799.162234	1417.915000	681.514648	314.177673
11799.162234	1417.915000	680.299805	28.381325
11799.162234	1417.915000	679.084961	327.465729
11799.162234	1417.915000	677.869141	247.885864
11799.162234	1417.915000	676.653320	192.914230
11799.162234	1417.915000	675.437500	230.204620
11799.162234	1417.915000	674.221680	328.946045
11799.162234	1417.915000	673.004883	224.679306
11799.162234	1417.915000	671.789063	267.968811
11799.162234	1417.915000	670.571289	255.877304
11799.162234	1417.915000	669.354492	-85.027962
11799.162234	1417.915000	668.136719	-66.402351
11799.162234	1417.915000	666.919922	-44.754375
11799.162234	1417.915000	665.701172	-1.665218
11799.162234	1417.915000	664.483398	182.589050
11799.162234	1417.915000	663.264648	237.803040
11799.162234	1417.915000	662.045898	185.542709
11799.162234	1417.915000	660.827148	136.328217
11799.162234	1417.915000	659.608398	225.126953
11799.162234	1417.915000	658.388672	117.563446
11799.162234	1417.915000	657.168945	285.959686
11799.162234	1417.915000	655.949219	163.009689
11799.162234	1417.915000	654.728516	171.855453
11799.162234	1417.915000	653.507813	55.016384
11799.162234	1417.915000	652.287109	5.579114
11799.162234	1417.915000	651.066406	112.327538
11799.162234	1417.915000	649.844727	209.795166
11799.162234	1417.915000	648.623047	98.980110
11799.162234	1417.915000	647.401367	119.787407
11799.162234	1417.915000	646.179688	116.054703
11799.162234	1417.915000	644.957031	118.393547
11799.162234	1417.915000	643.734375	25.850096
11799.162234	1417.915000	642.511719	193.264969
11799.162234	1417.915000	641.289063	73.126289
11799.162234	1417.915000	640.065430	136.416565
11799.162234	1417.915000	638.841797	129.330597
11799.162234	1417.915000	637.618164	-33.650284
11799.162234	1417.915000	636.393555	206.673157
11799.162234	1417.915000	635.168945	294.116974
11799.162234	1417.915000	633.944336	100.512115
11799.162234	1417.915000	632.719727	175.628036
11799.162234	1417.915000	631.494141	137.711746
11799.162234	1417.915000	630.269531	166.905716
11799.162234	1417.915000	629.042969	223.495911
11799.162234	1417.915000	627.817383	48.160168
11799.162234	1417.915000	626.590820	80.248856
11799.162234	1417.915000	625.365234	60.436073
11799.162234	1417.915000	624.137695	89.355049
11799.162234	1417.915000	622.911133	75.540573
11799.162234	1417.915000	621.683594	58.630856
11799.162234	1417.915000	620.456055	2.069551
11799.162234	1417.915000	619.228516	76.466110
11799.162234	1417.915000	618.000977	-38.042667
11799.162234	1417.915000	616.772461	14.912989
11799.162234	1417.915000	615.543945	34.308193
11799.162234	1417.915000	614.314453	68.860313
11799.162234	1417.915000	613.085938	103.349831
11799.162234	1417.915000	611.856445	222.955505
11799.162234	1417.915000	610.626953	-10.368848
11799.162234	1417.915000	609.397461	-36.857384
11799.162234	1417.915000	608.166992	61.266720
11799.162234	1417.915000	606.936523	-65.638229
11799.162234	1417.915000	605.706055	-70.977272
11799.162234	1417.915000	604.474609	-152.325195
11799.162234	1417.915000	603.244141	-185.081467
11799.162234	1417.915000	602.012695	-111.575615
11799.162234	1417.915000	600.780273	-360.018402
11799.162234	1417.915000	599.548828	83.766212
11799.162234	1417.915000	598.316406	-195.060318
11799.162234	1417.915000	597.083984	-91.465431
11799.162234	1417.915000	595.851563	-60.774921
11799.162234	1417.915000	594.618164	82.082718
11799.162234	1417.915000	593.384766	-5.644959
11799.162234	1417.915000	592.151367	85.504372
11799.162234	1417.915000	590.917969	58.347542
11799.162234	1417.915000	589.683594	28.122984
11799.162234	1417.915000	588.449219	-8.194014
11799.162234	1417.915000	587.214844	-123.303177
11799.162234	1417.915000	585.979492	-156.636047
11799.162234	1417.915000	584.745117	9.858409
11799.162234	1417.915000	583.509766	112.659401
11799.162234	1417.915000	582.273438	-169.030502
11799.162234	1417.915000	581.038086	-114.739113
11799.162234	1417.915000	579.801758	142.193283
11799.162234	1417.915000	578.565430	60.191547
11799.162234	1417.915000	577.329102	162.660568
11799.162234	1417.915000	576.091797	138.052444
11799.162234	1417.915000	574.854492	-128.417755
11799.162234	1417.915000	573.617188	16.215395
11799.162234	1417.915000	572.378906	106.356125
11799.162234	1417.915000	571.141602	21.207651
11799.162234	1417.915000	569.903320	-51.864628
11799.162234	1417.915000	568.664063	-43.413849
11799.162234	1417.915000	567.425781	-68.208252
11799.162234	1417.915000	566.186523	3.557838
11799.162234	1417.915000	564.947266	60.169132
11799.162234	1417.915000	563.708008	201.202515
11799.162234	1417.915000	562.467773	112.887238
11799.162234	1417.915000	561.227539	-147.324875
11799.162234	1417.915000	559.987305	-18.499514
11799.162234	1417.915000	558.747070	-76.661324
11799.162234	1417.915000	557.505859	-113.735382
11799.162234	1417.915000	556.264648	111.329849
11799.162234	1417.915000	555.023438	-1.141634
11799.162234	1417.915000	553.781250	-95.526115
11799.162234	1417.915000	552.539063	87.144035
11799.162234	1417.915000	551.296875	-7.272006
11799.162234	1417.915000	550.054688	33.777328
11799.162234	1417.915000	548.811523	-81.708321
11799.162234	1417.915000	547.569336	4.421567
11799.162234	1417.915000	546.325195	-93.011482
11799.162234	1417.915000	545.082031	-64.107666
11799.162234	1417.915000	543.837891	33.913651
11799.162234	1417.915000	542.593750	143.896255
11799.162234	1417.915000	541.349609	163.646622
11799.162234	1417.915000	540.105469	21.104979
11799.162234	1417.915000	538.860352	34.821659
11799.162234	1417.915000	537.615234	-98.661263
11799.162234	1417.915000	536.369141	140.256302
11799.162234	1417.915000	535.124023	3.772043
11799.162234	1417.915000	533.877930	-9.605085
11799.162234	1417.915000	532.631836	37.027374
11799.162234	1417.915000	531.384766	-36.391674
11799.162234	1417.915000	530.138672	154.186111
11799.162234	1417.915000	528.891602	197.710983
11799.162234	1417.915000	527.643555	-43.651295
11799.162234	1417.915000	526.396484	110.793152
11799.162234	1417.915000	525.148438	-25.567987
11799.162234	1417.915000	523.900391	-119.928932
11799.162234	1417.915000	522.652344	-13.535061
11799.162234	1417.915000	521.403320	-113.870438
11799.162234	1417.915000	520.154297	82.293549
11799.162234	1417.915000	518.905273	-30.009230
11799.162234	1417.915000	517.656250	-157.236115
11799.162234	1417.915000	516.406250	-83.911285
11799.162234	1417.915000	515.156250	-151.247589
11799.162234	1417.915000	513.906250	8.784869
11799.162234	1417.915000	512.655273	-172.201416
11799.162234	1417.915000	511.404297	59.517162
11799.162234	1417.915000	510.153320	-291.806885
11799.162234	1417.915000	508.902344	-78.099831
11799.162234	1417.915000	507.650391	-76.649651
11799.162234	1417.915000	506.398438	5.461510
11799.162234	1417.915000	505.146484	-166.346970
11799.162234	1417.915000	503.893555	-170.857330
11799.162234	1417.915000	502.641602	48.556622
11799.162234	1417.915000	501.388672	-9.727642
11799.162234	1417.915000	500.134766	21.539213
11799.162234	1417.915000	498.881836	-90.418121
11799.162234	1417.915000	497.627930	-35.281834
11799.162234	1417.915000	496.374023	-57.709538
11799.162234	1417.915000	495.119141	-208.344025
11799.162234	1417.915000	493.865234	-150.232300
11799.162234	1417.915000	492.610352	-23.598640
11799.162234	1417.915000	491.355469	7.629602
11799.162234	1417.915000	490.099609	-92.242287
11799.162234	1417.915000	488.843750	123.654167
11799.162234	1417.915000	487.587891	-193.581558
11799.162234	1417.915000	486.332031	-78.979904
11799.162234	1417.915000	485.075195	65.335510
11799.162234	1417.915000	483.818359	141.143097
11799.162234	1417.915000	482.561523	14.596784
11799.162234	1417.915000	481.304688	242.090729
11799.162234	1417.915000	480.046875	53.117294
11799.162234	1417.915000	478.789063	99.123566
11799.162234	1417.915000	477.531250	168.889221
11799.162234	1417.915000	476.272461	-64.535942
11799.162234	1417.915000	475.013672	23.054724
11799.162234	1417.915000	473.754883	158.137955
11799.162234	1417.915000	472.496094	-95.936546
11799.162234	1417.915000	471.236328	53.947132
11799.162234	1417.915000	469.976563	129.536346
11799.162234	1417.915000	468.716797	142.752838
11799.162234	1417.915000	467.456055	-63.653973
11799.162234	1417.915000	466.196289	56.390549
11799.162234	1417.915000	464.935547	143.737839
11799.162234	1417.915000	463.673828	195.441086
11799.162234	1417.915000	462.413086	72.173325
11799.162234	1417.915000	461.151367	289.847198
11799.162234	1417.915000	459.889648	190.284546
11799.162234	1417.915000	458.626953	235.935257
11799.162234	1417.915000	457.364258	-5.819390
11799.162234	1417.915000	456.101563	208.633759
11799.162234	1417.915000	454.838867	67.622597
11799.162234	1417.915000	453.575195	261.183441
11799.162234	1417.915000	452.312500	120.162498
11799.162234	1417.915000	451.047852	254.375061
11799.162234	1417.915000	449.784180	15.706724
11799.162234	1417.915000	448.519531	182.347000
11799.162234	1417.915000	447.254883	35.391193
11799.162234	1417.915000	445.990234	136.819672
11799.162234	1417.915000	444.725586	48.967171
11799.162234	1417.915000	443.459961	20.205648
11799.162234	1417.915000	442.194336	-35.191307
11799.162234	1417.915000	440.927734	272.736755
11799.162234	1417.915000	439.662109	358.958405
11799.162234	1417.915000	438.395508	344.673126
11799.162234	1417.915000	437.127930	427.743988
11799.162234	1417.915000	435.861328	224.401047
11799.162234	1417.915000	434.593750	274.847961
11799.162234	1417.915000	433.326172	289.785217
11799.162234	1417.915000	432.058594	399.018738
11799.162234	1417.915000	430.790039	257.434937
11799.162234	1417.915000	429.521484	186.576797
11799.162234	1417.915000	428.252930	271.879517
11799.162234	1417.915000	426.984375	124.210732
11799.162234	1417.915000	425.714844	218.100388
11799.162234	1417.915000	424.445313	76.158356
11799.162234	1417.915000	423.174805	231.614182
11799.162234	1417.915000	421.905273	269.092133
11799.162234	1417.915000	420.634766	200.424866
11799.162234	1417.915000	419.364258	311.184753
11799.162234	1417.915000	418.092773	262.832458
11799.162234	1417.915000	416.822266	382.043030
11799.162234	1417.915000	415.550781	380.430573
11799.162234	1417.915000	414.278320	358.051727
11799.162234	1417.915000	413.006836	367.847198
11799.162234	1417.915000	411.734375	433.290924
11799.162234	1417.915000	410.461914	325.113708
11799.162234	1417.915000	409.188477	219.706161
11799.162234	1417.915000	407.916016	393.204590
11799.162234	1417.915000	406.642578	328.502563
11799.162234	1417.915000	405.368164	527.852112
11799.162234	1417.915000	404.094727	403.953094
11799.162234	1417.915000	402.820313	711.295959
11799.162234	1417.915000	401.545898	281.704529
11799.162234	1417.915000	400.270508	550.250732
11799.162234	1417.915000	398.996094	618.948547
11799.162234	1417.915000	397.720703	300.223022
11799.162234	1417.915000	396.444336	356.592529
11799.162234	1417.915000	395.168945	351.069489
11799.162234	1417.915000	393.892578	125.413521
11799.162234	1417.915000	392.616211	4.986891
11799.162234	1417.915000	391.339844	373.447021
11799.162234	1417.915000	390.062500	422.140839
11799.162234	1417.915000	388.785156	37.079655
11799.162234	1417.915000	387.507813	167.006882
11799.162234	1417.915000	386.229492	434.011566
11799.162234	1417.915000	384.951172	270.331482
11799.162234	1417.915000	383.672852	112.131744
11799.162234	1417.915000	382.394531	327.921875
11799.162234	1417.915000	381.115234	300.423828
11799.162234	1417.915000	379.835938	-46.223419
11799.162234	1417.915000	378.556641	241.051926
11799.162234	1417.915000	377.277344	121.479530
11799.162234	1417.915000	375.997070	270.198151
11799.162234	1417.915000	374.716797	129.111267
11799.162234	1417.915000	373.435547	215.285629
11799.162234	1417.915000	372.155273	318.360016
11799.162234	1417.915000	370.874023	70.465714
11799.162234	1417.915000	369.591797	256.884125
11799.162234	1417.915000	368.310547	363.802368
11799.162234	1417.915000	367.028320	99.495995
11799.162234	1417.915000	365.746094	27.103802
11799.162234	1417.915000	364.463867	91.076698
11799.162234	1417.915000	363.180664	-0.246914
11799.162234	1417.915000	361.897461	289.531677
11799.162234	1417.915000	360.614258	193.746643
11799.162234	1417.915000	359.330078	280.720459
11799.162234	1417.915000	358.045898	-0.185136
11799.162234	1417.915000	356.761719	122.964088
11799.162234	1417.915000	355.477539	166.568634
11799.162234	1417.915000	354.192383	238.332947
11799.162234	1417.915000	352.907227	201.455109
11799.162234	1417.915000	351.622070	117.081062
11799.162234	1417.915000	350.336914	188.842514
11799.162234	1417.915000	349.050781	105.389923
11799.162234	1417.915000	347.764648	81.993195
11799.162234	1417.915000	346.477539	188.325363
11799.162234	1417.915000	345.191406	-2.918784
11799.162234	1417.915000	343.904297	-64.480278
11799.162234	1417.915000	342.616211	169.119003
11799.162234	1417.915000	341.329102	116.807510
11799.162234	1417.915000	340.041016	22.605680
11799.162234	1417.915000	338.752930	-67.008186
11799.162234	1417.915000	337.463867	233.943665
11799.162234	1417.915000	336.175781	-154.302734
11799.162234	1417.915000	334.886719	16.184639
11799.162234	1417.915000	333.596680	-110.713982
11799.162234	1417.915000	332.307617	-30.148188
11799.162234	1417.915000	331.017578	-142.494110
11799.162234	1417.915000	329.727539	-50.485279
11799.162234	1417.915000	328.436523	-186.168152
11799.162234	1417.915000	327.146484	-262.489990
11799.162234	1417.915000	325.855469	-204.295074
11799.162234	1417.915000	324.563477	-182.598541
11799.162234	1417.915000	323.272461	-191.536041
11799.162234	1417.915000	321.980469	-22.779993
11799.162234	1417.915000	320.688477	-49.822807
11799.162234	1417.915000	319.395508	2.276547
11799.162234	1417.915000	318.103516	-31.385605
11799.162234	1417.915000	316.810547	-0.492854
11799.162234	1417.915000	315.516602	100.644241
11799.162234	1417.915000	314.223633	-60.450043
11799.162234	1417.915000	312.929688	48.107403
11799.162234	1417.915000	311.635742	-85.381012
11799.162234	1417.915000	310.340820	-177.713638
11799.162234	1417.915000	309.045898	-220.242096
11799.162234	1417.915000	307.750977	75.756218
11799.162234	1417.915000	306.456055	126.740311
11799.162234	1417.915000	305.160156	218.543777
11799.162234	1417.915000	303.865234	296.381683
11799.162234	1417.915000	302.568359	201.291077
11799.162234	1417.915000	301.272461	360.507507
11799.162234	1417.915000	299.975586	837.114380
11799.162234	1417.915000	298.678711	736.980042
