#X		#Y		#Wave		#Intensity
11890.746277	1532.986667	1999.980469	32.746181
11890.746277	1532.986667	1999.016602	62.952930
11890.746277	1532.986667	1998.052734	-57.931808
11890.746277	1532.986667	1997.087891	-218.568222
11890.746277	1532.986667	1996.123047	-156.295746
11890.746277	1532.986667	1995.158203	27.200676
11890.746277	1532.986667	1994.193359	-22.315720
11890.746277	1532.986667	1993.228516	66.732613
11890.746277	1532.986667	1992.262695	24.407888
11890.746277	1532.986667	1991.297852	204.768890
11890.746277	1532.986667	1990.332031	-87.757797
11890.746277	1532.986667	1989.366211	126.981621
11890.746277	1532.986667	1988.399414	175.781921
11890.746277	1532.986667	1987.433594	118.105637
11890.746277	1532.986667	1986.466797	191.431763
11890.746277	1532.986667	1985.500977	230.026733
11890.746277	1532.986667	1984.534180	53.444153
11890.746277	1532.986667	1983.567383	215.471619
11890.746277	1532.986667	1982.599609	-13.094310
11890.746277	1532.986667	1981.632813	69.672188
11890.746277	1532.986667	1980.665039	-99.633293
11890.746277	1532.986667	1979.697266	20.034559
11890.746277	1532.986667	1978.729492	95.148201
11890.746277	1532.986667	1977.761719	-111.282906
11890.746277	1532.986667	1976.792969	109.356194
11890.746277	1532.986667	1975.825195	23.829378
11890.746277	1532.986667	1974.856445	-170.286606
11890.746277	1532.986667	1973.887695	59.969391
11890.746277	1532.986667	1972.918945	-60.166096
11890.746277	1532.986667	1971.949219	125.513031
11890.746277	1532.986667	1970.980469	-73.564308
11890.746277	1532.986667	1970.010742	57.746147
11890.746277	1532.986667	1969.041016	-82.151314
11890.746277	1532.986667	1968.071289	196.919861
11890.746277	1532.986667	1967.101563	54.535545
11890.746277	1532.986667	1966.130859	126.501793
11890.746277	1532.986667	1965.161133	-6.003653
11890.746277	1532.986667	1964.190430	253.065079
11890.746277	1532.986667	1963.219727	46.691994
11890.746277	1532.986667	1962.249023	52.083466
11890.746277	1532.986667	1961.277344	96.840012
11890.746277	1532.986667	1960.306641	112.046356
11890.746277	1532.986667	1959.334961	73.115082
11890.746277	1532.986667	1958.363281	-39.599003
11890.746277	1532.986667	1957.391602	83.823967
11890.746277	1532.986667	1956.419922	-28.849533
11890.746277	1532.986667	1955.447266	-65.270370
11890.746277	1532.986667	1954.474609	45.803688
11890.746277	1532.986667	1953.501953	-120.855209
11890.746277	1532.986667	1952.529297	-85.967186
11890.746277	1532.986667	1951.556641	-107.584435
11890.746277	1532.986667	1950.583984	57.482960
11890.746277	1532.986667	1949.610352	84.980286
11890.746277	1532.986667	1948.636719	159.129822
11890.746277	1532.986667	1947.663086	71.252174
11890.746277	1532.986667	1946.689453	297.573151
11890.746277	1532.986667	1945.715820	40.419117
11890.746277	1532.986667	1944.741211	36.075172
11890.746277	1532.986667	1943.767578	73.454781
11890.746277	1532.986667	1942.792969	47.073299
11890.746277	1532.986667	1941.818359	167.842941
11890.746277	1532.986667	1940.842773	-194.370239
11890.746277	1532.986667	1939.868164	14.684706
11890.746277	1532.986667	1938.892578	27.630550
11890.746277	1532.986667	1937.916992	-69.662788
11890.746277	1532.986667	1936.941406	24.184267
11890.746277	1532.986667	1935.965820	56.790516
11890.746277	1532.986667	1934.990234	-108.945023
11890.746277	1532.986667	1934.013672	-56.689663
11890.746277	1532.986667	1933.037109	42.085346
11890.746277	1532.986667	1932.060547	221.615799
11890.746277	1532.986667	1931.083984	-78.504166
11890.746277	1532.986667	1930.107422	54.553959
11890.746277	1532.986667	1929.129883	-123.063736
11890.746277	1532.986667	1928.153320	-80.476639
11890.746277	1532.986667	1927.175781	-94.117516
11890.746277	1532.986667	1926.198242	95.188362
11890.746277	1532.986667	1925.219727	3.360485
11890.746277	1532.986667	1924.242188	24.014431
11890.746277	1532.986667	1923.263672	103.328842
11890.746277	1532.986667	1922.285156	-247.306000
11890.746277	1532.986667	1921.306641	66.564026
11890.746277	1532.986667	1920.328125	282.668365
11890.746277	1532.986667	1919.349609	-28.649252
11890.746277	1532.986667	1918.370117	104.453476
11890.746277	1532.986667	1917.391602	91.100235
11890.746277	1532.986667	1916.412109	-51.547707
11890.746277	1532.986667	1915.431641	-3.816610
11890.746277	1532.986667	1914.452148	165.889587
11890.746277	1532.986667	1913.472656	113.630875
11890.746277	1532.986667	1912.492188	-9.293375
11890.746277	1532.986667	1911.511719	-134.579514
11890.746277	1532.986667	1910.531250	-89.171234
11890.746277	1532.986667	1909.550781	-170.474152
11890.746277	1532.986667	1908.569336	13.860888
11890.746277	1532.986667	1907.588867	-167.256195
11890.746277	1532.986667	1906.607422	68.212151
11890.746277	1532.986667	1905.625977	-217.506912
11890.746277	1532.986667	1904.644531	-28.325016
11890.746277	1532.986667	1903.662109	-75.310928
11890.746277	1532.986667	1902.680664	-20.034624
11890.746277	1532.986667	1901.698242	-28.022848
11890.746277	1532.986667	1900.715820	-26.251822
11890.746277	1532.986667	1899.733398	-34.187946
11890.746277	1532.986667	1898.750000	38.155674
11890.746277	1532.986667	1897.767578	-25.670189
11890.746277	1532.986667	1896.784180	29.671148
11890.746277	1532.986667	1895.800781	-4.919802
11890.746277	1532.986667	1894.817383	-71.069687
11890.746277	1532.986667	1893.833984	52.341888
11890.746277	1532.986667	1892.850586	127.140396
11890.746277	1532.986667	1891.866211	-4.518309
11890.746277	1532.986667	1890.881836	7.160640
11890.746277	1532.986667	1889.897461	-141.387970
11890.746277	1532.986667	1888.913086	-251.026230
11890.746277	1532.986667	1887.927734	-3.843375
11890.746277	1532.986667	1886.943359	10.316218
11890.746277	1532.986667	1885.958008	-140.489807
11890.746277	1532.986667	1884.972656	-131.135727
11890.746277	1532.986667	1883.987305	62.538761
11890.746277	1532.986667	1883.001953	11.257434
11890.746277	1532.986667	1882.015625	-32.723248
11890.746277	1532.986667	1881.029297	-18.507141
11890.746277	1532.986667	1880.042969	-86.681061
11890.746277	1532.986667	1879.056641	218.303925
11890.746277	1532.986667	1878.070313	26.581694
11890.746277	1532.986667	1877.083984	9.319312
11890.746277	1532.986667	1876.096680	9.019338
11890.746277	1532.986667	1875.109375	124.934250
11890.746277	1532.986667	1874.122070	10.850236
11890.746277	1532.986667	1873.134766	-47.524639
11890.746277	1532.986667	1872.146484	-139.753265
11890.746277	1532.986667	1871.159180	-48.081802
11890.746277	1532.986667	1870.170898	55.648098
11890.746277	1532.986667	1869.182617	86.786507
11890.746277	1532.986667	1868.194336	-7.819860
11890.746277	1532.986667	1867.205078	-49.211468
11890.746277	1532.986667	1866.216797	117.270790
11890.746277	1532.986667	1865.227539	-44.964779
11890.746277	1532.986667	1864.238281	15.134038
11890.746277	1532.986667	1863.249023	193.569214
11890.746277	1532.986667	1862.259766	-19.330164
11890.746277	1532.986667	1861.269531	9.313387
11890.746277	1532.986667	1860.279297	-184.176437
11890.746277	1532.986667	1859.290039	-61.394814
11890.746277	1532.986667	1858.298828	37.193851
11890.746277	1532.986667	1857.308594	-69.364006
11890.746277	1532.986667	1856.318359	-7.023964
11890.746277	1532.986667	1855.327148	62.512264
11890.746277	1532.986667	1854.335938	9.017674
11890.746277	1532.986667	1853.344727	71.258873
11890.746277	1532.986667	1852.353516	56.317894
11890.746277	1532.986667	1851.362305	19.671318
11890.746277	1532.986667	1850.370117	-16.981285
11890.746277	1532.986667	1849.377930	105.371445
11890.746277	1532.986667	1848.385742	-8.410130
11890.746277	1532.986667	1847.393555	381.180847
11890.746277	1532.986667	1846.401367	132.499893
11890.746277	1532.986667	1845.408203	160.746445
11890.746277	1532.986667	1844.415039	25.278694
11890.746277	1532.986667	1843.421875	171.404266
11890.746277	1532.986667	1842.428711	218.796066
11890.746277	1532.986667	1841.435547	-15.321248
11890.746277	1532.986667	1840.441406	270.145233
11890.746277	1532.986667	1839.448242	38.450230
11890.746277	1532.986667	1838.454102	1.559787
11890.746277	1532.986667	1837.459961	77.631104
11890.746277	1532.986667	1836.464844	47.890778
11890.746277	1532.986667	1835.470703	251.213928
11890.746277	1532.986667	1834.475586	151.708923
11890.746277	1532.986667	1833.480469	25.783131
11890.746277	1532.986667	1832.485352	111.208122
11890.746277	1532.986667	1831.490234	119.726189
11890.746277	1532.986667	1830.495117	22.571827
11890.746277	1532.986667	1829.499023	86.229240
11890.746277	1532.986667	1828.502930	8.234899
11890.746277	1532.986667	1827.506836	251.738358
11890.746277	1532.986667	1826.510742	204.843246
11890.746277	1532.986667	1825.513672	-17.163576
11890.746277	1532.986667	1824.517578	-126.424690
11890.746277	1532.986667	1823.520508	212.646072
11890.746277	1532.986667	1822.523438	177.600113
11890.746277	1532.986667	1821.526367	152.107529
11890.746277	1532.986667	1820.529297	294.308167
11890.746277	1532.986667	1819.531250	134.545273
11890.746277	1532.986667	1818.533203	-68.320953
11890.746277	1532.986667	1817.535156	200.617920
11890.746277	1532.986667	1816.537109	143.771317
11890.746277	1532.986667	1815.539063	67.742981
11890.746277	1532.986667	1814.540039	82.641594
11890.746277	1532.986667	1813.541992	44.837433
11890.746277	1532.986667	1812.542969	95.516319
11890.746277	1532.986667	1811.543945	318.352356
11890.746277	1532.986667	1810.543945	254.049713
11890.746277	1532.986667	1809.544922	-56.575516
11890.746277	1532.986667	1808.544922	168.384750
11890.746277	1532.986667	1807.544922	130.270859
11890.746277	1532.986667	1806.544922	216.384918
11890.746277	1532.986667	1805.544922	6.123756
11890.746277	1532.986667	1804.544922	-115.726135
11890.746277	1532.986667	1803.543945	132.622162
11890.746277	1532.986667	1802.542969	-29.924276
11890.746277	1532.986667	1801.541992	51.061718
11890.746277	1532.986667	1800.541016	17.373512
11890.746277	1532.986667	1799.539063	136.380844
11890.746277	1532.986667	1798.538086	264.826904
11890.746277	1532.986667	1797.536133	32.906742
11890.746277	1532.986667	1796.534180	220.827682
11890.746277	1532.986667	1795.532227	172.509140
11890.746277	1532.986667	1794.529297	35.918266
11890.746277	1532.986667	1793.527344	-55.388603
11890.746277	1532.986667	1792.524414	203.647324
11890.746277	1532.986667	1791.521484	150.336243
11890.746277	1532.986667	1790.518555	63.622063
11890.746277	1532.986667	1789.514648	43.569321
11890.746277	1532.986667	1788.511719	178.271194
11890.746277	1532.986667	1787.507813	50.911880
11890.746277	1532.986667	1786.503906	147.327347
11890.746277	1532.986667	1785.500000	253.157837
11890.746277	1532.986667	1784.496094	270.821930
11890.746277	1532.986667	1783.491211	79.012772
11890.746277	1532.986667	1782.486328	115.590073
11890.746277	1532.986667	1781.481445	-21.551943
11890.746277	1532.986667	1780.476563	102.877403
11890.746277	1532.986667	1779.471680	1.311413
11890.746277	1532.986667	1778.465820	99.392159
11890.746277	1532.986667	1777.460938	154.585510
11890.746277	1532.986667	1776.455078	-39.829952
11890.746277	1532.986667	1775.449219	-48.928520
11890.746277	1532.986667	1774.442383	155.683624
11890.746277	1532.986667	1773.436523	353.023743
11890.746277	1532.986667	1772.429688	32.571068
11890.746277	1532.986667	1771.422852	253.446960
11890.746277	1532.986667	1770.416016	84.896355
11890.746277	1532.986667	1769.409180	137.036255
11890.746277	1532.986667	1768.402344	82.310852
11890.746277	1532.986667	1767.394531	-107.692123
11890.746277	1532.986667	1766.386719	-32.057896
11890.746277	1532.986667	1765.378906	154.925308
11890.746277	1532.986667	1764.371094	19.320864
11890.746277	1532.986667	1763.362305	170.509262
11890.746277	1532.986667	1762.354492	-5.487626
11890.746277	1532.986667	1761.345703	-77.240791
11890.746277	1532.986667	1760.336914	4.948218
11890.746277	1532.986667	1759.328125	84.661392
11890.746277	1532.986667	1758.318359	225.834595
11890.746277	1532.986667	1757.308594	-113.771927
11890.746277	1532.986667	1756.299805	-138.471878
11890.746277	1532.986667	1755.290039	40.302624
11890.746277	1532.986667	1754.279297	-72.138062
11890.746277	1532.986667	1753.269531	-201.169113
11890.746277	1532.986667	1752.258789	-41.643917
11890.746277	1532.986667	1751.249023	-76.183441
11890.746277	1532.986667	1750.238281	-37.490952
11890.746277	1532.986667	1749.226563	8.197088
11890.746277	1532.986667	1748.215820	-31.295464
11890.746277	1532.986667	1747.204102	-106.304108
11890.746277	1532.986667	1746.193359	248.671097
11890.746277	1532.986667	1745.181641	185.297318
11890.746277	1532.986667	1744.168945	1.407504
11890.746277	1532.986667	1743.157227	48.938587
11890.746277	1532.986667	1742.144531	39.705788
11890.746277	1532.986667	1741.132813	-189.122208
11890.746277	1532.986667	1740.120117	-26.172834
11890.746277	1532.986667	1739.106445	-42.699974
11890.746277	1532.986667	1738.093750	-120.627274
11890.746277	1532.986667	1737.080078	-146.715332
11890.746277	1532.986667	1736.067383	169.087112
11890.746277	1532.986667	1735.053711	-137.777679
11890.746277	1532.986667	1734.040039	-199.433289
11890.746277	1532.986667	1733.025391	-214.007797
11890.746277	1532.986667	1732.011719	-54.265728
11890.746277	1532.986667	1730.997070	-36.027046
11890.746277	1532.986667	1729.982422	-203.959946
11890.746277	1532.986667	1728.967773	-225.883423
11890.746277	1532.986667	1727.952148	-83.052780
11890.746277	1532.986667	1726.937500	-50.990616
11890.746277	1532.986667	1725.921875	-197.907150
11890.746277	1532.986667	1724.906250	-57.734806
11890.746277	1532.986667	1723.890625	-18.860912
11890.746277	1532.986667	1722.875000	-220.021393
11890.746277	1532.986667	1721.858398	-294.176941
11890.746277	1532.986667	1720.841797	17.274490
11890.746277	1532.986667	1719.825195	173.365540
11890.746277	1532.986667	1718.808594	59.004871
11890.746277	1532.986667	1717.791992	-107.084404
11890.746277	1532.986667	1716.774414	-254.390594
11890.746277	1532.986667	1715.756836	-23.476330
11890.746277	1532.986667	1714.739258	-58.135059
11890.746277	1532.986667	1713.721680	-50.578197
11890.746277	1532.986667	1712.704102	-139.356995
11890.746277	1532.986667	1711.685547	-23.946341
11890.746277	1532.986667	1710.667969	60.850178
11890.746277	1532.986667	1709.649414	-9.333797
11890.746277	1532.986667	1708.630859	-194.516449
11890.746277	1532.986667	1707.611328	-93.530266
11890.746277	1532.986667	1706.592773	-18.435177
11890.746277	1532.986667	1705.573242	-77.094055
11890.746277	1532.986667	1704.553711	28.309177
11890.746277	1532.986667	1703.534180	72.667702
11890.746277	1532.986667	1702.513672	11.483744
11890.746277	1532.986667	1701.494141	-115.332275
11890.746277	1532.986667	1700.473633	38.933403
11890.746277	1532.986667	1699.453125	-237.862762
11890.746277	1532.986667	1698.432617	-15.846126
11890.746277	1532.986667	1697.412109	-21.068743
11890.746277	1532.986667	1696.390625	93.020164
11890.746277	1532.986667	1695.369141	99.353470
11890.746277	1532.986667	1694.347656	-79.218536
11890.746277	1532.986667	1693.326172	196.059708
11890.746277	1532.986667	1692.304688	157.761185
11890.746277	1532.986667	1691.282227	161.503860
11890.746277	1532.986667	1690.260742	41.284328
11890.746277	1532.986667	1689.238281	332.460846
11890.746277	1532.986667	1688.214844	380.401184
11890.746277	1532.986667	1687.192383	145.542725
11890.746277	1532.986667	1686.168945	170.033463
11890.746277	1532.986667	1685.146484	147.757248
11890.746277	1532.986667	1684.123047	-28.702513
11890.746277	1532.986667	1683.099609	28.344563
11890.746277	1532.986667	1682.075195	43.290524
11890.746277	1532.986667	1681.051758	76.864311
11890.746277	1532.986667	1680.027344	101.032806
11890.746277	1532.986667	1679.002930	192.804962
11890.746277	1532.986667	1677.978516	107.215752
11890.746277	1532.986667	1676.953125	142.876801
11890.746277	1532.986667	1675.928711	59.572151
11890.746277	1532.986667	1674.903320	29.865030
11890.746277	1532.986667	1673.877930	158.623001
11890.746277	1532.986667	1672.852539	478.381073
11890.746277	1532.986667	1671.826172	194.510498
11890.746277	1532.986667	1670.800781	-12.408402
11890.746277	1532.986667	1669.774414	132.388458
11890.746277	1532.986667	1668.748047	25.601849
11890.746277	1532.986667	1667.721680	272.696503
11890.746277	1532.986667	1666.694336	147.217377
11890.746277	1532.986667	1665.667969	-69.001930
11890.746277	1532.986667	1664.640625	-22.255253
11890.746277	1532.986667	1663.613281	305.924988
11890.746277	1532.986667	1662.585938	157.137329
11890.746277	1532.986667	1661.557617	287.416840
11890.746277	1532.986667	1660.530273	199.074982
11890.746277	1532.986667	1659.501953	182.787399
11890.746277	1532.986667	1658.473633	17.732761
11890.746277	1532.986667	1657.444336	254.692139
11890.746277	1532.986667	1656.416016	335.889313
11890.746277	1532.986667	1655.386719	547.089600
11890.746277	1532.986667	1654.358398	265.865570
11890.746277	1532.986667	1653.328125	395.670654
11890.746277	1532.986667	1652.298828	400.056183
11890.746277	1532.986667	1651.269531	316.219208
11890.746277	1532.986667	1650.239258	406.418243
11890.746277	1532.986667	1649.208984	396.798950
11890.746277	1532.986667	1648.178711	472.987305
11890.746277	1532.986667	1647.148438	484.189301
11890.746277	1532.986667	1646.117188	465.214233
11890.746277	1532.986667	1645.086914	409.146667
11890.746277	1532.986667	1644.055664	438.832611
11890.746277	1532.986667	1643.024414	336.400299
11890.746277	1532.986667	1641.992188	553.714600
11890.746277	1532.986667	1640.960938	743.144409
11890.746277	1532.986667	1639.928711	663.817871
11890.746277	1532.986667	1638.896484	864.693420
11890.746277	1532.986667	1637.864258	539.948669
11890.746277	1532.986667	1636.832031	766.209656
11890.746277	1532.986667	1635.798828	693.828552
11890.746277	1532.986667	1634.766602	695.518066
11890.746277	1532.986667	1633.733398	593.088867
11890.746277	1532.986667	1632.699219	964.820374
11890.746277	1532.986667	1631.666016	536.314819
11890.746277	1532.986667	1630.632813	561.117859
11890.746277	1532.986667	1629.598633	826.294434
11890.746277	1532.986667	1628.564453	931.901611
11890.746277	1532.986667	1627.530273	924.245117
11890.746277	1532.986667	1626.495117	734.076538
11890.746277	1532.986667	1625.460938	1153.760864
11890.746277	1532.986667	1624.425781	1155.292480
11890.746277	1532.986667	1623.390625	972.119080
11890.746277	1532.986667	1622.355469	862.889099
11890.746277	1532.986667	1621.319336	1014.490906
11890.746277	1532.986667	1620.284180	939.916382
11890.746277	1532.986667	1619.248047	1158.360229
11890.746277	1532.986667	1618.211914	1166.825806
11890.746277	1532.986667	1617.174805	923.917175
11890.746277	1532.986667	1616.138672	881.718018
11890.746277	1532.986667	1615.101563	1141.520752
11890.746277	1532.986667	1614.065430	732.856262
11890.746277	1532.986667	1613.027344	1050.208130
11890.746277	1532.986667	1611.990234	920.504883
11890.746277	1532.986667	1610.953125	892.218933
11890.746277	1532.986667	1609.915039	1273.880371
11890.746277	1532.986667	1608.876953	1342.263916
11890.746277	1532.986667	1607.838867	1162.011108
11890.746277	1532.986667	1606.800781	1198.202026
11890.746277	1532.986667	1605.761719	882.303345
11890.746277	1532.986667	1604.723633	1054.319336
11890.746277	1532.986667	1603.684570	1065.256470
11890.746277	1532.986667	1602.644531	1124.497803
11890.746277	1532.986667	1601.605469	1264.228882
11890.746277	1532.986667	1600.566406	1155.643066
11890.746277	1532.986667	1599.526367	1362.009888
11890.746277	1532.986667	1598.486328	1081.133057
11890.746277	1532.986667	1597.446289	1080.702148
11890.746277	1532.986667	1596.405273	1202.038330
11890.746277	1532.986667	1595.365234	1311.883667
11890.746277	1532.986667	1594.324219	1192.078369
11890.746277	1532.986667	1593.283203	1407.541016
11890.746277	1532.986667	1592.242188	1471.457397
11890.746277	1532.986667	1591.200195	1149.823730
11890.746277	1532.986667	1590.159180	1356.089478
11890.746277	1532.986667	1589.117188	1392.541748
11890.746277	1532.986667	1588.075195	1390.025513
11890.746277	1532.986667	1587.032227	1403.587524
11890.746277	1532.986667	1585.990234	1187.925659
11890.746277	1532.986667	1584.947266	1511.050781
11890.746277	1532.986667	1583.904297	1508.655762
11890.746277	1532.986667	1582.861328	1332.161377
11890.746277	1532.986667	1581.818359	1272.613525
11890.746277	1532.986667	1580.775391	1384.914429
11890.746277	1532.986667	1579.731445	1398.734863
11890.746277	1532.986667	1578.687500	1089.769165
11890.746277	1532.986667	1577.643555	1296.016479
11890.746277	1532.986667	1576.598633	1245.891602
11890.746277	1532.986667	1575.554688	1358.304810
11890.746277	1532.986667	1574.509766	1095.522583
11890.746277	1532.986667	1573.464844	1159.976563
11890.746277	1532.986667	1572.419922	1119.259155
11890.746277	1532.986667	1571.374023	1083.173584
11890.746277	1532.986667	1570.329102	1193.464233
11890.746277	1532.986667	1569.283203	997.496765
11890.746277	1532.986667	1568.237305	1130.708374
11890.746277	1532.986667	1567.191406	1088.008057
11890.746277	1532.986667	1566.144531	1011.108276
11890.746277	1532.986667	1565.098633	897.765564
11890.746277	1532.986667	1564.051758	1017.407654
11890.746277	1532.986667	1563.004883	1011.506653
11890.746277	1532.986667	1561.957031	629.067932
11890.746277	1532.986667	1560.910156	653.029419
11890.746277	1532.986667	1559.862305	932.558533
11890.746277	1532.986667	1558.814453	808.297791
11890.746277	1532.986667	1557.766602	697.833130
11890.746277	1532.986667	1556.718750	831.448486
11890.746277	1532.986667	1555.669922	830.565613
11890.746277	1532.986667	1554.621094	809.235229
11890.746277	1532.986667	1553.573242	790.267334
11890.746277	1532.986667	1552.523438	646.048279
11890.746277	1532.986667	1551.474609	923.369995
11890.746277	1532.986667	1550.424805	872.692078
11890.746277	1532.986667	1549.375000	803.887939
11890.746277	1532.986667	1548.325195	983.323547
11890.746277	1532.986667	1547.275391	734.854126
11890.746277	1532.986667	1546.225586	850.657227
11890.746277	1532.986667	1545.174805	932.351563
11890.746277	1532.986667	1544.124023	718.369751
11890.746277	1532.986667	1543.073242	750.169617
11890.746277	1532.986667	1542.022461	747.924622
11890.746277	1532.986667	1540.970703	786.669861
11890.746277	1532.986667	1539.919922	741.384338
11890.746277	1532.986667	1538.868164	871.168640
11890.746277	1532.986667	1537.815430	662.435852
11890.746277	1532.986667	1536.763672	671.946655
11890.746277	1532.986667	1535.710938	726.947754
11890.746277	1532.986667	1534.659180	677.561768
11890.746277	1532.986667	1533.606445	219.621582
11890.746277	1532.986667	1532.552734	572.259949
11890.746277	1532.986667	1531.500000	595.791382
11890.746277	1532.986667	1530.446289	578.547302
11890.746277	1532.986667	1529.393555	434.367340
11890.746277	1532.986667	1528.338867	705.362610
11890.746277	1532.986667	1527.285156	477.474945
11890.746277	1532.986667	1526.231445	530.887634
11890.746277	1532.986667	1525.176758	312.357483
11890.746277	1532.986667	1524.122070	214.109467
11890.746277	1532.986667	1523.067383	351.630493
11890.746277	1532.986667	1522.012695	403.102783
11890.746277	1532.986667	1520.957031	454.635986
11890.746277	1532.986667	1519.901367	-80.251328
11890.746277	1532.986667	1518.845703	211.520462
11890.746277	1532.986667	1517.790039	147.890366
11890.746277	1532.986667	1516.734375	88.902870
11890.746277	1532.986667	1515.677734	265.340881
11890.746277	1532.986667	1514.621094	161.287918
11890.746277	1532.986667	1513.564453	184.027664
11890.746277	1532.986667	1512.507813	191.022522
11890.746277	1532.986667	1511.450195	345.058685
11890.746277	1532.986667	1510.393555	313.780182
11890.746277	1532.986667	1509.335938	470.180786
11890.746277	1532.986667	1508.278320	448.112976
11890.746277	1532.986667	1507.219727	496.176727
11890.746277	1532.986667	1506.162109	316.202820
11890.746277	1532.986667	1505.103516	280.915222
11890.746277	1532.986667	1504.044922	144.141602
11890.746277	1532.986667	1502.986328	495.091339
11890.746277	1532.986667	1501.926758	588.718384
11890.746277	1532.986667	1500.868164	219.853455
11890.746277	1532.986667	1499.808594	467.099396
11890.746277	1532.986667	1498.749023	403.090942
11890.746277	1532.986667	1497.688477	264.788239
11890.746277	1532.986667	1496.628906	243.883560
11890.746277	1532.986667	1495.568359	132.918900
11890.746277	1532.986667	1494.507813	281.274719
11890.746277	1532.986667	1493.447266	224.629044
11890.746277	1532.986667	1492.386719	348.331848
11890.746277	1532.986667	1491.325195	391.000000
11890.746277	1532.986667	1490.263672	399.976410
11890.746277	1532.986667	1489.202148	613.935181
11890.746277	1532.986667	1488.140625	397.971375
11890.746277	1532.986667	1487.079102	537.785400
11890.746277	1532.986667	1486.016602	659.645081
11890.746277	1532.986667	1484.954102	300.132874
11890.746277	1532.986667	1483.891602	617.883911
11890.746277	1532.986667	1482.829102	512.846680
11890.746277	1532.986667	1481.765625	529.364380
11890.746277	1532.986667	1480.702148	123.392296
11890.746277	1532.986667	1479.638672	542.477478
11890.746277	1532.986667	1478.575195	204.301804
11890.746277	1532.986667	1477.511719	237.027542
11890.746277	1532.986667	1476.447266	312.518005
11890.746277	1532.986667	1475.382813	132.132126
11890.746277	1532.986667	1474.318359	48.405231
11890.746277	1532.986667	1473.253906	104.009369
11890.746277	1532.986667	1472.189453	157.550140
11890.746277	1532.986667	1471.124023	2.475282
11890.746277	1532.986667	1470.058594	33.609016
11890.746277	1532.986667	1468.993164	69.360641
11890.746277	1532.986667	1467.927734	78.687309
11890.746277	1532.986667	1466.861328	56.225582
11890.746277	1532.986667	1465.794922	94.543388
11890.746277	1532.986667	1464.728516	379.020691
11890.746277	1532.986667	1463.662109	99.870476
11890.746277	1532.986667	1462.594727	140.709152
11890.746277	1532.986667	1461.528320	353.698669
11890.746277	1532.986667	1460.460938	155.552414
11890.746277	1532.986667	1459.393555	288.834686
11890.746277	1532.986667	1458.326172	199.756454
11890.746277	1532.986667	1457.257813	205.108459
11890.746277	1532.986667	1456.189453	209.222275
11890.746277	1532.986667	1455.121094	121.116455
11890.746277	1532.986667	1454.052734	177.152313
11890.746277	1532.986667	1452.984375	253.585693
11890.746277	1532.986667	1451.915039	92.236107
11890.746277	1532.986667	1450.845703	260.659180
11890.746277	1532.986667	1449.776367	64.924232
11890.746277	1532.986667	1448.707031	251.079010
11890.746277	1532.986667	1447.636719	278.987396
11890.746277	1532.986667	1446.567383	145.530960
11890.746277	1532.986667	1445.497070	3.766655
11890.746277	1532.986667	1444.425781	173.683945
11890.746277	1532.986667	1443.355469	186.684280
11890.746277	1532.986667	1442.285156	17.845541
11890.746277	1532.986667	1441.213867	112.127831
11890.746277	1532.986667	1440.142578	102.290741
11890.746277	1532.986667	1439.070313	33.669544
11890.746277	1532.986667	1437.999023	64.329689
11890.746277	1532.986667	1436.926758	-104.793381
11890.746277	1532.986667	1435.854492	114.977448
11890.746277	1532.986667	1434.782227	-156.013275
11890.746277	1532.986667	1433.709961	-124.416130
11890.746277	1532.986667	1432.636719	-336.864960
11890.746277	1532.986667	1431.563477	-79.714401
11890.746277	1532.986667	1430.490234	-161.330826
11890.746277	1532.986667	1429.416992	-225.966431
11890.746277	1532.986667	1428.343750	-249.169266
11890.746277	1532.986667	1427.269531	-197.222168
11890.746277	1532.986667	1426.195313	-205.075989
11890.746277	1532.986667	1425.121094	-366.519043
11890.746277	1532.986667	1424.046875	-365.603363
11890.746277	1532.986667	1422.971680	-272.914124
11890.746277	1532.986667	1421.896484	-173.526657
11890.746277	1532.986667	1420.821289	-29.204893
11890.746277	1532.986667	1419.746094	72.980568
11890.746277	1532.986667	1418.669922	-129.763123
11890.746277	1532.986667	1417.594727	-88.186050
11890.746277	1532.986667	1416.518555	-302.380341
11890.746277	1532.986667	1415.442383	23.471596
11890.746277	1532.986667	1414.365234	-37.965679
11890.746277	1532.986667	1413.289063	-11.912782
11890.746277	1532.986667	1412.211914	-24.836115
11890.746277	1532.986667	1411.134766	71.302216
11890.746277	1532.986667	1410.057617	9.169819
11890.746277	1532.986667	1408.979492	34.834023
11890.746277	1532.986667	1407.902344	88.380821
11890.746277	1532.986667	1406.824219	-99.590797
11890.746277	1532.986667	1405.746094	41.001450
11890.746277	1532.986667	1404.666992	455.894196
11890.746277	1532.986667	1403.588867	162.108185
11890.746277	1532.986667	1402.509766	-68.432648
11890.746277	1532.986667	1401.430664	162.161194
11890.746277	1532.986667	1400.351563	235.460556
11890.746277	1532.986667	1399.271484	210.217163
11890.746277	1532.986667	1398.192383	309.235931
11890.746277	1532.986667	1397.112305	280.132111
11890.746277	1532.986667	1396.031250	297.488525
11890.746277	1532.986667	1394.951172	287.950378
11890.746277	1532.986667	1393.871094	232.679657
11890.746277	1532.986667	1392.790039	103.343597
11890.746277	1532.986667	1391.708984	393.315186
11890.746277	1532.986667	1390.626953	291.298950
11890.746277	1532.986667	1389.545898	185.096344
11890.746277	1532.986667	1388.463867	313.764465
11890.746277	1532.986667	1387.381836	465.180756
11890.746277	1532.986667	1386.299805	428.198212
11890.746277	1532.986667	1385.217773	420.483307
11890.746277	1532.986667	1384.134766	406.150238
11890.746277	1532.986667	1383.051758	469.493073
11890.746277	1532.986667	1381.968750	479.387238
11890.746277	1532.986667	1380.885742	545.901550
11890.746277	1532.986667	1379.802734	467.390839
11890.746277	1532.986667	1378.718750	539.762695
11890.746277	1532.986667	1377.634766	526.940674
11890.746277	1532.986667	1376.550781	572.054932
11890.746277	1532.986667	1375.465820	373.705780
11890.746277	1532.986667	1374.381836	358.351257
11890.746277	1532.986667	1373.296875	372.258789
11890.746277	1532.986667	1372.211914	399.649261
11890.746277	1532.986667	1371.126953	429.073853
11890.746277	1532.986667	1370.041016	626.085205
11890.746277	1532.986667	1368.955078	338.885498
11890.746277	1532.986667	1367.869141	289.810913
11890.746277	1532.986667	1366.783203	337.937042
11890.746277	1532.986667	1365.697266	526.059143
11890.746277	1532.986667	1364.610352	290.773224
11890.746277	1532.986667	1363.523438	368.745789
11890.746277	1532.986667	1362.436523	343.477173
11890.746277	1532.986667	1361.349609	187.949142
11890.746277	1532.986667	1360.261719	358.925934
11890.746277	1532.986667	1359.174805	311.658386
11890.746277	1532.986667	1358.086914	471.150330
11890.746277	1532.986667	1356.998047	437.115173
11890.746277	1532.986667	1355.910156	168.252457
11890.746277	1532.986667	1354.821289	502.156372
11890.746277	1532.986667	1353.732422	467.588348
11890.746277	1532.986667	1352.643555	442.110229
11890.746277	1532.986667	1351.554688	577.933228
11890.746277	1532.986667	1350.464844	301.123932
11890.746277	1532.986667	1349.375000	414.884979
11890.746277	1532.986667	1348.285156	478.043732
11890.746277	1532.986667	1347.195313	439.761597
11890.746277	1532.986667	1346.105469	569.259521
11890.746277	1532.986667	1345.014648	689.929688
11890.746277	1532.986667	1343.923828	407.421539
11890.746277	1532.986667	1342.833008	402.649414
11890.746277	1532.986667	1341.741211	633.851318
11890.746277	1532.986667	1340.650391	252.106613
11890.746277	1532.986667	1339.558594	363.973267
11890.746277	1532.986667	1338.466797	680.897278
11890.746277	1532.986667	1337.374023	330.769196
11890.746277	1532.986667	1336.282227	424.712921
11890.746277	1532.986667	1335.189453	414.480164
11890.746277	1532.986667	1334.096680	453.501007
11890.746277	1532.986667	1333.003906	571.371460
11890.746277	1532.986667	1331.910156	523.207886
11890.746277	1532.986667	1330.817383	630.748718
11890.746277	1532.986667	1329.723633	546.095032
11890.746277	1532.986667	1328.629883	386.165771
11890.746277	1532.986667	1327.535156	395.007385
11890.746277	1532.986667	1326.441406	287.940796
11890.746277	1532.986667	1325.346680	388.066467
11890.746277	1532.986667	1324.251953	292.142059
11890.746277	1532.986667	1323.156250	411.522736
11890.746277	1532.986667	1322.061523	333.733185
11890.746277	1532.986667	1320.965820	395.967926
11890.746277	1532.986667	1319.870117	385.712952
11890.746277	1532.986667	1318.774414	388.976318
11890.746277	1532.986667	1317.678711	294.198547
11890.746277	1532.986667	1316.582031	274.329865
11890.746277	1532.986667	1315.485352	505.969360
11890.746277	1532.986667	1314.388672	332.093689
11890.746277	1532.986667	1313.291016	240.008682
11890.746277	1532.986667	1312.194336	383.950928
11890.746277	1532.986667	1311.096680	326.454773
11890.746277	1532.986667	1309.999023	312.838715
11890.746277	1532.986667	1308.901367	328.047272
11890.746277	1532.986667	1307.802734	442.160828
11890.746277	1532.986667	1306.705078	159.174377
11890.746277	1532.986667	1305.606445	195.920471
11890.746277	1532.986667	1304.506836	277.303680
11890.746277	1532.986667	1303.408203	310.661499
11890.746277	1532.986667	1302.308594	471.998596
11890.746277	1532.986667	1301.208984	270.520874
11890.746277	1532.986667	1300.109375	135.970642
11890.746277	1532.986667	1299.009766	166.315842
11890.746277	1532.986667	1297.909180	352.408722
11890.746277	1532.986667	1296.808594	357.591736
11890.746277	1532.986667	1295.708008	205.825912
11890.746277	1532.986667	1294.607422	419.313599
11890.746277	1532.986667	1293.506836	325.471863
11890.746277	1532.986667	1292.405273	413.495972
11890.746277	1532.986667	1291.303711	326.182220
11890.746277	1532.986667	1290.202148	278.107971
11890.746277	1532.986667	1289.099609	412.928375
11890.746277	1532.986667	1287.998047	314.257294
11890.746277	1532.986667	1286.895508	264.168762
11890.746277	1532.986667	1285.792969	288.054657
11890.746277	1532.986667	1284.689453	325.606506
11890.746277	1532.986667	1283.586914	322.405609
11890.746277	1532.986667	1282.483398	513.134705
11890.746277	1532.986667	1281.379883	369.330017
11890.746277	1532.986667	1280.276367	332.856995
11890.746277	1532.986667	1279.171875	288.898468
11890.746277	1532.986667	1278.067383	286.968201
11890.746277	1532.986667	1276.962891	341.667908
11890.746277	1532.986667	1275.858398	382.254578
11890.746277	1532.986667	1274.753906	224.152161
11890.746277	1532.986667	1273.648438	210.990891
11890.746277	1532.986667	1272.542969	106.907478
11890.746277	1532.986667	1271.437500	248.408920
11890.746277	1532.986667	1270.331055	110.416496
11890.746277	1532.986667	1269.225586	259.717010
11890.746277	1532.986667	1268.119141	366.469299
11890.746277	1532.986667	1267.012695	348.189911
11890.746277	1532.986667	1265.906250	-10.050709
11890.746277	1532.986667	1264.798828	154.526230
11890.746277	1532.986667	1263.691406	74.626648
11890.746277	1532.986667	1262.583984	213.334717
11890.746277	1532.986667	1261.476563	351.229675
11890.746277	1532.986667	1260.368164	-45.671341
11890.746277	1532.986667	1259.260742	103.897736
11890.746277	1532.986667	1258.152344	117.300102
11890.746277	1532.986667	1257.043945	18.235760
11890.746277	1532.986667	1255.934570	10.973839
11890.746277	1532.986667	1254.825195	144.892059
11890.746277	1532.986667	1253.716797	120.420868
11890.746277	1532.986667	1252.606445	42.634899
11890.746277	1532.986667	1251.497070	196.365143
11890.746277	1532.986667	1250.387695	88.215714
11890.746277	1532.986667	1249.277344	336.699921
11890.746277	1532.986667	1248.166992	215.756012
11890.746277	1532.986667	1247.055664	324.950043
11890.746277	1532.986667	1245.945313	506.576263
11890.746277	1532.986667	1244.833984	560.054688
11890.746277	1532.986667	1243.722656	715.703491
11890.746277	1532.986667	1242.611328	577.733765
11890.746277	1532.986667	1241.499023	481.999634
11890.746277	1532.986667	1240.387695	477.259308
11890.746277	1532.986667	1239.275391	677.853699
11890.746277	1532.986667	1238.162109	533.109131
11890.746277	1532.986667	1237.049805	477.474213
11890.746277	1532.986667	1235.936523	461.425659
11890.746277	1532.986667	1234.823242	536.162415
11890.746277	1532.986667	1233.709961	369.780487
11890.746277	1532.986667	1232.596680	397.851349
11890.746277	1532.986667	1231.482422	253.868820
11890.746277	1532.986667	1230.369141	212.408493
11890.746277	1532.986667	1229.253906	246.566559
11890.746277	1532.986667	1228.139648	375.043213
11890.746277	1532.986667	1227.025391	186.389923
11890.746277	1532.986667	1225.910156	136.249878
11890.746277	1532.986667	1224.794922	174.868088
11890.746277	1532.986667	1223.679688	327.644196
11890.746277	1532.986667	1222.563477	153.066162
11890.746277	1532.986667	1221.447266	195.817459
11890.746277	1532.986667	1220.331055	73.662064
11890.746277	1532.986667	1219.214844	7.481107
11890.746277	1532.986667	1218.098633	83.015114
11890.746277	1532.986667	1216.981445	-91.199211
11890.746277	1532.986667	1215.864258	-63.243912
11890.746277	1532.986667	1214.747070	-2.852076
11890.746277	1532.986667	1213.629883	-58.347614
11890.746277	1532.986667	1212.511719	108.519989
11890.746277	1532.986667	1211.393555	101.725418
11890.746277	1532.986667	1210.275391	-29.748573
11890.746277	1532.986667	1209.157227	-157.570618
11890.746277	1532.986667	1208.038086	119.957031
11890.746277	1532.986667	1206.918945	-35.665474
11890.746277	1532.986667	1205.799805	34.147175
11890.746277	1532.986667	1204.680664	11.825985
11890.746277	1532.986667	1203.560547	129.971954
11890.746277	1532.986667	1202.441406	9.733738
11890.746277	1532.986667	1201.321289	-37.253441
11890.746277	1532.986667	1200.200195	12.279266
11890.746277	1532.986667	1199.080078	14.230682
11890.746277	1532.986667	1197.958984	14.603081
11890.746277	1532.986667	1196.837891	-29.489857
11890.746277	1532.986667	1195.716797	17.141710
11890.746277	1532.986667	1194.594727	57.383781
11890.746277	1532.986667	1193.473633	36.481148
11890.746277	1532.986667	1192.351563	59.458332
11890.746277	1532.986667	1191.229492	48.964314
11890.746277	1532.986667	1190.106445	-128.612061
11890.746277	1532.986667	1188.984375	24.752558
11890.746277	1532.986667	1187.861328	114.170380
11890.746277	1532.986667	1186.738281	9.821778
11890.746277	1532.986667	1185.614258	37.824017
11890.746277	1532.986667	1184.491211	18.491709
11890.746277	1532.986667	1183.367188	-27.736967
11890.746277	1532.986667	1182.243164	-47.939316
11890.746277	1532.986667	1181.119141	-90.201790
11890.746277	1532.986667	1179.994141	-100.061539
11890.746277	1532.986667	1178.869141	-156.182678
11890.746277	1532.986667	1177.744141	-162.224884
11890.746277	1532.986667	1176.619141	-56.393726
11890.746277	1532.986667	1175.493164	86.188583
11890.746277	1532.986667	1174.368164	-124.561165
11890.746277	1532.986667	1173.242188	-55.119366
11890.746277	1532.986667	1172.115234	-71.609642
11890.746277	1532.986667	1170.989258	-157.115952
11890.746277	1532.986667	1169.862305	-50.548470
11890.746277	1532.986667	1168.735352	-190.383469
11890.746277	1532.986667	1167.608398	-174.152618
11890.746277	1532.986667	1166.481445	-117.326096
11890.746277	1532.986667	1165.353516	-92.087906
11890.746277	1532.986667	1164.225586	-141.770584
11890.746277	1532.986667	1163.097656	-138.632339
11890.746277	1532.986667	1161.968750	77.091927
11890.746277	1532.986667	1160.840820	-5.103874
11890.746277	1532.986667	1159.711914	-220.280930
11890.746277	1532.986667	1158.583008	-108.973686
11890.746277	1532.986667	1157.453125	-219.345886
11890.746277	1532.986667	1156.324219	-34.017544
11890.746277	1532.986667	1155.194336	-130.754227
11890.746277	1532.986667	1154.064453	-165.438843
11890.746277	1532.986667	1152.933594	-152.504776
11890.746277	1532.986667	1151.803711	-210.968216
11890.746277	1532.986667	1150.672852	-256.743408
11890.746277	1532.986667	1149.541992	-174.656509
11890.746277	1532.986667	1148.411133	-140.997833
11890.746277	1532.986667	1147.279297	-127.298622
11890.746277	1532.986667	1146.147461	-110.359421
11890.746277	1532.986667	1145.015625	-182.581909
11890.746277	1532.986667	1143.883789	-197.188080
11890.746277	1532.986667	1142.750977	-38.956341
11890.746277	1532.986667	1141.619141	109.235649
11890.746277	1532.986667	1140.486328	-8.073009
11890.746277	1532.986667	1139.352539	36.453213
11890.746277	1532.986667	1138.219727	-84.046440
11890.746277	1532.986667	1137.085938	-122.373932
11890.746277	1532.986667	1135.952148	5.883517
11890.746277	1532.986667	1134.818359	55.819412
11890.746277	1532.986667	1133.683594	-190.343033
11890.746277	1532.986667	1132.549805	84.752708
11890.746277	1532.986667	1131.415039	330.543488
11890.746277	1532.986667	1130.279297	311.218445
11890.746277	1532.986667	1129.144531	262.943939
11890.746277	1532.986667	1128.008789	118.061844
11890.746277	1532.986667	1126.873047	218.232468
11890.746277	1532.986667	1125.737305	48.926289
11890.746277	1532.986667	1124.601563	48.089432
11890.746277	1532.986667	1123.464844	-33.650955
11890.746277	1532.986667	1122.328125	63.090225
11890.746277	1532.986667	1121.191406	100.357719
11890.746277	1532.986667	1120.054688	-27.240223
11890.746277	1532.986667	1118.916992	237.935104
11890.746277	1532.986667	1117.779297	175.723114
11890.746277	1532.986667	1116.641602	220.228165
11890.746277	1532.986667	1115.503906	44.031166
11890.746277	1532.986667	1114.365234	141.236496
11890.746277	1532.986667	1113.226563	65.968933
11890.746277	1532.986667	1112.087891	95.828949
11890.746277	1532.986667	1110.949219	44.486362
11890.746277	1532.986667	1109.809570	-76.248566
11890.746277	1532.986667	1108.669922	46.808727
11890.746277	1532.986667	1107.530273	146.928665
11890.746277	1532.986667	1106.390625	105.188316
11890.746277	1532.986667	1105.250000	-16.507494
11890.746277	1532.986667	1104.109375	34.491833
11890.746277	1532.986667	1102.968750	77.672569
11890.746277	1532.986667	1101.828125	-9.273932
11890.746277	1532.986667	1100.686523	224.764008
11890.746277	1532.986667	1099.544922	118.514366
11890.746277	1532.986667	1098.403320	3.885308
11890.746277	1532.986667	1097.261719	-31.556784
11890.746277	1532.986667	1096.120117	29.733965
11890.746277	1532.986667	1094.977539	352.126831
11890.746277	1532.986667	1093.834961	250.155746
11890.746277	1532.986667	1092.691406	232.957458
11890.746277	1532.986667	1091.548828	104.340424
11890.746277	1532.986667	1090.405273	184.639664
11890.746277	1532.986667	1089.261719	305.175446
11890.746277	1532.986667	1088.118164	164.210510
11890.746277	1532.986667	1086.973633	82.918510
11890.746277	1532.986667	1085.829102	191.337646
11890.746277	1532.986667	1084.684570	236.696472
11890.746277	1532.986667	1083.540039	46.295837
11890.746277	1532.986667	1082.395508	43.521519
11890.746277	1532.986667	1081.250000	104.506927
11890.746277	1532.986667	1080.104492	18.240757
11890.746277	1532.986667	1078.958984	139.189865
11890.746277	1532.986667	1077.812500	69.112526
11890.746277	1532.986667	1076.666016	52.415573
11890.746277	1532.986667	1075.519531	94.066849
11890.746277	1532.986667	1074.373047	101.355522
11890.746277	1532.986667	1073.226563	130.716248
11890.746277	1532.986667	1072.079102	24.654179
11890.746277	1532.986667	1070.931641	37.442600
11890.746277	1532.986667	1069.784180	-75.273834
11890.746277	1532.986667	1068.635742	33.586052
11890.746277	1532.986667	1067.487305	-13.652520
11890.746277	1532.986667	1066.338867	33.939285
11890.746277	1532.986667	1065.190430	157.462204
11890.746277	1532.986667	1064.041992	72.471039
11890.746277	1532.986667	1062.892578	100.325104
11890.746277	1532.986667	1061.743164	45.350849
11890.746277	1532.986667	1060.593750	92.655861
11890.746277	1532.986667	1059.443359	88.279953
11890.746277	1532.986667	1058.292969	-119.179733
11890.746277	1532.986667	1057.142578	-75.743546
11890.746277	1532.986667	1055.992188	-92.961105
11890.746277	1532.986667	1054.841797	-111.947472
11890.746277	1532.986667	1053.690430	93.699287
11890.746277	1532.986667	1052.539063	-42.612904
11890.746277	1532.986667	1051.387695	127.117134
11890.746277	1532.986667	1050.235352	50.432796
11890.746277	1532.986667	1049.083984	158.566193
11890.746277	1532.986667	1047.931641	-12.432220
11890.746277	1532.986667	1046.778320	-253.462769
11890.746277	1532.986667	1045.625977	44.087799
11890.746277	1532.986667	1044.472656	52.445454
11890.746277	1532.986667	1043.319336	108.897430
11890.746277	1532.986667	1042.166016	24.092403
11890.746277	1532.986667	1041.012695	53.102867
11890.746277	1532.986667	1039.858398	-17.357239
11890.746277	1532.986667	1038.704102	238.845230
11890.746277	1532.986667	1037.549805	25.685110
11890.746277	1532.986667	1036.394531	36.967060
11890.746277	1532.986667	1035.239258	72.135880
11890.746277	1532.986667	1034.083984	238.394958
11890.746277	1532.986667	1032.928711	164.244553
11890.746277	1532.986667	1031.773438	135.454453
11890.746277	1532.986667	1030.617188	114.052757
11890.746277	1532.986667	1029.460938	64.582138
11890.746277	1532.986667	1028.304688	-110.588943
11890.746277	1532.986667	1027.147461	310.103607
11890.746277	1532.986667	1025.991211	139.561676
11890.746277	1532.986667	1024.833984	-43.622002
11890.746277	1532.986667	1023.675781	-46.736320
11890.746277	1532.986667	1022.518555	103.704880
11890.746277	1532.986667	1021.360352	46.043095
11890.746277	1532.986667	1020.202148	-181.696198
11890.746277	1532.986667	1019.043945	-117.263672
11890.746277	1532.986667	1017.884766	-76.105301
11890.746277	1532.986667	1016.726563	-35.976685
11890.746277	1532.986667	1015.567383	41.308002
11890.746277	1532.986667	1014.407227	107.741150
11890.746277	1532.986667	1013.248047	146.079102
11890.746277	1532.986667	1012.087891	-42.990559
11890.746277	1532.986667	1010.927734	15.877313
11890.746277	1532.986667	1009.767578	-83.769104
11890.746277	1532.986667	1008.606445	145.624893
11890.746277	1532.986667	1007.446289	145.130524
11890.746277	1532.986667	1006.285156	44.835361
11890.746277	1532.986667	1005.123047	206.612671
11890.746277	1532.986667	1003.961914	1.195040
11890.746277	1532.986667	1002.799805	112.915909
11890.746277	1532.986667	1001.637695	258.223297
11890.746277	1532.986667	1000.475586	260.059937
11890.746277	1532.986667	999.312500	74.246849
11890.746277	1532.986667	998.149414	156.933350
11890.746277	1532.986667	996.986328	86.144203
11890.746277	1532.986667	995.823242	81.270370
11890.746277	1532.986667	994.659180	140.205032
11890.746277	1532.986667	993.496094	204.251709
11890.746277	1532.986667	992.332031	-39.467682
11890.746277	1532.986667	991.166992	190.689667
11890.746277	1532.986667	990.002930	89.834167
11890.746277	1532.986667	988.837891	-83.068756
11890.746277	1532.986667	987.672852	94.111984
11890.746277	1532.986667	986.506836	49.752720
11890.746277	1532.986667	985.341797	79.325447
11890.746277	1532.986667	984.175781	107.362724
11890.746277	1532.986667	983.009766	41.036785
11890.746277	1532.986667	981.843750	-2.532874
11890.746277	1532.986667	980.676758	172.316055
11890.746277	1532.986667	979.509766	43.836964
11890.746277	1532.986667	978.342773	-9.855540
11890.746277	1532.986667	977.175781	-6.206405
11890.746277	1532.986667	976.007813	-6.609104
11890.746277	1532.986667	974.839844	113.219170
11890.746277	1532.986667	973.671875	29.449665
11890.746277	1532.986667	972.503906	-121.116470
11890.746277	1532.986667	971.334961	24.972881
11890.746277	1532.986667	970.166016	93.741844
11890.746277	1532.986667	968.997070	-8.345347
11890.746277	1532.986667	967.828125	160.306381
11890.746277	1532.986667	966.658203	28.175409
11890.746277	1532.986667	965.488281	-108.371254
11890.746277	1532.986667	964.318359	-101.129143
11890.746277	1532.986667	963.148438	2.000726
11890.746277	1532.986667	961.977539	-4.280733
11890.746277	1532.986667	960.806641	186.001999
11890.746277	1532.986667	959.635742	-95.171219
11890.746277	1532.986667	958.463867	21.857470
11890.746277	1532.986667	957.292969	-7.249097
11890.746277	1532.986667	956.121094	41.817593
11890.746277	1532.986667	954.948242	-96.574020
11890.746277	1532.986667	953.776367	37.783978
11890.746277	1532.986667	952.603516	64.868881
11890.746277	1532.986667	951.430664	108.280441
11890.746277	1532.986667	950.257813	232.234818
11890.746277	1532.986667	949.084961	162.016541
11890.746277	1532.986667	947.911133	-11.053691
11890.746277	1532.986667	946.737305	225.452103
11890.746277	1532.986667	945.563477	235.679733
11890.746277	1532.986667	944.388672	69.221375
11890.746277	1532.986667	943.213867	271.174927
11890.746277	1532.986667	942.039063	281.378662
11890.746277	1532.986667	940.864258	133.949066
11890.746277	1532.986667	939.688477	259.679352
11890.746277	1532.986667	938.513672	297.940155
11890.746277	1532.986667	937.337891	307.870209
11890.746277	1532.986667	936.161133	173.899521
11890.746277	1532.986667	934.985352	37.531578
11890.746277	1532.986667	933.808594	237.112076
11890.746277	1532.986667	932.631836	249.103394
11890.746277	1532.986667	931.454102	278.406006
11890.746277	1532.986667	930.277344	316.554840
11890.746277	1532.986667	929.099609	1.481325
11890.746277	1532.986667	927.921875	41.747547
11890.746277	1532.986667	926.743164	129.902313
11890.746277	1532.986667	925.565430	-58.724392
11890.746277	1532.986667	924.386719	16.332911
11890.746277	1532.986667	923.208008	100.067978
11890.746277	1532.986667	922.028320	31.283455
11890.746277	1532.986667	920.849609	-48.380013
11890.746277	1532.986667	919.669922	-45.322315
11890.746277	1532.986667	919.474609	29.237940
11890.746277	1532.986667	918.309570	-35.232468
11890.746277	1532.986667	917.143555	37.418705
11890.746277	1532.986667	915.977539	-68.405540
11890.746277	1532.986667	914.810547	-45.848969
11890.746277	1532.986667	913.644531	-42.898697
11890.746277	1532.986667	912.477539	-153.043716
11890.746277	1532.986667	911.310547	-169.673950
11890.746277	1532.986667	910.143555	81.052650
11890.746277	1532.986667	908.975586	-68.220688
11890.746277	1532.986667	907.807617	-115.327202
11890.746277	1532.986667	906.639648	-166.777405
11890.746277	1532.986667	905.471680	213.994339
11890.746277	1532.986667	904.303711	160.292953
11890.746277	1532.986667	903.134766	-90.966949
11890.746277	1532.986667	901.965820	-86.008194
11890.746277	1532.986667	900.796875	-350.169434
11890.746277	1532.986667	899.626953	125.643562
11890.746277	1532.986667	898.457031	282.360352
11890.746277	1532.986667	897.287109	-96.709274
11890.746277	1532.986667	896.117188	-117.852280
11890.746277	1532.986667	894.947266	-15.427844
11890.746277	1532.986667	893.776367	-10.596676
11890.746277	1532.986667	892.605469	-68.627434
11890.746277	1532.986667	891.434570	59.682205
11890.746277	1532.986667	890.262695	-30.859774
11890.746277	1532.986667	889.091797	-28.254623
11890.746277	1532.986667	887.919922	-47.315258
11890.746277	1532.986667	886.748047	-40.404041
11890.746277	1532.986667	885.575195	-59.480625
11890.746277	1532.986667	884.403320	-240.864548
11890.746277	1532.986667	883.230469	94.901657
11890.746277	1532.986667	882.057617	-75.649796
11890.746277	1532.986667	880.883789	24.189335
11890.746277	1532.986667	879.710938	136.946259
11890.746277	1532.986667	878.537109	44.275620
11890.746277	1532.986667	877.362305	-143.467041
11890.746277	1532.986667	876.188477	-58.874580
11890.746277	1532.986667	875.013672	-147.164505
11890.746277	1532.986667	873.839844	-41.033150
11890.746277	1532.986667	872.664063	95.280464
11890.746277	1532.986667	871.489258	-137.687592
11890.746277	1532.986667	870.313477	-27.339520
11890.746277	1532.986667	869.138672	-132.876465
11890.746277	1532.986667	867.962891	80.974121
11890.746277	1532.986667	866.786133	-76.339478
11890.746277	1532.986667	865.610352	-33.010559
11890.746277	1532.986667	864.433594	-108.315475
11890.746277	1532.986667	863.256836	-112.453377
11890.746277	1532.986667	862.079102	4.112814
11890.746277	1532.986667	860.902344	-90.587456
11890.746277	1532.986667	859.724609	-34.430260
11890.746277	1532.986667	858.546875	-83.867668
11890.746277	1532.986667	857.368164	-195.755234
11890.746277	1532.986667	856.190430	-217.169891
11890.746277	1532.986667	855.011719	-236.434128
11890.746277	1532.986667	853.833008	97.307632
11890.746277	1532.986667	852.654297	-76.985619
11890.746277	1532.986667	851.474609	-147.940994
11890.746277	1532.986667	850.294922	86.587105
11890.746277	1532.986667	849.115234	202.716843
11890.746277	1532.986667	847.935547	-23.110397
11890.746277	1532.986667	846.754883	-89.766922
11890.746277	1532.986667	845.575195	-173.605911
11890.746277	1532.986667	844.393555	-96.247147
11890.746277	1532.986667	843.212891	-175.776993
11890.746277	1532.986667	842.032227	-223.064835
11890.746277	1532.986667	840.850586	49.652679
11890.746277	1532.986667	839.668945	13.048572
11890.746277	1532.986667	838.486328	-98.688049
11890.746277	1532.986667	837.304688	29.994045
11890.746277	1532.986667	836.122070	74.921379
11890.746277	1532.986667	834.939453	-34.652939
11890.746277	1532.986667	833.756836	-54.106934
11890.746277	1532.986667	832.573242	-22.095324
11890.746277	1532.986667	831.389648	-71.586662
11890.746277	1532.986667	830.206055	104.013672
11890.746277	1532.986667	829.022461	-215.557129
11890.746277	1532.986667	827.838867	-254.305069
11890.746277	1532.986667	826.654297	41.154144
11890.746277	1532.986667	825.469727	-4.084558
11890.746277	1532.986667	824.284180	-0.063703
11890.746277	1532.986667	823.099609	-68.854904
11890.746277	1532.986667	821.914063	-60.570454
11890.746277	1532.986667	820.728516	39.720558
11890.746277	1532.986667	819.542969	-7.683195
11890.746277	1532.986667	818.356445	-25.130976
11890.746277	1532.986667	817.169922	-151.667435
11890.746277	1532.986667	815.983398	-2.317164
11890.746277	1532.986667	814.796875	-156.630142
11890.746277	1532.986667	813.609375	-9.509416
11890.746277	1532.986667	812.422852	24.270456
11890.746277	1532.986667	811.235352	-149.229263
11890.746277	1532.986667	810.046875	-98.376022
11890.746277	1532.986667	808.859375	10.102587
11890.746277	1532.986667	807.670898	-41.625843
11890.746277	1532.986667	806.482422	-176.607849
11890.746277	1532.986667	805.293945	-66.096558
11890.746277	1532.986667	804.104492	121.173752
11890.746277	1532.986667	802.915039	90.731789
11890.746277	1532.986667	801.725586	-48.502769
11890.746277	1532.986667	800.536133	-36.282104
11890.746277	1532.986667	799.345703	67.599876
11890.746277	1532.986667	798.155273	235.372101
11890.746277	1532.986667	796.964844	181.399551
11890.746277	1532.986667	795.774414	82.681976
11890.746277	1532.986667	794.583008	160.812103
11890.746277	1532.986667	793.392578	268.707184
11890.746277	1532.986667	792.200195	125.254265
11890.746277	1532.986667	791.008789	113.843102
11890.746277	1532.986667	789.816406	-18.916857
11890.746277	1532.986667	788.625000	29.254059
11890.746277	1532.986667	787.432617	13.551164
11890.746277	1532.986667	786.239258	16.979975
11890.746277	1532.986667	785.046875	147.997009
11890.746277	1532.986667	783.853516	66.293564
11890.746277	1532.986667	782.660156	-98.313393
11890.746277	1532.986667	781.465820	166.490326
11890.746277	1532.986667	780.272461	38.010975
11890.746277	1532.986667	779.078125	-43.694107
11890.746277	1532.986667	777.883789	133.767319
11890.746277	1532.986667	776.688477	145.474960
11890.746277	1532.986667	775.494141	0.023297
11890.746277	1532.986667	774.298828	190.029083
11890.746277	1532.986667	773.103516	140.090652
11890.746277	1532.986667	771.907227	62.561073
11890.746277	1532.986667	770.711914	135.669754
11890.746277	1532.986667	769.515625	98.421906
11890.746277	1532.986667	768.318359	20.869873
11890.746277	1532.986667	767.122070	-41.836899
11890.746277	1532.986667	765.924805	-11.271439
11890.746277	1532.986667	764.727539	216.357117
11890.746277	1532.986667	763.530273	62.450760
11890.746277	1532.986667	762.333008	145.852890
11890.746277	1532.986667	761.134766	182.593094
11890.746277	1532.986667	759.936523	24.468168
11890.746277	1532.986667	758.738281	317.339081
11890.746277	1532.986667	757.540039	138.022888
11890.746277	1532.986667	756.340820	367.198456
11890.746277	1532.986667	755.141602	126.524956
11890.746277	1532.986667	753.942383	264.581177
11890.746277	1532.986667	752.742188	279.879883
11890.746277	1532.986667	751.541992	331.086212
11890.746277	1532.986667	750.341797	261.734924
11890.746277	1532.986667	749.141602	139.538589
11890.746277	1532.986667	747.941406	76.529030
11890.746277	1532.986667	746.740234	176.195480
11890.746277	1532.986667	745.539063	187.068405
11890.746277	1532.986667	744.337891	130.321274
11890.746277	1532.986667	743.135742	221.365112
11890.746277	1532.986667	741.933594	202.562485
11890.746277	1532.986667	740.731445	240.716751
11890.746277	1532.986667	739.529297	6.611708
11890.746277	1532.986667	738.326172	200.835983
11890.746277	1532.986667	737.124023	99.644753
11890.746277	1532.986667	735.919922	392.808472
11890.746277	1532.986667	734.716797	304.194611
11890.746277	1532.986667	733.513672	291.466003
11890.746277	1532.986667	732.309570	478.915192
11890.746277	1532.986667	731.105469	364.938263
11890.746277	1532.986667	729.900391	116.145134
11890.746277	1532.986667	728.696289	347.624390
11890.746277	1532.986667	727.491211	98.858902
11890.746277	1532.986667	726.286133	138.581757
11890.746277	1532.986667	725.080078	14.068738
11890.746277	1532.986667	723.874023	259.941711
11890.746277	1532.986667	722.668945	-26.634392
11890.746277	1532.986667	721.461914	126.503311
11890.746277	1532.986667	720.255859	33.474422
11890.746277	1532.986667	719.048828	-139.461334
11890.746277	1532.986667	717.841797	-213.563751
11890.746277	1532.986667	716.634766	-45.974819
11890.746277	1532.986667	715.427734	-239.930222
11890.746277	1532.986667	714.219727	198.518387
11890.746277	1532.986667	713.011719	96.921875
11890.746277	1532.986667	711.803711	3.723278
11890.746277	1532.986667	710.594727	-15.998312
11890.746277	1532.986667	709.385742	-157.507324
11890.746277	1532.986667	708.176758	11.602155
11890.746277	1532.986667	706.967773	50.502644
11890.746277	1532.986667	705.758789	43.186974
11890.746277	1532.986667	704.548828	105.039749
11890.746277	1532.986667	703.338867	-26.099741
11890.746277	1532.986667	702.127930	-161.427048
11890.746277	1532.986667	700.917969	7.182297
11890.746277	1532.986667	699.707031	232.251572
11890.746277	1532.986667	698.496094	153.378021
11890.746277	1532.986667	697.285156	154.086731
11890.746277	1532.986667	696.073242	311.815796
11890.746277	1532.986667	694.861328	119.755371
11890.746277	1532.986667	693.649414	-7.379988
11890.746277	1532.986667	692.436523	279.893585
11890.746277	1532.986667	691.224609	303.336945
11890.746277	1532.986667	690.011719	374.836090
11890.746277	1532.986667	688.798828	48.839180
11890.746277	1532.986667	687.584961	199.720581
11890.746277	1532.986667	686.372070	-46.757504
11890.746277	1532.986667	685.158203	41.265179
11890.746277	1532.986667	683.943359	127.105637
11890.746277	1532.986667	682.729492	16.450182
11890.746277	1532.986667	681.514648	152.289688
11890.746277	1532.986667	680.299805	77.070724
11890.746277	1532.986667	679.084961	143.822388
11890.746277	1532.986667	677.869141	154.121841
11890.746277	1532.986667	676.653320	137.228333
11890.746277	1532.986667	675.437500	151.587936
11890.746277	1532.986667	674.221680	232.650665
11890.746277	1532.986667	673.004883	238.527725
11890.746277	1532.986667	671.789063	27.457043
11890.746277	1532.986667	670.571289	145.853561
11890.746277	1532.986667	669.354492	320.430908
11890.746277	1532.986667	668.136719	67.619522
11890.746277	1532.986667	666.919922	158.676239
11890.746277	1532.986667	665.701172	89.220604
11890.746277	1532.986667	664.483398	-36.498058
11890.746277	1532.986667	663.264648	152.220886
11890.746277	1532.986667	662.045898	24.342342
11890.746277	1532.986667	660.827148	46.332031
11890.746277	1532.986667	659.608398	-85.747643
11890.746277	1532.986667	658.388672	183.735580
11890.746277	1532.986667	657.168945	132.693115
11890.746277	1532.986667	655.949219	46.257702
11890.746277	1532.986667	654.728516	107.431618
11890.746277	1532.986667	653.507813	-10.264178
11890.746277	1532.986667	652.287109	131.839203
11890.746277	1532.986667	651.066406	70.177277
11890.746277	1532.986667	649.844727	47.954319
11890.746277	1532.986667	648.623047	-209.035065
11890.746277	1532.986667	647.401367	42.817524
11890.746277	1532.986667	646.179688	188.615585
11890.746277	1532.986667	644.957031	103.873825
11890.746277	1532.986667	643.734375	-1.645182
11890.746277	1532.986667	642.511719	-40.779285
11890.746277	1532.986667	641.289063	-117.297981
11890.746277	1532.986667	640.065430	46.746868
11890.746277	1532.986667	638.841797	69.656166
11890.746277	1532.986667	637.618164	24.081350
11890.746277	1532.986667	636.393555	162.939194
11890.746277	1532.986667	635.168945	189.773941
11890.746277	1532.986667	633.944336	13.494872
11890.746277	1532.986667	632.719727	87.876495
11890.746277	1532.986667	631.494141	-24.226057
11890.746277	1532.986667	630.269531	54.155025
11890.746277	1532.986667	629.042969	18.581823
11890.746277	1532.986667	627.817383	71.964226
11890.746277	1532.986667	626.590820	9.385227
11890.746277	1532.986667	625.365234	234.342331
11890.746277	1532.986667	624.137695	51.670563
11890.746277	1532.986667	622.911133	48.930786
11890.746277	1532.986667	621.683594	60.604103
11890.746277	1532.986667	620.456055	150.762756
11890.746277	1532.986667	619.228516	201.560287
11890.746277	1532.986667	618.000977	-57.646633
11890.746277	1532.986667	616.772461	-66.850929
11890.746277	1532.986667	615.543945	-59.585629
11890.746277	1532.986667	614.314453	85.961937
11890.746277	1532.986667	613.085938	103.400597
11890.746277	1532.986667	611.856445	-60.857494
11890.746277	1532.986667	610.626953	26.649973
11890.746277	1532.986667	609.397461	171.831512
11890.746277	1532.986667	608.166992	166.317978
11890.746277	1532.986667	606.936523	-111.463318
11890.746277	1532.986667	605.706055	47.918633
11890.746277	1532.986667	604.474609	-13.389777
11890.746277	1532.986667	603.244141	79.846039
11890.746277	1532.986667	602.012695	-55.728958
11890.746277	1532.986667	600.780273	-191.303970
11890.746277	1532.986667	599.548828	-24.108969
11890.746277	1532.986667	598.316406	-242.104691
11890.746277	1532.986667	597.083984	-116.254028
11890.746277	1532.986667	595.851563	-157.230408
11890.746277	1532.986667	594.618164	-109.756798
11890.746277	1532.986667	593.384766	-111.733475
11890.746277	1532.986667	592.151367	-177.526199
11890.746277	1532.986667	590.917969	69.252197
11890.746277	1532.986667	589.683594	-72.731743
11890.746277	1532.986667	588.449219	50.475437
11890.746277	1532.986667	587.214844	-184.027161
11890.746277	1532.986667	585.979492	115.758949
11890.746277	1532.986667	584.745117	70.245430
11890.746277	1532.986667	583.509766	-92.374924
11890.746277	1532.986667	582.273438	-388.453278
11890.746277	1532.986667	581.038086	116.233742
11890.746277	1532.986667	579.801758	-64.910286
11890.746277	1532.986667	578.565430	-149.572220
11890.746277	1532.986667	577.329102	-59.848194
11890.746277	1532.986667	576.091797	-13.288754
11890.746277	1532.986667	574.854492	-253.911667
11890.746277	1532.986667	573.617188	-0.327728
11890.746277	1532.986667	572.378906	85.002312
11890.746277	1532.986667	571.141602	-53.140945
11890.746277	1532.986667	569.903320	146.827225
11890.746277	1532.986667	568.664063	43.462944
11890.746277	1532.986667	567.425781	255.531433
11890.746277	1532.986667	566.186523	0.570327
11890.746277	1532.986667	564.947266	286.175446
11890.746277	1532.986667	563.708008	-148.890915
11890.746277	1532.986667	562.467773	136.541138
11890.746277	1532.986667	561.227539	43.296970
11890.746277	1532.986667	559.987305	-56.081791
11890.746277	1532.986667	558.747070	-143.185379
11890.746277	1532.986667	557.505859	-60.581310
11890.746277	1532.986667	556.264648	-37.332760
11890.746277	1532.986667	555.023438	-161.287766
11890.746277	1532.986667	553.781250	-56.367420
11890.746277	1532.986667	552.539063	-67.976639
11890.746277	1532.986667	551.296875	-61.232002
11890.746277	1532.986667	550.054688	-136.206161
11890.746277	1532.986667	548.811523	70.561508
11890.746277	1532.986667	547.569336	-75.917831
11890.746277	1532.986667	546.325195	-108.092644
11890.746277	1532.986667	545.082031	-21.939095
11890.746277	1532.986667	543.837891	-41.935062
11890.746277	1532.986667	542.593750	21.667059
11890.746277	1532.986667	541.349609	-63.637047
11890.746277	1532.986667	540.105469	-175.435699
11890.746277	1532.986667	538.860352	-89.518448
11890.746277	1532.986667	537.615234	-238.004837
11890.746277	1532.986667	536.369141	53.593838
11890.746277	1532.986667	535.124023	-92.876953
11890.746277	1532.986667	533.877930	35.599659
11890.746277	1532.986667	532.631836	-27.387817
11890.746277	1532.986667	531.384766	-212.510941
11890.746277	1532.986667	530.138672	-14.973962
11890.746277	1532.986667	528.891602	-12.881281
11890.746277	1532.986667	527.643555	-39.297924
11890.746277	1532.986667	526.396484	74.610992
11890.746277	1532.986667	525.148438	-98.262009
11890.746277	1532.986667	523.900391	190.390350
11890.746277	1532.986667	522.652344	86.626076
11890.746277	1532.986667	521.403320	210.467712
11890.746277	1532.986667	520.154297	106.694206
11890.746277	1532.986667	518.905273	289.340057
11890.746277	1532.986667	517.656250	-1.277968
11890.746277	1532.986667	516.406250	223.901550
11890.746277	1532.986667	515.156250	152.600891
11890.746277	1532.986667	513.906250	83.340828
11890.746277	1532.986667	512.655273	99.302826
11890.746277	1532.986667	511.404297	32.065563
11890.746277	1532.986667	510.153320	-83.836601
11890.746277	1532.986667	508.902344	-151.045135
11890.746277	1532.986667	507.650391	-112.831856
11890.746277	1532.986667	506.398438	53.034206
11890.746277	1532.986667	505.146484	-160.123657
11890.746277	1532.986667	503.893555	-81.479736
11890.746277	1532.986667	502.641602	-207.459869
11890.746277	1532.986667	501.388672	-11.423471
11890.746277	1532.986667	500.134766	-60.479080
11890.746277	1532.986667	498.881836	-176.325989
11890.746277	1532.986667	497.627930	-41.202728
11890.746277	1532.986667	496.374023	-102.420502
11890.746277	1532.986667	495.119141	71.017899
11890.746277	1532.986667	493.865234	102.793983
11890.746277	1532.986667	492.610352	142.617188
11890.746277	1532.986667	491.355469	141.970123
11890.746277	1532.986667	490.099609	68.532379
11890.746277	1532.986667	488.843750	1.166380
11890.746277	1532.986667	487.587891	48.963387
11890.746277	1532.986667	486.332031	1.782176
11890.746277	1532.986667	485.075195	142.396820
11890.746277	1532.986667	483.818359	24.494768
11890.746277	1532.986667	482.561523	130.677795
11890.746277	1532.986667	481.304688	224.679459
11890.746277	1532.986667	480.046875	106.750092
11890.746277	1532.986667	478.789063	128.033020
11890.746277	1532.986667	477.531250	-36.269661
11890.746277	1532.986667	476.272461	134.180038
11890.746277	1532.986667	475.013672	36.404190
11890.746277	1532.986667	473.754883	128.093964
11890.746277	1532.986667	472.496094	102.836945
11890.746277	1532.986667	471.236328	25.167009
11890.746277	1532.986667	469.976563	76.402901
11890.746277	1532.986667	468.716797	75.219872
11890.746277	1532.986667	467.456055	80.029396
11890.746277	1532.986667	466.196289	358.555389
11890.746277	1532.986667	464.935547	312.905396
11890.746277	1532.986667	463.673828	375.870453
11890.746277	1532.986667	462.413086	368.362854
11890.746277	1532.986667	461.151367	282.365662
11890.746277	1532.986667	459.889648	403.457947
11890.746277	1532.986667	458.626953	468.148956
11890.746277	1532.986667	457.364258	514.666992
11890.746277	1532.986667	456.101563	466.662964
11890.746277	1532.986667	454.838867	380.446838
11890.746277	1532.986667	453.575195	310.264587
11890.746277	1532.986667	452.312500	434.840851
11890.746277	1532.986667	451.047852	356.502411
11890.746277	1532.986667	449.784180	408.603210
11890.746277	1532.986667	448.519531	422.468140
11890.746277	1532.986667	447.254883	452.298645
11890.746277	1532.986667	445.990234	377.724243
11890.746277	1532.986667	444.725586	232.903564
11890.746277	1532.986667	443.459961	256.473785
11890.746277	1532.986667	442.194336	245.860641
11890.746277	1532.986667	440.927734	273.227295
11890.746277	1532.986667	439.662109	210.317795
11890.746277	1532.986667	438.395508	427.790009
11890.746277	1532.986667	437.127930	382.668732
11890.746277	1532.986667	435.861328	301.415863
11890.746277	1532.986667	434.593750	244.094604
11890.746277	1532.986667	433.326172	182.671204
11890.746277	1532.986667	432.058594	211.197479
11890.746277	1532.986667	430.790039	395.627625
11890.746277	1532.986667	429.521484	293.792969
11890.746277	1532.986667	428.252930	367.847351
11890.746277	1532.986667	426.984375	335.748169
11890.746277	1532.986667	425.714844	485.408447
11890.746277	1532.986667	424.445313	287.088013
11890.746277	1532.986667	423.174805	204.568405
11890.746277	1532.986667	421.905273	91.952652
11890.746277	1532.986667	420.634766	398.623901
11890.746277	1532.986667	419.364258	443.387543
11890.746277	1532.986667	418.092773	527.854919
11890.746277	1532.986667	416.822266	510.298340
11890.746277	1532.986667	415.550781	302.952545
11890.746277	1532.986667	414.278320	326.902405
11890.746277	1532.986667	413.006836	320.707672
11890.746277	1532.986667	411.734375	376.092712
11890.746277	1532.986667	410.461914	255.757980
11890.746277	1532.986667	409.188477	336.545593
11890.746277	1532.986667	407.916016	275.551910
11890.746277	1532.986667	406.642578	341.827087
11890.746277	1532.986667	405.368164	373.921082
11890.746277	1532.986667	404.094727	332.034363
11890.746277	1532.986667	402.820313	403.358551
11890.746277	1532.986667	401.545898	538.051941
11890.746277	1532.986667	400.270508	570.849792
11890.746277	1532.986667	398.996094	541.633057
11890.746277	1532.986667	397.720703	177.844452
11890.746277	1532.986667	396.444336	432.450989
11890.746277	1532.986667	395.168945	579.214111
11890.746277	1532.986667	393.892578	443.206085
11890.746277	1532.986667	392.616211	245.253830
11890.746277	1532.986667	391.339844	341.117950
11890.746277	1532.986667	390.062500	315.318451
11890.746277	1532.986667	388.785156	249.379547
11890.746277	1532.986667	387.507813	113.525787
11890.746277	1532.986667	386.229492	296.952026
11890.746277	1532.986667	384.951172	215.809418
11890.746277	1532.986667	383.672852	267.205353
11890.746277	1532.986667	382.394531	232.765488
11890.746277	1532.986667	381.115234	195.836243
11890.746277	1532.986667	379.835938	217.907684
11890.746277	1532.986667	378.556641	144.250916
11890.746277	1532.986667	377.277344	214.805695
11890.746277	1532.986667	375.997070	233.209335
11890.746277	1532.986667	374.716797	199.497940
11890.746277	1532.986667	373.435547	137.443939
11890.746277	1532.986667	372.155273	146.130112
11890.746277	1532.986667	370.874023	217.532501
11890.746277	1532.986667	369.591797	292.189697
11890.746277	1532.986667	368.310547	156.330704
11890.746277	1532.986667	367.028320	138.567108
11890.746277	1532.986667	365.746094	153.739212
11890.746277	1532.986667	364.463867	93.001671
11890.746277	1532.986667	363.180664	49.318821
11890.746277	1532.986667	361.897461	42.455109
11890.746277	1532.986667	360.614258	26.894949
11890.746277	1532.986667	359.330078	93.518524
11890.746277	1532.986667	358.045898	1.187344
11890.746277	1532.986667	356.761719	58.192085
11890.746277	1532.986667	355.477539	141.945068
11890.746277	1532.986667	354.192383	-22.123299
11890.746277	1532.986667	352.907227	130.829605
11890.746277	1532.986667	351.622070	22.199984
11890.746277	1532.986667	350.336914	137.623840
11890.746277	1532.986667	349.050781	-61.760372
11890.746277	1532.986667	347.764648	106.803818
11890.746277	1532.986667	346.477539	-157.714737
11890.746277	1532.986667	345.191406	-141.199341
11890.746277	1532.986667	343.904297	-68.664078
11890.746277	1532.986667	342.616211	-58.433681
11890.746277	1532.986667	341.329102	-2.048262
11890.746277	1532.986667	340.041016	-19.813814
11890.746277	1532.986667	338.752930	-97.888069
11890.746277	1532.986667	337.463867	-92.548515
11890.746277	1532.986667	336.175781	-66.803955
11890.746277	1532.986667	334.886719	-253.046249
11890.746277	1532.986667	333.596680	-216.256973
11890.746277	1532.986667	332.307617	-155.250397
11890.746277	1532.986667	331.017578	-91.799332
11890.746277	1532.986667	329.727539	-153.729965
11890.746277	1532.986667	328.436523	-382.331390
11890.746277	1532.986667	327.146484	18.709267
11890.746277	1532.986667	325.855469	-96.961464
11890.746277	1532.986667	324.563477	-104.192467
11890.746277	1532.986667	323.272461	-91.398354
11890.746277	1532.986667	321.980469	-227.641953
11890.746277	1532.986667	320.688477	-124.010925
11890.746277	1532.986667	319.395508	-100.763763
11890.746277	1532.986667	318.103516	130.752731
11890.746277	1532.986667	316.810547	-147.978790
11890.746277	1532.986667	315.516602	-26.328430
11890.746277	1532.986667	314.223633	62.021183
11890.746277	1532.986667	312.929688	218.904358
11890.746277	1532.986667	311.635742	87.452316
11890.746277	1532.986667	310.340820	26.465458
11890.746277	1532.986667	309.045898	212.294067
11890.746277	1532.986667	307.750977	403.728668
11890.746277	1532.986667	306.456055	373.479858
11890.746277	1532.986667	305.160156	546.570679
11890.746277	1532.986667	303.865234	476.515564
11890.746277	1532.986667	302.568359	607.593872
11890.746277	1532.986667	301.272461	843.935669
11890.746277	1532.986667	299.975586	975.892395
11890.746277	1532.986667	298.678711	835.306946
