#X		#Y		#Wave		#Intensity
11789.521809	1410.570000	1999.980469	246.105209
11789.521809	1410.570000	1999.016602	-18.551289
11789.521809	1410.570000	1998.052734	-90.186111
11789.521809	1410.570000	1997.087891	68.244781
11789.521809	1410.570000	1996.123047	30.459738
11789.521809	1410.570000	1995.158203	-228.193146
11789.521809	1410.570000	1994.193359	5.725802
11789.521809	1410.570000	1993.228516	33.638420
11789.521809	1410.570000	1992.262695	-32.911442
11789.521809	1410.570000	1991.297852	170.010620
11789.521809	1410.570000	1990.332031	43.344276
11789.521809	1410.570000	1989.366211	-147.953491
11789.521809	1410.570000	1988.399414	-92.110603
11789.521809	1410.570000	1987.433594	-110.820580
11789.521809	1410.570000	1986.466797	28.443537
11789.521809	1410.570000	1985.500977	43.719570
11789.521809	1410.570000	1984.534180	11.728113
11789.521809	1410.570000	1983.567383	-27.950024
11789.521809	1410.570000	1982.599609	68.031380
11789.521809	1410.570000	1981.632813	257.599396
11789.521809	1410.570000	1980.665039	125.699173
11789.521809	1410.570000	1979.697266	50.406975
11789.521809	1410.570000	1978.729492	-22.627905
11789.521809	1410.570000	1977.761719	237.440887
11789.521809	1410.570000	1976.792969	1.023402
11789.521809	1410.570000	1975.825195	-60.291264
11789.521809	1410.570000	1974.856445	-55.166451
11789.521809	1410.570000	1973.887695	-153.863358
11789.521809	1410.570000	1972.918945	107.416603
11789.521809	1410.570000	1971.949219	89.732040
11789.521809	1410.570000	1970.980469	153.246460
11789.521809	1410.570000	1970.010742	-118.713120
11789.521809	1410.570000	1969.041016	-38.267101
11789.521809	1410.570000	1968.071289	133.173325
11789.521809	1410.570000	1967.101563	-50.404789
11789.521809	1410.570000	1966.130859	216.750565
11789.521809	1410.570000	1965.161133	62.497231
11789.521809	1410.570000	1964.190430	50.993443
11789.521809	1410.570000	1963.219727	174.781891
11789.521809	1410.570000	1962.249023	106.396751
11789.521809	1410.570000	1961.277344	340.642365
11789.521809	1410.570000	1960.306641	195.744308
11789.521809	1410.570000	1959.334961	311.579590
11789.521809	1410.570000	1958.363281	141.935944
11789.521809	1410.570000	1957.391602	75.552879
11789.521809	1410.570000	1956.419922	237.781128
11789.521809	1410.570000	1955.447266	284.315277
11789.521809	1410.570000	1954.474609	212.770981
11789.521809	1410.570000	1953.501953	64.994736
11789.521809	1410.570000	1952.529297	192.391418
11789.521809	1410.570000	1951.556641	17.514235
11789.521809	1410.570000	1950.583984	2.287382
11789.521809	1410.570000	1949.610352	217.839828
11789.521809	1410.570000	1948.636719	69.883652
11789.521809	1410.570000	1947.663086	-122.252022
11789.521809	1410.570000	1946.689453	-17.392506
11789.521809	1410.570000	1945.715820	129.099670
11789.521809	1410.570000	1944.741211	-23.818207
11789.521809	1410.570000	1943.767578	122.545555
11789.521809	1410.570000	1942.792969	281.081207
11789.521809	1410.570000	1941.818359	201.683014
11789.521809	1410.570000	1940.842773	203.184662
11789.521809	1410.570000	1939.868164	-138.487946
11789.521809	1410.570000	1938.892578	-90.404167
11789.521809	1410.570000	1937.916992	180.612198
11789.521809	1410.570000	1936.941406	145.295334
11789.521809	1410.570000	1935.965820	46.297329
11789.521809	1410.570000	1934.990234	-23.286505
11789.521809	1410.570000	1934.013672	210.742981
11789.521809	1410.570000	1933.037109	65.253014
11789.521809	1410.570000	1932.060547	100.926537
11789.521809	1410.570000	1931.083984	99.881950
11789.521809	1410.570000	1930.107422	-69.973343
11789.521809	1410.570000	1929.129883	144.272263
11789.521809	1410.570000	1928.153320	-23.071484
11789.521809	1410.570000	1927.175781	0.374068
11789.521809	1410.570000	1926.198242	67.826126
11789.521809	1410.570000	1925.219727	-45.615494
11789.521809	1410.570000	1924.242188	-5.037941
11789.521809	1410.570000	1923.263672	-54.869400
11789.521809	1410.570000	1922.285156	17.479050
11789.521809	1410.570000	1921.306641	-108.020477
11789.521809	1410.570000	1920.328125	-21.001404
11789.521809	1410.570000	1919.349609	73.330505
11789.521809	1410.570000	1918.370117	101.734848
11789.521809	1410.570000	1917.391602	171.645203
11789.521809	1410.570000	1916.412109	104.899780
11789.521809	1410.570000	1915.431641	86.994766
11789.521809	1410.570000	1914.452148	222.797974
11789.521809	1410.570000	1913.472656	12.266966
11789.521809	1410.570000	1912.492188	-49.421879
11789.521809	1410.570000	1911.511719	154.669983
11789.521809	1410.570000	1910.531250	214.904587
11789.521809	1410.570000	1909.550781	145.986664
11789.521809	1410.570000	1908.569336	-144.601852
11789.521809	1410.570000	1907.588867	171.532394
11789.521809	1410.570000	1906.607422	5.324295
11789.521809	1410.570000	1905.625977	41.328072
11789.521809	1410.570000	1904.644531	116.305832
11789.521809	1410.570000	1903.662109	-49.705898
11789.521809	1410.570000	1902.680664	44.795013
11789.521809	1410.570000	1901.698242	15.190807
11789.521809	1410.570000	1900.715820	58.617344
11789.521809	1410.570000	1899.733398	-131.453552
11789.521809	1410.570000	1898.750000	62.830006
11789.521809	1410.570000	1897.767578	11.493034
11789.521809	1410.570000	1896.784180	-127.312584
11789.521809	1410.570000	1895.800781	-110.473824
11789.521809	1410.570000	1894.817383	171.278763
11789.521809	1410.570000	1893.833984	-110.731682
11789.521809	1410.570000	1892.850586	59.236881
11789.521809	1410.570000	1891.866211	-33.138485
11789.521809	1410.570000	1890.881836	100.389633
11789.521809	1410.570000	1889.897461	85.799492
11789.521809	1410.570000	1888.913086	-152.077164
11789.521809	1410.570000	1887.927734	-93.743935
11789.521809	1410.570000	1886.943359	8.279065
11789.521809	1410.570000	1885.958008	122.423378
11789.521809	1410.570000	1884.972656	-120.010262
11789.521809	1410.570000	1883.987305	-245.914871
11789.521809	1410.570000	1883.001953	81.677811
11789.521809	1410.570000	1882.015625	-158.100067
11789.521809	1410.570000	1881.029297	-31.764416
11789.521809	1410.570000	1880.042969	14.580688
11789.521809	1410.570000	1879.056641	27.015724
11789.521809	1410.570000	1878.070313	70.965874
11789.521809	1410.570000	1877.083984	1.092613
11789.521809	1410.570000	1876.096680	-17.878136
11789.521809	1410.570000	1875.109375	89.079376
11789.521809	1410.570000	1874.122070	65.307236
11789.521809	1410.570000	1873.134766	-16.514614
11789.521809	1410.570000	1872.146484	75.934494
11789.521809	1410.570000	1871.159180	69.182922
11789.521809	1410.570000	1870.170898	40.686192
11789.521809	1410.570000	1869.182617	-40.983349
11789.521809	1410.570000	1868.194336	-151.617523
11789.521809	1410.570000	1867.205078	-109.892700
11789.521809	1410.570000	1866.216797	-147.923416
11789.521809	1410.570000	1865.227539	120.976456
11789.521809	1410.570000	1864.238281	-13.694159
11789.521809	1410.570000	1863.249023	-92.738869
11789.521809	1410.570000	1862.259766	-14.751345
11789.521809	1410.570000	1861.269531	19.754168
11789.521809	1410.570000	1860.279297	-10.924703
11789.521809	1410.570000	1859.290039	-82.613434
11789.521809	1410.570000	1858.298828	-91.518974
11789.521809	1410.570000	1857.308594	10.585232
11789.521809	1410.570000	1856.318359	-32.087555
11789.521809	1410.570000	1855.327148	31.391779
11789.521809	1410.570000	1854.335938	92.443779
11789.521809	1410.570000	1853.344727	-70.752846
11789.521809	1410.570000	1852.353516	-130.224457
11789.521809	1410.570000	1851.362305	20.018183
11789.521809	1410.570000	1850.370117	71.407127
11789.521809	1410.570000	1849.377930	154.100143
11789.521809	1410.570000	1848.385742	-1.710396
11789.521809	1410.570000	1847.393555	-162.278442
11789.521809	1410.570000	1846.401367	81.746574
11789.521809	1410.570000	1845.408203	31.964647
11789.521809	1410.570000	1844.415039	39.968086
11789.521809	1410.570000	1843.421875	-48.297832
11789.521809	1410.570000	1842.428711	-201.499161
11789.521809	1410.570000	1841.435547	162.570099
11789.521809	1410.570000	1840.441406	86.340019
11789.521809	1410.570000	1839.448242	-40.367027
11789.521809	1410.570000	1838.454102	10.882347
11789.521809	1410.570000	1837.459961	98.161911
11789.521809	1410.570000	1836.464844	137.328445
11789.521809	1410.570000	1835.470703	-8.557325
11789.521809	1410.570000	1834.475586	57.018002
11789.521809	1410.570000	1833.480469	93.730766
11789.521809	1410.570000	1832.485352	140.022354
11789.521809	1410.570000	1831.490234	392.778473
11789.521809	1410.570000	1830.495117	136.477615
11789.521809	1410.570000	1829.499023	-38.138737
11789.521809	1410.570000	1828.502930	80.066772
11789.521809	1410.570000	1827.506836	35.053116
11789.521809	1410.570000	1826.510742	83.592751
11789.521809	1410.570000	1825.513672	64.935883
11789.521809	1410.570000	1824.517578	139.785202
11789.521809	1410.570000	1823.520508	214.581558
11789.521809	1410.570000	1822.523438	-19.896929
11789.521809	1410.570000	1821.526367	275.339996
11789.521809	1410.570000	1820.529297	-40.582645
11789.521809	1410.570000	1819.531250	50.855778
11789.521809	1410.570000	1818.533203	63.188389
11789.521809	1410.570000	1817.535156	173.674026
11789.521809	1410.570000	1816.537109	73.385010
11789.521809	1410.570000	1815.539063	265.158325
11789.521809	1410.570000	1814.540039	26.004745
11789.521809	1410.570000	1813.541992	64.497681
11789.521809	1410.570000	1812.542969	-33.434227
11789.521809	1410.570000	1811.543945	184.392792
11789.521809	1410.570000	1810.543945	234.684723
11789.521809	1410.570000	1809.544922	162.972290
11789.521809	1410.570000	1808.544922	196.439804
11789.521809	1410.570000	1807.544922	24.291689
11789.521809	1410.570000	1806.544922	196.307404
11789.521809	1410.570000	1805.544922	100.605263
11789.521809	1410.570000	1804.544922	184.070221
11789.521809	1410.570000	1803.543945	179.084824
11789.521809	1410.570000	1802.542969	257.640869
11789.521809	1410.570000	1801.541992	-48.277103
11789.521809	1410.570000	1800.541016	56.463005
11789.521809	1410.570000	1799.539063	-29.817917
11789.521809	1410.570000	1798.538086	101.037827
11789.521809	1410.570000	1797.536133	210.323151
11789.521809	1410.570000	1796.534180	-7.269643
11789.521809	1410.570000	1795.532227	16.044874
11789.521809	1410.570000	1794.529297	106.063034
11789.521809	1410.570000	1793.527344	-130.602875
11789.521809	1410.570000	1792.524414	-35.922016
11789.521809	1410.570000	1791.521484	96.800125
11789.521809	1410.570000	1790.518555	-108.909744
11789.521809	1410.570000	1789.514648	166.600021
11789.521809	1410.570000	1788.511719	339.542816
11789.521809	1410.570000	1787.507813	98.024261
11789.521809	1410.570000	1786.503906	-79.173912
11789.521809	1410.570000	1785.500000	248.275864
11789.521809	1410.570000	1784.496094	-59.887695
11789.521809	1410.570000	1783.491211	-32.490738
11789.521809	1410.570000	1782.486328	139.959671
11789.521809	1410.570000	1781.481445	95.839020
11789.521809	1410.570000	1780.476563	218.144852
11789.521809	1410.570000	1779.471680	33.630581
11789.521809	1410.570000	1778.465820	-62.919769
11789.521809	1410.570000	1777.460938	-104.822739
11789.521809	1410.570000	1776.455078	100.362213
11789.521809	1410.570000	1775.449219	143.852127
11789.521809	1410.570000	1774.442383	32.860538
11789.521809	1410.570000	1773.436523	199.723770
11789.521809	1410.570000	1772.429688	7.909284
11789.521809	1410.570000	1771.422852	-67.564789
11789.521809	1410.570000	1770.416016	99.033623
11789.521809	1410.570000	1769.409180	6.835032
11789.521809	1410.570000	1768.402344	154.250244
11789.521809	1410.570000	1767.394531	54.829426
11789.521809	1410.570000	1766.386719	36.024624
11789.521809	1410.570000	1765.378906	114.387321
11789.521809	1410.570000	1764.371094	-25.464586
11789.521809	1410.570000	1763.362305	375.127289
11789.521809	1410.570000	1762.354492	209.080719
11789.521809	1410.570000	1761.345703	232.590652
11789.521809	1410.570000	1760.336914	170.739426
11789.521809	1410.570000	1759.328125	165.693878
11789.521809	1410.570000	1758.318359	91.903130
11789.521809	1410.570000	1757.308594	169.608994
11789.521809	1410.570000	1756.299805	86.249817
11789.521809	1410.570000	1755.290039	47.820602
11789.521809	1410.570000	1754.279297	-52.190662
11789.521809	1410.570000	1753.269531	-38.660824
11789.521809	1410.570000	1752.258789	204.244659
11789.521809	1410.570000	1751.249023	118.256630
11789.521809	1410.570000	1750.238281	174.103943
11789.521809	1410.570000	1749.226563	218.037354
11789.521809	1410.570000	1748.215820	193.345734
11789.521809	1410.570000	1747.204102	135.505661
11789.521809	1410.570000	1746.193359	-49.963242
11789.521809	1410.570000	1745.181641	-53.534821
11789.521809	1410.570000	1744.168945	110.515381
11789.521809	1410.570000	1743.157227	-8.929318
11789.521809	1410.570000	1742.144531	65.197922
11789.521809	1410.570000	1741.132813	106.188911
11789.521809	1410.570000	1740.120117	163.612213
11789.521809	1410.570000	1739.106445	154.870102
11789.521809	1410.570000	1738.093750	164.945206
11789.521809	1410.570000	1737.080078	156.072769
11789.521809	1410.570000	1736.067383	199.024765
11789.521809	1410.570000	1735.053711	86.272560
11789.521809	1410.570000	1734.040039	-87.795792
11789.521809	1410.570000	1733.025391	-87.457909
11789.521809	1410.570000	1732.011719	-58.902199
11789.521809	1410.570000	1730.997070	146.270966
11789.521809	1410.570000	1729.982422	146.365952
11789.521809	1410.570000	1728.967773	139.329300
11789.521809	1410.570000	1727.952148	-49.086575
11789.521809	1410.570000	1726.937500	-171.570404
11789.521809	1410.570000	1725.921875	174.320847
11789.521809	1410.570000	1724.906250	-14.189120
11789.521809	1410.570000	1723.890625	-77.989662
11789.521809	1410.570000	1722.875000	156.927338
11789.521809	1410.570000	1721.858398	-163.381271
11789.521809	1410.570000	1720.841797	-194.394669
11789.521809	1410.570000	1719.825195	14.350414
11789.521809	1410.570000	1718.808594	16.096502
11789.521809	1410.570000	1717.791992	17.779514
11789.521809	1410.570000	1716.774414	-20.552725
11789.521809	1410.570000	1715.756836	98.467659
11789.521809	1410.570000	1714.739258	-97.361076
11789.521809	1410.570000	1713.721680	-46.597103
11789.521809	1410.570000	1712.704102	201.311752
11789.521809	1410.570000	1711.685547	7.732443
11789.521809	1410.570000	1710.667969	25.406961
11789.521809	1410.570000	1709.649414	195.533569
11789.521809	1410.570000	1708.630859	-190.494995
11789.521809	1410.570000	1707.611328	73.308189
11789.521809	1410.570000	1706.592773	88.367218
11789.521809	1410.570000	1705.573242	35.354572
11789.521809	1410.570000	1704.553711	43.258003
11789.521809	1410.570000	1703.534180	156.575104
11789.521809	1410.570000	1702.513672	197.138260
11789.521809	1410.570000	1701.494141	29.112381
11789.521809	1410.570000	1700.473633	-10.073660
11789.521809	1410.570000	1699.453125	116.987129
11789.521809	1410.570000	1698.432617	-37.050388
11789.521809	1410.570000	1697.412109	3.235279
11789.521809	1410.570000	1696.390625	-40.822739
11789.521809	1410.570000	1695.369141	179.534348
11789.521809	1410.570000	1694.347656	175.130402
11789.521809	1410.570000	1693.326172	-77.296646
11789.521809	1410.570000	1692.304688	-41.990322
11789.521809	1410.570000	1691.282227	70.412613
11789.521809	1410.570000	1690.260742	-16.000898
11789.521809	1410.570000	1689.238281	-18.286308
11789.521809	1410.570000	1688.214844	192.050079
11789.521809	1410.570000	1687.192383	49.428516
11789.521809	1410.570000	1686.168945	-25.444975
11789.521809	1410.570000	1685.146484	51.498470
11789.521809	1410.570000	1684.123047	32.609261
11789.521809	1410.570000	1683.099609	146.768890
11789.521809	1410.570000	1682.075195	-54.315952
11789.521809	1410.570000	1681.051758	-103.650284
11789.521809	1410.570000	1680.027344	17.328924
11789.521809	1410.570000	1679.002930	7.567797
11789.521809	1410.570000	1677.978516	70.078796
11789.521809	1410.570000	1676.953125	-210.315323
11789.521809	1410.570000	1675.928711	220.545868
11789.521809	1410.570000	1674.903320	98.678177
11789.521809	1410.570000	1673.877930	7.118785
11789.521809	1410.570000	1672.852539	-107.747749
11789.521809	1410.570000	1671.826172	24.357256
11789.521809	1410.570000	1670.800781	7.295749
11789.521809	1410.570000	1669.774414	195.150650
11789.521809	1410.570000	1668.748047	31.281586
11789.521809	1410.570000	1667.721680	-13.824319
11789.521809	1410.570000	1666.694336	252.955246
11789.521809	1410.570000	1665.667969	151.903458
11789.521809	1410.570000	1664.640625	360.312958
11789.521809	1410.570000	1663.613281	389.481964
11789.521809	1410.570000	1662.585938	351.157440
11789.521809	1410.570000	1661.557617	470.939148
11789.521809	1410.570000	1660.530273	351.181763
11789.521809	1410.570000	1659.501953	494.105499
11789.521809	1410.570000	1658.473633	448.695221
11789.521809	1410.570000	1657.444336	301.025269
11789.521809	1410.570000	1656.416016	543.693726
11789.521809	1410.570000	1655.386719	591.123718
11789.521809	1410.570000	1654.358398	666.388000
11789.521809	1410.570000	1653.328125	332.936066
11789.521809	1410.570000	1652.298828	554.414001
11789.521809	1410.570000	1651.269531	673.663513
11789.521809	1410.570000	1650.239258	544.542969
11789.521809	1410.570000	1649.208984	624.257324
11789.521809	1410.570000	1648.178711	594.900208
11789.521809	1410.570000	1647.148438	479.728363
11789.521809	1410.570000	1646.117188	436.453613
11789.521809	1410.570000	1645.086914	587.923462
11789.521809	1410.570000	1644.055664	655.868347
11789.521809	1410.570000	1643.024414	580.095703
11789.521809	1410.570000	1641.992188	953.809692
11789.521809	1410.570000	1640.960938	859.450562
11789.521809	1410.570000	1639.928711	753.526001
11789.521809	1410.570000	1638.896484	756.463745
11789.521809	1410.570000	1637.864258	949.229492
11789.521809	1410.570000	1636.832031	530.838806
11789.521809	1410.570000	1635.798828	929.512268
11789.521809	1410.570000	1634.766602	879.161011
11789.521809	1410.570000	1633.733398	722.401123
11789.521809	1410.570000	1632.699219	1007.445374
11789.521809	1410.570000	1631.666016	878.459778
11789.521809	1410.570000	1630.632813	779.576111
11789.521809	1410.570000	1629.598633	971.971008
11789.521809	1410.570000	1628.564453	1182.777222
11789.521809	1410.570000	1627.530273	1111.604004
11789.521809	1410.570000	1626.495117	1373.113525
11789.521809	1410.570000	1625.460938	1385.082031
11789.521809	1410.570000	1624.425781	1380.872559
11789.521809	1410.570000	1623.390625	1448.241211
11789.521809	1410.570000	1622.355469	1492.503052
11789.521809	1410.570000	1621.319336	1804.461914
11789.521809	1410.570000	1620.284180	1553.288574
11789.521809	1410.570000	1619.248047	1645.957520
11789.521809	1410.570000	1618.211914	1565.603516
11789.521809	1410.570000	1617.174805	1429.931519
11789.521809	1410.570000	1616.138672	1476.480469
11789.521809	1410.570000	1615.101563	1264.824707
11789.521809	1410.570000	1614.065430	1445.085815
11789.521809	1410.570000	1613.027344	1466.269165
11789.521809	1410.570000	1611.990234	1333.105713
11789.521809	1410.570000	1610.953125	1292.145142
11789.521809	1410.570000	1609.915039	1260.416992
11789.521809	1410.570000	1608.876953	1295.490356
11789.521809	1410.570000	1607.838867	1127.981201
11789.521809	1410.570000	1606.800781	1506.044800
11789.521809	1410.570000	1605.761719	1338.584717
11789.521809	1410.570000	1604.723633	1104.496582
11789.521809	1410.570000	1603.684570	1121.242920
11789.521809	1410.570000	1602.644531	1052.898926
11789.521809	1410.570000	1601.605469	1085.786011
11789.521809	1410.570000	1600.566406	1233.630981
11789.521809	1410.570000	1599.526367	1264.207397
11789.521809	1410.570000	1598.486328	1398.208374
11789.521809	1410.570000	1597.446289	1389.729248
11789.521809	1410.570000	1596.405273	1271.006958
11789.521809	1410.570000	1595.365234	1260.311646
11789.521809	1410.570000	1594.324219	1155.492065
11789.521809	1410.570000	1593.283203	1131.095215
11789.521809	1410.570000	1592.242188	1331.683594
11789.521809	1410.570000	1591.200195	1330.260498
11789.521809	1410.570000	1590.159180	1381.650757
11789.521809	1410.570000	1589.117188	1437.631958
11789.521809	1410.570000	1588.075195	1406.466797
11789.521809	1410.570000	1587.032227	1666.565186
11789.521809	1410.570000	1585.990234	1575.826782
11789.521809	1410.570000	1584.947266	1643.312500
11789.521809	1410.570000	1583.904297	1671.846558
11789.521809	1410.570000	1582.861328	1934.121216
11789.521809	1410.570000	1581.818359	1905.391113
11789.521809	1410.570000	1580.775391	1920.225464
11789.521809	1410.570000	1579.731445	2033.555664
11789.521809	1410.570000	1578.687500	1835.502563
11789.521809	1410.570000	1577.643555	1719.975342
11789.521809	1410.570000	1576.598633	1773.883911
11789.521809	1410.570000	1575.554688	1647.056763
11789.521809	1410.570000	1574.509766	1451.678833
11789.521809	1410.570000	1573.464844	1677.284668
11789.521809	1410.570000	1572.419922	1337.996216
11789.521809	1410.570000	1571.374023	1161.210205
11789.521809	1410.570000	1570.329102	1290.865723
11789.521809	1410.570000	1569.283203	1427.364990
11789.521809	1410.570000	1568.237305	1243.950317
11789.521809	1410.570000	1567.191406	1174.886230
11789.521809	1410.570000	1566.144531	1062.490356
11789.521809	1410.570000	1565.098633	858.848083
11789.521809	1410.570000	1564.051758	1027.499512
11789.521809	1410.570000	1563.004883	958.723083
11789.521809	1410.570000	1561.957031	995.006531
11789.521809	1410.570000	1560.910156	1051.872314
11789.521809	1410.570000	1559.862305	946.776917
11789.521809	1410.570000	1558.814453	1031.100952
11789.521809	1410.570000	1557.766602	955.807129
11789.521809	1410.570000	1556.718750	958.120544
11789.521809	1410.570000	1555.669922	905.770569
11789.521809	1410.570000	1554.621094	839.821167
11789.521809	1410.570000	1553.573242	639.513855
11789.521809	1410.570000	1552.523438	913.221375
11789.521809	1410.570000	1551.474609	674.363098
11789.521809	1410.570000	1550.424805	494.864349
11789.521809	1410.570000	1549.375000	602.395203
11789.521809	1410.570000	1548.325195	773.687744
11789.521809	1410.570000	1547.275391	690.050049
11789.521809	1410.570000	1546.225586	626.988586
11789.521809	1410.570000	1545.174805	286.432465
11789.521809	1410.570000	1544.124023	314.582642
11789.521809	1410.570000	1543.073242	501.985565
11789.521809	1410.570000	1542.022461	557.494263
11789.521809	1410.570000	1540.970703	399.339844
11789.521809	1410.570000	1539.919922	311.779510
11789.521809	1410.570000	1538.868164	533.373596
11789.521809	1410.570000	1537.815430	484.565094
11789.521809	1410.570000	1536.763672	669.824768
11789.521809	1410.570000	1535.710938	250.942703
11789.521809	1410.570000	1534.659180	479.452820
11789.521809	1410.570000	1533.606445	446.853516
11789.521809	1410.570000	1532.552734	582.295837
11789.521809	1410.570000	1531.500000	472.667755
11789.521809	1410.570000	1530.446289	442.558838
11789.521809	1410.570000	1529.393555	471.517883
11789.521809	1410.570000	1528.338867	291.866150
11789.521809	1410.570000	1527.285156	182.656219
11789.521809	1410.570000	1526.231445	284.403992
11789.521809	1410.570000	1525.176758	136.842361
11789.521809	1410.570000	1524.122070	293.087006
11789.521809	1410.570000	1523.067383	234.092316
11789.521809	1410.570000	1522.012695	467.422180
11789.521809	1410.570000	1520.957031	48.439678
11789.521809	1410.570000	1519.901367	148.254211
11789.521809	1410.570000	1518.845703	273.006744
11789.521809	1410.570000	1517.790039	96.733765
11789.521809	1410.570000	1516.734375	-36.396484
11789.521809	1410.570000	1515.677734	50.074139
11789.521809	1410.570000	1514.621094	-26.293196
11789.521809	1410.570000	1513.564453	-9.822413
11789.521809	1410.570000	1512.507813	110.738716
11789.521809	1410.570000	1511.450195	206.454041
11789.521809	1410.570000	1510.393555	322.557098
11789.521809	1410.570000	1509.335938	214.950745
11789.521809	1410.570000	1508.278320	37.419308
11789.521809	1410.570000	1507.219727	262.145081
11789.521809	1410.570000	1506.162109	57.727139
11789.521809	1410.570000	1505.103516	67.990822
11789.521809	1410.570000	1504.044922	191.216202
11789.521809	1410.570000	1502.986328	21.024559
11789.521809	1410.570000	1501.926758	268.489136
11789.521809	1410.570000	1500.868164	60.150642
11789.521809	1410.570000	1499.808594	102.378044
11789.521809	1410.570000	1498.749023	-19.980631
11789.521809	1410.570000	1497.688477	139.664719
11789.521809	1410.570000	1496.628906	80.636375
11789.521809	1410.570000	1495.568359	141.176941
11789.521809	1410.570000	1494.507813	127.402657
11789.521809	1410.570000	1493.447266	-59.784027
11789.521809	1410.570000	1492.386719	-19.284357
11789.521809	1410.570000	1491.325195	-8.001962
11789.521809	1410.570000	1490.263672	30.379240
11789.521809	1410.570000	1489.202148	-298.159241
11789.521809	1410.570000	1488.140625	-198.795013
11789.521809	1410.570000	1487.079102	258.451416
11789.521809	1410.570000	1486.016602	-186.700150
11789.521809	1410.570000	1484.954102	45.556171
11789.521809	1410.570000	1483.891602	86.618843
11789.521809	1410.570000	1482.829102	-119.616592
11789.521809	1410.570000	1481.765625	119.472260
11789.521809	1410.570000	1480.702148	-1.113761
11789.521809	1410.570000	1479.638672	141.375351
11789.521809	1410.570000	1478.575195	18.739403
11789.521809	1410.570000	1477.511719	6.329935
11789.521809	1410.570000	1476.447266	-100.295746
11789.521809	1410.570000	1475.382813	-94.586433
11789.521809	1410.570000	1474.318359	-3.406443
11789.521809	1410.570000	1473.253906	152.793991
11789.521809	1410.570000	1472.189453	277.585144
11789.521809	1410.570000	1471.124023	45.841034
11789.521809	1410.570000	1470.058594	2.482572
11789.521809	1410.570000	1468.993164	134.294830
11789.521809	1410.570000	1467.927734	-74.644173
11789.521809	1410.570000	1466.861328	-115.260864
11789.521809	1410.570000	1465.794922	-17.143507
11789.521809	1410.570000	1464.728516	-6.227759
11789.521809	1410.570000	1463.662109	87.561447
11789.521809	1410.570000	1462.594727	74.336037
11789.521809	1410.570000	1461.528320	212.906021
11789.521809	1410.570000	1460.460938	204.362610
11789.521809	1410.570000	1459.393555	345.519409
11789.521809	1410.570000	1458.326172	180.131088
11789.521809	1410.570000	1457.257813	209.083389
11789.521809	1410.570000	1456.189453	180.461105
11789.521809	1410.570000	1455.121094	-51.030891
11789.521809	1410.570000	1454.052734	286.608215
11789.521809	1410.570000	1452.984375	72.588135
11789.521809	1410.570000	1451.915039	158.118195
11789.521809	1410.570000	1450.845703	45.074745
11789.521809	1410.570000	1449.776367	82.460503
11789.521809	1410.570000	1448.707031	76.543777
11789.521809	1410.570000	1447.636719	246.469681
11789.521809	1410.570000	1446.567383	110.190506
11789.521809	1410.570000	1445.497070	158.203781
11789.521809	1410.570000	1444.425781	194.581757
11789.521809	1410.570000	1443.355469	275.267456
11789.521809	1410.570000	1442.285156	-2.510889
11789.521809	1410.570000	1441.213867	4.447878
11789.521809	1410.570000	1440.142578	70.191185
11789.521809	1410.570000	1439.070313	58.841232
11789.521809	1410.570000	1437.999023	32.608845
11789.521809	1410.570000	1436.926758	442.503418
11789.521809	1410.570000	1435.854492	373.487091
11789.521809	1410.570000	1434.782227	219.746078
11789.521809	1410.570000	1433.709961	384.187256
11789.521809	1410.570000	1432.636719	294.200775
11789.521809	1410.570000	1431.563477	35.399853
11789.521809	1410.570000	1430.490234	165.008728
11789.521809	1410.570000	1429.416992	360.992859
11789.521809	1410.570000	1428.343750	153.884125
11789.521809	1410.570000	1427.269531	48.008522
11789.521809	1410.570000	1426.195313	-76.634407
11789.521809	1410.570000	1425.121094	-198.592911
11789.521809	1410.570000	1424.046875	2.288889
11789.521809	1410.570000	1422.971680	-8.667639
11789.521809	1410.570000	1421.896484	-122.611694
11789.521809	1410.570000	1420.821289	12.732665
11789.521809	1410.570000	1419.746094	270.307404
11789.521809	1410.570000	1418.669922	151.368759
11789.521809	1410.570000	1417.594727	227.115952
11789.521809	1410.570000	1416.518555	-69.596298
11789.521809	1410.570000	1415.442383	193.524719
11789.521809	1410.570000	1414.365234	398.900513
11789.521809	1410.570000	1413.289063	514.116516
11789.521809	1410.570000	1412.211914	508.502472
11789.521809	1410.570000	1411.134766	350.431946
11789.521809	1410.570000	1410.057617	692.628052
11789.521809	1410.570000	1408.979492	707.504822
11789.521809	1410.570000	1407.902344	670.372559
11789.521809	1410.570000	1406.824219	551.284302
11789.521809	1410.570000	1405.746094	501.388641
11789.521809	1410.570000	1404.666992	852.717957
11789.521809	1410.570000	1403.588867	573.056641
11789.521809	1410.570000	1402.509766	621.451416
11789.521809	1410.570000	1401.430664	624.504639
11789.521809	1410.570000	1400.351563	557.454102
11789.521809	1410.570000	1399.271484	568.331482
11789.521809	1410.570000	1398.192383	511.736938
11789.521809	1410.570000	1397.112305	689.526428
11789.521809	1410.570000	1396.031250	477.418243
11789.521809	1410.570000	1394.951172	551.193970
11789.521809	1410.570000	1393.871094	536.863831
11789.521809	1410.570000	1392.790039	260.222534
11789.521809	1410.570000	1391.708984	355.407013
11789.521809	1410.570000	1390.626953	509.069458
11789.521809	1410.570000	1389.545898	505.158752
11789.521809	1410.570000	1388.463867	372.254303
11789.521809	1410.570000	1387.381836	366.474304
11789.521809	1410.570000	1386.299805	454.868958
11789.521809	1410.570000	1385.217773	391.060730
11789.521809	1410.570000	1384.134766	463.400330
11789.521809	1410.570000	1383.051758	314.743042
11789.521809	1410.570000	1381.968750	351.161530
11789.521809	1410.570000	1380.885742	515.530212
11789.521809	1410.570000	1379.802734	577.859192
11789.521809	1410.570000	1378.718750	754.416443
11789.521809	1410.570000	1377.634766	411.258148
11789.521809	1410.570000	1376.550781	469.354401
11789.521809	1410.570000	1375.465820	451.116852
11789.521809	1410.570000	1374.381836	218.368851
11789.521809	1410.570000	1373.296875	383.247864
11789.521809	1410.570000	1372.211914	676.226746
11789.521809	1410.570000	1371.126953	488.989441
11789.521809	1410.570000	1370.041016	506.503510
11789.521809	1410.570000	1368.955078	544.663574
11789.521809	1410.570000	1367.869141	573.972839
11789.521809	1410.570000	1366.783203	611.915161
11789.521809	1410.570000	1365.697266	494.791656
11789.521809	1410.570000	1364.610352	519.632507
11789.521809	1410.570000	1363.523438	503.355591
11789.521809	1410.570000	1362.436523	688.650696
11789.521809	1410.570000	1361.349609	551.373535
11789.521809	1410.570000	1360.261719	841.071289
11789.521809	1410.570000	1359.174805	699.145020
11789.521809	1410.570000	1358.086914	1050.548828
11789.521809	1410.570000	1356.998047	886.016602
11789.521809	1410.570000	1355.910156	891.397522
11789.521809	1410.570000	1354.821289	762.531555
11789.521809	1410.570000	1353.732422	936.984680
11789.521809	1410.570000	1352.643555	1035.072632
11789.521809	1410.570000	1351.554688	913.405945
11789.521809	1410.570000	1350.464844	859.315369
11789.521809	1410.570000	1349.375000	888.052002
11789.521809	1410.570000	1348.285156	630.185608
11789.521809	1410.570000	1347.195313	713.903015
11789.521809	1410.570000	1346.105469	1005.766052
11789.521809	1410.570000	1345.014648	763.709900
11789.521809	1410.570000	1343.923828	854.061890
11789.521809	1410.570000	1342.833008	854.476563
11789.521809	1410.570000	1341.741211	784.038696
11789.521809	1410.570000	1340.650391	710.382568
11789.521809	1410.570000	1339.558594	800.470337
11789.521809	1410.570000	1338.466797	612.179749
11789.521809	1410.570000	1337.374023	654.098694
11789.521809	1410.570000	1336.282227	546.444153
11789.521809	1410.570000	1335.189453	465.970520
11789.521809	1410.570000	1334.096680	519.932434
11789.521809	1410.570000	1333.003906	686.755127
11789.521809	1410.570000	1331.910156	405.320343
11789.521809	1410.570000	1330.817383	593.975830
11789.521809	1410.570000	1329.723633	358.203674
11789.521809	1410.570000	1328.629883	477.951813
11789.521809	1410.570000	1327.535156	430.813110
11789.521809	1410.570000	1326.441406	504.501312
11789.521809	1410.570000	1325.346680	540.411804
11789.521809	1410.570000	1324.251953	486.434814
11789.521809	1410.570000	1323.156250	265.006042
11789.521809	1410.570000	1322.061523	484.229706
11789.521809	1410.570000	1320.965820	529.812866
11789.521809	1410.570000	1319.870117	523.220886
11789.521809	1410.570000	1318.774414	607.828064
11789.521809	1410.570000	1317.678711	415.267639
11789.521809	1410.570000	1316.582031	501.904144
11789.521809	1410.570000	1315.485352	357.713562
11789.521809	1410.570000	1314.388672	510.896484
11789.521809	1410.570000	1313.291016	439.171051
11789.521809	1410.570000	1312.194336	592.839294
11789.521809	1410.570000	1311.096680	578.508118
11789.521809	1410.570000	1309.999023	595.295044
11789.521809	1410.570000	1308.901367	490.276581
11789.521809	1410.570000	1307.802734	563.936584
11789.521809	1410.570000	1306.705078	519.189331
11789.521809	1410.570000	1305.606445	563.596863
11789.521809	1410.570000	1304.506836	378.820801
11789.521809	1410.570000	1303.408203	538.772278
11789.521809	1410.570000	1302.308594	436.283142
11789.521809	1410.570000	1301.208984	386.870117
11789.521809	1410.570000	1300.109375	198.453537
11789.521809	1410.570000	1299.009766	405.892212
11789.521809	1410.570000	1297.909180	285.432770
11789.521809	1410.570000	1296.808594	417.167267
11789.521809	1410.570000	1295.708008	580.948547
11789.521809	1410.570000	1294.607422	516.200928
11789.521809	1410.570000	1293.506836	381.540039
11789.521809	1410.570000	1292.405273	322.013306
11789.521809	1410.570000	1291.303711	240.067230
11789.521809	1410.570000	1290.202148	226.637772
11789.521809	1410.570000	1289.099609	372.138702
11789.521809	1410.570000	1287.998047	302.421448
11789.521809	1410.570000	1286.895508	311.729156
11789.521809	1410.570000	1285.792969	287.273895
11789.521809	1410.570000	1284.689453	290.598358
11789.521809	1410.570000	1283.586914	229.152618
11789.521809	1410.570000	1282.483398	330.157379
11789.521809	1410.570000	1281.379883	358.448730
11789.521809	1410.570000	1280.276367	230.657990
11789.521809	1410.570000	1279.171875	276.814148
11789.521809	1410.570000	1278.067383	74.431114
11789.521809	1410.570000	1276.962891	248.963394
11789.521809	1410.570000	1275.858398	-43.853180
11789.521809	1410.570000	1274.753906	68.488670
11789.521809	1410.570000	1273.648438	118.653717
11789.521809	1410.570000	1272.542969	280.839447
11789.521809	1410.570000	1271.437500	276.827576
11789.521809	1410.570000	1270.331055	148.566071
11789.521809	1410.570000	1269.225586	106.235619
11789.521809	1410.570000	1268.119141	194.960205
11789.521809	1410.570000	1267.012695	121.634613
11789.521809	1410.570000	1265.906250	108.730042
11789.521809	1410.570000	1264.798828	104.421021
11789.521809	1410.570000	1263.691406	36.930489
11789.521809	1410.570000	1262.583984	-134.908035
11789.521809	1410.570000	1261.476563	49.335629
11789.521809	1410.570000	1260.368164	-16.708897
11789.521809	1410.570000	1259.260742	220.100128
11789.521809	1410.570000	1258.152344	115.405182
11789.521809	1410.570000	1257.043945	84.754478
11789.521809	1410.570000	1255.934570	-62.738029
11789.521809	1410.570000	1254.825195	73.975891
11789.521809	1410.570000	1253.716797	273.275543
11789.521809	1410.570000	1252.606445	-4.673076
11789.521809	1410.570000	1251.497070	11.838191
11789.521809	1410.570000	1250.387695	42.293438
11789.521809	1410.570000	1249.277344	150.670853
11789.521809	1410.570000	1248.166992	125.634979
11789.521809	1410.570000	1247.055664	90.359283
11789.521809	1410.570000	1245.945313	-2.789585
11789.521809	1410.570000	1244.833984	27.807255
11789.521809	1410.570000	1243.722656	38.950123
11789.521809	1410.570000	1242.611328	50.013641
11789.521809	1410.570000	1241.499023	-15.064083
11789.521809	1410.570000	1240.387695	31.103271
11789.521809	1410.570000	1239.275391	126.723351
11789.521809	1410.570000	1238.162109	-52.509918
11789.521809	1410.570000	1237.049805	-40.518703
11789.521809	1410.570000	1235.936523	10.086213
11789.521809	1410.570000	1234.823242	95.316238
11789.521809	1410.570000	1233.709961	181.882950
11789.521809	1410.570000	1232.596680	-160.119263
11789.521809	1410.570000	1231.482422	18.421467
11789.521809	1410.570000	1230.369141	-86.185387
11789.521809	1410.570000	1229.253906	-109.491348
11789.521809	1410.570000	1228.139648	-79.414261
11789.521809	1410.570000	1227.025391	18.605976
11789.521809	1410.570000	1225.910156	21.944824
11789.521809	1410.570000	1224.794922	-36.970093
11789.521809	1410.570000	1223.679688	25.593361
11789.521809	1410.570000	1222.563477	-63.084118
11789.521809	1410.570000	1221.447266	-52.024052
11789.521809	1410.570000	1220.331055	-177.661285
11789.521809	1410.570000	1219.214844	132.103546
11789.521809	1410.570000	1218.098633	20.084608
11789.521809	1410.570000	1216.981445	-25.355415
11789.521809	1410.570000	1215.864258	51.765976
11789.521809	1410.570000	1214.747070	81.006157
11789.521809	1410.570000	1213.629883	-64.983734
11789.521809	1410.570000	1212.511719	-78.778603
11789.521809	1410.570000	1211.393555	-35.208328
11789.521809	1410.570000	1210.275391	-154.612000
11789.521809	1410.570000	1209.157227	98.542389
11789.521809	1410.570000	1208.038086	-63.974403
11789.521809	1410.570000	1206.918945	-37.896465
11789.521809	1410.570000	1205.799805	-89.389999
11789.521809	1410.570000	1204.680664	-102.219849
11789.521809	1410.570000	1203.560547	-197.959076
11789.521809	1410.570000	1202.441406	-6.967973
11789.521809	1410.570000	1201.321289	-146.824127
11789.521809	1410.570000	1200.200195	-51.618610
11789.521809	1410.570000	1199.080078	-68.051392
11789.521809	1410.570000	1197.958984	-91.561508
11789.521809	1410.570000	1196.837891	-120.536133
11789.521809	1410.570000	1195.716797	-28.243946
11789.521809	1410.570000	1194.594727	89.466454
11789.521809	1410.570000	1193.473633	-77.518723
11789.521809	1410.570000	1192.351563	46.849571
11789.521809	1410.570000	1191.229492	88.352280
11789.521809	1410.570000	1190.106445	19.580206
11789.521809	1410.570000	1188.984375	-56.773594
11789.521809	1410.570000	1187.861328	-98.698326
11789.521809	1410.570000	1186.738281	-112.656097
11789.521809	1410.570000	1185.614258	51.460438
11789.521809	1410.570000	1184.491211	219.873825
11789.521809	1410.570000	1183.367188	-86.740250
11789.521809	1410.570000	1182.243164	-8.240257
11789.521809	1410.570000	1181.119141	-10.123339
11789.521809	1410.570000	1179.994141	45.305637
11789.521809	1410.570000	1178.869141	-46.688660
11789.521809	1410.570000	1177.744141	-198.209793
11789.521809	1410.570000	1176.619141	-22.014631
11789.521809	1410.570000	1175.493164	11.021553
11789.521809	1410.570000	1174.368164	-67.605728
11789.521809	1410.570000	1173.242188	-38.573727
11789.521809	1410.570000	1172.115234	-23.162817
11789.521809	1410.570000	1170.989258	-72.696655
11789.521809	1410.570000	1169.862305	-149.453217
11789.521809	1410.570000	1168.735352	42.321693
11789.521809	1410.570000	1167.608398	71.998199
11789.521809	1410.570000	1166.481445	-84.262558
11789.521809	1410.570000	1165.353516	58.089767
11789.521809	1410.570000	1164.225586	-86.443436
11789.521809	1410.570000	1163.097656	-24.193197
11789.521809	1410.570000	1161.968750	-75.673683
11789.521809	1410.570000	1160.840820	61.022408
11789.521809	1410.570000	1159.711914	-54.845211
11789.521809	1410.570000	1158.583008	44.520901
11789.521809	1410.570000	1157.453125	81.667053
11789.521809	1410.570000	1156.324219	126.625748
11789.521809	1410.570000	1155.194336	-21.775105
11789.521809	1410.570000	1154.064453	-39.742832
11789.521809	1410.570000	1152.933594	1.774659
11789.521809	1410.570000	1151.803711	149.387238
11789.521809	1410.570000	1150.672852	-14.036358
11789.521809	1410.570000	1149.541992	12.030071
11789.521809	1410.570000	1148.411133	77.496765
11789.521809	1410.570000	1147.279297	159.660843
11789.521809	1410.570000	1146.147461	-7.486600
11789.521809	1410.570000	1145.015625	-42.618294
11789.521809	1410.570000	1143.883789	-32.837654
11789.521809	1410.570000	1142.750977	65.471695
11789.521809	1410.570000	1141.619141	70.894699
11789.521809	1410.570000	1140.486328	80.057541
11789.521809	1410.570000	1139.352539	-38.382504
11789.521809	1410.570000	1138.219727	51.479004
11789.521809	1410.570000	1137.085938	-18.253363
11789.521809	1410.570000	1135.952148	-170.288437
11789.521809	1410.570000	1134.818359	-38.754009
11789.521809	1410.570000	1133.683594	-188.257477
11789.521809	1410.570000	1132.549805	85.593132
11789.521809	1410.570000	1131.415039	-0.022609
11789.521809	1410.570000	1130.279297	105.634651
11789.521809	1410.570000	1129.144531	189.132813
11789.521809	1410.570000	1128.008789	215.155243
11789.521809	1410.570000	1126.873047	149.375137
11789.521809	1410.570000	1125.737305	41.989956
11789.521809	1410.570000	1124.601563	95.268410
11789.521809	1410.570000	1123.464844	135.641037
11789.521809	1410.570000	1122.328125	334.402252
11789.521809	1410.570000	1121.191406	33.665485
11789.521809	1410.570000	1120.054688	114.399719
11789.521809	1410.570000	1118.916992	240.051025
11789.521809	1410.570000	1117.779297	151.360199
11789.521809	1410.570000	1116.641602	212.278595
11789.521809	1410.570000	1115.503906	321.761505
11789.521809	1410.570000	1114.365234	247.551849
11789.521809	1410.570000	1113.226563	237.443207
11789.521809	1410.570000	1112.087891	122.116486
11789.521809	1410.570000	1110.949219	26.677357
11789.521809	1410.570000	1109.809570	179.853027
11789.521809	1410.570000	1108.669922	145.839539
11789.521809	1410.570000	1107.530273	204.826584
11789.521809	1410.570000	1106.390625	78.552681
11789.521809	1410.570000	1105.250000	90.641434
11789.521809	1410.570000	1104.109375	-32.504955
11789.521809	1410.570000	1102.968750	237.340317
11789.521809	1410.570000	1101.828125	304.877686
11789.521809	1410.570000	1100.686523	67.795158
11789.521809	1410.570000	1099.544922	164.525284
11789.521809	1410.570000	1098.403320	44.865204
11789.521809	1410.570000	1097.261719	57.911827
11789.521809	1410.570000	1096.120117	187.643921
11789.521809	1410.570000	1094.977539	310.688904
11789.521809	1410.570000	1093.834961	107.922729
11789.521809	1410.570000	1092.691406	248.864410
11789.521809	1410.570000	1091.548828	154.685745
11789.521809	1410.570000	1090.405273	228.964432
11789.521809	1410.570000	1089.261719	89.285538
11789.521809	1410.570000	1088.118164	81.046791
11789.521809	1410.570000	1086.973633	157.735825
11789.521809	1410.570000	1085.829102	-62.123753
11789.521809	1410.570000	1084.684570	403.038635
11789.521809	1410.570000	1083.540039	119.277954
11789.521809	1410.570000	1082.395508	213.610077
11789.521809	1410.570000	1081.250000	97.599754
11789.521809	1410.570000	1080.104492	0.196437
11789.521809	1410.570000	1078.958984	123.528328
11789.521809	1410.570000	1077.812500	-171.646530
11789.521809	1410.570000	1076.666016	89.980751
11789.521809	1410.570000	1075.519531	-45.557327
11789.521809	1410.570000	1074.373047	-49.629631
11789.521809	1410.570000	1073.226563	-101.797409
11789.521809	1410.570000	1072.079102	75.218819
11789.521809	1410.570000	1070.931641	66.187965
11789.521809	1410.570000	1069.784180	40.142521
11789.521809	1410.570000	1068.635742	126.797485
11789.521809	1410.570000	1067.487305	135.877853
11789.521809	1410.570000	1066.338867	-23.975462
11789.521809	1410.570000	1065.190430	-9.315901
11789.521809	1410.570000	1064.041992	98.475960
11789.521809	1410.570000	1062.892578	95.286934
11789.521809	1410.570000	1061.743164	-14.280000
11789.521809	1410.570000	1060.593750	-107.622993
11789.521809	1410.570000	1059.443359	51.156452
11789.521809	1410.570000	1058.292969	103.118378
11789.521809	1410.570000	1057.142578	174.944717
11789.521809	1410.570000	1055.992188	90.103500
11789.521809	1410.570000	1054.841797	-128.364944
11789.521809	1410.570000	1053.690430	-97.949852
11789.521809	1410.570000	1052.539063	-30.282555
11789.521809	1410.570000	1051.387695	-155.399872
11789.521809	1410.570000	1050.235352	77.252861
11789.521809	1410.570000	1049.083984	29.622772
11789.521809	1410.570000	1047.931641	46.008389
11789.521809	1410.570000	1046.778320	101.201958
11789.521809	1410.570000	1045.625977	61.113514
11789.521809	1410.570000	1044.472656	-39.965282
11789.521809	1410.570000	1043.319336	137.811844
11789.521809	1410.570000	1042.166016	-94.551926
11789.521809	1410.570000	1041.012695	15.826500
11789.521809	1410.570000	1039.858398	164.151138
11789.521809	1410.570000	1038.704102	59.724339
11789.521809	1410.570000	1037.549805	148.341278
11789.521809	1410.570000	1036.394531	83.367104
11789.521809	1410.570000	1035.239258	60.910809
11789.521809	1410.570000	1034.083984	159.819321
11789.521809	1410.570000	1032.928711	96.886848
11789.521809	1410.570000	1031.773438	-167.133438
11789.521809	1410.570000	1030.617188	1.292522
11789.521809	1410.570000	1029.460938	-20.487988
11789.521809	1410.570000	1028.304688	122.686409
11789.521809	1410.570000	1027.147461	146.183746
11789.521809	1410.570000	1025.991211	163.835083
11789.521809	1410.570000	1024.833984	124.600830
11789.521809	1410.570000	1023.675781	-66.968971
11789.521809	1410.570000	1022.518555	-47.984650
11789.521809	1410.570000	1021.360352	15.563982
11789.521809	1410.570000	1020.202148	1.400198
11789.521809	1410.570000	1019.043945	66.215630
11789.521809	1410.570000	1017.884766	9.185865
11789.521809	1410.570000	1016.726563	1.915450
11789.521809	1410.570000	1015.567383	-72.461449
11789.521809	1410.570000	1014.407227	-65.361618
11789.521809	1410.570000	1013.248047	156.580231
11789.521809	1410.570000	1012.087891	93.296082
11789.521809	1410.570000	1010.927734	213.981873
11789.521809	1410.570000	1009.767578	262.266693
11789.521809	1410.570000	1008.606445	44.243126
11789.521809	1410.570000	1007.446289	48.411175
11789.521809	1410.570000	1006.285156	63.767292
11789.521809	1410.570000	1005.123047	3.983528
11789.521809	1410.570000	1003.961914	18.537447
11789.521809	1410.570000	1002.799805	-115.560852
11789.521809	1410.570000	1001.637695	230.667725
11789.521809	1410.570000	1000.475586	47.533905
11789.521809	1410.570000	999.312500	83.107742
11789.521809	1410.570000	998.149414	26.658363
11789.521809	1410.570000	996.986328	-7.233018
11789.521809	1410.570000	995.823242	-2.694183
11789.521809	1410.570000	994.659180	83.401573
11789.521809	1410.570000	993.496094	51.495617
11789.521809	1410.570000	992.332031	34.309952
11789.521809	1410.570000	991.166992	37.158188
11789.521809	1410.570000	990.002930	-164.312256
11789.521809	1410.570000	988.837891	-180.142105
11789.521809	1410.570000	987.672852	29.552000
11789.521809	1410.570000	986.506836	59.234612
11789.521809	1410.570000	985.341797	69.233772
11789.521809	1410.570000	984.175781	18.929680
11789.521809	1410.570000	983.009766	24.885321
11789.521809	1410.570000	981.843750	51.316616
11789.521809	1410.570000	980.676758	-8.476912
11789.521809	1410.570000	979.509766	-78.972336
11789.521809	1410.570000	978.342773	-122.500618
11789.521809	1410.570000	977.175781	-5.667156
11789.521809	1410.570000	976.007813	25.101006
11789.521809	1410.570000	974.839844	79.369736
11789.521809	1410.570000	973.671875	59.137138
11789.521809	1410.570000	972.503906	0.864222
11789.521809	1410.570000	971.334961	-96.605568
11789.521809	1410.570000	970.166016	-153.184906
11789.521809	1410.570000	968.997070	80.972923
11789.521809	1410.570000	967.828125	8.242964
11789.521809	1410.570000	966.658203	184.086823
11789.521809	1410.570000	965.488281	-100.013672
11789.521809	1410.570000	964.318359	64.106529
11789.521809	1410.570000	963.148438	-22.507629
11789.521809	1410.570000	961.977539	-12.094743
11789.521809	1410.570000	960.806641	11.079906
11789.521809	1410.570000	959.635742	-164.882126
11789.521809	1410.570000	958.463867	174.399719
11789.521809	1410.570000	957.292969	64.342064
11789.521809	1410.570000	956.121094	189.790955
11789.521809	1410.570000	954.948242	22.737579
11789.521809	1410.570000	953.776367	130.319260
11789.521809	1410.570000	952.603516	40.041218
11789.521809	1410.570000	951.430664	-6.263277
11789.521809	1410.570000	950.257813	-42.810085
11789.521809	1410.570000	949.084961	-194.841446
11789.521809	1410.570000	947.911133	9.300522
11789.521809	1410.570000	946.737305	-108.174980
11789.521809	1410.570000	945.563477	-70.588326
11789.521809	1410.570000	944.388672	-63.026779
11789.521809	1410.570000	943.213867	-115.856331
11789.521809	1410.570000	942.039063	-75.901299
11789.521809	1410.570000	940.864258	-22.334599
11789.521809	1410.570000	939.688477	77.380501
11789.521809	1410.570000	938.513672	-12.219416
11789.521809	1410.570000	937.337891	-58.030499
11789.521809	1410.570000	936.161133	97.443245
11789.521809	1410.570000	934.985352	141.761795
11789.521809	1410.570000	933.808594	116.851280
11789.521809	1410.570000	932.631836	98.814362
11789.521809	1410.570000	931.454102	177.751236
11789.521809	1410.570000	930.277344	115.933784
11789.521809	1410.570000	929.099609	12.565439
11789.521809	1410.570000	927.921875	-21.562672
11789.521809	1410.570000	926.743164	-11.873800
11789.521809	1410.570000	925.565430	-34.434017
11789.521809	1410.570000	924.386719	106.779465
11789.521809	1410.570000	923.208008	-79.526260
11789.521809	1410.570000	922.028320	-7.530302
11789.521809	1410.570000	920.849609	110.538139
11789.521809	1410.570000	919.669922	113.786797
11789.521809	1410.570000	919.474609	97.732918
11789.521809	1410.570000	918.309570	-118.415543
11789.521809	1410.570000	917.143555	-302.220154
11789.521809	1410.570000	915.977539	-251.015823
11789.521809	1410.570000	914.810547	-15.602807
11789.521809	1410.570000	913.644531	270.361938
11789.521809	1410.570000	912.477539	1.461740
11789.521809	1410.570000	911.310547	-131.547562
11789.521809	1410.570000	910.143555	-4.496233
11789.521809	1410.570000	908.975586	111.001953
11789.521809	1410.570000	907.807617	79.252686
11789.521809	1410.570000	906.639648	176.288925
11789.521809	1410.570000	905.471680	-16.399326
11789.521809	1410.570000	904.303711	62.224789
11789.521809	1410.570000	903.134766	30.506474
11789.521809	1410.570000	901.965820	-42.559158
11789.521809	1410.570000	900.796875	143.985641
11789.521809	1410.570000	899.626953	-197.793243
11789.521809	1410.570000	898.457031	80.554375
11789.521809	1410.570000	897.287109	-6.246196
11789.521809	1410.570000	896.117188	-8.087813
11789.521809	1410.570000	894.947266	-87.958061
11789.521809	1410.570000	893.776367	57.053638
11789.521809	1410.570000	892.605469	-112.266609
11789.521809	1410.570000	891.434570	177.168793
11789.521809	1410.570000	890.262695	65.210823
11789.521809	1410.570000	889.091797	28.943741
11789.521809	1410.570000	887.919922	224.185013
11789.521809	1410.570000	886.748047	38.937546
11789.521809	1410.570000	885.575195	-107.288536
11789.521809	1410.570000	884.403320	133.654510
11789.521809	1410.570000	883.230469	30.968891
11789.521809	1410.570000	882.057617	6.167264
11789.521809	1410.570000	880.883789	61.494087
11789.521809	1410.570000	879.710938	-91.489754
11789.521809	1410.570000	878.537109	295.621948
11789.521809	1410.570000	877.362305	67.141327
11789.521809	1410.570000	876.188477	-33.164635
11789.521809	1410.570000	875.013672	-57.968895
11789.521809	1410.570000	873.839844	241.897888
11789.521809	1410.570000	872.664063	-32.139999
11789.521809	1410.570000	871.489258	119.023697
11789.521809	1410.570000	870.313477	27.904436
11789.521809	1410.570000	869.138672	126.426491
11789.521809	1410.570000	867.962891	-131.419144
11789.521809	1410.570000	866.786133	193.156204
11789.521809	1410.570000	865.610352	-37.223911
11789.521809	1410.570000	864.433594	95.427513
11789.521809	1410.570000	863.256836	-178.223419
11789.521809	1410.570000	862.079102	0.012839
11789.521809	1410.570000	860.902344	66.378090
11789.521809	1410.570000	859.724609	55.155159
11789.521809	1410.570000	858.546875	-54.132420
11789.521809	1410.570000	857.368164	71.440216
11789.521809	1410.570000	856.190430	162.752655
11789.521809	1410.570000	855.011719	194.760437
11789.521809	1410.570000	853.833008	178.891464
11789.521809	1410.570000	852.654297	-67.066582
11789.521809	1410.570000	851.474609	-5.471131
11789.521809	1410.570000	850.294922	19.649677
11789.521809	1410.570000	849.115234	-87.302208
11789.521809	1410.570000	847.935547	78.909142
11789.521809	1410.570000	846.754883	149.457489
11789.521809	1410.570000	845.575195	17.461885
11789.521809	1410.570000	844.393555	90.231445
11789.521809	1410.570000	843.212891	-16.717556
11789.521809	1410.570000	842.032227	151.485886
11789.521809	1410.570000	840.850586	1.335727
11789.521809	1410.570000	839.668945	-137.409897
11789.521809	1410.570000	838.486328	-37.515827
11789.521809	1410.570000	837.304688	-133.072723
11789.521809	1410.570000	836.122070	23.520941
11789.521809	1410.570000	834.939453	311.746033
11789.521809	1410.570000	833.756836	-8.673245
11789.521809	1410.570000	832.573242	-52.035034
11789.521809	1410.570000	831.389648	-31.853548
11789.521809	1410.570000	830.206055	-41.204372
11789.521809	1410.570000	829.022461	-46.038101
11789.521809	1410.570000	827.838867	-30.482075
11789.521809	1410.570000	826.654297	75.753349
11789.521809	1410.570000	825.469727	-85.618401
11789.521809	1410.570000	824.284180	-167.610443
11789.521809	1410.570000	823.099609	-68.291458
11789.521809	1410.570000	821.914063	101.202301
11789.521809	1410.570000	820.728516	-159.824799
11789.521809	1410.570000	819.542969	-1.762799
11789.521809	1410.570000	818.356445	-92.882744
11789.521809	1410.570000	817.169922	60.517246
11789.521809	1410.570000	815.983398	50.849888
11789.521809	1410.570000	814.796875	16.264221
11789.521809	1410.570000	813.609375	58.591648
11789.521809	1410.570000	812.422852	98.607689
11789.521809	1410.570000	811.235352	18.709867
11789.521809	1410.570000	810.046875	2.128223
11789.521809	1410.570000	808.859375	123.424568
11789.521809	1410.570000	807.670898	156.490417
11789.521809	1410.570000	806.482422	24.545500
11789.521809	1410.570000	805.293945	233.778915
11789.521809	1410.570000	804.104492	-58.569923
11789.521809	1410.570000	802.915039	37.609428
11789.521809	1410.570000	801.725586	75.009987
11789.521809	1410.570000	800.536133	83.013260
11789.521809	1410.570000	799.345703	21.013855
11789.521809	1410.570000	798.155273	144.039307
11789.521809	1410.570000	796.964844	-91.732948
11789.521809	1410.570000	795.774414	-158.274918
11789.521809	1410.570000	794.583008	-39.904972
11789.521809	1410.570000	793.392578	33.285168
11789.521809	1410.570000	792.200195	65.836006
11789.521809	1410.570000	791.008789	1.425208
11789.521809	1410.570000	789.816406	78.959152
11789.521809	1410.570000	788.625000	104.609093
11789.521809	1410.570000	787.432617	139.219757
11789.521809	1410.570000	786.239258	81.453896
11789.521809	1410.570000	785.046875	57.442909
11789.521809	1410.570000	783.853516	35.655396
11789.521809	1410.570000	782.660156	70.097885
11789.521809	1410.570000	781.465820	255.236877
11789.521809	1410.570000	780.272461	-133.366257
11789.521809	1410.570000	779.078125	49.409206
11789.521809	1410.570000	777.883789	130.882446
11789.521809	1410.570000	776.688477	153.832367
11789.521809	1410.570000	775.494141	86.825500
11789.521809	1410.570000	774.298828	-103.788155
11789.521809	1410.570000	773.103516	-98.901184
11789.521809	1410.570000	771.907227	-67.100990
11789.521809	1410.570000	770.711914	18.542540
11789.521809	1410.570000	769.515625	68.183853
11789.521809	1410.570000	768.318359	43.684025
11789.521809	1410.570000	767.122070	64.038834
11789.521809	1410.570000	765.924805	-59.266407
11789.521809	1410.570000	764.727539	14.860398
11789.521809	1410.570000	763.530273	5.923039
11789.521809	1410.570000	762.333008	-115.177223
11789.521809	1410.570000	761.134766	187.474899
11789.521809	1410.570000	759.936523	25.952141
11789.521809	1410.570000	758.738281	175.968292
11789.521809	1410.570000	757.540039	166.792816
11789.521809	1410.570000	756.340820	121.736412
11789.521809	1410.570000	755.141602	83.373947
11789.521809	1410.570000	753.942383	-299.859070
11789.521809	1410.570000	752.742188	-127.759438
11789.521809	1410.570000	751.541992	1.696093
11789.521809	1410.570000	750.341797	79.584656
11789.521809	1410.570000	749.141602	-26.067373
11789.521809	1410.570000	747.941406	107.629669
11789.521809	1410.570000	746.740234	84.676727
11789.521809	1410.570000	745.539063	-99.300201
11789.521809	1410.570000	744.337891	101.263397
11789.521809	1410.570000	743.135742	286.053925
11789.521809	1410.570000	741.933594	12.636038
11789.521809	1410.570000	740.731445	157.067398
11789.521809	1410.570000	739.529297	26.656729
11789.521809	1410.570000	738.326172	148.605957
11789.521809	1410.570000	737.124023	480.335724
11789.521809	1410.570000	735.919922	416.775787
11789.521809	1410.570000	734.716797	413.458557
11789.521809	1410.570000	733.513672	604.222778
11789.521809	1410.570000	732.309570	560.625671
11789.521809	1410.570000	731.105469	661.979370
11789.521809	1410.570000	729.900391	613.843201
11789.521809	1410.570000	728.696289	532.243713
11789.521809	1410.570000	727.491211	649.013977
11789.521809	1410.570000	726.286133	266.508362
11789.521809	1410.570000	725.080078	334.184448
11789.521809	1410.570000	723.874023	69.881912
11789.521809	1410.570000	722.668945	81.810791
11789.521809	1410.570000	721.461914	100.372482
11789.521809	1410.570000	720.255859	83.267731
11789.521809	1410.570000	719.048828	188.543137
11789.521809	1410.570000	717.841797	213.625595
11789.521809	1410.570000	716.634766	349.896301
11789.521809	1410.570000	715.427734	-1.054566
11789.521809	1410.570000	714.219727	66.185532
11789.521809	1410.570000	713.011719	-46.735657
11789.521809	1410.570000	711.803711	-66.285507
11789.521809	1410.570000	710.594727	-159.206818
11789.521809	1410.570000	709.385742	5.623866
11789.521809	1410.570000	708.176758	30.391579
11789.521809	1410.570000	706.967773	-31.508696
11789.521809	1410.570000	705.758789	66.463554
11789.521809	1410.570000	704.548828	-39.893543
11789.521809	1410.570000	703.338867	53.527111
11789.521809	1410.570000	702.127930	-79.485161
11789.521809	1410.570000	700.917969	82.615578
11789.521809	1410.570000	699.707031	16.133039
11789.521809	1410.570000	698.496094	89.365898
11789.521809	1410.570000	697.285156	84.928009
11789.521809	1410.570000	696.073242	64.940666
11789.521809	1410.570000	694.861328	184.563980
11789.521809	1410.570000	693.649414	-48.228752
11789.521809	1410.570000	692.436523	-8.452024
11789.521809	1410.570000	691.224609	40.138874
11789.521809	1410.570000	690.011719	-95.127235
11789.521809	1410.570000	688.798828	-128.518738
11789.521809	1410.570000	687.584961	119.202766
11789.521809	1410.570000	686.372070	105.643570
11789.521809	1410.570000	685.158203	176.144089
11789.521809	1410.570000	683.943359	60.761654
11789.521809	1410.570000	682.729492	270.530396
11789.521809	1410.570000	681.514648	234.734085
11789.521809	1410.570000	680.299805	172.398468
11789.521809	1410.570000	679.084961	45.966724
11789.521809	1410.570000	677.869141	133.922394
11789.521809	1410.570000	676.653320	-60.985027
11789.521809	1410.570000	675.437500	95.392769
11789.521809	1410.570000	674.221680	119.175774
11789.521809	1410.570000	673.004883	83.311356
11789.521809	1410.570000	671.789063	166.653427
11789.521809	1410.570000	670.571289	-87.743713
11789.521809	1410.570000	669.354492	216.227570
11789.521809	1410.570000	668.136719	83.233665
11789.521809	1410.570000	666.919922	18.660837
11789.521809	1410.570000	665.701172	-81.185722
11789.521809	1410.570000	664.483398	-24.462824
11789.521809	1410.570000	663.264648	14.587667
11789.521809	1410.570000	662.045898	258.569092
11789.521809	1410.570000	660.827148	105.831093
11789.521809	1410.570000	659.608398	61.091450
11789.521809	1410.570000	658.388672	150.709717
11789.521809	1410.570000	657.168945	-1.933343
11789.521809	1410.570000	655.949219	-110.486099
11789.521809	1410.570000	654.728516	86.944214
11789.521809	1410.570000	653.507813	-39.196156
11789.521809	1410.570000	652.287109	1.921995
11789.521809	1410.570000	651.066406	73.817322
11789.521809	1410.570000	649.844727	220.452942
11789.521809	1410.570000	648.623047	122.969513
11789.521809	1410.570000	647.401367	113.458946
11789.521809	1410.570000	646.179688	-43.295406
11789.521809	1410.570000	644.957031	246.075897
11789.521809	1410.570000	643.734375	69.595329
11789.521809	1410.570000	642.511719	-5.769143
11789.521809	1410.570000	641.289063	-23.999771
11789.521809	1410.570000	640.065430	19.257322
11789.521809	1410.570000	638.841797	73.481667
11789.521809	1410.570000	637.618164	-17.144892
11789.521809	1410.570000	636.393555	-22.154165
11789.521809	1410.570000	635.168945	-75.406471
11789.521809	1410.570000	633.944336	18.319113
11789.521809	1410.570000	632.719727	-39.273083
11789.521809	1410.570000	631.494141	-213.012634
11789.521809	1410.570000	630.269531	218.264236
11789.521809	1410.570000	629.042969	-117.574196
11789.521809	1410.570000	627.817383	-93.954300
11789.521809	1410.570000	626.590820	30.434349
11789.521809	1410.570000	625.365234	43.109905
11789.521809	1410.570000	624.137695	224.388168
11789.521809	1410.570000	622.911133	90.405991
11789.521809	1410.570000	621.683594	-76.319939
11789.521809	1410.570000	620.456055	-190.434280
11789.521809	1410.570000	619.228516	-55.087173
11789.521809	1410.570000	618.000977	115.227516
11789.521809	1410.570000	616.772461	73.396317
11789.521809	1410.570000	615.543945	171.532303
11789.521809	1410.570000	614.314453	55.460514
11789.521809	1410.570000	613.085938	68.404686
11789.521809	1410.570000	611.856445	273.640686
11789.521809	1410.570000	610.626953	57.255093
11789.521809	1410.570000	609.397461	116.167084
11789.521809	1410.570000	608.166992	264.613007
11789.521809	1410.570000	606.936523	118.343414
11789.521809	1410.570000	605.706055	111.856544
11789.521809	1410.570000	604.474609	-93.145332
11789.521809	1410.570000	603.244141	-77.677368
11789.521809	1410.570000	602.012695	64.332718
11789.521809	1410.570000	600.780273	75.493637
11789.521809	1410.570000	599.548828	-238.140686
11789.521809	1410.570000	598.316406	-104.757507
11789.521809	1410.570000	597.083984	-272.110596
11789.521809	1410.570000	595.851563	124.957420
11789.521809	1410.570000	594.618164	-238.311859
11789.521809	1410.570000	593.384766	99.889137
11789.521809	1410.570000	592.151367	-213.028320
11789.521809	1410.570000	590.917969	-29.422562
11789.521809	1410.570000	589.683594	-218.005966
11789.521809	1410.570000	588.449219	-136.628433
11789.521809	1410.570000	587.214844	-79.155121
11789.521809	1410.570000	585.979492	13.155745
11789.521809	1410.570000	584.745117	-66.300430
11789.521809	1410.570000	583.509766	-36.952168
11789.521809	1410.570000	582.273438	-103.192924
11789.521809	1410.570000	581.038086	17.554964
11789.521809	1410.570000	579.801758	-74.608482
11789.521809	1410.570000	578.565430	-10.261242
11789.521809	1410.570000	577.329102	-82.695457
11789.521809	1410.570000	576.091797	-74.689598
11789.521809	1410.570000	574.854492	-40.566044
11789.521809	1410.570000	573.617188	-62.816231
11789.521809	1410.570000	572.378906	97.290230
11789.521809	1410.570000	571.141602	18.759565
11789.521809	1410.570000	569.903320	-165.947189
11789.521809	1410.570000	568.664063	35.504753
11789.521809	1410.570000	567.425781	63.496143
11789.521809	1410.570000	566.186523	121.899414
11789.521809	1410.570000	564.947266	43.822113
11789.521809	1410.570000	563.708008	72.024467
11789.521809	1410.570000	562.467773	-16.685783
11789.521809	1410.570000	561.227539	161.111099
11789.521809	1410.570000	559.987305	247.967209
11789.521809	1410.570000	558.747070	31.784199
11789.521809	1410.570000	557.505859	-32.719002
11789.521809	1410.570000	556.264648	-66.820343
11789.521809	1410.570000	555.023438	5.181497
11789.521809	1410.570000	553.781250	27.483994
11789.521809	1410.570000	552.539063	97.432884
11789.521809	1410.570000	551.296875	-42.290215
11789.521809	1410.570000	550.054688	-26.238106
11789.521809	1410.570000	548.811523	184.392197
11789.521809	1410.570000	547.569336	297.778503
11789.521809	1410.570000	546.325195	82.843758
11789.521809	1410.570000	545.082031	62.458405
11789.521809	1410.570000	543.837891	52.957115
11789.521809	1410.570000	542.593750	52.174866
11789.521809	1410.570000	541.349609	403.284973
11789.521809	1410.570000	540.105469	307.634521
11789.521809	1410.570000	538.860352	199.158279
11789.521809	1410.570000	537.615234	127.472939
11789.521809	1410.570000	536.369141	265.079651
11789.521809	1410.570000	535.124023	422.103577
11789.521809	1410.570000	533.877930	374.354340
11789.521809	1410.570000	532.631836	216.785034
11789.521809	1410.570000	531.384766	143.389847
11789.521809	1410.570000	530.138672	149.800964
11789.521809	1410.570000	528.891602	74.436546
11789.521809	1410.570000	527.643555	53.008282
11789.521809	1410.570000	526.396484	38.111580
11789.521809	1410.570000	525.148438	277.268188
11789.521809	1410.570000	523.900391	389.422333
11789.521809	1410.570000	522.652344	269.233398
11789.521809	1410.570000	521.403320	226.594666
11789.521809	1410.570000	520.154297	330.267303
11789.521809	1410.570000	518.905273	285.596893
11789.521809	1410.570000	517.656250	608.581299
11789.521809	1410.570000	516.406250	243.757034
11789.521809	1410.570000	515.156250	94.005814
11789.521809	1410.570000	513.906250	434.158112
11789.521809	1410.570000	512.655273	357.548157
11789.521809	1410.570000	511.404297	283.158691
11789.521809	1410.570000	510.153320	412.789551
11789.521809	1410.570000	508.902344	578.887939
11789.521809	1410.570000	507.650391	380.145172
11789.521809	1410.570000	506.398438	520.498413
11789.521809	1410.570000	505.146484	776.646362
11789.521809	1410.570000	503.893555	882.593445
11789.521809	1410.570000	502.641602	546.833008
11789.521809	1410.570000	501.388672	569.215820
11789.521809	1410.570000	500.134766	553.027100
11789.521809	1410.570000	498.881836	637.555481
11789.521809	1410.570000	497.627930	794.888794
11789.521809	1410.570000	496.374023	868.624084
11789.521809	1410.570000	495.119141	749.607483
11789.521809	1410.570000	493.865234	716.261902
11789.521809	1410.570000	492.610352	864.849182
11789.521809	1410.570000	491.355469	756.562561
11789.521809	1410.570000	490.099609	721.041321
11789.521809	1410.570000	488.843750	835.233215
11789.521809	1410.570000	487.587891	940.785034
11789.521809	1410.570000	486.332031	838.855164
11789.521809	1410.570000	485.075195	820.290161
11789.521809	1410.570000	483.818359	1269.715820
11789.521809	1410.570000	482.561523	1007.367981
11789.521809	1410.570000	481.304688	1289.804810
11789.521809	1410.570000	480.046875	1198.287842
11789.521809	1410.570000	478.789063	1104.594727
11789.521809	1410.570000	477.531250	1239.282715
11789.521809	1410.570000	476.272461	1237.218140
11789.521809	1410.570000	475.013672	1375.891235
11789.521809	1410.570000	473.754883	1565.597656
11789.521809	1410.570000	472.496094	1386.092529
11789.521809	1410.570000	471.236328	1496.566162
11789.521809	1410.570000	469.976563	1521.574097
11789.521809	1410.570000	468.716797	1299.157959
11789.521809	1410.570000	467.456055	1517.838867
11789.521809	1410.570000	466.196289	1482.707764
11789.521809	1410.570000	464.935547	1613.581055
11789.521809	1410.570000	463.673828	1369.375610
11789.521809	1410.570000	462.413086	1491.328003
11789.521809	1410.570000	461.151367	1683.281372
11789.521809	1410.570000	459.889648	1700.410645
11789.521809	1410.570000	458.626953	1657.728516
11789.521809	1410.570000	457.364258	1685.039551
11789.521809	1410.570000	456.101563	1431.326050
11789.521809	1410.570000	454.838867	1562.376465
11789.521809	1410.570000	453.575195	1588.923340
11789.521809	1410.570000	452.312500	1689.577026
11789.521809	1410.570000	451.047852	1760.142456
11789.521809	1410.570000	449.784180	1549.909424
11789.521809	1410.570000	448.519531	1745.184937
11789.521809	1410.570000	447.254883	1598.110840
11789.521809	1410.570000	445.990234	1788.370361
11789.521809	1410.570000	444.725586	1668.246582
11789.521809	1410.570000	443.459961	1717.596558
11789.521809	1410.570000	442.194336	1857.782715
11789.521809	1410.570000	440.927734	1986.896118
11789.521809	1410.570000	439.662109	2079.481689
11789.521809	1410.570000	438.395508	2188.556885
11789.521809	1410.570000	437.127930	1985.472656
11789.521809	1410.570000	435.861328	2076.650635
11789.521809	1410.570000	434.593750	1868.494141
11789.521809	1410.570000	433.326172	1960.793213
11789.521809	1410.570000	432.058594	2099.140137
11789.521809	1410.570000	430.790039	2315.248535
11789.521809	1410.570000	429.521484	2352.851563
11789.521809	1410.570000	428.252930	2184.526855
11789.521809	1410.570000	426.984375	2322.573242
11789.521809	1410.570000	425.714844	2381.653564
11789.521809	1410.570000	424.445313	2338.533691
11789.521809	1410.570000	423.174805	2098.072998
11789.521809	1410.570000	421.905273	2201.741211
11789.521809	1410.570000	420.634766	2243.355957
11789.521809	1410.570000	419.364258	2311.720703
11789.521809	1410.570000	418.092773	2482.861816
11789.521809	1410.570000	416.822266	2351.053955
11789.521809	1410.570000	415.550781	2414.962891
11789.521809	1410.570000	414.278320	2304.856689
11789.521809	1410.570000	413.006836	2225.658691
11789.521809	1410.570000	411.734375	2185.741211
11789.521809	1410.570000	410.461914	2244.161865
11789.521809	1410.570000	409.188477	2481.000000
11789.521809	1410.570000	407.916016	2370.852539
11789.521809	1410.570000	406.642578	2329.389648
11789.521809	1410.570000	405.368164	2428.232666
11789.521809	1410.570000	404.094727	2380.579834
11789.521809	1410.570000	402.820313	2323.468018
11789.521809	1410.570000	401.545898	2147.313477
11789.521809	1410.570000	400.270508	2275.620361
11789.521809	1410.570000	398.996094	2293.243164
11789.521809	1410.570000	397.720703	2174.911865
11789.521809	1410.570000	396.444336	2440.734375
11789.521809	1410.570000	395.168945	2273.727295
11789.521809	1410.570000	393.892578	2553.802490
11789.521809	1410.570000	392.616211	2428.497803
11789.521809	1410.570000	391.339844	2301.944092
11789.521809	1410.570000	390.062500	2327.614502
11789.521809	1410.570000	388.785156	2381.342285
11789.521809	1410.570000	387.507813	2397.903809
11789.521809	1410.570000	386.229492	2192.296875
11789.521809	1410.570000	384.951172	2264.784424
11789.521809	1410.570000	383.672852	2417.664795
11789.521809	1410.570000	382.394531	2310.577148
11789.521809	1410.570000	381.115234	2311.114258
11789.521809	1410.570000	379.835938	2387.708740
11789.521809	1410.570000	378.556641	2145.648438
11789.521809	1410.570000	377.277344	2111.853027
11789.521809	1410.570000	375.997070	2076.292725
11789.521809	1410.570000	374.716797	1931.981445
11789.521809	1410.570000	373.435547	2209.509033
11789.521809	1410.570000	372.155273	1803.634766
11789.521809	1410.570000	370.874023	1894.913086
11789.521809	1410.570000	369.591797	1741.026001
11789.521809	1410.570000	368.310547	1807.371338
11789.521809	1410.570000	367.028320	2131.371338
11789.521809	1410.570000	365.746094	1759.858765
11789.521809	1410.570000	364.463867	1849.158081
11789.521809	1410.570000	363.180664	1716.353271
11789.521809	1410.570000	361.897461	1828.366699
11789.521809	1410.570000	360.614258	1672.278076
11789.521809	1410.570000	359.330078	1574.540894
11789.521809	1410.570000	358.045898	1572.779541
11789.521809	1410.570000	356.761719	1721.251099
11789.521809	1410.570000	355.477539	1354.913208
11789.521809	1410.570000	354.192383	1431.386475
11789.521809	1410.570000	352.907227	1181.291260
11789.521809	1410.570000	351.622070	1288.051758
11789.521809	1410.570000	350.336914	1183.161255
11789.521809	1410.570000	349.050781	1159.027832
11789.521809	1410.570000	347.764648	1228.139771
11789.521809	1410.570000	346.477539	1012.430176
11789.521809	1410.570000	345.191406	1253.150879
11789.521809	1410.570000	343.904297	1125.507446
11789.521809	1410.570000	342.616211	1180.455811
11789.521809	1410.570000	341.329102	1086.340576
11789.521809	1410.570000	340.041016	899.321655
11789.521809	1410.570000	338.752930	855.087646
11789.521809	1410.570000	337.463867	757.437744
11789.521809	1410.570000	336.175781	852.450684
11789.521809	1410.570000	334.886719	545.917358
11789.521809	1410.570000	333.596680	596.280640
11789.521809	1410.570000	332.307617	543.180420
11789.521809	1410.570000	331.017578	121.955589
11789.521809	1410.570000	329.727539	511.162872
11789.521809	1410.570000	328.436523	171.995819
11789.521809	1410.570000	327.146484	401.460083
11789.521809	1410.570000	325.855469	200.284042
11789.521809	1410.570000	324.563477	28.334030
11789.521809	1410.570000	323.272461	526.243469
11789.521809	1410.570000	321.980469	223.366074
11789.521809	1410.570000	320.688477	296.751923
11789.521809	1410.570000	319.395508	236.794220
11789.521809	1410.570000	318.103516	-76.731812
11789.521809	1410.570000	316.810547	28.999779
11789.521809	1410.570000	315.516602	125.807457
11789.521809	1410.570000	314.223633	118.393250
11789.521809	1410.570000	312.929688	0.217525
11789.521809	1410.570000	311.635742	-135.195816
11789.521809	1410.570000	310.340820	-24.565979
11789.521809	1410.570000	309.045898	-228.100784
11789.521809	1410.570000	307.750977	-144.211105
11789.521809	1410.570000	306.456055	-163.014053
11789.521809	1410.570000	305.160156	-60.809505
11789.521809	1410.570000	303.865234	-65.418205
11789.521809	1410.570000	302.568359	-57.221004
11789.521809	1410.570000	301.272461	281.209167
11789.521809	1410.570000	299.975586	420.988434
11789.521809	1410.570000	298.678711	513.511902
