#X		#Y		#Wave		#Intensity
11661.786170	1488.916667	1999.980469	107.731705
11661.786170	1488.916667	1999.016602	-24.086023
11661.786170	1488.916667	1998.052734	-7.182085
11661.786170	1488.916667	1997.087891	-29.919441
11661.786170	1488.916667	1996.123047	108.414993
11661.786170	1488.916667	1995.158203	51.011467
11661.786170	1488.916667	1994.193359	-135.149704
11661.786170	1488.916667	1993.228516	5.639392
11661.786170	1488.916667	1992.262695	27.546310
11661.786170	1488.916667	1991.297852	-185.705658
11661.786170	1488.916667	1990.332031	120.860382
11661.786170	1488.916667	1989.366211	95.742836
11661.786170	1488.916667	1988.399414	310.619202
11661.786170	1488.916667	1987.433594	92.551712
11661.786170	1488.916667	1986.466797	-21.561663
11661.786170	1488.916667	1985.500977	237.736847
11661.786170	1488.916667	1984.534180	-9.850981
11661.786170	1488.916667	1983.567383	-104.099060
11661.786170	1488.916667	1982.599609	-116.761330
11661.786170	1488.916667	1981.632813	95.424767
11661.786170	1488.916667	1980.665039	-3.729503
11661.786170	1488.916667	1979.697266	37.934669
11661.786170	1488.916667	1978.729492	180.827789
11661.786170	1488.916667	1977.761719	22.454149
11661.786170	1488.916667	1976.792969	165.292374
11661.786170	1488.916667	1975.825195	-17.705370
11661.786170	1488.916667	1974.856445	186.770355
11661.786170	1488.916667	1973.887695	107.446884
11661.786170	1488.916667	1972.918945	-307.315948
11661.786170	1488.916667	1971.949219	17.929352
11661.786170	1488.916667	1970.980469	-14.484070
11661.786170	1488.916667	1970.010742	31.997446
11661.786170	1488.916667	1969.041016	103.104256
11661.786170	1488.916667	1968.071289	13.993184
11661.786170	1488.916667	1967.101563	-89.874222
11661.786170	1488.916667	1966.130859	-60.685181
11661.786170	1488.916667	1965.161133	116.264725
11661.786170	1488.916667	1964.190430	-100.865349
11661.786170	1488.916667	1963.219727	-34.783398
11661.786170	1488.916667	1962.249023	144.499542
11661.786170	1488.916667	1961.277344	173.575592
11661.786170	1488.916667	1960.306641	-144.328247
11661.786170	1488.916667	1959.334961	20.084896
11661.786170	1488.916667	1958.363281	71.277039
11661.786170	1488.916667	1957.391602	297.052643
11661.786170	1488.916667	1956.419922	-40.349277
11661.786170	1488.916667	1955.447266	45.211277
11661.786170	1488.916667	1954.474609	49.617313
11661.786170	1488.916667	1953.501953	-14.800305
11661.786170	1488.916667	1952.529297	1.878153
11661.786170	1488.916667	1951.556641	30.821457
11661.786170	1488.916667	1950.583984	84.303856
11661.786170	1488.916667	1949.610352	7.603982
11661.786170	1488.916667	1948.636719	2.120599
11661.786170	1488.916667	1947.663086	-13.190392
11661.786170	1488.916667	1946.689453	72.118134
11661.786170	1488.916667	1945.715820	-73.279144
11661.786170	1488.916667	1944.741211	296.577026
11661.786170	1488.916667	1943.767578	266.454254
11661.786170	1488.916667	1942.792969	108.801491
11661.786170	1488.916667	1941.818359	154.711929
11661.786170	1488.916667	1940.842773	-20.049511
11661.786170	1488.916667	1939.868164	-57.496391
11661.786170	1488.916667	1938.892578	-188.067520
11661.786170	1488.916667	1937.916992	46.475868
11661.786170	1488.916667	1936.941406	-250.674896
11661.786170	1488.916667	1935.965820	125.824799
11661.786170	1488.916667	1934.990234	71.176048
11661.786170	1488.916667	1934.013672	-29.985209
11661.786170	1488.916667	1933.037109	-177.633987
11661.786170	1488.916667	1932.060547	105.512833
11661.786170	1488.916667	1931.083984	-5.428621
11661.786170	1488.916667	1930.107422	30.449762
11661.786170	1488.916667	1929.129883	51.623718
11661.786170	1488.916667	1928.153320	231.743088
11661.786170	1488.916667	1927.175781	13.214465
11661.786170	1488.916667	1926.198242	-29.226116
11661.786170	1488.916667	1925.219727	-13.003379
11661.786170	1488.916667	1924.242188	179.152740
11661.786170	1488.916667	1923.263672	-22.157896
11661.786170	1488.916667	1922.285156	-218.523438
11661.786170	1488.916667	1921.306641	-111.967430
11661.786170	1488.916667	1920.328125	75.120407
11661.786170	1488.916667	1919.349609	142.487061
11661.786170	1488.916667	1918.370117	-68.470047
11661.786170	1488.916667	1917.391602	-123.163269
11661.786170	1488.916667	1916.412109	132.049026
11661.786170	1488.916667	1915.431641	-339.885071
11661.786170	1488.916667	1914.452148	15.250116
11661.786170	1488.916667	1913.472656	-44.358982
11661.786170	1488.916667	1912.492188	52.091232
11661.786170	1488.916667	1911.511719	36.345749
11661.786170	1488.916667	1910.531250	35.215004
11661.786170	1488.916667	1909.550781	7.262354
11661.786170	1488.916667	1908.569336	-54.810246
11661.786170	1488.916667	1907.588867	-48.663921
11661.786170	1488.916667	1906.607422	42.707870
11661.786170	1488.916667	1905.625977	4.965228
11661.786170	1488.916667	1904.644531	-23.041399
11661.786170	1488.916667	1903.662109	275.134003
11661.786170	1488.916667	1902.680664	237.317703
11661.786170	1488.916667	1901.698242	48.629395
11661.786170	1488.916667	1900.715820	59.490936
11661.786170	1488.916667	1899.733398	-29.399590
11661.786170	1488.916667	1898.750000	-25.860937
11661.786170	1488.916667	1897.767578	125.982185
11661.786170	1488.916667	1896.784180	-193.877731
11661.786170	1488.916667	1895.800781	11.374818
11661.786170	1488.916667	1894.817383	124.186913
11661.786170	1488.916667	1893.833984	159.186295
11661.786170	1488.916667	1892.850586	128.564163
11661.786170	1488.916667	1891.866211	-6.505196
11661.786170	1488.916667	1890.881836	-27.412310
11661.786170	1488.916667	1889.897461	65.779144
11661.786170	1488.916667	1888.913086	98.230087
11661.786170	1488.916667	1887.927734	-46.522045
11661.786170	1488.916667	1886.943359	-154.841858
11661.786170	1488.916667	1885.958008	44.968758
11661.786170	1488.916667	1884.972656	89.443207
11661.786170	1488.916667	1883.987305	90.226746
11661.786170	1488.916667	1883.001953	13.397277
11661.786170	1488.916667	1882.015625	69.908089
11661.786170	1488.916667	1881.029297	157.884445
11661.786170	1488.916667	1880.042969	141.602463
11661.786170	1488.916667	1879.056641	110.765968
11661.786170	1488.916667	1878.070313	-104.187798
11661.786170	1488.916667	1877.083984	5.462564
11661.786170	1488.916667	1876.096680	-85.941132
11661.786170	1488.916667	1875.109375	30.878817
11661.786170	1488.916667	1874.122070	-108.954834
11661.786170	1488.916667	1873.134766	-166.475586
11661.786170	1488.916667	1872.146484	114.758850
11661.786170	1488.916667	1871.159180	100.715508
11661.786170	1488.916667	1870.170898	108.418892
11661.786170	1488.916667	1869.182617	137.858704
11661.786170	1488.916667	1868.194336	213.201614
11661.786170	1488.916667	1867.205078	-64.458870
11661.786170	1488.916667	1866.216797	112.354279
11661.786170	1488.916667	1865.227539	-10.579837
11661.786170	1488.916667	1864.238281	21.135817
11661.786170	1488.916667	1863.249023	163.929611
11661.786170	1488.916667	1862.259766	31.311924
11661.786170	1488.916667	1861.269531	2.546016
11661.786170	1488.916667	1860.279297	-253.179977
11661.786170	1488.916667	1859.290039	63.239170
11661.786170	1488.916667	1858.298828	-4.220726
11661.786170	1488.916667	1857.308594	70.678627
11661.786170	1488.916667	1856.318359	63.496292
11661.786170	1488.916667	1855.327148	121.407433
11661.786170	1488.916667	1854.335938	36.983135
11661.786170	1488.916667	1853.344727	128.569687
11661.786170	1488.916667	1852.353516	44.112984
11661.786170	1488.916667	1851.362305	12.678061
11661.786170	1488.916667	1850.370117	-139.266144
11661.786170	1488.916667	1849.377930	87.071289
11661.786170	1488.916667	1848.385742	190.438995
11661.786170	1488.916667	1847.393555	-113.283562
11661.786170	1488.916667	1846.401367	79.107300
11661.786170	1488.916667	1845.408203	-94.548576
11661.786170	1488.916667	1844.415039	23.075058
11661.786170	1488.916667	1843.421875	-121.698990
11661.786170	1488.916667	1842.428711	130.555603
11661.786170	1488.916667	1841.435547	-11.851042
11661.786170	1488.916667	1840.441406	-113.355637
11661.786170	1488.916667	1839.448242	160.284988
11661.786170	1488.916667	1838.454102	-15.824667
11661.786170	1488.916667	1837.459961	269.634064
11661.786170	1488.916667	1836.464844	134.347321
11661.786170	1488.916667	1835.470703	97.595703
11661.786170	1488.916667	1834.475586	99.253899
11661.786170	1488.916667	1833.480469	-103.302666
11661.786170	1488.916667	1832.485352	-104.091049
11661.786170	1488.916667	1831.490234	48.752541
11661.786170	1488.916667	1830.495117	179.890732
11661.786170	1488.916667	1829.499023	181.319977
11661.786170	1488.916667	1828.502930	-112.468918
11661.786170	1488.916667	1827.506836	6.495275
11661.786170	1488.916667	1826.510742	-16.163889
11661.786170	1488.916667	1825.513672	-60.449169
11661.786170	1488.916667	1824.517578	211.774353
11661.786170	1488.916667	1823.520508	-137.113647
11661.786170	1488.916667	1822.523438	65.410126
11661.786170	1488.916667	1821.526367	143.186996
11661.786170	1488.916667	1820.529297	117.851257
11661.786170	1488.916667	1819.531250	82.891090
11661.786170	1488.916667	1818.533203	69.453003
11661.786170	1488.916667	1817.535156	-18.268166
11661.786170	1488.916667	1816.537109	293.853088
11661.786170	1488.916667	1815.539063	158.144394
11661.786170	1488.916667	1814.540039	0.892541
11661.786170	1488.916667	1813.541992	188.245148
11661.786170	1488.916667	1812.542969	47.692211
11661.786170	1488.916667	1811.543945	7.609082
11661.786170	1488.916667	1810.543945	-216.672729
11661.786170	1488.916667	1809.544922	3.843400
11661.786170	1488.916667	1808.544922	116.634399
11661.786170	1488.916667	1807.544922	42.886360
11661.786170	1488.916667	1806.544922	301.299957
11661.786170	1488.916667	1805.544922	272.833740
11661.786170	1488.916667	1804.544922	-54.295013
11661.786170	1488.916667	1803.543945	-63.690712
11661.786170	1488.916667	1802.542969	3.276370
11661.786170	1488.916667	1801.541992	-1.466508
11661.786170	1488.916667	1800.541016	70.123154
11661.786170	1488.916667	1799.539063	249.023758
11661.786170	1488.916667	1798.538086	117.592476
11661.786170	1488.916667	1797.536133	2.848047
11661.786170	1488.916667	1796.534180	-59.435928
11661.786170	1488.916667	1795.532227	11.795751
11661.786170	1488.916667	1794.529297	61.476295
11661.786170	1488.916667	1793.527344	218.358948
11661.786170	1488.916667	1792.524414	191.585938
11661.786170	1488.916667	1791.521484	233.868637
11661.786170	1488.916667	1790.518555	-121.823662
11661.786170	1488.916667	1789.514648	-208.265076
11661.786170	1488.916667	1788.511719	160.174225
11661.786170	1488.916667	1787.507813	104.541153
11661.786170	1488.916667	1786.503906	163.142136
11661.786170	1488.916667	1785.500000	269.263855
11661.786170	1488.916667	1784.496094	132.527908
11661.786170	1488.916667	1783.491211	-77.990479
11661.786170	1488.916667	1782.486328	73.113976
11661.786170	1488.916667	1781.481445	-101.768524
11661.786170	1488.916667	1780.476563	-10.305384
11661.786170	1488.916667	1779.471680	-182.863220
11661.786170	1488.916667	1778.465820	-44.016582
11661.786170	1488.916667	1777.460938	40.048359
11661.786170	1488.916667	1776.455078	97.867432
11661.786170	1488.916667	1775.449219	32.049545
11661.786170	1488.916667	1774.442383	-78.950790
11661.786170	1488.916667	1773.436523	-61.727428
11661.786170	1488.916667	1772.429688	19.524502
11661.786170	1488.916667	1771.422852	-18.029181
11661.786170	1488.916667	1770.416016	48.797676
11661.786170	1488.916667	1769.409180	-88.563652
11661.786170	1488.916667	1768.402344	122.840584
11661.786170	1488.916667	1767.394531	-83.430077
11661.786170	1488.916667	1766.386719	179.918472
11661.786170	1488.916667	1765.378906	-154.484207
11661.786170	1488.916667	1764.371094	-277.825012
11661.786170	1488.916667	1763.362305	30.219061
11661.786170	1488.916667	1762.354492	138.998062
11661.786170	1488.916667	1761.345703	-93.558571
11661.786170	1488.916667	1760.336914	-37.075253
11661.786170	1488.916667	1759.328125	-30.431187
11661.786170	1488.916667	1758.318359	87.431625
11661.786170	1488.916667	1757.308594	-140.516251
11661.786170	1488.916667	1756.299805	105.008514
11661.786170	1488.916667	1755.290039	-11.770526
11661.786170	1488.916667	1754.279297	63.086559
11661.786170	1488.916667	1753.269531	5.352069
11661.786170	1488.916667	1752.258789	-95.025291
11661.786170	1488.916667	1751.249023	-84.278770
11661.786170	1488.916667	1750.238281	103.718773
11661.786170	1488.916667	1749.226563	133.162170
11661.786170	1488.916667	1748.215820	-125.847359
11661.786170	1488.916667	1747.204102	-124.891113
11661.786170	1488.916667	1746.193359	5.944896
11661.786170	1488.916667	1745.181641	-31.082020
11661.786170	1488.916667	1744.168945	-105.975220
11661.786170	1488.916667	1743.157227	-43.949142
11661.786170	1488.916667	1742.144531	22.684731
11661.786170	1488.916667	1741.132813	-113.784805
11661.786170	1488.916667	1740.120117	313.765076
11661.786170	1488.916667	1739.106445	122.838837
11661.786170	1488.916667	1738.093750	-11.467578
11661.786170	1488.916667	1737.080078	66.471130
11661.786170	1488.916667	1736.067383	19.317595
11661.786170	1488.916667	1735.053711	-16.121511
11661.786170	1488.916667	1734.040039	42.665291
11661.786170	1488.916667	1733.025391	-160.280304
11661.786170	1488.916667	1732.011719	122.208878
11661.786170	1488.916667	1730.997070	-307.020050
11661.786170	1488.916667	1729.982422	-133.142761
11661.786170	1488.916667	1728.967773	21.742990
11661.786170	1488.916667	1727.952148	-56.636860
11661.786170	1488.916667	1726.937500	185.113220
11661.786170	1488.916667	1725.921875	5.351317
11661.786170	1488.916667	1724.906250	70.319191
11661.786170	1488.916667	1723.890625	-241.282043
11661.786170	1488.916667	1722.875000	-87.068604
11661.786170	1488.916667	1721.858398	8.191854
11661.786170	1488.916667	1720.841797	-89.493950
11661.786170	1488.916667	1719.825195	43.177704
11661.786170	1488.916667	1718.808594	93.442169
11661.786170	1488.916667	1717.791992	-65.563805
11661.786170	1488.916667	1716.774414	59.713074
11661.786170	1488.916667	1715.756836	-50.070618
11661.786170	1488.916667	1714.739258	-87.083778
11661.786170	1488.916667	1713.721680	73.095528
11661.786170	1488.916667	1712.704102	33.555256
11661.786170	1488.916667	1711.685547	-34.235615
11661.786170	1488.916667	1710.667969	193.649368
11661.786170	1488.916667	1709.649414	-62.041405
11661.786170	1488.916667	1708.630859	88.159782
11661.786170	1488.916667	1707.611328	179.565384
11661.786170	1488.916667	1706.592773	130.148422
11661.786170	1488.916667	1705.573242	15.001423
11661.786170	1488.916667	1704.553711	293.659821
11661.786170	1488.916667	1703.534180	105.696075
11661.786170	1488.916667	1702.513672	313.747498
11661.786170	1488.916667	1701.494141	163.170685
11661.786170	1488.916667	1700.473633	281.946167
11661.786170	1488.916667	1699.453125	135.937927
11661.786170	1488.916667	1698.432617	55.466503
11661.786170	1488.916667	1697.412109	45.177608
11661.786170	1488.916667	1696.390625	90.974785
11661.786170	1488.916667	1695.369141	195.177444
11661.786170	1488.916667	1694.347656	278.198944
11661.786170	1488.916667	1693.326172	136.524872
11661.786170	1488.916667	1692.304688	109.428932
11661.786170	1488.916667	1691.282227	56.526257
11661.786170	1488.916667	1690.260742	216.333435
11661.786170	1488.916667	1689.238281	333.908539
11661.786170	1488.916667	1688.214844	434.985046
11661.786170	1488.916667	1687.192383	323.314392
11661.786170	1488.916667	1686.168945	255.981583
11661.786170	1488.916667	1685.146484	277.364319
11661.786170	1488.916667	1684.123047	205.233871
11661.786170	1488.916667	1683.099609	266.137238
11661.786170	1488.916667	1682.075195	217.206573
11661.786170	1488.916667	1681.051758	338.608276
11661.786170	1488.916667	1680.027344	130.841614
11661.786170	1488.916667	1679.002930	263.706818
11661.786170	1488.916667	1677.978516	146.848831
11661.786170	1488.916667	1676.953125	452.070435
11661.786170	1488.916667	1675.928711	675.497742
11661.786170	1488.916667	1674.903320	516.417419
11661.786170	1488.916667	1673.877930	163.861664
11661.786170	1488.916667	1672.852539	757.500732
11661.786170	1488.916667	1671.826172	584.272949
11661.786170	1488.916667	1670.800781	562.464294
11661.786170	1488.916667	1669.774414	547.562012
11661.786170	1488.916667	1668.748047	518.619080
11661.786170	1488.916667	1667.721680	619.987610
11661.786170	1488.916667	1666.694336	774.765686
11661.786170	1488.916667	1665.667969	810.734192
11661.786170	1488.916667	1664.640625	848.927612
11661.786170	1488.916667	1663.613281	773.043884
11661.786170	1488.916667	1662.585938	692.463440
11661.786170	1488.916667	1661.557617	856.000854
11661.786170	1488.916667	1660.530273	951.991455
11661.786170	1488.916667	1659.501953	1094.351929
11661.786170	1488.916667	1658.473633	829.869446
11661.786170	1488.916667	1657.444336	1306.648560
11661.786170	1488.916667	1656.416016	1076.935059
11661.786170	1488.916667	1655.386719	1420.947998
11661.786170	1488.916667	1654.358398	1574.343872
11661.786170	1488.916667	1653.328125	1353.765381
11661.786170	1488.916667	1652.298828	1488.395142
11661.786170	1488.916667	1651.269531	1599.696167
11661.786170	1488.916667	1650.239258	1567.003906
11661.786170	1488.916667	1649.208984	1589.939087
11661.786170	1488.916667	1648.178711	1719.502319
11661.786170	1488.916667	1647.148438	1716.760864
11661.786170	1488.916667	1646.117188	1702.347046
11661.786170	1488.916667	1645.086914	1750.484497
11661.786170	1488.916667	1644.055664	1944.548584
11661.786170	1488.916667	1643.024414	2068.957031
11661.786170	1488.916667	1641.992188	2204.824707
11661.786170	1488.916667	1640.960938	2004.707764
11661.786170	1488.916667	1639.928711	2068.619629
11661.786170	1488.916667	1638.896484	2144.025635
11661.786170	1488.916667	1637.864258	2443.912354
11661.786170	1488.916667	1636.832031	2419.572266
11661.786170	1488.916667	1635.798828	2247.058838
11661.786170	1488.916667	1634.766602	2423.952393
11661.786170	1488.916667	1633.733398	2538.248291
11661.786170	1488.916667	1632.699219	2455.835938
11661.786170	1488.916667	1631.666016	2634.721924
11661.786170	1488.916667	1630.632813	2721.006592
11661.786170	1488.916667	1629.598633	2777.140137
11661.786170	1488.916667	1628.564453	2974.178223
11661.786170	1488.916667	1627.530273	3117.945557
11661.786170	1488.916667	1626.495117	3002.851318
11661.786170	1488.916667	1625.460938	3040.213135
11661.786170	1488.916667	1624.425781	3292.259766
11661.786170	1488.916667	1623.390625	3350.218994
11661.786170	1488.916667	1622.355469	3431.195313
11661.786170	1488.916667	1621.319336	3509.771484
11661.786170	1488.916667	1620.284180	3366.768799
11661.786170	1488.916667	1619.248047	3410.635498
11661.786170	1488.916667	1618.211914	3837.335205
11661.786170	1488.916667	1617.174805	3841.788330
11661.786170	1488.916667	1616.138672	3594.895508
11661.786170	1488.916667	1615.101563	3640.810791
11661.786170	1488.916667	1614.065430	4096.936523
11661.786170	1488.916667	1613.027344	3962.903320
11661.786170	1488.916667	1611.990234	4278.162598
11661.786170	1488.916667	1610.953125	4418.201172
11661.786170	1488.916667	1609.915039	4201.171387
11661.786170	1488.916667	1608.876953	4145.368652
11661.786170	1488.916667	1607.838867	4538.465332
11661.786170	1488.916667	1606.800781	4415.808105
11661.786170	1488.916667	1605.761719	4184.995117
11661.786170	1488.916667	1604.723633	4152.124023
11661.786170	1488.916667	1603.684570	4427.460938
11661.786170	1488.916667	1602.644531	4385.265625
11661.786170	1488.916667	1601.605469	4674.193848
11661.786170	1488.916667	1600.566406	4627.333496
11661.786170	1488.916667	1599.526367	4534.481445
11661.786170	1488.916667	1598.486328	4432.450684
11661.786170	1488.916667	1597.446289	4371.791992
11661.786170	1488.916667	1596.405273	4267.475098
11661.786170	1488.916667	1595.365234	4353.821289
11661.786170	1488.916667	1594.324219	4522.765137
11661.786170	1488.916667	1593.283203	4237.052734
11661.786170	1488.916667	1592.242188	4261.308594
11661.786170	1488.916667	1591.200195	4710.084961
11661.786170	1488.916667	1590.159180	4718.146973
11661.786170	1488.916667	1589.117188	4574.771484
11661.786170	1488.916667	1588.075195	4665.383789
11661.786170	1488.916667	1587.032227	4448.651855
11661.786170	1488.916667	1585.990234	4429.183105
11661.786170	1488.916667	1584.947266	4384.481934
11661.786170	1488.916667	1583.904297	4351.248047
11661.786170	1488.916667	1582.861328	4233.242188
11661.786170	1488.916667	1581.818359	4074.039551
11661.786170	1488.916667	1580.775391	4214.942383
11661.786170	1488.916667	1579.731445	4429.048340
11661.786170	1488.916667	1578.687500	4386.640625
11661.786170	1488.916667	1577.643555	4241.238281
11661.786170	1488.916667	1576.598633	4100.455078
11661.786170	1488.916667	1575.554688	4186.273926
11661.786170	1488.916667	1574.509766	4130.206055
11661.786170	1488.916667	1573.464844	3829.423340
11661.786170	1488.916667	1572.419922	4477.804199
11661.786170	1488.916667	1571.374023	4405.704590
11661.786170	1488.916667	1570.329102	4450.240234
11661.786170	1488.916667	1569.283203	4538.174316
11661.786170	1488.916667	1568.237305	4246.764648
11661.786170	1488.916667	1567.191406	4099.409668
11661.786170	1488.916667	1566.144531	4436.349121
11661.786170	1488.916667	1565.098633	4108.627441
11661.786170	1488.916667	1564.051758	4020.773193
11661.786170	1488.916667	1563.004883	4065.372559
11661.786170	1488.916667	1561.957031	3913.671875
11661.786170	1488.916667	1560.910156	4051.867188
11661.786170	1488.916667	1559.862305	3779.347168
11661.786170	1488.916667	1558.814453	3753.304932
11661.786170	1488.916667	1557.766602	3804.833740
11661.786170	1488.916667	1556.718750	3653.434570
11661.786170	1488.916667	1555.669922	3520.338379
11661.786170	1488.916667	1554.621094	3795.303223
11661.786170	1488.916667	1553.573242	3625.838379
11661.786170	1488.916667	1552.523438	3563.520020
11661.786170	1488.916667	1551.474609	3981.901123
11661.786170	1488.916667	1550.424805	3673.632813
11661.786170	1488.916667	1549.375000	3629.646484
11661.786170	1488.916667	1548.325195	3694.983887
11661.786170	1488.916667	1547.275391	3641.972900
11661.786170	1488.916667	1546.225586	3570.811768
11661.786170	1488.916667	1545.174805	3706.741943
11661.786170	1488.916667	1544.124023	3628.831055
11661.786170	1488.916667	1543.073242	3798.886963
11661.786170	1488.916667	1542.022461	3586.911133
11661.786170	1488.916667	1540.970703	3641.029297
11661.786170	1488.916667	1539.919922	3370.153320
11661.786170	1488.916667	1538.868164	3651.632080
11661.786170	1488.916667	1537.815430	3733.087891
11661.786170	1488.916667	1536.763672	3875.906250
11661.786170	1488.916667	1535.710938	3889.243408
11661.786170	1488.916667	1534.659180	3650.590332
11661.786170	1488.916667	1533.606445	3834.336914
11661.786170	1488.916667	1532.552734	3695.731201
11661.786170	1488.916667	1531.500000	3604.904297
11661.786170	1488.916667	1530.446289	3636.674561
11661.786170	1488.916667	1529.393555	3702.528564
11661.786170	1488.916667	1528.338867	3276.221436
11661.786170	1488.916667	1527.285156	3305.937744
11661.786170	1488.916667	1526.231445	3319.831787
11661.786170	1488.916667	1525.176758	3308.831543
11661.786170	1488.916667	1524.122070	3130.195068
11661.786170	1488.916667	1523.067383	2797.618896
11661.786170	1488.916667	1522.012695	3004.387451
11661.786170	1488.916667	1520.957031	2579.219727
11661.786170	1488.916667	1519.901367	2767.950195
11661.786170	1488.916667	1518.845703	2687.257324
11661.786170	1488.916667	1517.790039	2670.044678
11661.786170	1488.916667	1516.734375	2508.071533
11661.786170	1488.916667	1515.677734	2280.600098
11661.786170	1488.916667	1514.621094	2274.987549
11661.786170	1488.916667	1513.564453	2169.934326
11661.786170	1488.916667	1512.507813	2178.060547
11661.786170	1488.916667	1511.450195	2276.680176
11661.786170	1488.916667	1510.393555	1830.593018
11661.786170	1488.916667	1509.335938	1961.036499
11661.786170	1488.916667	1508.278320	1980.793213
11661.786170	1488.916667	1507.219727	1785.995239
11661.786170	1488.916667	1506.162109	1905.319336
11661.786170	1488.916667	1505.103516	1670.132080
11661.786170	1488.916667	1504.044922	1645.090698
11661.786170	1488.916667	1502.986328	1624.659302
11661.786170	1488.916667	1501.926758	1617.849243
11661.786170	1488.916667	1500.868164	1435.144897
11661.786170	1488.916667	1499.808594	1733.103271
11661.786170	1488.916667	1498.749023	1550.613647
11661.786170	1488.916667	1497.688477	1596.033325
11661.786170	1488.916667	1496.628906	1443.137207
11661.786170	1488.916667	1495.568359	1844.900757
11661.786170	1488.916667	1494.507813	1665.146606
11661.786170	1488.916667	1493.447266	1469.785645
11661.786170	1488.916667	1492.386719	1806.258545
11661.786170	1488.916667	1491.325195	1385.894043
11661.786170	1488.916667	1490.263672	1891.328613
11661.786170	1488.916667	1489.202148	1624.412720
11661.786170	1488.916667	1488.140625	1643.581055
11661.786170	1488.916667	1487.079102	1525.561279
11661.786170	1488.916667	1486.016602	1682.192139
11661.786170	1488.916667	1484.954102	1411.430054
11661.786170	1488.916667	1483.891602	1244.344238
11661.786170	1488.916667	1482.829102	1293.312744
11661.786170	1488.916667	1481.765625	1243.432617
11661.786170	1488.916667	1480.702148	1101.515137
11661.786170	1488.916667	1479.638672	1074.399170
11661.786170	1488.916667	1478.575195	959.779053
11661.786170	1488.916667	1477.511719	1191.247437
11661.786170	1488.916667	1476.447266	1335.091431
11661.786170	1488.916667	1475.382813	1321.897217
11661.786170	1488.916667	1474.318359	1176.355103
11661.786170	1488.916667	1473.253906	1295.714111
11661.786170	1488.916667	1472.189453	1273.779663
11661.786170	1488.916667	1471.124023	1191.567993
11661.786170	1488.916667	1470.058594	1006.488770
11661.786170	1488.916667	1468.993164	1222.607422
11661.786170	1488.916667	1467.927734	1021.971619
11661.786170	1488.916667	1466.861328	837.429932
11661.786170	1488.916667	1465.794922	917.383789
11661.786170	1488.916667	1464.728516	802.515686
11661.786170	1488.916667	1463.662109	1055.138916
11661.786170	1488.916667	1462.594727	1007.627930
11661.786170	1488.916667	1461.528320	855.168091
11661.786170	1488.916667	1460.460938	1029.540649
11661.786170	1488.916667	1459.393555	917.304626
11661.786170	1488.916667	1458.326172	940.044678
11661.786170	1488.916667	1457.257813	1036.875977
11661.786170	1488.916667	1456.189453	994.995728
11661.786170	1488.916667	1455.121094	914.418335
11661.786170	1488.916667	1454.052734	928.796875
11661.786170	1488.916667	1452.984375	903.542175
11661.786170	1488.916667	1451.915039	816.990845
11661.786170	1488.916667	1450.845703	756.815857
11661.786170	1488.916667	1449.776367	1155.865601
11661.786170	1488.916667	1448.707031	1004.470764
11661.786170	1488.916667	1447.636719	966.275024
11661.786170	1488.916667	1446.567383	1060.387817
11661.786170	1488.916667	1445.497070	1207.152466
11661.786170	1488.916667	1444.425781	916.665771
11661.786170	1488.916667	1443.355469	711.411316
11661.786170	1488.916667	1442.285156	928.835632
11661.786170	1488.916667	1441.213867	1021.944458
11661.786170	1488.916667	1440.142578	650.608643
11661.786170	1488.916667	1439.070313	1039.320313
11661.786170	1488.916667	1437.999023	890.624329
11661.786170	1488.916667	1436.926758	886.791809
11661.786170	1488.916667	1435.854492	777.778931
11661.786170	1488.916667	1434.782227	893.238525
11661.786170	1488.916667	1433.709961	648.749329
11661.786170	1488.916667	1432.636719	890.855164
11661.786170	1488.916667	1431.563477	501.023224
11661.786170	1488.916667	1430.490234	759.420105
11661.786170	1488.916667	1429.416992	676.624390
11661.786170	1488.916667	1428.343750	688.636597
11661.786170	1488.916667	1427.269531	692.313599
11661.786170	1488.916667	1426.195313	549.135742
11661.786170	1488.916667	1425.121094	463.878723
11661.786170	1488.916667	1424.046875	690.923889
11661.786170	1488.916667	1422.971680	318.700989
11661.786170	1488.916667	1421.896484	239.084137
11661.786170	1488.916667	1420.821289	310.132324
11661.786170	1488.916667	1419.746094	503.900604
11661.786170	1488.916667	1418.669922	103.586845
11661.786170	1488.916667	1417.594727	233.314224
11661.786170	1488.916667	1416.518555	-21.402756
11661.786170	1488.916667	1415.442383	51.420467
11661.786170	1488.916667	1414.365234	-62.701370
11661.786170	1488.916667	1413.289063	-231.491959
11661.786170	1488.916667	1412.211914	-147.150513
11661.786170	1488.916667	1411.134766	-53.044708
11661.786170	1488.916667	1410.057617	56.509350
11661.786170	1488.916667	1408.979492	-250.174103
11661.786170	1488.916667	1407.902344	-82.117165
11661.786170	1488.916667	1406.824219	-57.605553
11661.786170	1488.916667	1405.746094	252.410278
11661.786170	1488.916667	1404.666992	425.366180
11661.786170	1488.916667	1403.588867	223.244705
11661.786170	1488.916667	1402.509766	459.956573
11661.786170	1488.916667	1401.430664	214.314331
11661.786170	1488.916667	1400.351563	317.730286
11661.786170	1488.916667	1399.271484	361.230774
11661.786170	1488.916667	1398.192383	339.677734
11661.786170	1488.916667	1397.112305	68.430481
11661.786170	1488.916667	1396.031250	296.265015
11661.786170	1488.916667	1394.951172	298.030518
11661.786170	1488.916667	1393.871094	430.384521
11661.786170	1488.916667	1392.790039	282.315094
11661.786170	1488.916667	1391.708984	425.807251
11661.786170	1488.916667	1390.626953	369.886475
11661.786170	1488.916667	1389.545898	433.412140
11661.786170	1488.916667	1388.463867	413.656128
11661.786170	1488.916667	1387.381836	372.098755
11661.786170	1488.916667	1386.299805	126.300583
11661.786170	1488.916667	1385.217773	49.005756
11661.786170	1488.916667	1384.134766	254.996460
11661.786170	1488.916667	1383.051758	212.473129
11661.786170	1488.916667	1381.968750	207.666168
11661.786170	1488.916667	1380.885742	105.194664
11661.786170	1488.916667	1379.802734	216.249924
11661.786170	1488.916667	1378.718750	443.083588
11661.786170	1488.916667	1377.634766	266.489014
11661.786170	1488.916667	1376.550781	203.055923
11661.786170	1488.916667	1375.465820	327.272705
11661.786170	1488.916667	1374.381836	72.131073
11661.786170	1488.916667	1373.296875	292.299438
11661.786170	1488.916667	1372.211914	231.759827
11661.786170	1488.916667	1371.126953	25.351864
11661.786170	1488.916667	1370.041016	275.232574
11661.786170	1488.916667	1368.955078	158.401093
11661.786170	1488.916667	1367.869141	141.048569
11661.786170	1488.916667	1366.783203	484.723602
11661.786170	1488.916667	1365.697266	317.642700
11661.786170	1488.916667	1364.610352	413.403046
11661.786170	1488.916667	1363.523438	188.997040
11661.786170	1488.916667	1362.436523	450.354095
11661.786170	1488.916667	1361.349609	663.011047
11661.786170	1488.916667	1360.261719	251.881912
11661.786170	1488.916667	1359.174805	384.268616
11661.786170	1488.916667	1358.086914	394.247742
11661.786170	1488.916667	1356.998047	458.700287
11661.786170	1488.916667	1355.910156	97.753326
11661.786170	1488.916667	1354.821289	462.613281
11661.786170	1488.916667	1353.732422	325.421539
11661.786170	1488.916667	1352.643555	247.990219
11661.786170	1488.916667	1351.554688	589.359863
11661.786170	1488.916667	1350.464844	249.252396
11661.786170	1488.916667	1349.375000	460.304688
11661.786170	1488.916667	1348.285156	173.736984
11661.786170	1488.916667	1347.195313	248.828094
11661.786170	1488.916667	1346.105469	456.702545
11661.786170	1488.916667	1345.014648	465.176605
11661.786170	1488.916667	1343.923828	341.007507
11661.786170	1488.916667	1342.833008	488.932983
11661.786170	1488.916667	1341.741211	602.371277
11661.786170	1488.916667	1340.650391	379.195313
11661.786170	1488.916667	1339.558594	427.843872
11661.786170	1488.916667	1338.466797	430.547913
11661.786170	1488.916667	1337.374023	628.312195
11661.786170	1488.916667	1336.282227	562.686157
11661.786170	1488.916667	1335.189453	540.281555
11661.786170	1488.916667	1334.096680	436.039673
11661.786170	1488.916667	1333.003906	757.602478
11661.786170	1488.916667	1331.910156	652.293579
11661.786170	1488.916667	1330.817383	637.028381
11661.786170	1488.916667	1329.723633	623.536926
11661.786170	1488.916667	1328.629883	469.234528
11661.786170	1488.916667	1327.535156	632.210876
11661.786170	1488.916667	1326.441406	713.382141
11661.786170	1488.916667	1325.346680	763.313477
11661.786170	1488.916667	1324.251953	883.642212
11661.786170	1488.916667	1323.156250	689.927246
11661.786170	1488.916667	1322.061523	656.609131
11661.786170	1488.916667	1320.965820	507.236298
11661.786170	1488.916667	1319.870117	429.623322
11661.786170	1488.916667	1318.774414	801.099426
11661.786170	1488.916667	1317.678711	776.060364
11661.786170	1488.916667	1316.582031	649.839233
11661.786170	1488.916667	1315.485352	520.326172
11661.786170	1488.916667	1314.388672	736.483154
11661.786170	1488.916667	1313.291016	534.639832
11661.786170	1488.916667	1312.194336	699.609192
11661.786170	1488.916667	1311.096680	547.729126
11661.786170	1488.916667	1309.999023	410.504272
11661.786170	1488.916667	1308.901367	402.595825
11661.786170	1488.916667	1307.802734	583.931580
11661.786170	1488.916667	1306.705078	543.356506
11661.786170	1488.916667	1305.606445	732.551392
11661.786170	1488.916667	1304.506836	698.713013
11661.786170	1488.916667	1303.408203	730.054626
11661.786170	1488.916667	1302.308594	912.410095
11661.786170	1488.916667	1301.208984	854.378784
11661.786170	1488.916667	1300.109375	1005.553345
11661.786170	1488.916667	1299.009766	854.354736
11661.786170	1488.916667	1297.909180	969.703979
11661.786170	1488.916667	1296.808594	1061.670410
11661.786170	1488.916667	1295.708008	828.417236
11661.786170	1488.916667	1294.607422	1108.958984
11661.786170	1488.916667	1293.506836	857.788879
11661.786170	1488.916667	1292.405273	655.394653
11661.786170	1488.916667	1291.303711	818.054199
11661.786170	1488.916667	1290.202148	948.860291
11661.786170	1488.916667	1289.099609	724.213135
11661.786170	1488.916667	1287.998047	482.191925
11661.786170	1488.916667	1286.895508	648.274170
11661.786170	1488.916667	1285.792969	524.959778
11661.786170	1488.916667	1284.689453	393.622070
11661.786170	1488.916667	1283.586914	543.558167
11661.786170	1488.916667	1282.483398	492.535278
11661.786170	1488.916667	1281.379883	388.767822
11661.786170	1488.916667	1280.276367	220.879669
11661.786170	1488.916667	1279.171875	352.877380
11661.786170	1488.916667	1278.067383	259.283539
11661.786170	1488.916667	1276.962891	201.309921
11661.786170	1488.916667	1275.858398	37.138943
11661.786170	1488.916667	1274.753906	36.369072
11661.786170	1488.916667	1273.648438	-14.193867
11661.786170	1488.916667	1272.542969	195.036667
11661.786170	1488.916667	1271.437500	146.256760
11661.786170	1488.916667	1270.331055	43.969761
11661.786170	1488.916667	1269.225586	170.024857
11661.786170	1488.916667	1268.119141	185.285477
11661.786170	1488.916667	1267.012695	129.665802
11661.786170	1488.916667	1265.906250	-43.190849
11661.786170	1488.916667	1264.798828	9.184113
11661.786170	1488.916667	1263.691406	-76.891129
11661.786170	1488.916667	1262.583984	-118.595535
11661.786170	1488.916667	1261.476563	47.739571
11661.786170	1488.916667	1260.368164	-25.198164
11661.786170	1488.916667	1259.260742	33.565823
11661.786170	1488.916667	1258.152344	-273.316467
11661.786170	1488.916667	1257.043945	-17.041063
11661.786170	1488.916667	1255.934570	-158.082123
11661.786170	1488.916667	1254.825195	23.926661
11661.786170	1488.916667	1253.716797	73.890366
11661.786170	1488.916667	1252.606445	-16.665255
11661.786170	1488.916667	1251.497070	-96.803680
11661.786170	1488.916667	1250.387695	-145.084900
11661.786170	1488.916667	1249.277344	-141.377213
11661.786170	1488.916667	1248.166992	-121.969070
11661.786170	1488.916667	1247.055664	118.199074
11661.786170	1488.916667	1245.945313	-21.095337
11661.786170	1488.916667	1244.833984	140.895111
11661.786170	1488.916667	1243.722656	10.653171
11661.786170	1488.916667	1242.611328	40.222439
11661.786170	1488.916667	1241.499023	107.776047
11661.786170	1488.916667	1240.387695	-9.290082
11661.786170	1488.916667	1239.275391	-17.175190
11661.786170	1488.916667	1238.162109	217.455505
11661.786170	1488.916667	1237.049805	66.979980
11661.786170	1488.916667	1235.936523	300.121216
11661.786170	1488.916667	1234.823242	200.923920
11661.786170	1488.916667	1233.709961	259.058655
11661.786170	1488.916667	1232.596680	273.422485
11661.786170	1488.916667	1231.482422	445.985901
11661.786170	1488.916667	1230.369141	678.606689
11661.786170	1488.916667	1229.253906	455.402252
11661.786170	1488.916667	1228.139648	659.021973
11661.786170	1488.916667	1227.025391	469.979401
11661.786170	1488.916667	1225.910156	485.659241
11661.786170	1488.916667	1224.794922	475.222992
11661.786170	1488.916667	1223.679688	482.942657
11661.786170	1488.916667	1222.563477	357.070374
11661.786170	1488.916667	1221.447266	419.941254
11661.786170	1488.916667	1220.331055	388.450378
11661.786170	1488.916667	1219.214844	446.879639
11661.786170	1488.916667	1218.098633	398.405365
11661.786170	1488.916667	1216.981445	481.750549
11661.786170	1488.916667	1215.864258	274.197357
11661.786170	1488.916667	1214.747070	429.021759
11661.786170	1488.916667	1213.629883	559.962646
11661.786170	1488.916667	1212.511719	505.266541
11661.786170	1488.916667	1211.393555	583.707703
11661.786170	1488.916667	1210.275391	566.005432
11661.786170	1488.916667	1209.157227	474.379059
11661.786170	1488.916667	1208.038086	738.624084
11661.786170	1488.916667	1206.918945	692.799805
11661.786170	1488.916667	1205.799805	728.791504
11661.786170	1488.916667	1204.680664	715.521729
11661.786170	1488.916667	1203.560547	788.569214
11661.786170	1488.916667	1202.441406	1037.102417
11661.786170	1488.916667	1201.321289	894.795898
11661.786170	1488.916667	1200.200195	979.425720
11661.786170	1488.916667	1199.080078	1121.572388
11661.786170	1488.916667	1197.958984	970.474915
11661.786170	1488.916667	1196.837891	1118.526489
11661.786170	1488.916667	1195.716797	945.676880
11661.786170	1488.916667	1194.594727	1071.184692
11661.786170	1488.916667	1193.473633	1238.589355
11661.786170	1488.916667	1192.351563	1200.151367
11661.786170	1488.916667	1191.229492	1305.275757
11661.786170	1488.916667	1190.106445	1215.636841
11661.786170	1488.916667	1188.984375	1182.580933
11661.786170	1488.916667	1187.861328	1118.140015
11661.786170	1488.916667	1186.738281	1233.717041
11661.786170	1488.916667	1185.614258	1138.926025
11661.786170	1488.916667	1184.491211	1204.343506
11661.786170	1488.916667	1183.367188	1232.343384
11661.786170	1488.916667	1182.243164	955.979004
11661.786170	1488.916667	1181.119141	1204.084839
11661.786170	1488.916667	1179.994141	1060.421753
11661.786170	1488.916667	1178.869141	1188.415649
11661.786170	1488.916667	1177.744141	1098.899536
11661.786170	1488.916667	1176.619141	957.411011
11661.786170	1488.916667	1175.493164	1045.290771
11661.786170	1488.916667	1174.368164	1066.302979
11661.786170	1488.916667	1173.242188	1042.909302
11661.786170	1488.916667	1172.115234	1032.044189
11661.786170	1488.916667	1170.989258	1325.022583
11661.786170	1488.916667	1169.862305	1251.985840
11661.786170	1488.916667	1168.735352	1234.756836
11661.786170	1488.916667	1167.608398	1395.227051
11661.786170	1488.916667	1166.481445	1521.649048
11661.786170	1488.916667	1165.353516	1566.976807
11661.786170	1488.916667	1164.225586	1485.880737
11661.786170	1488.916667	1163.097656	1504.680054
11661.786170	1488.916667	1161.968750	1458.779785
11661.786170	1488.916667	1160.840820	1675.323242
11661.786170	1488.916667	1159.711914	1533.406738
11661.786170	1488.916667	1158.583008	1500.458984
11661.786170	1488.916667	1157.453125	1401.742188
11661.786170	1488.916667	1156.324219	1406.899902
11661.786170	1488.916667	1155.194336	1324.180908
11661.786170	1488.916667	1154.064453	1214.146362
11661.786170	1488.916667	1152.933594	1288.382935
11661.786170	1488.916667	1151.803711	1348.188843
11661.786170	1488.916667	1150.672852	1233.564087
11661.786170	1488.916667	1149.541992	1102.623413
11661.786170	1488.916667	1148.411133	1071.695435
11661.786170	1488.916667	1147.279297	985.309998
11661.786170	1488.916667	1146.147461	848.148010
11661.786170	1488.916667	1145.015625	743.362610
11661.786170	1488.916667	1143.883789	720.417603
11661.786170	1488.916667	1142.750977	887.420715
11661.786170	1488.916667	1141.619141	907.176575
11661.786170	1488.916667	1140.486328	606.575623
11661.786170	1488.916667	1139.352539	604.525818
11661.786170	1488.916667	1138.219727	663.150513
11661.786170	1488.916667	1137.085938	490.668915
11661.786170	1488.916667	1135.952148	379.819916
11661.786170	1488.916667	1134.818359	445.241180
11661.786170	1488.916667	1133.683594	530.554871
11661.786170	1488.916667	1132.549805	258.900360
11661.786170	1488.916667	1131.415039	396.934967
11661.786170	1488.916667	1130.279297	462.235779
11661.786170	1488.916667	1129.144531	592.570313
11661.786170	1488.916667	1128.008789	501.504913
11661.786170	1488.916667	1126.873047	720.291626
11661.786170	1488.916667	1125.737305	550.884521
11661.786170	1488.916667	1124.601563	436.187988
11661.786170	1488.916667	1123.464844	303.498596
11661.786170	1488.916667	1122.328125	402.572510
11661.786170	1488.916667	1121.191406	529.538757
11661.786170	1488.916667	1120.054688	372.910034
11661.786170	1488.916667	1118.916992	443.370514
11661.786170	1488.916667	1117.779297	407.257660
11661.786170	1488.916667	1116.641602	428.085236
11661.786170	1488.916667	1115.503906	391.415894
11661.786170	1488.916667	1114.365234	320.415039
11661.786170	1488.916667	1113.226563	430.865662
11661.786170	1488.916667	1112.087891	181.931030
11661.786170	1488.916667	1110.949219	483.819336
11661.786170	1488.916667	1109.809570	396.799286
11661.786170	1488.916667	1108.669922	272.322144
11661.786170	1488.916667	1107.530273	445.403778
11661.786170	1488.916667	1106.390625	399.218201
11661.786170	1488.916667	1105.250000	319.321045
11661.786170	1488.916667	1104.109375	110.001793
11661.786170	1488.916667	1102.968750	268.458923
11661.786170	1488.916667	1101.828125	74.554039
11661.786170	1488.916667	1100.686523	323.616943
11661.786170	1488.916667	1099.544922	143.508698
11661.786170	1488.916667	1098.403320	43.799942
11661.786170	1488.916667	1097.261719	188.475357
11661.786170	1488.916667	1096.120117	167.623154
11661.786170	1488.916667	1094.977539	149.038696
11661.786170	1488.916667	1093.834961	333.193787
11661.786170	1488.916667	1092.691406	324.769379
11661.786170	1488.916667	1091.548828	197.253265
11661.786170	1488.916667	1090.405273	374.100677
11661.786170	1488.916667	1089.261719	454.055267
11661.786170	1488.916667	1088.118164	319.302979
11661.786170	1488.916667	1086.973633	416.645569
11661.786170	1488.916667	1085.829102	217.658020
11661.786170	1488.916667	1084.684570	364.676697
11661.786170	1488.916667	1083.540039	209.101501
11661.786170	1488.916667	1082.395508	14.366494
11661.786170	1488.916667	1081.250000	-14.264956
11661.786170	1488.916667	1080.104492	79.507141
11661.786170	1488.916667	1078.958984	-59.360634
11661.786170	1488.916667	1077.812500	290.797241
11661.786170	1488.916667	1076.666016	-119.692642
11661.786170	1488.916667	1075.519531	-182.907822
11661.786170	1488.916667	1074.373047	-131.320374
11661.786170	1488.916667	1073.226563	47.031204
11661.786170	1488.916667	1072.079102	-9.147839
11661.786170	1488.916667	1070.931641	-40.487465
11661.786170	1488.916667	1069.784180	-14.761459
11661.786170	1488.916667	1068.635742	320.521332
11661.786170	1488.916667	1067.487305	71.594543
11661.786170	1488.916667	1066.338867	119.920723
11661.786170	1488.916667	1065.190430	202.260330
11661.786170	1488.916667	1064.041992	66.758575
11661.786170	1488.916667	1062.892578	305.951233
11661.786170	1488.916667	1061.743164	194.282318
11661.786170	1488.916667	1060.593750	147.791626
11661.786170	1488.916667	1059.443359	30.281319
11661.786170	1488.916667	1058.292969	247.054092
11661.786170	1488.916667	1057.142578	108.494522
11661.786170	1488.916667	1055.992188	-92.376114
11661.786170	1488.916667	1054.841797	-119.969109
11661.786170	1488.916667	1053.690430	-69.874268
11661.786170	1488.916667	1052.539063	130.044617
11661.786170	1488.916667	1051.387695	139.337189
11661.786170	1488.916667	1050.235352	34.417389
11661.786170	1488.916667	1049.083984	-37.521584
11661.786170	1488.916667	1047.931641	-116.069801
11661.786170	1488.916667	1046.778320	12.459916
11661.786170	1488.916667	1045.625977	-224.518951
11661.786170	1488.916667	1044.472656	-343.415314
11661.786170	1488.916667	1043.319336	-286.715240
11661.786170	1488.916667	1042.166016	-115.106285
11661.786170	1488.916667	1041.012695	-59.961494
11661.786170	1488.916667	1039.858398	-47.795319
11661.786170	1488.916667	1038.704102	15.101838
11661.786170	1488.916667	1037.549805	-190.775864
11661.786170	1488.916667	1036.394531	-39.912792
11661.786170	1488.916667	1035.239258	-13.702587
11661.786170	1488.916667	1034.083984	22.716143
11661.786170	1488.916667	1032.928711	122.553436
11661.786170	1488.916667	1031.773438	151.600403
11661.786170	1488.916667	1030.617188	91.565651
11661.786170	1488.916667	1029.460938	237.939835
11661.786170	1488.916667	1028.304688	332.869568
11661.786170	1488.916667	1027.147461	279.189240
11661.786170	1488.916667	1025.991211	208.060486
11661.786170	1488.916667	1024.833984	229.094284
11661.786170	1488.916667	1023.675781	139.548386
11661.786170	1488.916667	1022.518555	385.818329
11661.786170	1488.916667	1021.360352	379.448273
11661.786170	1488.916667	1020.202148	306.549713
11661.786170	1488.916667	1019.043945	158.400208
11661.786170	1488.916667	1017.884766	161.837509
11661.786170	1488.916667	1016.726563	206.281525
11661.786170	1488.916667	1015.567383	-163.589661
11661.786170	1488.916667	1014.407227	254.252350
11661.786170	1488.916667	1013.248047	140.371475
11661.786170	1488.916667	1012.087891	237.963989
11661.786170	1488.916667	1010.927734	74.960480
11661.786170	1488.916667	1009.767578	143.190399
11661.786170	1488.916667	1008.606445	85.838577
11661.786170	1488.916667	1007.446289	126.614388
11661.786170	1488.916667	1006.285156	220.882263
11661.786170	1488.916667	1005.123047	98.055412
11661.786170	1488.916667	1003.961914	248.776321
11661.786170	1488.916667	1002.799805	330.447052
11661.786170	1488.916667	1001.637695	142.659164
11661.786170	1488.916667	1000.475586	66.954048
11661.786170	1488.916667	999.312500	74.048256
11661.786170	1488.916667	998.149414	228.337280
11661.786170	1488.916667	996.986328	201.899689
11661.786170	1488.916667	995.823242	82.200798
11661.786170	1488.916667	994.659180	153.129730
11661.786170	1488.916667	993.496094	231.892944
11661.786170	1488.916667	992.332031	242.004547
11661.786170	1488.916667	991.166992	73.646416
11661.786170	1488.916667	990.002930	211.538223
11661.786170	1488.916667	988.837891	-12.562254
11661.786170	1488.916667	987.672852	33.764702
11661.786170	1488.916667	986.506836	128.472229
11661.786170	1488.916667	985.341797	-63.123692
11661.786170	1488.916667	984.175781	61.215626
11661.786170	1488.916667	983.009766	43.084053
11661.786170	1488.916667	981.843750	76.533920
11661.786170	1488.916667	980.676758	-94.562019
11661.786170	1488.916667	979.509766	-144.619415
11661.786170	1488.916667	978.342773	17.560562
11661.786170	1488.916667	977.175781	-82.649399
11661.786170	1488.916667	976.007813	-62.536926
11661.786170	1488.916667	974.839844	89.229683
11661.786170	1488.916667	973.671875	30.064169
11661.786170	1488.916667	972.503906	95.415405
11661.786170	1488.916667	971.334961	-7.159741
11661.786170	1488.916667	970.166016	-131.377106
11661.786170	1488.916667	968.997070	-23.409847
11661.786170	1488.916667	967.828125	65.487831
11661.786170	1488.916667	966.658203	-30.542479
11661.786170	1488.916667	965.488281	36.519035
11661.786170	1488.916667	964.318359	-22.399195
11661.786170	1488.916667	963.148438	3.241626
11661.786170	1488.916667	961.977539	-102.978661
11661.786170	1488.916667	960.806641	201.395599
11661.786170	1488.916667	959.635742	-81.025513
11661.786170	1488.916667	958.463867	-151.776550
11661.786170	1488.916667	957.292969	57.999908
11661.786170	1488.916667	956.121094	-141.293411
11661.786170	1488.916667	954.948242	121.510071
11661.786170	1488.916667	953.776367	-30.419336
11661.786170	1488.916667	952.603516	110.662567
11661.786170	1488.916667	951.430664	253.709015
11661.786170	1488.916667	950.257813	299.377991
11661.786170	1488.916667	949.084961	353.929108
11661.786170	1488.916667	947.911133	141.499161
11661.786170	1488.916667	946.737305	326.384430
11661.786170	1488.916667	945.563477	366.617950
11661.786170	1488.916667	944.388672	433.415497
11661.786170	1488.916667	943.213867	250.008072
11661.786170	1488.916667	942.039063	334.119141
11661.786170	1488.916667	940.864258	553.519104
11661.786170	1488.916667	939.688477	403.344360
11661.786170	1488.916667	938.513672	491.708160
11661.786170	1488.916667	937.337891	302.005676
11661.786170	1488.916667	936.161133	617.373352
11661.786170	1488.916667	934.985352	441.075989
11661.786170	1488.916667	933.808594	467.701904
11661.786170	1488.916667	932.631836	391.655426
11661.786170	1488.916667	931.454102	407.297394
11661.786170	1488.916667	930.277344	514.736694
11661.786170	1488.916667	929.099609	224.448090
11661.786170	1488.916667	927.921875	268.533295
11661.786170	1488.916667	926.743164	227.301254
11661.786170	1488.916667	925.565430	205.731354
11661.786170	1488.916667	924.386719	173.199310
11661.786170	1488.916667	923.208008	88.260208
11661.786170	1488.916667	922.028320	-153.801620
11661.786170	1488.916667	920.849609	-5.215399
11661.786170	1488.916667	919.669922	-0.246386
11661.786170	1488.916667	919.474609	-93.695518
11661.786170	1488.916667	918.309570	-54.374310
11661.786170	1488.916667	917.143555	-4.202695
11661.786170	1488.916667	915.977539	13.201789
11661.786170	1488.916667	914.810547	167.893723
11661.786170	1488.916667	913.644531	-2.255129
11661.786170	1488.916667	912.477539	-37.274147
11661.786170	1488.916667	911.310547	-52.709438
11661.786170	1488.916667	910.143555	55.974964
11661.786170	1488.916667	908.975586	112.318817
11661.786170	1488.916667	907.807617	149.008530
11661.786170	1488.916667	906.639648	98.577156
11661.786170	1488.916667	905.471680	398.520599
11661.786170	1488.916667	904.303711	398.035980
11661.786170	1488.916667	903.134766	330.083771
11661.786170	1488.916667	901.965820	333.901337
11661.786170	1488.916667	900.796875	224.609589
11661.786170	1488.916667	899.626953	315.353485
11661.786170	1488.916667	898.457031	158.231812
11661.786170	1488.916667	897.287109	29.397659
11661.786170	1488.916667	896.117188	304.724884
11661.786170	1488.916667	894.947266	269.268005
11661.786170	1488.916667	893.776367	361.943298
11661.786170	1488.916667	892.605469	356.839874
11661.786170	1488.916667	891.434570	308.293518
11661.786170	1488.916667	890.262695	38.347355
11661.786170	1488.916667	889.091797	159.105774
11661.786170	1488.916667	887.919922	101.881920
11661.786170	1488.916667	886.748047	7.782555
11661.786170	1488.916667	885.575195	-199.074997
11661.786170	1488.916667	884.403320	-61.102859
11661.786170	1488.916667	883.230469	-55.448002
11661.786170	1488.916667	882.057617	-60.651085
11661.786170	1488.916667	880.883789	14.311396
11661.786170	1488.916667	879.710938	43.724686
11661.786170	1488.916667	878.537109	-43.860092
11661.786170	1488.916667	877.362305	89.478622
11661.786170	1488.916667	876.188477	8.383575
11661.786170	1488.916667	875.013672	20.396019
11661.786170	1488.916667	873.839844	263.973175
11661.786170	1488.916667	872.664063	66.003151
11661.786170	1488.916667	871.489258	-134.065842
11661.786170	1488.916667	870.313477	-13.933866
11661.786170	1488.916667	869.138672	-4.157306
11661.786170	1488.916667	867.962891	-16.014429
11661.786170	1488.916667	866.786133	-114.342506
11661.786170	1488.916667	865.610352	81.288452
11661.786170	1488.916667	864.433594	285.476074
11661.786170	1488.916667	863.256836	215.202271
11661.786170	1488.916667	862.079102	337.187500
11661.786170	1488.916667	860.902344	288.512207
11661.786170	1488.916667	859.724609	181.558060
11661.786170	1488.916667	858.546875	182.571640
11661.786170	1488.916667	857.368164	205.163971
11661.786170	1488.916667	856.190430	204.004364
11661.786170	1488.916667	855.011719	317.178528
11661.786170	1488.916667	853.833008	18.346125
11661.786170	1488.916667	852.654297	-51.789219
11661.786170	1488.916667	851.474609	-78.776672
11661.786170	1488.916667	850.294922	-41.090427
11661.786170	1488.916667	849.115234	-124.104958
11661.786170	1488.916667	847.935547	-13.171343
11661.786170	1488.916667	846.754883	-25.069273
11661.786170	1488.916667	845.575195	-144.652939
11661.786170	1488.916667	844.393555	2.826444
11661.786170	1488.916667	843.212891	-75.805740
11661.786170	1488.916667	842.032227	56.530144
11661.786170	1488.916667	840.850586	-129.675156
11661.786170	1488.916667	839.668945	-165.194717
11661.786170	1488.916667	838.486328	87.550064
11661.786170	1488.916667	837.304688	-231.880035
11661.786170	1488.916667	836.122070	-80.279350
11661.786170	1488.916667	834.939453	-44.825356
11661.786170	1488.916667	833.756836	-17.978607
11661.786170	1488.916667	832.573242	-6.179087
11661.786170	1488.916667	831.389648	31.401579
11661.786170	1488.916667	830.206055	75.416061
11661.786170	1488.916667	829.022461	170.957458
11661.786170	1488.916667	827.838867	86.109055
11661.786170	1488.916667	826.654297	-140.375778
11661.786170	1488.916667	825.469727	307.150574
11661.786170	1488.916667	824.284180	241.661133
11661.786170	1488.916667	823.099609	281.323914
11661.786170	1488.916667	821.914063	243.763412
11661.786170	1488.916667	820.728516	199.792221
11661.786170	1488.916667	819.542969	207.302170
11661.786170	1488.916667	818.356445	124.789711
11661.786170	1488.916667	817.169922	85.181618
11661.786170	1488.916667	815.983398	9.171437
11661.786170	1488.916667	814.796875	213.833542
11661.786170	1488.916667	813.609375	-44.204792
11661.786170	1488.916667	812.422852	51.190979
11661.786170	1488.916667	811.235352	-249.508942
11661.786170	1488.916667	810.046875	55.677017
11661.786170	1488.916667	808.859375	-116.481918
11661.786170	1488.916667	807.670898	4.564531
11661.786170	1488.916667	806.482422	-161.074402
11661.786170	1488.916667	805.293945	-149.125214
11661.786170	1488.916667	804.104492	23.199432
11661.786170	1488.916667	802.915039	97.122993
11661.786170	1488.916667	801.725586	136.826126
11661.786170	1488.916667	800.536133	236.355698
11661.786170	1488.916667	799.345703	237.577164
11661.786170	1488.916667	798.155273	97.828125
11661.786170	1488.916667	796.964844	24.349752
11661.786170	1488.916667	795.774414	104.640991
11661.786170	1488.916667	794.583008	26.942268
11661.786170	1488.916667	793.392578	100.813477
11661.786170	1488.916667	792.200195	166.134262
11661.786170	1488.916667	791.008789	169.563812
11661.786170	1488.916667	789.816406	230.592773
11661.786170	1488.916667	788.625000	106.073921
11661.786170	1488.916667	787.432617	-7.722780
11661.786170	1488.916667	786.239258	-23.407850
11661.786170	1488.916667	785.046875	-28.425493
11661.786170	1488.916667	783.853516	139.159286
11661.786170	1488.916667	782.660156	134.126221
11661.786170	1488.916667	781.465820	46.041794
11661.786170	1488.916667	780.272461	134.738083
11661.786170	1488.916667	779.078125	-10.780611
11661.786170	1488.916667	777.883789	101.320053
11661.786170	1488.916667	776.688477	185.716873
11661.786170	1488.916667	775.494141	31.783825
11661.786170	1488.916667	774.298828	103.407028
11661.786170	1488.916667	773.103516	89.934402
11661.786170	1488.916667	771.907227	89.233139
11661.786170	1488.916667	770.711914	118.294312
11661.786170	1488.916667	769.515625	164.353622
11661.786170	1488.916667	768.318359	-33.974102
11661.786170	1488.916667	767.122070	143.824615
11661.786170	1488.916667	765.924805	39.049881
11661.786170	1488.916667	764.727539	123.324905
11661.786170	1488.916667	763.530273	37.708786
11661.786170	1488.916667	762.333008	-16.028446
11661.786170	1488.916667	761.134766	-233.161331
11661.786170	1488.916667	759.936523	-119.186829
11661.786170	1488.916667	758.738281	-134.670914
11661.786170	1488.916667	757.540039	-25.008646
11661.786170	1488.916667	756.340820	18.871092
11661.786170	1488.916667	755.141602	-106.881279
11661.786170	1488.916667	753.942383	-84.204803
11661.786170	1488.916667	752.742188	-93.327255
11661.786170	1488.916667	751.541992	-89.737885
11661.786170	1488.916667	750.341797	-69.207809
11661.786170	1488.916667	749.141602	-10.568727
11661.786170	1488.916667	747.941406	-106.537086
11661.786170	1488.916667	746.740234	11.352605
11661.786170	1488.916667	745.539063	-42.259056
11661.786170	1488.916667	744.337891	-138.179398
11661.786170	1488.916667	743.135742	-176.941010
11661.786170	1488.916667	741.933594	-12.629901
11661.786170	1488.916667	740.731445	-4.895215
11661.786170	1488.916667	739.529297	114.887321
11661.786170	1488.916667	738.326172	92.977005
11661.786170	1488.916667	737.124023	326.795380
11661.786170	1488.916667	735.919922	273.130585
11661.786170	1488.916667	734.716797	356.792542
11661.786170	1488.916667	733.513672	262.980957
11661.786170	1488.916667	732.309570	262.113220
11661.786170	1488.916667	731.105469	265.450958
11661.786170	1488.916667	729.900391	496.746521
11661.786170	1488.916667	728.696289	248.859009
11661.786170	1488.916667	727.491211	372.414917
11661.786170	1488.916667	726.286133	426.284271
11661.786170	1488.916667	725.080078	478.004486
11661.786170	1488.916667	723.874023	257.665344
11661.786170	1488.916667	722.668945	372.598877
11661.786170	1488.916667	721.461914	253.503708
11661.786170	1488.916667	720.255859	275.621857
11661.786170	1488.916667	719.048828	-12.003552
11661.786170	1488.916667	717.841797	201.799408
11661.786170	1488.916667	716.634766	114.326675
11661.786170	1488.916667	715.427734	-63.675571
11661.786170	1488.916667	714.219727	82.558250
11661.786170	1488.916667	713.011719	28.756741
11661.786170	1488.916667	711.803711	-29.261709
11661.786170	1488.916667	710.594727	26.320169
11661.786170	1488.916667	709.385742	-27.527773
11661.786170	1488.916667	708.176758	40.581203
11661.786170	1488.916667	706.967773	148.573868
11661.786170	1488.916667	705.758789	111.445358
11661.786170	1488.916667	704.548828	244.527420
11661.786170	1488.916667	703.338867	360.706024
11661.786170	1488.916667	702.127930	237.318680
11661.786170	1488.916667	700.917969	42.532124
11661.786170	1488.916667	699.707031	376.946167
11661.786170	1488.916667	698.496094	213.621674
11661.786170	1488.916667	697.285156	8.343826
11661.786170	1488.916667	696.073242	128.380615
11661.786170	1488.916667	694.861328	166.496140
11661.786170	1488.916667	693.649414	433.192352
11661.786170	1488.916667	692.436523	370.472473
11661.786170	1488.916667	691.224609	309.825043
11661.786170	1488.916667	690.011719	389.609039
11661.786170	1488.916667	688.798828	555.240173
11661.786170	1488.916667	687.584961	427.393341
11661.786170	1488.916667	686.372070	617.982178
11661.786170	1488.916667	685.158203	414.666229
11661.786170	1488.916667	683.943359	707.685547
11661.786170	1488.916667	682.729492	598.541870
11661.786170	1488.916667	681.514648	751.041870
11661.786170	1488.916667	680.299805	846.914063
11661.786170	1488.916667	679.084961	919.673096
11661.786170	1488.916667	677.869141	952.596008
11661.786170	1488.916667	676.653320	1039.823608
11661.786170	1488.916667	675.437500	646.017883
11661.786170	1488.916667	674.221680	749.873291
11661.786170	1488.916667	673.004883	686.410889
11661.786170	1488.916667	671.789063	735.753479
11661.786170	1488.916667	670.571289	657.567749
11661.786170	1488.916667	669.354492	679.609863
11661.786170	1488.916667	668.136719	835.232361
11661.786170	1488.916667	666.919922	692.144470
11661.786170	1488.916667	665.701172	645.074646
11661.786170	1488.916667	664.483398	593.777893
11661.786170	1488.916667	663.264648	757.354370
11661.786170	1488.916667	662.045898	566.138794
11661.786170	1488.916667	660.827148	556.390015
11661.786170	1488.916667	659.608398	554.910828
11661.786170	1488.916667	658.388672	592.970886
11661.786170	1488.916667	657.168945	543.392456
11661.786170	1488.916667	655.949219	631.299622
11661.786170	1488.916667	654.728516	629.499939
11661.786170	1488.916667	653.507813	669.284607
11661.786170	1488.916667	652.287109	525.697876
11661.786170	1488.916667	651.066406	590.312012
11661.786170	1488.916667	649.844727	636.082764
11661.786170	1488.916667	648.623047	694.238342
11661.786170	1488.916667	647.401367	883.382324
11661.786170	1488.916667	646.179688	745.729858
11661.786170	1488.916667	644.957031	649.652405
11661.786170	1488.916667	643.734375	669.984924
11661.786170	1488.916667	642.511719	555.078125
11661.786170	1488.916667	641.289063	652.158997
11661.786170	1488.916667	640.065430	618.180725
11661.786170	1488.916667	638.841797	700.484497
11661.786170	1488.916667	637.618164	890.687744
11661.786170	1488.916667	636.393555	960.257385
11661.786170	1488.916667	635.168945	851.127441
11661.786170	1488.916667	633.944336	876.895996
11661.786170	1488.916667	632.719727	786.326172
11661.786170	1488.916667	631.494141	594.017395
11661.786170	1488.916667	630.269531	839.465271
11661.786170	1488.916667	629.042969	914.622437
11661.786170	1488.916667	627.817383	921.215027
11661.786170	1488.916667	626.590820	1155.784912
11661.786170	1488.916667	625.365234	861.551086
11661.786170	1488.916667	624.137695	1079.259277
11661.786170	1488.916667	622.911133	1244.977295
11661.786170	1488.916667	621.683594	1193.001587
11661.786170	1488.916667	620.456055	1018.748840
11661.786170	1488.916667	619.228516	1057.761597
11661.786170	1488.916667	618.000977	1162.909546
11661.786170	1488.916667	616.772461	978.125671
11661.786170	1488.916667	615.543945	838.849487
11661.786170	1488.916667	614.314453	829.878784
11661.786170	1488.916667	613.085938	562.241089
11661.786170	1488.916667	611.856445	563.472778
11661.786170	1488.916667	610.626953	647.311768
11661.786170	1488.916667	609.397461	309.292023
11661.786170	1488.916667	608.166992	444.615509
11661.786170	1488.916667	606.936523	528.119995
11661.786170	1488.916667	605.706055	646.610046
11661.786170	1488.916667	604.474609	558.393921
11661.786170	1488.916667	603.244141	420.555237
11661.786170	1488.916667	602.012695	619.204590
11661.786170	1488.916667	600.780273	518.358337
11661.786170	1488.916667	599.548828	545.408386
11661.786170	1488.916667	598.316406	380.454071
11661.786170	1488.916667	597.083984	648.671997
11661.786170	1488.916667	595.851563	207.196045
11661.786170	1488.916667	594.618164	501.936615
11661.786170	1488.916667	593.384766	109.952408
11661.786170	1488.916667	592.151367	377.591309
11661.786170	1488.916667	590.917969	364.762787
11661.786170	1488.916667	589.683594	358.016693
11661.786170	1488.916667	588.449219	266.721649
11661.786170	1488.916667	587.214844	438.963074
11661.786170	1488.916667	585.979492	407.194916
11661.786170	1488.916667	584.745117	667.649109
11661.786170	1488.916667	583.509766	608.892395
11661.786170	1488.916667	582.273438	461.582184
11661.786170	1488.916667	581.038086	705.101501
11661.786170	1488.916667	579.801758	771.537048
11661.786170	1488.916667	578.565430	971.506592
11661.786170	1488.916667	577.329102	782.738159
11661.786170	1488.916667	576.091797	879.652283
11661.786170	1488.916667	574.854492	892.176392
11661.786170	1488.916667	573.617188	658.055481
11661.786170	1488.916667	572.378906	557.452881
11661.786170	1488.916667	571.141602	584.131958
11661.786170	1488.916667	569.903320	512.147339
11661.786170	1488.916667	568.664063	396.988953
11661.786170	1488.916667	567.425781	310.526978
11661.786170	1488.916667	566.186523	394.315826
11661.786170	1488.916667	564.947266	486.185181
11661.786170	1488.916667	563.708008	440.509064
11661.786170	1488.916667	562.467773	238.914597
11661.786170	1488.916667	561.227539	186.981720
11661.786170	1488.916667	559.987305	276.416626
11661.786170	1488.916667	558.747070	269.412872
11661.786170	1488.916667	557.505859	198.811218
11661.786170	1488.916667	556.264648	386.255524
11661.786170	1488.916667	555.023438	405.606415
11661.786170	1488.916667	553.781250	381.866730
11661.786170	1488.916667	552.539063	515.684448
11661.786170	1488.916667	551.296875	456.982849
11661.786170	1488.916667	550.054688	445.293488
11661.786170	1488.916667	548.811523	529.681580
11661.786170	1488.916667	547.569336	495.335327
11661.786170	1488.916667	546.325195	184.860519
11661.786170	1488.916667	545.082031	246.545807
11661.786170	1488.916667	543.837891	128.255447
11661.786170	1488.916667	542.593750	44.690907
11661.786170	1488.916667	541.349609	87.770699
11661.786170	1488.916667	540.105469	73.571594
11661.786170	1488.916667	538.860352	49.099060
11661.786170	1488.916667	537.615234	-108.143402
11661.786170	1488.916667	536.369141	116.356461
11661.786170	1488.916667	535.124023	-149.121155
11661.786170	1488.916667	533.877930	156.798172
11661.786170	1488.916667	532.631836	95.316483
11661.786170	1488.916667	531.384766	-53.902683
11661.786170	1488.916667	530.138672	92.583359
11661.786170	1488.916667	528.891602	20.801184
11661.786170	1488.916667	527.643555	30.528818
11661.786170	1488.916667	526.396484	-75.947037
11661.786170	1488.916667	525.148438	5.018186
11661.786170	1488.916667	523.900391	-160.574295
11661.786170	1488.916667	522.652344	-47.123016
11661.786170	1488.916667	521.403320	29.583279
11661.786170	1488.916667	520.154297	116.397507
11661.786170	1488.916667	518.905273	-110.292725
11661.786170	1488.916667	517.656250	-121.226761
11661.786170	1488.916667	516.406250	2.077132
11661.786170	1488.916667	515.156250	58.177063
11661.786170	1488.916667	513.906250	-78.960236
11661.786170	1488.916667	512.655273	-22.927294
11661.786170	1488.916667	511.404297	41.187580
11661.786170	1488.916667	510.153320	121.511276
11661.786170	1488.916667	508.902344	45.331802
11661.786170	1488.916667	507.650391	32.132736
11661.786170	1488.916667	506.398438	-328.363617
11661.786170	1488.916667	505.146484	119.409019
11661.786170	1488.916667	503.893555	-94.822632
11661.786170	1488.916667	502.641602	-22.793554
11661.786170	1488.916667	501.388672	-109.086418
11661.786170	1488.916667	500.134766	-203.470917
11661.786170	1488.916667	498.881836	-129.465240
11661.786170	1488.916667	497.627930	-215.702927
11661.786170	1488.916667	496.374023	-135.658066
11661.786170	1488.916667	495.119141	-313.080627
11661.786170	1488.916667	493.865234	-111.456718
11661.786170	1488.916667	492.610352	-175.341827
11661.786170	1488.916667	491.355469	-190.580261
11661.786170	1488.916667	490.099609	57.468487
11661.786170	1488.916667	488.843750	175.831116
11661.786170	1488.916667	487.587891	49.203457
11661.786170	1488.916667	486.332031	106.817451
11661.786170	1488.916667	485.075195	113.826180
11661.786170	1488.916667	483.818359	80.383072
11661.786170	1488.916667	482.561523	69.217949
11661.786170	1488.916667	481.304688	94.473663
11661.786170	1488.916667	480.046875	194.532654
11661.786170	1488.916667	478.789063	84.350769
11661.786170	1488.916667	477.531250	-31.826767
11661.786170	1488.916667	476.272461	124.818840
11661.786170	1488.916667	475.013672	245.058640
11661.786170	1488.916667	473.754883	157.252838
11661.786170	1488.916667	472.496094	-205.093872
11661.786170	1488.916667	471.236328	82.753082
11661.786170	1488.916667	469.976563	124.272346
11661.786170	1488.916667	468.716797	-31.948666
11661.786170	1488.916667	467.456055	-105.369911
11661.786170	1488.916667	466.196289	-49.642616
11661.786170	1488.916667	464.935547	272.260010
11661.786170	1488.916667	463.673828	231.148636
11661.786170	1488.916667	462.413086	157.837418
11661.786170	1488.916667	461.151367	78.530670
11661.786170	1488.916667	459.889648	33.536049
11661.786170	1488.916667	458.626953	264.544342
11661.786170	1488.916667	457.364258	195.404922
11661.786170	1488.916667	456.101563	136.386642
11661.786170	1488.916667	454.838867	-156.094299
11661.786170	1488.916667	453.575195	12.453186
11661.786170	1488.916667	452.312500	9.919904
11661.786170	1488.916667	451.047852	-8.697742
11661.786170	1488.916667	449.784180	218.096268
11661.786170	1488.916667	448.519531	68.770859
11661.786170	1488.916667	447.254883	136.652466
11661.786170	1488.916667	445.990234	23.618067
11661.786170	1488.916667	444.725586	99.542458
11661.786170	1488.916667	443.459961	74.980904
11661.786170	1488.916667	442.194336	-7.816143
11661.786170	1488.916667	440.927734	62.047970
11661.786170	1488.916667	439.662109	145.943375
11661.786170	1488.916667	438.395508	215.741898
11661.786170	1488.916667	437.127930	132.970383
11661.786170	1488.916667	435.861328	222.791260
11661.786170	1488.916667	434.593750	242.341263
11661.786170	1488.916667	433.326172	488.502991
11661.786170	1488.916667	432.058594	431.749664
11661.786170	1488.916667	430.790039	206.587250
11661.786170	1488.916667	429.521484	380.354675
11661.786170	1488.916667	428.252930	359.631744
11661.786170	1488.916667	426.984375	346.888580
11661.786170	1488.916667	425.714844	298.043060
11661.786170	1488.916667	424.445313	479.464233
11661.786170	1488.916667	423.174805	560.630859
11661.786170	1488.916667	421.905273	327.429352
11661.786170	1488.916667	420.634766	338.406738
11661.786170	1488.916667	419.364258	413.325500
11661.786170	1488.916667	418.092773	348.086670
11661.786170	1488.916667	416.822266	330.783691
11661.786170	1488.916667	415.550781	383.362183
11661.786170	1488.916667	414.278320	363.826782
11661.786170	1488.916667	413.006836	436.121948
11661.786170	1488.916667	411.734375	122.580246
11661.786170	1488.916667	410.461914	472.312592
11661.786170	1488.916667	409.188477	378.307495
11661.786170	1488.916667	407.916016	228.270233
11661.786170	1488.916667	406.642578	355.633453
11661.786170	1488.916667	405.368164	628.461243
11661.786170	1488.916667	404.094727	531.777710
11661.786170	1488.916667	402.820313	281.282776
11661.786170	1488.916667	401.545898	541.338989
11661.786170	1488.916667	400.270508	459.997009
11661.786170	1488.916667	398.996094	498.080139
11661.786170	1488.916667	397.720703	384.363037
11661.786170	1488.916667	396.444336	431.839752
11661.786170	1488.916667	395.168945	465.055939
11661.786170	1488.916667	393.892578	346.525513
11661.786170	1488.916667	392.616211	199.826508
11661.786170	1488.916667	391.339844	214.138870
11661.786170	1488.916667	390.062500	337.565552
11661.786170	1488.916667	388.785156	173.921768
11661.786170	1488.916667	387.507813	224.865204
11661.786170	1488.916667	386.229492	138.065353
11661.786170	1488.916667	384.951172	180.150864
11661.786170	1488.916667	383.672852	-98.440323
11661.786170	1488.916667	382.394531	145.524033
11661.786170	1488.916667	381.115234	225.848953
11661.786170	1488.916667	379.835938	257.900970
11661.786170	1488.916667	378.556641	37.026424
11661.786170	1488.916667	377.277344	-13.493526
11661.786170	1488.916667	375.997070	78.383675
11661.786170	1488.916667	374.716797	235.110153
11661.786170	1488.916667	373.435547	-7.956707
11661.786170	1488.916667	372.155273	-31.279379
11661.786170	1488.916667	370.874023	-142.646790
11661.786170	1488.916667	369.591797	40.876961
11661.786170	1488.916667	368.310547	-167.206924
11661.786170	1488.916667	367.028320	-68.651352
11661.786170	1488.916667	365.746094	11.168413
11661.786170	1488.916667	364.463867	72.229416
11661.786170	1488.916667	363.180664	201.691727
11661.786170	1488.916667	361.897461	-2.729992
11661.786170	1488.916667	360.614258	235.684570
11661.786170	1488.916667	359.330078	104.567886
11661.786170	1488.916667	358.045898	196.194321
11661.786170	1488.916667	356.761719	-0.376025
11661.786170	1488.916667	355.477539	-31.748131
11661.786170	1488.916667	354.192383	-50.466969
11661.786170	1488.916667	352.907227	121.494766
11661.786170	1488.916667	351.622070	102.227112
11661.786170	1488.916667	350.336914	-250.572617
11661.786170	1488.916667	349.050781	-1.600312
11661.786170	1488.916667	347.764648	56.093357
11661.786170	1488.916667	346.477539	226.890915
11661.786170	1488.916667	345.191406	265.733459
11661.786170	1488.916667	343.904297	81.725723
11661.786170	1488.916667	342.616211	48.218315
11661.786170	1488.916667	341.329102	155.257172
11661.786170	1488.916667	340.041016	47.291344
11661.786170	1488.916667	338.752930	413.239929
11661.786170	1488.916667	337.463867	51.012516
11661.786170	1488.916667	336.175781	-103.798790
11661.786170	1488.916667	334.886719	13.615777
11661.786170	1488.916667	333.596680	36.235165
11661.786170	1488.916667	332.307617	-67.396767
11661.786170	1488.916667	331.017578	-52.943665
11661.786170	1488.916667	329.727539	-24.947582
11661.786170	1488.916667	328.436523	-158.883453
11661.786170	1488.916667	327.146484	146.164810
11661.786170	1488.916667	325.855469	-6.313215
11661.786170	1488.916667	324.563477	-131.747803
11661.786170	1488.916667	323.272461	-47.047951
11661.786170	1488.916667	321.980469	247.454117
11661.786170	1488.916667	320.688477	226.247437
11661.786170	1488.916667	319.395508	-12.246245
11661.786170	1488.916667	318.103516	-261.329041
11661.786170	1488.916667	316.810547	72.619843
11661.786170	1488.916667	315.516602	0.280777
11661.786170	1488.916667	314.223633	-137.998962
11661.786170	1488.916667	312.929688	-128.224304
11661.786170	1488.916667	311.635742	-15.697111
11661.786170	1488.916667	310.340820	40.242256
11661.786170	1488.916667	309.045898	69.069084
11661.786170	1488.916667	307.750977	-127.594963
11661.786170	1488.916667	306.456055	-49.159531
11661.786170	1488.916667	305.160156	52.801941
11661.786170	1488.916667	303.865234	11.583029
11661.786170	1488.916667	302.568359	62.271515
11661.786170	1488.916667	301.272461	65.748085
11661.786170	1488.916667	299.975586	86.435181
11661.786170	1488.916667	298.678711	245.845322
