#X		#Y		#Wave		#Intensity
11982.638298	2811.445000	1999.980469	-101.171196
11982.638298	2811.445000	1999.016602	-39.651066
11982.638298	2811.445000	1998.052734	-143.449310
11982.638298	2811.445000	1997.087891	-125.961708
11982.638298	2811.445000	1996.123047	-49.198082
11982.638298	2811.445000	1995.158203	-49.432453
11982.638298	2811.445000	1994.193359	-86.991631
11982.638298	2811.445000	1993.228516	-15.748882
11982.638298	2811.445000	1992.262695	99.870972
11982.638298	2811.445000	1991.297852	59.334602
11982.638298	2811.445000	1990.332031	149.830963
11982.638298	2811.445000	1989.366211	64.453506
11982.638298	2811.445000	1988.399414	112.556313
11982.638298	2811.445000	1987.433594	-22.548698
11982.638298	2811.445000	1986.466797	101.929436
11982.638298	2811.445000	1985.500977	-115.001610
11982.638298	2811.445000	1984.534180	-62.519341
11982.638298	2811.445000	1983.567383	31.830582
11982.638298	2811.445000	1982.599609	27.168602
11982.638298	2811.445000	1981.632813	155.804016
11982.638298	2811.445000	1980.665039	133.580475
11982.638298	2811.445000	1979.697266	76.669403
11982.638298	2811.445000	1978.729492	118.439240
11982.638298	2811.445000	1977.761719	76.136292
11982.638298	2811.445000	1976.792969	107.795959
11982.638298	2811.445000	1975.825195	99.846779
11982.638298	2811.445000	1974.856445	-63.659397
11982.638298	2811.445000	1973.887695	174.933594
11982.638298	2811.445000	1972.918945	55.675480
11982.638298	2811.445000	1971.949219	99.135056
11982.638298	2811.445000	1970.980469	201.662476
11982.638298	2811.445000	1970.010742	-68.195053
11982.638298	2811.445000	1969.041016	105.628487
11982.638298	2811.445000	1968.071289	94.475044
11982.638298	2811.445000	1967.101563	1.933588
11982.638298	2811.445000	1966.130859	118.739059
11982.638298	2811.445000	1965.161133	75.329262
11982.638298	2811.445000	1964.190430	-51.865681
11982.638298	2811.445000	1963.219727	-4.280001
11982.638298	2811.445000	1962.249023	-42.938766
11982.638298	2811.445000	1961.277344	46.326927
11982.638298	2811.445000	1960.306641	243.764938
11982.638298	2811.445000	1959.334961	-178.918228
11982.638298	2811.445000	1958.363281	-99.709900
11982.638298	2811.445000	1957.391602	161.399277
11982.638298	2811.445000	1956.419922	97.780922
11982.638298	2811.445000	1955.447266	66.088150
11982.638298	2811.445000	1954.474609	-61.508106
11982.638298	2811.445000	1953.501953	-31.829729
11982.638298	2811.445000	1952.529297	-80.840240
11982.638298	2811.445000	1951.556641	-70.923126
11982.638298	2811.445000	1950.583984	61.748531
11982.638298	2811.445000	1949.610352	105.919571
11982.638298	2811.445000	1948.636719	-75.850349
11982.638298	2811.445000	1947.663086	73.796326
11982.638298	2811.445000	1946.689453	41.727833
11982.638298	2811.445000	1945.715820	26.807514
11982.638298	2811.445000	1944.741211	-125.537086
11982.638298	2811.445000	1943.767578	53.285172
11982.638298	2811.445000	1942.792969	75.045273
11982.638298	2811.445000	1941.818359	37.914204
11982.638298	2811.445000	1940.842773	30.181040
11982.638298	2811.445000	1939.868164	78.795929
11982.638298	2811.445000	1938.892578	-147.113632
11982.638298	2811.445000	1937.916992	55.816219
11982.638298	2811.445000	1936.941406	133.705780
11982.638298	2811.445000	1935.965820	25.392115
11982.638298	2811.445000	1934.990234	135.039413
11982.638298	2811.445000	1934.013672	19.367952
11982.638298	2811.445000	1933.037109	13.872389
11982.638298	2811.445000	1932.060547	5.907236
11982.638298	2811.445000	1931.083984	122.720528
11982.638298	2811.445000	1930.107422	16.832720
11982.638298	2811.445000	1929.129883	6.359322
11982.638298	2811.445000	1928.153320	-57.930973
11982.638298	2811.445000	1927.175781	139.415512
11982.638298	2811.445000	1926.198242	-135.161819
11982.638298	2811.445000	1925.219727	86.530952
11982.638298	2811.445000	1924.242188	-12.012345
11982.638298	2811.445000	1923.263672	-5.473561
11982.638298	2811.445000	1922.285156	-57.580811
11982.638298	2811.445000	1921.306641	-178.072693
11982.638298	2811.445000	1920.328125	72.649055
11982.638298	2811.445000	1919.349609	59.578217
11982.638298	2811.445000	1918.370117	-14.528604
11982.638298	2811.445000	1917.391602	131.036758
11982.638298	2811.445000	1916.412109	-33.366417
11982.638298	2811.445000	1915.431641	-4.984738
11982.638298	2811.445000	1914.452148	-132.735062
11982.638298	2811.445000	1913.472656	-104.364349
11982.638298	2811.445000	1912.492188	206.831573
11982.638298	2811.445000	1911.511719	81.519432
11982.638298	2811.445000	1910.531250	-65.691505
11982.638298	2811.445000	1909.550781	-110.504524
11982.638298	2811.445000	1908.569336	-4.245855
11982.638298	2811.445000	1907.588867	-5.220599
11982.638298	2811.445000	1906.607422	137.496033
11982.638298	2811.445000	1905.625977	-24.243275
11982.638298	2811.445000	1904.644531	-52.021301
11982.638298	2811.445000	1903.662109	-26.244019
11982.638298	2811.445000	1902.680664	-122.172127
11982.638298	2811.445000	1901.698242	-125.606606
11982.638298	2811.445000	1900.715820	-48.760757
11982.638298	2811.445000	1899.733398	96.157051
11982.638298	2811.445000	1898.750000	114.548828
11982.638298	2811.445000	1897.767578	25.942879
11982.638298	2811.445000	1896.784180	-74.794434
11982.638298	2811.445000	1895.800781	-29.663109
11982.638298	2811.445000	1894.817383	15.444315
11982.638298	2811.445000	1893.833984	104.263199
11982.638298	2811.445000	1892.850586	-190.779709
11982.638298	2811.445000	1891.866211	-14.534019
11982.638298	2811.445000	1890.881836	-30.199018
11982.638298	2811.445000	1889.897461	85.239891
11982.638298	2811.445000	1888.913086	113.241631
11982.638298	2811.445000	1887.927734	-6.821843
11982.638298	2811.445000	1886.943359	-5.517974
11982.638298	2811.445000	1885.958008	-77.007080
11982.638298	2811.445000	1884.972656	60.126743
11982.638298	2811.445000	1883.987305	51.692921
11982.638298	2811.445000	1883.001953	21.431530
11982.638298	2811.445000	1882.015625	168.143127
11982.638298	2811.445000	1881.029297	-53.626537
11982.638298	2811.445000	1880.042969	-260.780487
11982.638298	2811.445000	1879.056641	137.857330
11982.638298	2811.445000	1878.070313	76.074295
11982.638298	2811.445000	1877.083984	-29.289497
11982.638298	2811.445000	1876.096680	30.038069
11982.638298	2811.445000	1875.109375	-19.613102
11982.638298	2811.445000	1874.122070	54.196171
11982.638298	2811.445000	1873.134766	-36.604698
11982.638298	2811.445000	1872.146484	-45.111843
11982.638298	2811.445000	1871.159180	-131.041122
11982.638298	2811.445000	1870.170898	-79.079643
11982.638298	2811.445000	1869.182617	76.841736
11982.638298	2811.445000	1868.194336	111.796913
11982.638298	2811.445000	1867.205078	93.542198
11982.638298	2811.445000	1866.216797	2.773895
11982.638298	2811.445000	1865.227539	-75.891548
11982.638298	2811.445000	1864.238281	31.497837
11982.638298	2811.445000	1863.249023	34.961216
11982.638298	2811.445000	1862.259766	62.561680
11982.638298	2811.445000	1861.269531	-134.433823
11982.638298	2811.445000	1860.279297	-271.012787
11982.638298	2811.445000	1859.290039	227.281738
11982.638298	2811.445000	1858.298828	23.078354
11982.638298	2811.445000	1857.308594	115.728088
11982.638298	2811.445000	1856.318359	94.940201
11982.638298	2811.445000	1855.327148	-34.398373
11982.638298	2811.445000	1854.335938	67.803062
11982.638298	2811.445000	1853.344727	56.628052
11982.638298	2811.445000	1852.353516	-171.519547
11982.638298	2811.445000	1851.362305	-122.428261
11982.638298	2811.445000	1850.370117	80.848305
11982.638298	2811.445000	1849.377930	-96.639137
11982.638298	2811.445000	1848.385742	80.019104
11982.638298	2811.445000	1847.393555	63.920227
11982.638298	2811.445000	1846.401367	11.687793
11982.638298	2811.445000	1845.408203	200.199722
11982.638298	2811.445000	1844.415039	15.529251
11982.638298	2811.445000	1843.421875	69.156387
11982.638298	2811.445000	1842.428711	40.933178
11982.638298	2811.445000	1841.435547	-93.151588
11982.638298	2811.445000	1840.441406	6.093357
11982.638298	2811.445000	1839.448242	42.755672
11982.638298	2811.445000	1838.454102	86.589462
11982.638298	2811.445000	1837.459961	12.592901
11982.638298	2811.445000	1836.464844	111.640770
11982.638298	2811.445000	1835.470703	172.180267
11982.638298	2811.445000	1834.475586	57.285614
11982.638298	2811.445000	1833.480469	259.476563
11982.638298	2811.445000	1832.485352	101.324898
11982.638298	2811.445000	1831.490234	5.633824
11982.638298	2811.445000	1830.495117	135.615738
11982.638298	2811.445000	1829.499023	35.092499
11982.638298	2811.445000	1828.502930	126.561516
11982.638298	2811.445000	1827.506836	21.219561
11982.638298	2811.445000	1826.510742	21.437235
11982.638298	2811.445000	1825.513672	64.792137
11982.638298	2811.445000	1824.517578	199.225220
11982.638298	2811.445000	1823.520508	-4.478946
11982.638298	2811.445000	1822.523438	48.347145
11982.638298	2811.445000	1821.526367	-6.727660
11982.638298	2811.445000	1820.529297	-66.608139
11982.638298	2811.445000	1819.531250	216.083893
11982.638298	2811.445000	1818.533203	-11.557137
11982.638298	2811.445000	1817.535156	62.599125
11982.638298	2811.445000	1816.537109	81.620560
11982.638298	2811.445000	1815.539063	79.053574
11982.638298	2811.445000	1814.540039	30.971519
11982.638298	2811.445000	1813.541992	21.161776
11982.638298	2811.445000	1812.542969	-36.537094
11982.638298	2811.445000	1811.543945	-75.115410
11982.638298	2811.445000	1810.543945	3.468815
11982.638298	2811.445000	1809.544922	50.901684
11982.638298	2811.445000	1808.544922	24.160158
11982.638298	2811.445000	1807.544922	-14.563303
11982.638298	2811.445000	1806.544922	70.958389
11982.638298	2811.445000	1805.544922	115.787292
11982.638298	2811.445000	1804.544922	-195.393448
11982.638298	2811.445000	1803.543945	-0.144631
11982.638298	2811.445000	1802.542969	-139.337067
11982.638298	2811.445000	1801.541992	91.555168
11982.638298	2811.445000	1800.541016	-14.269116
11982.638298	2811.445000	1799.539063	-74.754669
11982.638298	2811.445000	1798.538086	210.745483
11982.638298	2811.445000	1797.536133	42.790493
11982.638298	2811.445000	1796.534180	32.285206
11982.638298	2811.445000	1795.532227	-116.585228
11982.638298	2811.445000	1794.529297	144.671753
11982.638298	2811.445000	1793.527344	21.967249
11982.638298	2811.445000	1792.524414	6.516252
11982.638298	2811.445000	1791.521484	69.665260
11982.638298	2811.445000	1790.518555	87.472488
11982.638298	2811.445000	1789.514648	14.696919
11982.638298	2811.445000	1788.511719	8.593863
11982.638298	2811.445000	1787.507813	2.438441
11982.638298	2811.445000	1786.503906	153.369400
11982.638298	2811.445000	1785.500000	144.708649
11982.638298	2811.445000	1784.496094	-6.793179
11982.638298	2811.445000	1783.491211	-189.225967
11982.638298	2811.445000	1782.486328	-17.168554
11982.638298	2811.445000	1781.481445	-30.756020
11982.638298	2811.445000	1780.476563	0.794523
11982.638298	2811.445000	1779.471680	-15.272119
11982.638298	2811.445000	1778.465820	61.320156
11982.638298	2811.445000	1777.460938	68.909798
11982.638298	2811.445000	1776.455078	121.588341
11982.638298	2811.445000	1775.449219	323.872070
11982.638298	2811.445000	1774.442383	65.193161
11982.638298	2811.445000	1773.436523	98.680527
11982.638298	2811.445000	1772.429688	141.595261
11982.638298	2811.445000	1771.422852	39.620842
11982.638298	2811.445000	1770.416016	18.333218
11982.638298	2811.445000	1769.409180	186.849335
11982.638298	2811.445000	1768.402344	72.895508
11982.638298	2811.445000	1767.394531	15.857721
11982.638298	2811.445000	1766.386719	-138.458160
11982.638298	2811.445000	1765.378906	24.987694
11982.638298	2811.445000	1764.371094	-32.177971
11982.638298	2811.445000	1763.362305	-32.493183
11982.638298	2811.445000	1762.354492	161.478821
11982.638298	2811.445000	1761.345703	2.252945
11982.638298	2811.445000	1760.336914	136.796555
11982.638298	2811.445000	1759.328125	193.066513
11982.638298	2811.445000	1758.318359	128.474747
11982.638298	2811.445000	1757.308594	123.041542
11982.638298	2811.445000	1756.299805	145.966095
11982.638298	2811.445000	1755.290039	74.143570
11982.638298	2811.445000	1754.279297	92.206512
11982.638298	2811.445000	1753.269531	169.358337
11982.638298	2811.445000	1752.258789	5.136500
11982.638298	2811.445000	1751.249023	8.841333
11982.638298	2811.445000	1750.238281	36.125328
11982.638298	2811.445000	1749.226563	39.691360
11982.638298	2811.445000	1748.215820	97.567650
11982.638298	2811.445000	1747.204102	75.006981
11982.638298	2811.445000	1746.193359	90.204788
11982.638298	2811.445000	1745.181641	-24.597088
11982.638298	2811.445000	1744.168945	30.634342
11982.638298	2811.445000	1743.157227	-143.268402
11982.638298	2811.445000	1742.144531	3.922547
11982.638298	2811.445000	1741.132813	16.453014
11982.638298	2811.445000	1740.120117	43.072144
11982.638298	2811.445000	1739.106445	-116.795425
11982.638298	2811.445000	1738.093750	-130.387878
11982.638298	2811.445000	1737.080078	-2.517903
11982.638298	2811.445000	1736.067383	9.693747
11982.638298	2811.445000	1735.053711	83.137299
11982.638298	2811.445000	1734.040039	-88.674324
11982.638298	2811.445000	1733.025391	-5.939723
11982.638298	2811.445000	1732.011719	-83.531136
11982.638298	2811.445000	1730.997070	149.834824
11982.638298	2811.445000	1729.982422	98.027763
11982.638298	2811.445000	1728.967773	133.319260
11982.638298	2811.445000	1727.952148	-8.070577
11982.638298	2811.445000	1726.937500	90.671173
11982.638298	2811.445000	1725.921875	69.265869
11982.638298	2811.445000	1724.906250	-126.337463
11982.638298	2811.445000	1723.890625	82.767563
11982.638298	2811.445000	1722.875000	122.358406
11982.638298	2811.445000	1721.858398	107.772102
11982.638298	2811.445000	1720.841797	222.464767
11982.638298	2811.445000	1719.825195	101.946342
11982.638298	2811.445000	1718.808594	138.907394
11982.638298	2811.445000	1717.791992	37.134251
11982.638298	2811.445000	1716.774414	-8.273606
11982.638298	2811.445000	1715.756836	-77.216187
11982.638298	2811.445000	1714.739258	-99.214767
11982.638298	2811.445000	1713.721680	113.573616
11982.638298	2811.445000	1712.704102	-94.055893
11982.638298	2811.445000	1711.685547	109.134651
11982.638298	2811.445000	1710.667969	-18.732365
11982.638298	2811.445000	1709.649414	139.665375
11982.638298	2811.445000	1708.630859	175.945847
11982.638298	2811.445000	1707.611328	-102.173653
11982.638298	2811.445000	1706.592773	-73.010757
11982.638298	2811.445000	1705.573242	-76.752296
11982.638298	2811.445000	1704.553711	15.568578
11982.638298	2811.445000	1703.534180	-89.087883
11982.638298	2811.445000	1702.513672	-149.244858
11982.638298	2811.445000	1701.494141	-132.108063
11982.638298	2811.445000	1700.473633	11.454501
11982.638298	2811.445000	1699.453125	-79.301918
11982.638298	2811.445000	1698.432617	101.550743
11982.638298	2811.445000	1697.412109	66.889771
11982.638298	2811.445000	1696.390625	-9.953772
11982.638298	2811.445000	1695.369141	23.170111
11982.638298	2811.445000	1694.347656	-152.017517
11982.638298	2811.445000	1693.326172	2.661431
11982.638298	2811.445000	1692.304688	16.890934
11982.638298	2811.445000	1691.282227	-202.795029
11982.638298	2811.445000	1690.260742	-29.650824
11982.638298	2811.445000	1689.238281	0.772940
11982.638298	2811.445000	1688.214844	68.517548
11982.638298	2811.445000	1687.192383	54.408989
11982.638298	2811.445000	1686.168945	-71.892639
11982.638298	2811.445000	1685.146484	7.360723
11982.638298	2811.445000	1684.123047	-34.913181
11982.638298	2811.445000	1683.099609	48.863049
11982.638298	2811.445000	1682.075195	-5.185131
11982.638298	2811.445000	1681.051758	-185.285843
11982.638298	2811.445000	1680.027344	47.658989
11982.638298	2811.445000	1679.002930	37.824642
11982.638298	2811.445000	1677.978516	207.559235
11982.638298	2811.445000	1676.953125	92.645287
11982.638298	2811.445000	1675.928711	-10.603878
11982.638298	2811.445000	1674.903320	-127.857140
11982.638298	2811.445000	1673.877930	6.618620
11982.638298	2811.445000	1672.852539	22.147148
11982.638298	2811.445000	1671.826172	46.933640
11982.638298	2811.445000	1670.800781	188.150269
11982.638298	2811.445000	1669.774414	-55.032387
11982.638298	2811.445000	1668.748047	30.165915
11982.638298	2811.445000	1667.721680	-108.214256
11982.638298	2811.445000	1666.694336	202.651276
11982.638298	2811.445000	1665.667969	145.659698
11982.638298	2811.445000	1664.640625	209.631668
11982.638298	2811.445000	1663.613281	343.328094
11982.638298	2811.445000	1662.585938	302.490723
11982.638298	2811.445000	1661.557617	368.588165
11982.638298	2811.445000	1660.530273	292.807037
11982.638298	2811.445000	1659.501953	82.181503
11982.638298	2811.445000	1658.473633	296.909241
11982.638298	2811.445000	1657.444336	281.463593
11982.638298	2811.445000	1656.416016	423.974792
11982.638298	2811.445000	1655.386719	361.981720
11982.638298	2811.445000	1654.358398	348.755371
11982.638298	2811.445000	1653.328125	414.420441
11982.638298	2811.445000	1652.298828	593.784180
11982.638298	2811.445000	1651.269531	580.405762
11982.638298	2811.445000	1650.239258	476.487885
11982.638298	2811.445000	1649.208984	558.181702
11982.638298	2811.445000	1648.178711	558.624451
11982.638298	2811.445000	1647.148438	619.333435
11982.638298	2811.445000	1646.117188	564.041565
11982.638298	2811.445000	1645.086914	731.304565
11982.638298	2811.445000	1644.055664	567.014221
11982.638298	2811.445000	1643.024414	819.883301
11982.638298	2811.445000	1641.992188	868.726746
11982.638298	2811.445000	1640.960938	852.673584
11982.638298	2811.445000	1639.928711	855.115601
11982.638298	2811.445000	1638.896484	975.624023
11982.638298	2811.445000	1637.864258	913.165405
11982.638298	2811.445000	1636.832031	894.684814
11982.638298	2811.445000	1635.798828	1102.968506
11982.638298	2811.445000	1634.766602	1234.804321
11982.638298	2811.445000	1633.733398	1093.582642
11982.638298	2811.445000	1632.699219	1109.656616
11982.638298	2811.445000	1631.666016	1162.712524
11982.638298	2811.445000	1630.632813	1389.124634
11982.638298	2811.445000	1629.598633	1393.510376
11982.638298	2811.445000	1628.564453	1300.810303
11982.638298	2811.445000	1627.530273	1362.938354
11982.638298	2811.445000	1626.495117	1214.786377
11982.638298	2811.445000	1625.460938	1332.305176
11982.638298	2811.445000	1624.425781	1154.161499
11982.638298	2811.445000	1623.390625	1255.439575
11982.638298	2811.445000	1622.355469	1317.419556
11982.638298	2811.445000	1621.319336	1383.965820
11982.638298	2811.445000	1620.284180	1515.092896
11982.638298	2811.445000	1619.248047	1323.158936
11982.638298	2811.445000	1618.211914	1442.676758
11982.638298	2811.445000	1617.174805	1414.532471
11982.638298	2811.445000	1616.138672	1543.185913
11982.638298	2811.445000	1615.101563	1568.031250
11982.638298	2811.445000	1614.065430	1514.505859
11982.638298	2811.445000	1613.027344	1539.317871
11982.638298	2811.445000	1611.990234	1522.653320
11982.638298	2811.445000	1610.953125	1754.760498
11982.638298	2811.445000	1609.915039	1487.008667
11982.638298	2811.445000	1608.876953	1640.721436
11982.638298	2811.445000	1607.838867	1642.430908
11982.638298	2811.445000	1606.800781	1881.206177
11982.638298	2811.445000	1605.761719	1533.066040
11982.638298	2811.445000	1604.723633	1725.747803
11982.638298	2811.445000	1603.684570	1720.515625
11982.638298	2811.445000	1602.644531	1984.355713
11982.638298	2811.445000	1601.605469	1930.785767
11982.638298	2811.445000	1600.566406	1989.885864
11982.638298	2811.445000	1599.526367	1986.893555
11982.638298	2811.445000	1598.486328	2002.287964
11982.638298	2811.445000	1597.446289	1889.013916
11982.638298	2811.445000	1596.405273	2037.652954
11982.638298	2811.445000	1595.365234	1991.029175
11982.638298	2811.445000	1594.324219	1955.898071
11982.638298	2811.445000	1593.283203	1840.433960
11982.638298	2811.445000	1592.242188	1848.970459
11982.638298	2811.445000	1591.200195	1818.487549
11982.638298	2811.445000	1590.159180	1847.692017
11982.638298	2811.445000	1589.117188	2184.282959
11982.638298	2811.445000	1588.075195	1832.679443
11982.638298	2811.445000	1587.032227	1641.731689
11982.638298	2811.445000	1585.990234	1767.271362
11982.638298	2811.445000	1584.947266	1723.138306
11982.638298	2811.445000	1583.904297	1440.690063
11982.638298	2811.445000	1582.861328	1726.617920
11982.638298	2811.445000	1581.818359	1771.905151
11982.638298	2811.445000	1580.775391	1746.187256
11982.638298	2811.445000	1579.731445	1665.525391
11982.638298	2811.445000	1578.687500	1607.807251
11982.638298	2811.445000	1577.643555	1735.546387
11982.638298	2811.445000	1576.598633	1622.936646
11982.638298	2811.445000	1575.554688	1720.915039
11982.638298	2811.445000	1574.509766	1661.010132
11982.638298	2811.445000	1573.464844	1857.328369
11982.638298	2811.445000	1572.419922	1802.037720
11982.638298	2811.445000	1571.374023	1776.503784
11982.638298	2811.445000	1570.329102	1426.409546
11982.638298	2811.445000	1569.283203	1604.418579
11982.638298	2811.445000	1568.237305	1521.886108
11982.638298	2811.445000	1567.191406	1560.496826
11982.638298	2811.445000	1566.144531	1450.637939
11982.638298	2811.445000	1565.098633	1509.855469
11982.638298	2811.445000	1564.051758	1511.986816
11982.638298	2811.445000	1563.004883	1589.478394
11982.638298	2811.445000	1561.957031	1395.359253
11982.638298	2811.445000	1560.910156	1589.283203
11982.638298	2811.445000	1559.862305	1233.317871
11982.638298	2811.445000	1558.814453	1233.365112
11982.638298	2811.445000	1557.766602	1201.517700
11982.638298	2811.445000	1556.718750	1329.325073
11982.638298	2811.445000	1555.669922	1295.250244
11982.638298	2811.445000	1554.621094	1377.465576
11982.638298	2811.445000	1553.573242	1370.823120
11982.638298	2811.445000	1552.523438	1332.303345
11982.638298	2811.445000	1551.474609	1293.848022
11982.638298	2811.445000	1550.424805	1027.692261
11982.638298	2811.445000	1549.375000	1037.195923
11982.638298	2811.445000	1548.325195	1069.503174
11982.638298	2811.445000	1547.275391	1067.696777
11982.638298	2811.445000	1546.225586	1261.638794
11982.638298	2811.445000	1545.174805	1050.552490
11982.638298	2811.445000	1544.124023	1021.573547
11982.638298	2811.445000	1543.073242	947.163757
11982.638298	2811.445000	1542.022461	806.887207
11982.638298	2811.445000	1540.970703	1059.999634
11982.638298	2811.445000	1539.919922	935.759460
11982.638298	2811.445000	1538.868164	1057.036743
11982.638298	2811.445000	1537.815430	878.392761
11982.638298	2811.445000	1536.763672	736.223633
11982.638298	2811.445000	1535.710938	964.350586
11982.638298	2811.445000	1534.659180	922.232971
11982.638298	2811.445000	1533.606445	973.253784
11982.638298	2811.445000	1532.552734	978.901184
11982.638298	2811.445000	1531.500000	721.360718
11982.638298	2811.445000	1530.446289	727.162292
11982.638298	2811.445000	1529.393555	787.467590
11982.638298	2811.445000	1528.338867	750.260559
11982.638298	2811.445000	1527.285156	853.722717
11982.638298	2811.445000	1526.231445	902.788940
11982.638298	2811.445000	1525.176758	759.216553
11982.638298	2811.445000	1524.122070	436.726166
11982.638298	2811.445000	1523.067383	438.428894
11982.638298	2811.445000	1522.012695	469.638794
11982.638298	2811.445000	1520.957031	521.272644
11982.638298	2811.445000	1519.901367	518.599609
11982.638298	2811.445000	1518.845703	518.253235
11982.638298	2811.445000	1517.790039	345.939240
11982.638298	2811.445000	1516.734375	230.333008
11982.638298	2811.445000	1515.677734	51.473614
11982.638298	2811.445000	1514.621094	-41.286972
11982.638298	2811.445000	1513.564453	85.443459
11982.638298	2811.445000	1512.507813	135.305176
11982.638298	2811.445000	1511.450195	56.335503
11982.638298	2811.445000	1510.393555	167.346405
11982.638298	2811.445000	1509.335938	190.234299
11982.638298	2811.445000	1508.278320	423.316528
11982.638298	2811.445000	1507.219727	39.640461
11982.638298	2811.445000	1506.162109	8.538977
11982.638298	2811.445000	1505.103516	76.870911
11982.638298	2811.445000	1504.044922	231.040253
11982.638298	2811.445000	1502.986328	125.632530
11982.638298	2811.445000	1501.926758	282.123138
11982.638298	2811.445000	1500.868164	61.815948
11982.638298	2811.445000	1499.808594	101.093872
11982.638298	2811.445000	1498.749023	52.465034
11982.638298	2811.445000	1497.688477	276.782043
11982.638298	2811.445000	1496.628906	102.030792
11982.638298	2811.445000	1495.568359	245.250031
11982.638298	2811.445000	1494.507813	52.687786
11982.638298	2811.445000	1493.447266	101.375824
11982.638298	2811.445000	1492.386719	-181.038864
11982.638298	2811.445000	1491.325195	20.983271
11982.638298	2811.445000	1490.263672	96.897957
11982.638298	2811.445000	1489.202148	53.533798
11982.638298	2811.445000	1488.140625	35.026047
11982.638298	2811.445000	1487.079102	-111.675613
11982.638298	2811.445000	1486.016602	25.269510
11982.638298	2811.445000	1484.954102	29.510090
11982.638298	2811.445000	1483.891602	-200.088196
11982.638298	2811.445000	1482.829102	-8.989722
11982.638298	2811.445000	1481.765625	105.672836
11982.638298	2811.445000	1480.702148	-11.148471
11982.638298	2811.445000	1479.638672	-136.806732
11982.638298	2811.445000	1478.575195	-233.138443
11982.638298	2811.445000	1477.511719	-194.522079
11982.638298	2811.445000	1476.447266	-247.881943
11982.638298	2811.445000	1475.382813	35.619335
11982.638298	2811.445000	1474.318359	-87.184845
11982.638298	2811.445000	1473.253906	111.039886
11982.638298	2811.445000	1472.189453	67.065384
11982.638298	2811.445000	1471.124023	-32.917000
11982.638298	2811.445000	1470.058594	109.403267
11982.638298	2811.445000	1468.993164	92.500183
11982.638298	2811.445000	1467.927734	147.510818
11982.638298	2811.445000	1466.861328	130.686371
11982.638298	2811.445000	1465.794922	132.266739
11982.638298	2811.445000	1464.728516	169.651657
11982.638298	2811.445000	1463.662109	209.319946
11982.638298	2811.445000	1462.594727	148.270233
11982.638298	2811.445000	1461.528320	-33.719261
11982.638298	2811.445000	1460.460938	10.840619
11982.638298	2811.445000	1459.393555	151.737030
11982.638298	2811.445000	1458.326172	332.221252
11982.638298	2811.445000	1457.257813	79.678986
11982.638298	2811.445000	1456.189453	89.142235
11982.638298	2811.445000	1455.121094	173.705994
11982.638298	2811.445000	1454.052734	245.623459
11982.638298	2811.445000	1452.984375	109.754257
11982.638298	2811.445000	1451.915039	237.362427
11982.638298	2811.445000	1450.845703	298.103516
11982.638298	2811.445000	1449.776367	271.207245
11982.638298	2811.445000	1448.707031	267.461945
11982.638298	2811.445000	1447.636719	466.310699
11982.638298	2811.445000	1446.567383	313.751801
11982.638298	2811.445000	1445.497070	294.888123
11982.638298	2811.445000	1444.425781	460.006256
11982.638298	2811.445000	1443.355469	374.337372
11982.638298	2811.445000	1442.285156	494.962402
11982.638298	2811.445000	1441.213867	762.420593
11982.638298	2811.445000	1440.142578	579.775757
11982.638298	2811.445000	1439.070313	740.227478
11982.638298	2811.445000	1437.999023	431.039185
11982.638298	2811.445000	1436.926758	672.345398
11982.638298	2811.445000	1435.854492	345.512207
11982.638298	2811.445000	1434.782227	451.669586
11982.638298	2811.445000	1433.709961	305.472992
11982.638298	2811.445000	1432.636719	411.416412
11982.638298	2811.445000	1431.563477	549.296265
11982.638298	2811.445000	1430.490234	418.968079
11982.638298	2811.445000	1429.416992	292.653625
11982.638298	2811.445000	1428.343750	281.150879
11982.638298	2811.445000	1427.269531	464.263824
11982.638298	2811.445000	1426.195313	336.141907
11982.638298	2811.445000	1425.121094	221.012665
11982.638298	2811.445000	1424.046875	446.355682
11982.638298	2811.445000	1422.971680	144.944077
11982.638298	2811.445000	1421.896484	288.533264
11982.638298	2811.445000	1420.821289	211.330353
11982.638298	2811.445000	1419.746094	180.407593
11982.638298	2811.445000	1418.669922	153.459335
11982.638298	2811.445000	1417.594727	240.574524
11982.638298	2811.445000	1416.518555	196.838242
11982.638298	2811.445000	1415.442383	147.130325
11982.638298	2811.445000	1414.365234	271.651337
11982.638298	2811.445000	1413.289063	439.564636
11982.638298	2811.445000	1412.211914	487.002869
11982.638298	2811.445000	1411.134766	558.102356
11982.638298	2811.445000	1410.057617	380.936249
11982.638298	2811.445000	1408.979492	543.877441
11982.638298	2811.445000	1407.902344	714.202515
11982.638298	2811.445000	1406.824219	752.178894
11982.638298	2811.445000	1405.746094	614.338806
11982.638298	2811.445000	1404.666992	750.649170
11982.638298	2811.445000	1403.588867	801.204285
11982.638298	2811.445000	1402.509766	809.130554
11982.638298	2811.445000	1401.430664	799.428589
11982.638298	2811.445000	1400.351563	894.823914
11982.638298	2811.445000	1399.271484	1004.914673
11982.638298	2811.445000	1398.192383	1089.340088
11982.638298	2811.445000	1397.112305	1275.943359
11982.638298	2811.445000	1396.031250	1229.797729
11982.638298	2811.445000	1394.951172	1296.940308
11982.638298	2811.445000	1393.871094	1358.722412
11982.638298	2811.445000	1392.790039	1404.634399
11982.638298	2811.445000	1391.708984	1164.491333
11982.638298	2811.445000	1390.626953	1214.390259
11982.638298	2811.445000	1389.545898	1192.710083
11982.638298	2811.445000	1388.463867	1232.117432
11982.638298	2811.445000	1387.381836	1010.993591
11982.638298	2811.445000	1386.299805	1020.223083
11982.638298	2811.445000	1385.217773	847.889709
11982.638298	2811.445000	1384.134766	1078.888672
11982.638298	2811.445000	1383.051758	1139.791382
11982.638298	2811.445000	1381.968750	998.242859
11982.638298	2811.445000	1380.885742	934.543762
11982.638298	2811.445000	1379.802734	1002.474121
11982.638298	2811.445000	1378.718750	1115.070190
11982.638298	2811.445000	1377.634766	1048.752319
11982.638298	2811.445000	1376.550781	1118.177490
11982.638298	2811.445000	1375.465820	1118.004272
11982.638298	2811.445000	1374.381836	1044.404907
11982.638298	2811.445000	1373.296875	1004.849426
11982.638298	2811.445000	1372.211914	884.960693
11982.638298	2811.445000	1371.126953	681.358582
11982.638298	2811.445000	1370.041016	818.244080
11982.638298	2811.445000	1368.955078	838.398132
11982.638298	2811.445000	1367.869141	997.480530
11982.638298	2811.445000	1366.783203	1050.882568
11982.638298	2811.445000	1365.697266	926.798218
11982.638298	2811.445000	1364.610352	1226.479614
11982.638298	2811.445000	1363.523438	1250.831421
11982.638298	2811.445000	1362.436523	1475.621582
11982.638298	2811.445000	1361.349609	1420.977783
11982.638298	2811.445000	1360.261719	1416.005127
11982.638298	2811.445000	1359.174805	1208.882935
11982.638298	2811.445000	1358.086914	1300.225098
11982.638298	2811.445000	1356.998047	1277.774658
11982.638298	2811.445000	1355.910156	1164.320068
11982.638298	2811.445000	1354.821289	1230.052490
11982.638298	2811.445000	1353.732422	1026.744141
11982.638298	2811.445000	1352.643555	1056.956787
11982.638298	2811.445000	1351.554688	1005.365906
11982.638298	2811.445000	1350.464844	935.859436
11982.638298	2811.445000	1349.375000	1016.718628
11982.638298	2811.445000	1348.285156	871.560181
11982.638298	2811.445000	1347.195313	626.960815
11982.638298	2811.445000	1346.105469	627.968933
11982.638298	2811.445000	1345.014648	595.175903
11982.638298	2811.445000	1343.923828	359.195557
11982.638298	2811.445000	1342.833008	360.806763
11982.638298	2811.445000	1341.741211	377.703674
11982.638298	2811.445000	1340.650391	301.114685
11982.638298	2811.445000	1339.558594	146.853516
11982.638298	2811.445000	1338.466797	302.740662
11982.638298	2811.445000	1337.374023	191.034012
11982.638298	2811.445000	1336.282227	145.761169
11982.638298	2811.445000	1335.189453	199.740341
11982.638298	2811.445000	1334.096680	190.962555
11982.638298	2811.445000	1333.003906	241.041534
11982.638298	2811.445000	1331.910156	288.299042
11982.638298	2811.445000	1330.817383	216.427902
11982.638298	2811.445000	1329.723633	491.317322
11982.638298	2811.445000	1328.629883	166.894516
11982.638298	2811.445000	1327.535156	239.661148
11982.638298	2811.445000	1326.441406	336.951050
11982.638298	2811.445000	1325.346680	525.739014
11982.638298	2811.445000	1324.251953	379.943024
11982.638298	2811.445000	1323.156250	591.262390
11982.638298	2811.445000	1322.061523	557.373047
11982.638298	2811.445000	1320.965820	776.683044
11982.638298	2811.445000	1319.870117	803.036743
11982.638298	2811.445000	1318.774414	881.147461
11982.638298	2811.445000	1317.678711	803.173828
11982.638298	2811.445000	1316.582031	822.991211
11982.638298	2811.445000	1315.485352	781.655701
11982.638298	2811.445000	1314.388672	829.945068
11982.638298	2811.445000	1313.291016	651.917480
11982.638298	2811.445000	1312.194336	629.778992
11982.638298	2811.445000	1311.096680	813.287292
11982.638298	2811.445000	1309.999023	655.319397
11982.638298	2811.445000	1308.901367	823.123718
11982.638298	2811.445000	1307.802734	528.730469
11982.638298	2811.445000	1306.705078	586.006104
11982.638298	2811.445000	1305.606445	562.473633
11982.638298	2811.445000	1304.506836	656.384521
11982.638298	2811.445000	1303.408203	526.287476
11982.638298	2811.445000	1302.308594	756.049561
11982.638298	2811.445000	1301.208984	521.245605
11982.638298	2811.445000	1300.109375	568.762573
11982.638298	2811.445000	1299.009766	797.436768
11982.638298	2811.445000	1297.909180	949.877014
11982.638298	2811.445000	1296.808594	944.804199
11982.638298	2811.445000	1295.708008	932.473633
11982.638298	2811.445000	1294.607422	806.236145
11982.638298	2811.445000	1293.506836	779.837158
11982.638298	2811.445000	1292.405273	701.486267
11982.638298	2811.445000	1291.303711	556.958923
11982.638298	2811.445000	1290.202148	450.755463
11982.638298	2811.445000	1289.099609	425.141235
11982.638298	2811.445000	1287.998047	452.563812
11982.638298	2811.445000	1286.895508	390.603668
11982.638298	2811.445000	1285.792969	337.641418
11982.638298	2811.445000	1284.689453	192.801071
11982.638298	2811.445000	1283.586914	279.977997
11982.638298	2811.445000	1282.483398	392.811646
11982.638298	2811.445000	1281.379883	138.229294
11982.638298	2811.445000	1280.276367	118.048576
11982.638298	2811.445000	1279.171875	-12.780081
11982.638298	2811.445000	1278.067383	212.456589
11982.638298	2811.445000	1276.962891	172.166061
11982.638298	2811.445000	1275.858398	47.411087
11982.638298	2811.445000	1274.753906	-13.463364
11982.638298	2811.445000	1273.648438	1.489442
11982.638298	2811.445000	1272.542969	-55.328995
11982.638298	2811.445000	1271.437500	-43.019997
11982.638298	2811.445000	1270.331055	-50.226555
11982.638298	2811.445000	1269.225586	9.372256
11982.638298	2811.445000	1268.119141	-50.756824
11982.638298	2811.445000	1267.012695	-51.109974
11982.638298	2811.445000	1265.906250	130.789597
11982.638298	2811.445000	1264.798828	154.136978
11982.638298	2811.445000	1263.691406	42.610676
11982.638298	2811.445000	1262.583984	-44.307640
11982.638298	2811.445000	1261.476563	-67.967354
11982.638298	2811.445000	1260.368164	21.896101
11982.638298	2811.445000	1259.260742	-68.565018
11982.638298	2811.445000	1258.152344	37.229980
11982.638298	2811.445000	1257.043945	-95.970329
11982.638298	2811.445000	1255.934570	55.271606
11982.638298	2811.445000	1254.825195	-28.993942
11982.638298	2811.445000	1253.716797	-87.917999
11982.638298	2811.445000	1252.606445	11.072541
11982.638298	2811.445000	1251.497070	83.488022
11982.638298	2811.445000	1250.387695	9.896914
11982.638298	2811.445000	1249.277344	-48.108772
11982.638298	2811.445000	1248.166992	10.241749
11982.638298	2811.445000	1247.055664	-50.204567
11982.638298	2811.445000	1245.945313	-106.332336
11982.638298	2811.445000	1244.833984	-155.986923
11982.638298	2811.445000	1243.722656	51.202946
11982.638298	2811.445000	1242.611328	51.008968
11982.638298	2811.445000	1241.499023	92.722565
11982.638298	2811.445000	1240.387695	-79.198380
11982.638298	2811.445000	1239.275391	-112.540359
11982.638298	2811.445000	1238.162109	-56.161488
11982.638298	2811.445000	1237.049805	103.431145
11982.638298	2811.445000	1235.936523	-19.224607
11982.638298	2811.445000	1234.823242	-22.743032
11982.638298	2811.445000	1233.709961	2.824338
11982.638298	2811.445000	1232.596680	19.029486
11982.638298	2811.445000	1231.482422	-116.275436
11982.638298	2811.445000	1230.369141	-30.745209
11982.638298	2811.445000	1229.253906	-86.628464
11982.638298	2811.445000	1228.139648	-109.004234
11982.638298	2811.445000	1227.025391	-4.213708
11982.638298	2811.445000	1225.910156	-34.056995
11982.638298	2811.445000	1224.794922	-79.149513
11982.638298	2811.445000	1223.679688	8.490421
11982.638298	2811.445000	1222.563477	9.697507
11982.638298	2811.445000	1221.447266	73.958832
11982.638298	2811.445000	1220.331055	77.273643
11982.638298	2811.445000	1219.214844	6.705674
11982.638298	2811.445000	1218.098633	105.940697
11982.638298	2811.445000	1216.981445	-64.207993
11982.638298	2811.445000	1215.864258	24.676308
11982.638298	2811.445000	1214.747070	107.985451
11982.638298	2811.445000	1213.629883	126.587852
11982.638298	2811.445000	1212.511719	102.967728
11982.638298	2811.445000	1211.393555	115.418724
11982.638298	2811.445000	1210.275391	48.370770
11982.638298	2811.445000	1209.157227	27.007727
11982.638298	2811.445000	1208.038086	-29.031866
11982.638298	2811.445000	1206.918945	47.309288
11982.638298	2811.445000	1205.799805	69.349815
11982.638298	2811.445000	1204.680664	-4.884634
11982.638298	2811.445000	1203.560547	19.762087
11982.638298	2811.445000	1202.441406	103.633774
11982.638298	2811.445000	1201.321289	65.979950
11982.638298	2811.445000	1200.200195	113.734489
11982.638298	2811.445000	1199.080078	70.308578
11982.638298	2811.445000	1197.958984	13.260332
11982.638298	2811.445000	1196.837891	135.017166
11982.638298	2811.445000	1195.716797	258.283478
11982.638298	2811.445000	1194.594727	305.756470
11982.638298	2811.445000	1193.473633	201.287720
11982.638298	2811.445000	1192.351563	127.189293
11982.638298	2811.445000	1191.229492	64.977493
11982.638298	2811.445000	1190.106445	301.948120
11982.638298	2811.445000	1188.984375	256.940186
11982.638298	2811.445000	1187.861328	64.896507
11982.638298	2811.445000	1186.738281	41.356895
11982.638298	2811.445000	1185.614258	-22.877981
11982.638298	2811.445000	1184.491211	72.960609
11982.638298	2811.445000	1183.367188	62.908276
11982.638298	2811.445000	1182.243164	61.849552
11982.638298	2811.445000	1181.119141	126.850204
11982.638298	2811.445000	1179.994141	91.352470
11982.638298	2811.445000	1178.869141	104.585663
11982.638298	2811.445000	1177.744141	24.762039
11982.638298	2811.445000	1176.619141	113.349716
11982.638298	2811.445000	1175.493164	92.857315
11982.638298	2811.445000	1174.368164	113.205162
11982.638298	2811.445000	1173.242188	60.336903
11982.638298	2811.445000	1172.115234	19.641531
11982.638298	2811.445000	1170.989258	131.202545
11982.638298	2811.445000	1169.862305	99.305328
11982.638298	2811.445000	1168.735352	81.484009
11982.638298	2811.445000	1167.608398	2.402048
11982.638298	2811.445000	1166.481445	68.832306
11982.638298	2811.445000	1165.353516	120.984467
11982.638298	2811.445000	1164.225586	-126.269363
11982.638298	2811.445000	1163.097656	-85.364319
11982.638298	2811.445000	1161.968750	-141.685486
11982.638298	2811.445000	1160.840820	51.966221
11982.638298	2811.445000	1159.711914	23.681566
11982.638298	2811.445000	1158.583008	-80.260979
11982.638298	2811.445000	1157.453125	-44.661594
11982.638298	2811.445000	1156.324219	-146.571014
11982.638298	2811.445000	1155.194336	-72.745300
11982.638298	2811.445000	1154.064453	-59.320923
11982.638298	2811.445000	1152.933594	-198.186005
11982.638298	2811.445000	1151.803711	-215.941895
11982.638298	2811.445000	1150.672852	-145.870178
11982.638298	2811.445000	1149.541992	-73.718544
11982.638298	2811.445000	1148.411133	-54.982639
11982.638298	2811.445000	1147.279297	-63.361225
11982.638298	2811.445000	1146.147461	-133.322617
11982.638298	2811.445000	1145.015625	-141.421982
11982.638298	2811.445000	1143.883789	-31.794601
11982.638298	2811.445000	1142.750977	-103.336586
11982.638298	2811.445000	1141.619141	-92.338226
11982.638298	2811.445000	1140.486328	-94.829590
11982.638298	2811.445000	1139.352539	-180.686218
11982.638298	2811.445000	1138.219727	-101.979485
11982.638298	2811.445000	1137.085938	-131.782562
11982.638298	2811.445000	1135.952148	-104.791977
11982.638298	2811.445000	1134.818359	-150.660538
11982.638298	2811.445000	1133.683594	166.720352
11982.638298	2811.445000	1132.549805	55.279633
11982.638298	2811.445000	1131.415039	209.126480
11982.638298	2811.445000	1130.279297	296.104126
11982.638298	2811.445000	1129.144531	170.691544
11982.638298	2811.445000	1128.008789	303.498718
11982.638298	2811.445000	1126.873047	175.450455
11982.638298	2811.445000	1125.737305	101.848137
11982.638298	2811.445000	1124.601563	243.881805
11982.638298	2811.445000	1123.464844	196.647095
11982.638298	2811.445000	1122.328125	96.373688
11982.638298	2811.445000	1121.191406	252.218430
11982.638298	2811.445000	1120.054688	272.890900
11982.638298	2811.445000	1118.916992	141.369461
11982.638298	2811.445000	1117.779297	107.911301
11982.638298	2811.445000	1116.641602	197.207443
11982.638298	2811.445000	1115.503906	208.683334
11982.638298	2811.445000	1114.365234	181.314285
11982.638298	2811.445000	1113.226563	130.421097
11982.638298	2811.445000	1112.087891	190.639191
11982.638298	2811.445000	1110.949219	76.329559
11982.638298	2811.445000	1109.809570	23.832636
11982.638298	2811.445000	1108.669922	79.707680
11982.638298	2811.445000	1107.530273	161.761993
11982.638298	2811.445000	1106.390625	-6.454907
11982.638298	2811.445000	1105.250000	45.163868
11982.638298	2811.445000	1104.109375	113.163101
11982.638298	2811.445000	1102.968750	202.862839
11982.638298	2811.445000	1101.828125	49.527435
11982.638298	2811.445000	1100.686523	225.478516
11982.638298	2811.445000	1099.544922	191.166306
11982.638298	2811.445000	1098.403320	189.910873
11982.638298	2811.445000	1097.261719	27.983440
11982.638298	2811.445000	1096.120117	-29.662128
11982.638298	2811.445000	1094.977539	100.437210
11982.638298	2811.445000	1093.834961	76.200676
11982.638298	2811.445000	1092.691406	73.440849
11982.638298	2811.445000	1091.548828	112.045525
11982.638298	2811.445000	1090.405273	-78.093338
11982.638298	2811.445000	1089.261719	235.441727
11982.638298	2811.445000	1088.118164	14.241322
11982.638298	2811.445000	1086.973633	51.106155
11982.638298	2811.445000	1085.829102	67.287796
11982.638298	2811.445000	1084.684570	-6.291091
11982.638298	2811.445000	1083.540039	-79.600403
11982.638298	2811.445000	1082.395508	7.235669
11982.638298	2811.445000	1081.250000	70.118225
11982.638298	2811.445000	1080.104492	102.969978
11982.638298	2811.445000	1078.958984	-73.516838
11982.638298	2811.445000	1077.812500	23.363455
11982.638298	2811.445000	1076.666016	-11.344214
11982.638298	2811.445000	1075.519531	74.781898
11982.638298	2811.445000	1074.373047	-76.976105
11982.638298	2811.445000	1073.226563	198.494934
11982.638298	2811.445000	1072.079102	-10.837770
11982.638298	2811.445000	1070.931641	14.107096
11982.638298	2811.445000	1069.784180	-21.512371
11982.638298	2811.445000	1068.635742	138.616638
11982.638298	2811.445000	1067.487305	33.852932
11982.638298	2811.445000	1066.338867	-104.577026
11982.638298	2811.445000	1065.190430	185.304230
11982.638298	2811.445000	1064.041992	46.403854
11982.638298	2811.445000	1062.892578	-62.731144
11982.638298	2811.445000	1061.743164	182.377411
11982.638298	2811.445000	1060.593750	102.521461
11982.638298	2811.445000	1059.443359	75.078949
11982.638298	2811.445000	1058.292969	190.811401
11982.638298	2811.445000	1057.142578	88.756882
11982.638298	2811.445000	1055.992188	110.328438
11982.638298	2811.445000	1054.841797	-81.639969
11982.638298	2811.445000	1053.690430	-88.711006
11982.638298	2811.445000	1052.539063	87.732574
11982.638298	2811.445000	1051.387695	0.385098
11982.638298	2811.445000	1050.235352	-51.862118
11982.638298	2811.445000	1049.083984	-73.565170
11982.638298	2811.445000	1047.931641	41.503841
11982.638298	2811.445000	1046.778320	28.949299
11982.638298	2811.445000	1045.625977	97.447815
11982.638298	2811.445000	1044.472656	-20.967304
11982.638298	2811.445000	1043.319336	102.763008
11982.638298	2811.445000	1042.166016	24.191521
11982.638298	2811.445000	1041.012695	66.384689
11982.638298	2811.445000	1039.858398	-76.469643
11982.638298	2811.445000	1038.704102	-62.578827
11982.638298	2811.445000	1037.549805	-3.681079
11982.638298	2811.445000	1036.394531	-105.793755
11982.638298	2811.445000	1035.239258	38.051731
11982.638298	2811.445000	1034.083984	-9.066420
11982.638298	2811.445000	1032.928711	-170.986008
11982.638298	2811.445000	1031.773438	-10.794845
11982.638298	2811.445000	1030.617188	-137.721405
11982.638298	2811.445000	1029.460938	45.806667
11982.638298	2811.445000	1028.304688	-5.817963
11982.638298	2811.445000	1027.147461	109.592133
11982.638298	2811.445000	1025.991211	-89.663765
11982.638298	2811.445000	1024.833984	-29.954126
11982.638298	2811.445000	1023.675781	51.871449
11982.638298	2811.445000	1022.518555	30.240433
11982.638298	2811.445000	1021.360352	0.436467
11982.638298	2811.445000	1020.202148	-89.542915
11982.638298	2811.445000	1019.043945	100.075859
11982.638298	2811.445000	1017.884766	9.087343
11982.638298	2811.445000	1016.726563	-127.782684
11982.638298	2811.445000	1015.567383	-112.207039
11982.638298	2811.445000	1014.407227	132.815292
11982.638298	2811.445000	1013.248047	44.573830
11982.638298	2811.445000	1012.087891	16.858419
11982.638298	2811.445000	1010.927734	-42.366241
11982.638298	2811.445000	1009.767578	127.455696
11982.638298	2811.445000	1008.606445	173.336243
11982.638298	2811.445000	1007.446289	-23.383846
11982.638298	2811.445000	1006.285156	-105.191498
11982.638298	2811.445000	1005.123047	38.571560
11982.638298	2811.445000	1003.961914	45.478760
11982.638298	2811.445000	1002.799805	54.806614
11982.638298	2811.445000	1001.637695	176.749680
11982.638298	2811.445000	1000.475586	170.060135
11982.638298	2811.445000	999.312500	-51.037418
11982.638298	2811.445000	998.149414	231.313828
11982.638298	2811.445000	996.986328	174.763519
11982.638298	2811.445000	995.823242	61.146847
11982.638298	2811.445000	994.659180	-42.715042
11982.638298	2811.445000	993.496094	131.814529
11982.638298	2811.445000	992.332031	162.107117
11982.638298	2811.445000	991.166992	21.141348
11982.638298	2811.445000	990.002930	127.974068
11982.638298	2811.445000	988.837891	115.238304
11982.638298	2811.445000	987.672852	59.293209
11982.638298	2811.445000	986.506836	-94.416290
11982.638298	2811.445000	985.341797	61.951145
11982.638298	2811.445000	984.175781	208.318298
11982.638298	2811.445000	983.009766	142.173386
11982.638298	2811.445000	981.843750	156.869202
11982.638298	2811.445000	980.676758	216.842712
11982.638298	2811.445000	979.509766	97.253136
11982.638298	2811.445000	978.342773	261.359528
11982.638298	2811.445000	977.175781	156.978607
11982.638298	2811.445000	976.007813	260.201477
11982.638298	2811.445000	974.839844	191.664078
11982.638298	2811.445000	973.671875	61.678211
11982.638298	2811.445000	972.503906	190.239304
11982.638298	2811.445000	971.334961	86.308441
11982.638298	2811.445000	970.166016	141.296158
11982.638298	2811.445000	968.997070	165.164642
11982.638298	2811.445000	967.828125	90.205223
11982.638298	2811.445000	966.658203	64.166954
11982.638298	2811.445000	965.488281	64.978073
11982.638298	2811.445000	964.318359	66.971893
11982.638298	2811.445000	963.148438	166.709274
11982.638298	2811.445000	961.977539	147.903976
11982.638298	2811.445000	960.806641	256.751984
11982.638298	2811.445000	959.635742	228.487961
11982.638298	2811.445000	958.463867	327.936920
11982.638298	2811.445000	957.292969	392.695862
11982.638298	2811.445000	956.121094	518.838257
11982.638298	2811.445000	954.948242	474.657349
11982.638298	2811.445000	953.776367	326.947540
11982.638298	2811.445000	952.603516	163.600540
11982.638298	2811.445000	951.430664	377.986389
11982.638298	2811.445000	950.257813	269.510651
11982.638298	2811.445000	949.084961	330.574066
11982.638298	2811.445000	947.911133	299.307068
11982.638298	2811.445000	946.737305	293.829834
11982.638298	2811.445000	945.563477	169.251999
11982.638298	2811.445000	944.388672	217.251816
11982.638298	2811.445000	943.213867	105.641884
11982.638298	2811.445000	942.039063	259.694031
11982.638298	2811.445000	940.864258	225.392975
11982.638298	2811.445000	939.688477	209.284927
11982.638298	2811.445000	938.513672	262.599670
11982.638298	2811.445000	937.337891	228.150024
11982.638298	2811.445000	936.161133	261.020203
11982.638298	2811.445000	934.985352	113.111053
11982.638298	2811.445000	933.808594	418.863159
11982.638298	2811.445000	932.631836	239.986893
11982.638298	2811.445000	931.454102	241.613235
11982.638298	2811.445000	930.277344	75.577827
11982.638298	2811.445000	929.099609	203.362045
11982.638298	2811.445000	927.921875	230.649994
11982.638298	2811.445000	926.743164	255.296204
11982.638298	2811.445000	925.565430	55.740986
11982.638298	2811.445000	924.386719	191.135452
11982.638298	2811.445000	923.208008	-36.713169
11982.638298	2811.445000	922.028320	77.995865
11982.638298	2811.445000	920.849609	-13.333090
11982.638298	2811.445000	919.669922	-10.294233
11982.638298	2811.445000	919.474609	55.446899
11982.638298	2811.445000	918.309570	-23.059610
11982.638298	2811.445000	917.143555	29.665262
11982.638298	2811.445000	915.977539	-97.732246
11982.638298	2811.445000	914.810547	106.683197
11982.638298	2811.445000	913.644531	-5.300962
11982.638298	2811.445000	912.477539	-45.276302
11982.638298	2811.445000	911.310547	-5.577941
11982.638298	2811.445000	910.143555	46.929176
11982.638298	2811.445000	908.975586	-188.375870
11982.638298	2811.445000	907.807617	31.075638
11982.638298	2811.445000	906.639648	104.019852
11982.638298	2811.445000	905.471680	-151.768036
11982.638298	2811.445000	904.303711	-109.671051
11982.638298	2811.445000	903.134766	-98.412766
11982.638298	2811.445000	901.965820	-105.145546
11982.638298	2811.445000	900.796875	198.551804
11982.638298	2811.445000	899.626953	17.285694
11982.638298	2811.445000	898.457031	48.938507
11982.638298	2811.445000	897.287109	3.632581
11982.638298	2811.445000	896.117188	-28.858374
11982.638298	2811.445000	894.947266	151.378998
11982.638298	2811.445000	893.776367	-37.485996
11982.638298	2811.445000	892.605469	32.471584
11982.638298	2811.445000	891.434570	-20.572227
11982.638298	2811.445000	890.262695	133.827209
11982.638298	2811.445000	889.091797	26.973761
11982.638298	2811.445000	887.919922	135.182205
11982.638298	2811.445000	886.748047	-17.735748
11982.638298	2811.445000	885.575195	254.170349
11982.638298	2811.445000	884.403320	-152.027985
11982.638298	2811.445000	883.230469	22.557173
11982.638298	2811.445000	882.057617	-38.222385
11982.638298	2811.445000	880.883789	-45.300579
11982.638298	2811.445000	879.710938	-98.409462
11982.638298	2811.445000	878.537109	55.504726
11982.638298	2811.445000	877.362305	140.348434
11982.638298	2811.445000	876.188477	76.963394
11982.638298	2811.445000	875.013672	5.925749
11982.638298	2811.445000	873.839844	-172.356277
11982.638298	2811.445000	872.664063	83.458313
11982.638298	2811.445000	871.489258	-107.561890
11982.638298	2811.445000	870.313477	-33.098698
11982.638298	2811.445000	869.138672	84.692719
11982.638298	2811.445000	867.962891	34.050900
11982.638298	2811.445000	866.786133	1.268472
11982.638298	2811.445000	865.610352	-77.418053
11982.638298	2811.445000	864.433594	22.378199
11982.638298	2811.445000	863.256836	101.727486
11982.638298	2811.445000	862.079102	-129.883026
11982.638298	2811.445000	860.902344	-12.347581
11982.638298	2811.445000	859.724609	173.906113
11982.638298	2811.445000	858.546875	105.379013
11982.638298	2811.445000	857.368164	-47.162968
11982.638298	2811.445000	856.190430	21.830338
11982.638298	2811.445000	855.011719	22.058065
11982.638298	2811.445000	853.833008	205.496780
11982.638298	2811.445000	852.654297	68.266754
11982.638298	2811.445000	851.474609	45.549343
11982.638298	2811.445000	850.294922	35.544281
11982.638298	2811.445000	849.115234	101.809311
11982.638298	2811.445000	847.935547	46.008625
11982.638298	2811.445000	846.754883	132.553009
11982.638298	2811.445000	845.575195	23.377565
11982.638298	2811.445000	844.393555	160.676788
11982.638298	2811.445000	843.212891	-65.329536
11982.638298	2811.445000	842.032227	94.759087
11982.638298	2811.445000	840.850586	-1.673967
11982.638298	2811.445000	839.668945	94.848442
11982.638298	2811.445000	838.486328	66.955750
11982.638298	2811.445000	837.304688	94.885422
11982.638298	2811.445000	836.122070	1.017307
11982.638298	2811.445000	834.939453	-6.585973
11982.638298	2811.445000	833.756836	-118.171913
11982.638298	2811.445000	832.573242	145.516281
11982.638298	2811.445000	831.389648	-37.055923
11982.638298	2811.445000	830.206055	-11.748341
11982.638298	2811.445000	829.022461	5.934682
11982.638298	2811.445000	827.838867	69.197777
11982.638298	2811.445000	826.654297	51.373337
11982.638298	2811.445000	825.469727	-12.037004
11982.638298	2811.445000	824.284180	-85.559273
11982.638298	2811.445000	823.099609	25.714115
11982.638298	2811.445000	821.914063	15.456642
11982.638298	2811.445000	820.728516	-197.223602
11982.638298	2811.445000	819.542969	-86.032646
11982.638298	2811.445000	818.356445	-30.539585
11982.638298	2811.445000	817.169922	-126.799385
11982.638298	2811.445000	815.983398	-195.222702
11982.638298	2811.445000	814.796875	-20.983868
11982.638298	2811.445000	813.609375	-139.966461
11982.638298	2811.445000	812.422852	-21.420000
11982.638298	2811.445000	811.235352	6.130053
11982.638298	2811.445000	810.046875	-19.378872
11982.638298	2811.445000	808.859375	-110.539490
11982.638298	2811.445000	807.670898	-35.061920
11982.638298	2811.445000	806.482422	-100.967407
11982.638298	2811.445000	805.293945	-5.361467
11982.638298	2811.445000	804.104492	29.643669
11982.638298	2811.445000	802.915039	369.826111
11982.638298	2811.445000	801.725586	-8.867459
11982.638298	2811.445000	800.536133	109.280197
11982.638298	2811.445000	799.345703	8.058142
11982.638298	2811.445000	798.155273	27.837278
11982.638298	2811.445000	796.964844	148.384598
11982.638298	2811.445000	795.774414	-30.920088
11982.638298	2811.445000	794.583008	-46.447456
11982.638298	2811.445000	793.392578	38.744186
11982.638298	2811.445000	792.200195	126.405334
11982.638298	2811.445000	791.008789	123.399040
11982.638298	2811.445000	789.816406	-113.665398
11982.638298	2811.445000	788.625000	-101.553246
11982.638298	2811.445000	787.432617	121.848160
11982.638298	2811.445000	786.239258	33.276428
11982.638298	2811.445000	785.046875	-65.331978
11982.638298	2811.445000	783.853516	-146.316147
11982.638298	2811.445000	782.660156	11.499581
11982.638298	2811.445000	781.465820	41.074463
11982.638298	2811.445000	780.272461	27.908495
11982.638298	2811.445000	779.078125	-93.278931
11982.638298	2811.445000	777.883789	99.493073
11982.638298	2811.445000	776.688477	20.994705
11982.638298	2811.445000	775.494141	-9.791517
11982.638298	2811.445000	774.298828	-17.991539
11982.638298	2811.445000	773.103516	-149.161545
11982.638298	2811.445000	771.907227	-77.080734
11982.638298	2811.445000	770.711914	22.543581
11982.638298	2811.445000	769.515625	19.292351
11982.638298	2811.445000	768.318359	116.314758
11982.638298	2811.445000	767.122070	97.969460
11982.638298	2811.445000	765.924805	42.022861
11982.638298	2811.445000	764.727539	31.182522
11982.638298	2811.445000	763.530273	-42.299328
11982.638298	2811.445000	762.333008	-5.566445
11982.638298	2811.445000	761.134766	156.339127
11982.638298	2811.445000	759.936523	72.806641
11982.638298	2811.445000	758.738281	-50.758865
11982.638298	2811.445000	757.540039	48.433407
11982.638298	2811.445000	756.340820	-37.583939
11982.638298	2811.445000	755.141602	-3.513416
11982.638298	2811.445000	753.942383	-47.007111
11982.638298	2811.445000	752.742188	69.526108
11982.638298	2811.445000	751.541992	148.491684
11982.638298	2811.445000	750.341797	117.428436
11982.638298	2811.445000	749.141602	161.323929
11982.638298	2811.445000	747.941406	187.692062
11982.638298	2811.445000	746.740234	351.408569
11982.638298	2811.445000	745.539063	25.559586
11982.638298	2811.445000	744.337891	86.828491
11982.638298	2811.445000	743.135742	48.198826
11982.638298	2811.445000	741.933594	-85.276390
11982.638298	2811.445000	740.731445	5.852781
11982.638298	2811.445000	739.529297	94.425934
11982.638298	2811.445000	738.326172	120.583763
11982.638298	2811.445000	737.124023	206.554825
11982.638298	2811.445000	735.919922	30.685503
11982.638298	2811.445000	734.716797	186.384750
11982.638298	2811.445000	733.513672	237.326447
11982.638298	2811.445000	732.309570	385.393372
11982.638298	2811.445000	731.105469	334.087921
11982.638298	2811.445000	729.900391	402.325104
11982.638298	2811.445000	728.696289	-10.069170
11982.638298	2811.445000	727.491211	416.648895
11982.638298	2811.445000	726.286133	153.711777
11982.638298	2811.445000	725.080078	219.335571
11982.638298	2811.445000	723.874023	130.652710
11982.638298	2811.445000	722.668945	51.928967
11982.638298	2811.445000	721.461914	30.409874
11982.638298	2811.445000	720.255859	-3.560306
11982.638298	2811.445000	719.048828	17.145185
11982.638298	2811.445000	717.841797	-24.320158
11982.638298	2811.445000	716.634766	-75.736382
11982.638298	2811.445000	715.427734	153.567139
11982.638298	2811.445000	714.219727	5.209211
11982.638298	2811.445000	713.011719	-36.335793
11982.638298	2811.445000	711.803711	103.347893
11982.638298	2811.445000	710.594727	-126.909592
11982.638298	2811.445000	709.385742	27.563972
11982.638298	2811.445000	708.176758	42.995380
11982.638298	2811.445000	706.967773	75.754494
11982.638298	2811.445000	705.758789	-5.618419
11982.638298	2811.445000	704.548828	17.155413
11982.638298	2811.445000	703.338867	141.531052
11982.638298	2811.445000	702.127930	35.314056
11982.638298	2811.445000	700.917969	-6.460982
11982.638298	2811.445000	699.707031	-132.487885
11982.638298	2811.445000	698.496094	-80.148857
11982.638298	2811.445000	697.285156	76.148117
11982.638298	2811.445000	696.073242	-20.204571
11982.638298	2811.445000	694.861328	-27.434292
11982.638298	2811.445000	693.649414	12.329823
11982.638298	2811.445000	692.436523	-7.344147
11982.638298	2811.445000	691.224609	146.129593
11982.638298	2811.445000	690.011719	20.011438
11982.638298	2811.445000	688.798828	-41.793991
11982.638298	2811.445000	687.584961	37.314003
11982.638298	2811.445000	686.372070	49.614815
11982.638298	2811.445000	685.158203	-17.207544
11982.638298	2811.445000	683.943359	-4.973182
11982.638298	2811.445000	682.729492	76.388489
11982.638298	2811.445000	681.514648	-17.673540
11982.638298	2811.445000	680.299805	201.858871
11982.638298	2811.445000	679.084961	23.801437
11982.638298	2811.445000	677.869141	21.022266
11982.638298	2811.445000	676.653320	-43.484833
11982.638298	2811.445000	675.437500	197.923538
11982.638298	2811.445000	674.221680	227.063599
11982.638298	2811.445000	673.004883	162.440582
11982.638298	2811.445000	671.789063	122.463509
11982.638298	2811.445000	670.571289	-178.833237
11982.638298	2811.445000	669.354492	27.656309
11982.638298	2811.445000	668.136719	2.400583
11982.638298	2811.445000	666.919922	53.486618
11982.638298	2811.445000	665.701172	52.787823
11982.638298	2811.445000	664.483398	17.577040
11982.638298	2811.445000	663.264648	134.981186
11982.638298	2811.445000	662.045898	-23.382450
11982.638298	2811.445000	660.827148	93.903030
11982.638298	2811.445000	659.608398	24.110485
11982.638298	2811.445000	658.388672	217.512421
11982.638298	2811.445000	657.168945	127.967468
11982.638298	2811.445000	655.949219	35.962387
11982.638298	2811.445000	654.728516	25.079172
11982.638298	2811.445000	653.507813	43.654121
11982.638298	2811.445000	652.287109	231.733093
11982.638298	2811.445000	651.066406	154.363907
11982.638298	2811.445000	649.844727	67.160194
11982.638298	2811.445000	648.623047	68.359299
11982.638298	2811.445000	647.401367	15.503681
11982.638298	2811.445000	646.179688	-3.004310
11982.638298	2811.445000	644.957031	-19.092634
11982.638298	2811.445000	643.734375	65.385384
11982.638298	2811.445000	642.511719	-24.383722
11982.638298	2811.445000	641.289063	67.336906
11982.638298	2811.445000	640.065430	82.962975
11982.638298	2811.445000	638.841797	113.250679
11982.638298	2811.445000	637.618164	47.895390
11982.638298	2811.445000	636.393555	46.239017
11982.638298	2811.445000	635.168945	32.293739
11982.638298	2811.445000	633.944336	10.965402
11982.638298	2811.445000	632.719727	26.341017
11982.638298	2811.445000	631.494141	24.529003
11982.638298	2811.445000	630.269531	105.909973
11982.638298	2811.445000	629.042969	50.157063
11982.638298	2811.445000	627.817383	31.093967
11982.638298	2811.445000	626.590820	36.461246
11982.638298	2811.445000	625.365234	217.890762
11982.638298	2811.445000	624.137695	220.689117
11982.638298	2811.445000	622.911133	93.875237
11982.638298	2811.445000	621.683594	101.509293
11982.638298	2811.445000	620.456055	101.771423
11982.638298	2811.445000	619.228516	-164.322067
11982.638298	2811.445000	618.000977	-44.387188
11982.638298	2811.445000	616.772461	48.591476
11982.638298	2811.445000	615.543945	178.118439
11982.638298	2811.445000	614.314453	104.932190
11982.638298	2811.445000	613.085938	207.469482
11982.638298	2811.445000	611.856445	273.320404
11982.638298	2811.445000	610.626953	151.255203
11982.638298	2811.445000	609.397461	187.746826
11982.638298	2811.445000	608.166992	380.253906
11982.638298	2811.445000	606.936523	199.617142
11982.638298	2811.445000	605.706055	128.709885
11982.638298	2811.445000	604.474609	221.077652
11982.638298	2811.445000	603.244141	193.982864
11982.638298	2811.445000	602.012695	193.656830
11982.638298	2811.445000	600.780273	8.197479
11982.638298	2811.445000	599.548828	190.464111
11982.638298	2811.445000	598.316406	24.490641
11982.638298	2811.445000	597.083984	-24.618275
11982.638298	2811.445000	595.851563	79.565475
11982.638298	2811.445000	594.618164	-81.517250
11982.638298	2811.445000	593.384766	-137.971634
11982.638298	2811.445000	592.151367	-12.045341
11982.638298	2811.445000	590.917969	-63.693039
11982.638298	2811.445000	589.683594	-93.475883
11982.638298	2811.445000	588.449219	-60.089756
11982.638298	2811.445000	587.214844	-58.335995
11982.638298	2811.445000	585.979492	-39.612709
11982.638298	2811.445000	584.745117	-101.072601
11982.638298	2811.445000	583.509766	-147.969833
11982.638298	2811.445000	582.273438	-83.204445
11982.638298	2811.445000	581.038086	8.206789
11982.638298	2811.445000	579.801758	-24.213581
11982.638298	2811.445000	578.565430	-0.847239
11982.638298	2811.445000	577.329102	-81.820663
11982.638298	2811.445000	576.091797	53.047009
11982.638298	2811.445000	574.854492	42.353176
11982.638298	2811.445000	573.617188	-60.478821
11982.638298	2811.445000	572.378906	42.709385
11982.638298	2811.445000	571.141602	-6.821313
11982.638298	2811.445000	569.903320	28.428911
11982.638298	2811.445000	568.664063	104.812073
11982.638298	2811.445000	567.425781	326.432922
11982.638298	2811.445000	566.186523	245.306824
11982.638298	2811.445000	564.947266	215.022552
11982.638298	2811.445000	563.708008	308.148010
11982.638298	2811.445000	562.467773	369.754517
11982.638298	2811.445000	561.227539	387.772705
11982.638298	2811.445000	559.987305	309.026337
11982.638298	2811.445000	558.747070	252.054016
11982.638298	2811.445000	557.505859	8.943603
11982.638298	2811.445000	556.264648	152.616028
11982.638298	2811.445000	555.023438	-15.500488
11982.638298	2811.445000	553.781250	-183.566620
11982.638298	2811.445000	552.539063	-250.136032
11982.638298	2811.445000	551.296875	-34.163315
11982.638298	2811.445000	550.054688	-1.785666
11982.638298	2811.445000	548.811523	28.144749
11982.638298	2811.445000	547.569336	38.742874
11982.638298	2811.445000	546.325195	-150.941864
11982.638298	2811.445000	545.082031	-118.633720
11982.638298	2811.445000	543.837891	-23.652836
11982.638298	2811.445000	542.593750	76.094635
11982.638298	2811.445000	541.349609	89.001717
11982.638298	2811.445000	540.105469	31.994614
11982.638298	2811.445000	538.860352	3.911944
11982.638298	2811.445000	537.615234	-7.307729
11982.638298	2811.445000	536.369141	-66.710594
11982.638298	2811.445000	535.124023	68.959000
11982.638298	2811.445000	533.877930	2.319184
11982.638298	2811.445000	532.631836	-88.374123
11982.638298	2811.445000	531.384766	13.480271
11982.638298	2811.445000	530.138672	-137.347351
11982.638298	2811.445000	528.891602	-35.547554
11982.638298	2811.445000	527.643555	-147.848602
11982.638298	2811.445000	526.396484	-67.748787
11982.638298	2811.445000	525.148438	12.302439
11982.638298	2811.445000	523.900391	87.503288
11982.638298	2811.445000	522.652344	13.681105
11982.638298	2811.445000	521.403320	-67.327782
11982.638298	2811.445000	520.154297	41.437473
11982.638298	2811.445000	518.905273	106.923294
11982.638298	2811.445000	517.656250	181.975464
11982.638298	2811.445000	516.406250	237.779785
11982.638298	2811.445000	515.156250	147.163254
11982.638298	2811.445000	513.906250	145.351425
11982.638298	2811.445000	512.655273	78.759506
11982.638298	2811.445000	511.404297	216.042511
11982.638298	2811.445000	510.153320	-78.339722
11982.638298	2811.445000	508.902344	-70.551376
11982.638298	2811.445000	507.650391	-77.159851
11982.638298	2811.445000	506.398438	232.526825
11982.638298	2811.445000	505.146484	101.261337
11982.638298	2811.445000	503.893555	111.354065
11982.638298	2811.445000	502.641602	138.198883
11982.638298	2811.445000	501.388672	93.193161
11982.638298	2811.445000	500.134766	-6.861815
11982.638298	2811.445000	498.881836	125.251938
11982.638298	2811.445000	497.627930	63.491165
11982.638298	2811.445000	496.374023	80.683258
11982.638298	2811.445000	495.119141	-69.560028
11982.638298	2811.445000	493.865234	-121.715210
11982.638298	2811.445000	492.610352	3.034522
11982.638298	2811.445000	491.355469	-34.807861
11982.638298	2811.445000	490.099609	77.885719
11982.638298	2811.445000	488.843750	11.337843
11982.638298	2811.445000	487.587891	186.036743
11982.638298	2811.445000	486.332031	102.739151
11982.638298	2811.445000	485.075195	155.538620
11982.638298	2811.445000	483.818359	158.166306
11982.638298	2811.445000	482.561523	41.448044
11982.638298	2811.445000	481.304688	139.487900
11982.638298	2811.445000	480.046875	153.965988
11982.638298	2811.445000	478.789063	275.730377
11982.638298	2811.445000	477.531250	211.429855
11982.638298	2811.445000	476.272461	368.822296
11982.638298	2811.445000	475.013672	335.444092
11982.638298	2811.445000	473.754883	261.537415
11982.638298	2811.445000	472.496094	201.919662
11982.638298	2811.445000	471.236328	199.446869
11982.638298	2811.445000	469.976563	201.697113
11982.638298	2811.445000	468.716797	287.228607
11982.638298	2811.445000	467.456055	282.223206
11982.638298	2811.445000	466.196289	103.452469
11982.638298	2811.445000	464.935547	312.519501
11982.638298	2811.445000	463.673828	290.701752
11982.638298	2811.445000	462.413086	154.685638
11982.638298	2811.445000	461.151367	315.875519
11982.638298	2811.445000	459.889648	350.942505
11982.638298	2811.445000	458.626953	564.172852
11982.638298	2811.445000	457.364258	499.230652
11982.638298	2811.445000	456.101563	595.786255
11982.638298	2811.445000	454.838867	609.092957
11982.638298	2811.445000	453.575195	548.694885
11982.638298	2811.445000	452.312500	405.148438
11982.638298	2811.445000	451.047852	506.045380
11982.638298	2811.445000	449.784180	378.994690
11982.638298	2811.445000	448.519531	323.072906
11982.638298	2811.445000	447.254883	404.651550
11982.638298	2811.445000	445.990234	467.114624
11982.638298	2811.445000	444.725586	420.372314
11982.638298	2811.445000	443.459961	423.306854
11982.638298	2811.445000	442.194336	482.999298
11982.638298	2811.445000	440.927734	407.469971
11982.638298	2811.445000	439.662109	436.080872
11982.638298	2811.445000	438.395508	372.163635
11982.638298	2811.445000	437.127930	611.219849
11982.638298	2811.445000	435.861328	376.539337
11982.638298	2811.445000	434.593750	335.884125
11982.638298	2811.445000	433.326172	671.341492
11982.638298	2811.445000	432.058594	594.814880
11982.638298	2811.445000	430.790039	485.021393
11982.638298	2811.445000	429.521484	502.792114
11982.638298	2811.445000	428.252930	428.151031
11982.638298	2811.445000	426.984375	665.369812
11982.638298	2811.445000	425.714844	682.479431
11982.638298	2811.445000	424.445313	522.151611
11982.638298	2811.445000	423.174805	597.890991
11982.638298	2811.445000	421.905273	515.129700
11982.638298	2811.445000	420.634766	623.417969
11982.638298	2811.445000	419.364258	478.803223
11982.638298	2811.445000	418.092773	695.100830
11982.638298	2811.445000	416.822266	594.834229
11982.638298	2811.445000	415.550781	690.137939
11982.638298	2811.445000	414.278320	818.121399
11982.638298	2811.445000	413.006836	698.140442
11982.638298	2811.445000	411.734375	858.457397
11982.638298	2811.445000	410.461914	728.443237
11982.638298	2811.445000	409.188477	468.521118
11982.638298	2811.445000	407.916016	648.978333
11982.638298	2811.445000	406.642578	501.548645
11982.638298	2811.445000	405.368164	488.043182
11982.638298	2811.445000	404.094727	533.033081
11982.638298	2811.445000	402.820313	546.990662
11982.638298	2811.445000	401.545898	513.456360
11982.638298	2811.445000	400.270508	561.856873
11982.638298	2811.445000	398.996094	386.310303
11982.638298	2811.445000	397.720703	386.779144
11982.638298	2811.445000	396.444336	494.936249
11982.638298	2811.445000	395.168945	398.031494
11982.638298	2811.445000	393.892578	298.302521
11982.638298	2811.445000	392.616211	538.854980
11982.638298	2811.445000	391.339844	494.475403
11982.638298	2811.445000	390.062500	651.565002
11982.638298	2811.445000	388.785156	394.679596
11982.638298	2811.445000	387.507813	336.899414
11982.638298	2811.445000	386.229492	433.457031
11982.638298	2811.445000	384.951172	360.366241
11982.638298	2811.445000	383.672852	359.404236
11982.638298	2811.445000	382.394531	611.144775
11982.638298	2811.445000	381.115234	592.348816
11982.638298	2811.445000	379.835938	420.435516
11982.638298	2811.445000	378.556641	458.872681
11982.638298	2811.445000	377.277344	576.239929
11982.638298	2811.445000	375.997070	561.537292
11982.638298	2811.445000	374.716797	646.794434
11982.638298	2811.445000	373.435547	295.495514
11982.638298	2811.445000	372.155273	402.542236
11982.638298	2811.445000	370.874023	510.999817
11982.638298	2811.445000	369.591797	262.689850
11982.638298	2811.445000	368.310547	18.279163
11982.638298	2811.445000	367.028320	79.533287
11982.638298	2811.445000	365.746094	273.137756
11982.638298	2811.445000	364.463867	154.604446
11982.638298	2811.445000	363.180664	303.982605
11982.638298	2811.445000	361.897461	272.236511
11982.638298	2811.445000	360.614258	396.027557
11982.638298	2811.445000	359.330078	214.848038
11982.638298	2811.445000	358.045898	81.671455
11982.638298	2811.445000	356.761719	92.203255
11982.638298	2811.445000	355.477539	82.851349
11982.638298	2811.445000	354.192383	13.870447
11982.638298	2811.445000	352.907227	153.737793
11982.638298	2811.445000	351.622070	56.539978
11982.638298	2811.445000	350.336914	-34.946667
11982.638298	2811.445000	349.050781	79.814919
11982.638298	2811.445000	347.764648	274.750244
11982.638298	2811.445000	346.477539	-12.206848
11982.638298	2811.445000	345.191406	-76.681396
11982.638298	2811.445000	343.904297	50.763149
11982.638298	2811.445000	342.616211	-124.036362
11982.638298	2811.445000	341.329102	74.765358
11982.638298	2811.445000	340.041016	-40.304836
11982.638298	2811.445000	338.752930	117.779510
11982.638298	2811.445000	337.463867	-184.612427
11982.638298	2811.445000	336.175781	-62.629669
11982.638298	2811.445000	334.886719	-114.760704
11982.638298	2811.445000	333.596680	-3.581281
11982.638298	2811.445000	332.307617	70.814903
11982.638298	2811.445000	331.017578	-105.656502
11982.638298	2811.445000	329.727539	-86.408318
11982.638298	2811.445000	328.436523	93.456497
11982.638298	2811.445000	327.146484	64.369949
11982.638298	2811.445000	325.855469	376.986908
11982.638298	2811.445000	324.563477	36.756756
11982.638298	2811.445000	323.272461	35.911148
11982.638298	2811.445000	321.980469	237.045380
11982.638298	2811.445000	320.688477	34.113045
11982.638298	2811.445000	319.395508	209.443741
11982.638298	2811.445000	318.103516	-19.146847
11982.638298	2811.445000	316.810547	-34.467365
11982.638298	2811.445000	315.516602	-128.980698
11982.638298	2811.445000	314.223633	-24.265432
11982.638298	2811.445000	312.929688	-40.616684
11982.638298	2811.445000	311.635742	-48.136173
11982.638298	2811.445000	310.340820	-88.690529
11982.638298	2811.445000	309.045898	-159.924713
11982.638298	2811.445000	307.750977	-162.276321
11982.638298	2811.445000	306.456055	68.575714
11982.638298	2811.445000	305.160156	187.315567
11982.638298	2811.445000	303.865234	13.563238
11982.638298	2811.445000	302.568359	248.432800
11982.638298	2811.445000	301.272461	188.431030
11982.638298	2811.445000	299.975586	194.378357
11982.638298	2811.445000	298.678711	421.220032
