#X		#Y		#Wave		#Intensity
12174.663298	79.851667	1999.980469	10.021149
12174.663298	79.851667	1999.016602	103.942665
12174.663298	79.851667	1998.052734	21.110924
12174.663298	79.851667	1997.087891	64.650146
12174.663298	79.851667	1996.123047	-90.082092
12174.663298	79.851667	1995.158203	-11.939038
12174.663298	79.851667	1994.193359	-52.746632
12174.663298	79.851667	1993.228516	99.575386
12174.663298	79.851667	1992.262695	68.594444
12174.663298	79.851667	1991.297852	97.002205
12174.663298	79.851667	1990.332031	-72.624840
12174.663298	79.851667	1989.366211	-2.196008
12174.663298	79.851667	1988.399414	-65.416855
12174.663298	79.851667	1987.433594	34.613815
12174.663298	79.851667	1986.466797	23.294386
12174.663298	79.851667	1985.500977	91.080757
12174.663298	79.851667	1984.534180	45.101112
12174.663298	79.851667	1983.567383	-25.598379
12174.663298	79.851667	1982.599609	101.408936
12174.663298	79.851667	1981.632813	60.339703
12174.663298	79.851667	1980.665039	103.260536
12174.663298	79.851667	1979.697266	67.115471
12174.663298	79.851667	1978.729492	132.216858
12174.663298	79.851667	1977.761719	63.959259
12174.663298	79.851667	1976.792969	82.112770
12174.663298	79.851667	1975.825195	-30.554237
12174.663298	79.851667	1974.856445	-29.680117
12174.663298	79.851667	1973.887695	22.996191
12174.663298	79.851667	1972.918945	41.113956
12174.663298	79.851667	1971.949219	-9.834254
12174.663298	79.851667	1970.980469	-43.506454
12174.663298	79.851667	1970.010742	80.608452
12174.663298	79.851667	1969.041016	-73.849701
12174.663298	79.851667	1968.071289	23.114161
12174.663298	79.851667	1967.101563	19.021446
12174.663298	79.851667	1966.130859	78.980247
12174.663298	79.851667	1965.161133	52.714466
12174.663298	79.851667	1964.190430	80.636139
12174.663298	79.851667	1963.219727	59.309002
12174.663298	79.851667	1962.249023	-43.239582
12174.663298	79.851667	1961.277344	161.899139
12174.663298	79.851667	1960.306641	47.076591
12174.663298	79.851667	1959.334961	38.092644
12174.663298	79.851667	1958.363281	-123.388298
12174.663298	79.851667	1957.391602	42.289921
12174.663298	79.851667	1956.419922	-37.973190
12174.663298	79.851667	1955.447266	-2.652760
12174.663298	79.851667	1954.474609	-1.747606
12174.663298	79.851667	1953.501953	-37.695679
12174.663298	79.851667	1952.529297	78.716904
12174.663298	79.851667	1951.556641	72.267479
12174.663298	79.851667	1950.583984	-2.940223
12174.663298	79.851667	1949.610352	64.320480
12174.663298	79.851667	1948.636719	97.195114
12174.663298	79.851667	1947.663086	-9.851578
12174.663298	79.851667	1946.689453	50.047226
12174.663298	79.851667	1945.715820	-42.201382
12174.663298	79.851667	1944.741211	83.948822
12174.663298	79.851667	1943.767578	163.461044
12174.663298	79.851667	1942.792969	63.926174
12174.663298	79.851667	1941.818359	-13.489023
12174.663298	79.851667	1940.842773	-228.148972
12174.663298	79.851667	1939.868164	-30.926868
12174.663298	79.851667	1938.892578	-56.773018
12174.663298	79.851667	1937.916992	8.063192
12174.663298	79.851667	1936.941406	107.186920
12174.663298	79.851667	1935.965820	66.680588
12174.663298	79.851667	1934.990234	-98.685135
12174.663298	79.851667	1934.013672	29.831009
12174.663298	79.851667	1933.037109	4.096662
12174.663298	79.851667	1932.060547	54.259380
12174.663298	79.851667	1931.083984	-47.294285
12174.663298	79.851667	1930.107422	17.571468
12174.663298	79.851667	1929.129883	-103.473610
12174.663298	79.851667	1928.153320	110.595146
12174.663298	79.851667	1927.175781	38.514378
12174.663298	79.851667	1926.198242	88.713516
12174.663298	79.851667	1925.219727	-5.301983
12174.663298	79.851667	1924.242188	27.812908
12174.663298	79.851667	1923.263672	51.158199
12174.663298	79.851667	1922.285156	-64.734024
12174.663298	79.851667	1921.306641	-43.789593
12174.663298	79.851667	1920.328125	-98.538376
12174.663298	79.851667	1919.349609	12.774179
12174.663298	79.851667	1918.370117	21.535879
12174.663298	79.851667	1917.391602	-55.111198
12174.663298	79.851667	1916.412109	51.298820
12174.663298	79.851667	1915.431641	16.181387
12174.663298	79.851667	1914.452148	100.616676
12174.663298	79.851667	1913.472656	121.627487
12174.663298	79.851667	1912.492188	45.111652
12174.663298	79.851667	1911.511719	56.403942
12174.663298	79.851667	1910.531250	33.583031
12174.663298	79.851667	1909.550781	61.962444
12174.663298	79.851667	1908.569336	-4.678840
12174.663298	79.851667	1907.588867	-10.378608
12174.663298	79.851667	1906.607422	-11.190536
12174.663298	79.851667	1905.625977	22.104025
12174.663298	79.851667	1904.644531	-90.681923
12174.663298	79.851667	1903.662109	-47.620216
12174.663298	79.851667	1902.680664	-70.273476
12174.663298	79.851667	1901.698242	-122.105186
12174.663298	79.851667	1900.715820	-3.602372
12174.663298	79.851667	1899.733398	51.625805
12174.663298	79.851667	1898.750000	24.158424
12174.663298	79.851667	1897.767578	132.878738
12174.663298	79.851667	1896.784180	42.223022
12174.663298	79.851667	1895.800781	2.655561
12174.663298	79.851667	1894.817383	40.879181
12174.663298	79.851667	1893.833984	35.365009
12174.663298	79.851667	1892.850586	-4.145810
12174.663298	79.851667	1891.866211	29.232481
12174.663298	79.851667	1890.881836	-41.810326
12174.663298	79.851667	1889.897461	3.722031
12174.663298	79.851667	1888.913086	54.101429
12174.663298	79.851667	1887.927734	51.077908
12174.663298	79.851667	1886.943359	-19.878658
12174.663298	79.851667	1885.958008	-44.704636
12174.663298	79.851667	1884.972656	90.577530
12174.663298	79.851667	1883.987305	39.079308
12174.663298	79.851667	1883.001953	60.348919
12174.663298	79.851667	1882.015625	-12.927781
12174.663298	79.851667	1881.029297	71.376366
12174.663298	79.851667	1880.042969	-26.095440
12174.663298	79.851667	1879.056641	-113.833321
12174.663298	79.851667	1878.070313	-87.677979
12174.663298	79.851667	1877.083984	-8.243551
12174.663298	79.851667	1876.096680	209.193420
12174.663298	79.851667	1875.109375	114.234673
12174.663298	79.851667	1874.122070	99.195969
12174.663298	79.851667	1873.134766	6.721474
12174.663298	79.851667	1872.146484	-5.864272
12174.663298	79.851667	1871.159180	-57.150715
12174.663298	79.851667	1870.170898	7.687894
12174.663298	79.851667	1869.182617	-31.484798
12174.663298	79.851667	1868.194336	108.283455
12174.663298	79.851667	1867.205078	59.440258
12174.663298	79.851667	1866.216797	-1.468612
12174.663298	79.851667	1865.227539	-6.773646
12174.663298	79.851667	1864.238281	41.077755
12174.663298	79.851667	1863.249023	14.026609
12174.663298	79.851667	1862.259766	-51.657944
12174.663298	79.851667	1861.269531	-15.899886
12174.663298	79.851667	1860.279297	39.157822
12174.663298	79.851667	1859.290039	48.330227
12174.663298	79.851667	1858.298828	-43.863804
12174.663298	79.851667	1857.308594	61.832943
12174.663298	79.851667	1856.318359	148.187637
12174.663298	79.851667	1855.327148	-64.581848
12174.663298	79.851667	1854.335938	24.169115
12174.663298	79.851667	1853.344727	69.482872
12174.663298	79.851667	1852.353516	100.311432
12174.663298	79.851667	1851.362305	53.997177
12174.663298	79.851667	1850.370117	96.856094
12174.663298	79.851667	1849.377930	127.646629
12174.663298	79.851667	1848.385742	23.525126
12174.663298	79.851667	1847.393555	-32.395988
12174.663298	79.851667	1846.401367	99.515717
12174.663298	79.851667	1845.408203	0.253200
12174.663298	79.851667	1844.415039	40.627918
12174.663298	79.851667	1843.421875	6.376073
12174.663298	79.851667	1842.428711	94.840797
12174.663298	79.851667	1841.435547	103.876709
12174.663298	79.851667	1840.441406	84.037773
12174.663298	79.851667	1839.448242	189.244751
12174.663298	79.851667	1838.454102	46.758495
12174.663298	79.851667	1837.459961	-35.587715
12174.663298	79.851667	1836.464844	7.063754
12174.663298	79.851667	1835.470703	136.194550
12174.663298	79.851667	1834.475586	188.385513
12174.663298	79.851667	1833.480469	91.618675
12174.663298	79.851667	1832.485352	40.506702
12174.663298	79.851667	1831.490234	78.244080
12174.663298	79.851667	1830.495117	-1.679048
12174.663298	79.851667	1829.499023	86.431572
12174.663298	79.851667	1828.502930	85.703751
12174.663298	79.851667	1827.506836	82.563423
12174.663298	79.851667	1826.510742	43.427025
12174.663298	79.851667	1825.513672	117.017319
12174.663298	79.851667	1824.517578	-30.048494
12174.663298	79.851667	1823.520508	151.387115
12174.663298	79.851667	1822.523438	-5.248122
12174.663298	79.851667	1821.526367	61.045715
12174.663298	79.851667	1820.529297	124.902847
12174.663298	79.851667	1819.531250	97.682213
12174.663298	79.851667	1818.533203	51.293293
12174.663298	79.851667	1817.535156	148.593704
12174.663298	79.851667	1816.537109	54.291893
12174.663298	79.851667	1815.539063	89.278938
12174.663298	79.851667	1814.540039	-5.011340
12174.663298	79.851667	1813.541992	168.732483
12174.663298	79.851667	1812.542969	158.165710
12174.663298	79.851667	1811.543945	-7.901937
12174.663298	79.851667	1810.543945	122.638145
12174.663298	79.851667	1809.544922	66.597054
12174.663298	79.851667	1808.544922	-6.177695
12174.663298	79.851667	1807.544922	136.181625
12174.663298	79.851667	1806.544922	108.788780
12174.663298	79.851667	1805.544922	78.996788
12174.663298	79.851667	1804.544922	-58.306637
12174.663298	79.851667	1803.543945	40.881020
12174.663298	79.851667	1802.542969	-39.092438
12174.663298	79.851667	1801.541992	-28.328550
12174.663298	79.851667	1800.541016	125.637794
12174.663298	79.851667	1799.539063	40.855927
12174.663298	79.851667	1798.538086	-113.115761
12174.663298	79.851667	1797.536133	-33.245796
12174.663298	79.851667	1796.534180	-63.153008
12174.663298	79.851667	1795.532227	9.478078
12174.663298	79.851667	1794.529297	20.063400
12174.663298	79.851667	1793.527344	42.542210
12174.663298	79.851667	1792.524414	-68.488052
12174.663298	79.851667	1791.521484	80.254799
12174.663298	79.851667	1790.518555	38.308414
12174.663298	79.851667	1789.514648	189.308884
12174.663298	79.851667	1788.511719	21.079462
12174.663298	79.851667	1787.507813	19.577528
12174.663298	79.851667	1786.503906	46.621510
12174.663298	79.851667	1785.500000	68.870201
12174.663298	79.851667	1784.496094	5.409381
12174.663298	79.851667	1783.491211	8.571798
12174.663298	79.851667	1782.486328	128.279510
12174.663298	79.851667	1781.481445	43.361019
12174.663298	79.851667	1780.476563	110.648209
12174.663298	79.851667	1779.471680	97.044533
12174.663298	79.851667	1778.465820	-16.422794
12174.663298	79.851667	1777.460938	65.021988
12174.663298	79.851667	1776.455078	72.743736
12174.663298	79.851667	1775.449219	-50.234715
12174.663298	79.851667	1774.442383	-11.666478
12174.663298	79.851667	1773.436523	128.984665
12174.663298	79.851667	1772.429688	13.109989
12174.663298	79.851667	1771.422852	37.321587
12174.663298	79.851667	1770.416016	149.320557
12174.663298	79.851667	1769.409180	163.951782
12174.663298	79.851667	1768.402344	19.580681
12174.663298	79.851667	1767.394531	67.388069
12174.663298	79.851667	1766.386719	53.484226
12174.663298	79.851667	1765.378906	96.470894
12174.663298	79.851667	1764.371094	-0.467876
12174.663298	79.851667	1763.362305	-23.914549
12174.663298	79.851667	1762.354492	116.151344
12174.663298	79.851667	1761.345703	87.898674
12174.663298	79.851667	1760.336914	109.380272
12174.663298	79.851667	1759.328125	159.250412
12174.663298	79.851667	1758.318359	-1.695273
12174.663298	79.851667	1757.308594	-63.162170
12174.663298	79.851667	1756.299805	29.242117
12174.663298	79.851667	1755.290039	3.240619
12174.663298	79.851667	1754.279297	-6.214835
12174.663298	79.851667	1753.269531	-18.058111
12174.663298	79.851667	1752.258789	55.231293
12174.663298	79.851667	1751.249023	43.326061
12174.663298	79.851667	1750.238281	156.719513
12174.663298	79.851667	1749.226563	5.258009
12174.663298	79.851667	1748.215820	76.014816
12174.663298	79.851667	1747.204102	-4.531058
12174.663298	79.851667	1746.193359	-146.504013
12174.663298	79.851667	1745.181641	56.448154
12174.663298	79.851667	1744.168945	-9.960223
12174.663298	79.851667	1743.157227	105.461563
12174.663298	79.851667	1742.144531	-10.565519
12174.663298	79.851667	1741.132813	-36.873356
12174.663298	79.851667	1740.120117	-8.918563
12174.663298	79.851667	1739.106445	37.873806
12174.663298	79.851667	1738.093750	35.080723
12174.663298	79.851667	1737.080078	-21.990654
12174.663298	79.851667	1736.067383	-15.391901
12174.663298	79.851667	1735.053711	24.185272
12174.663298	79.851667	1734.040039	-32.931591
12174.663298	79.851667	1733.025391	-16.990845
12174.663298	79.851667	1732.011719	-12.862704
12174.663298	79.851667	1730.997070	-39.393108
12174.663298	79.851667	1729.982422	-2.339363
12174.663298	79.851667	1728.967773	-47.755062
12174.663298	79.851667	1727.952148	-10.768548
12174.663298	79.851667	1726.937500	-49.154797
12174.663298	79.851667	1725.921875	-59.309288
12174.663298	79.851667	1724.906250	-88.312424
12174.663298	79.851667	1723.890625	33.253654
12174.663298	79.851667	1722.875000	27.716961
12174.663298	79.851667	1721.858398	109.177315
12174.663298	79.851667	1720.841797	-11.649440
12174.663298	79.851667	1719.825195	-52.519009
12174.663298	79.851667	1718.808594	-109.852135
12174.663298	79.851667	1717.791992	-7.376941
12174.663298	79.851667	1716.774414	-10.705374
12174.663298	79.851667	1715.756836	-79.837021
12174.663298	79.851667	1714.739258	78.869148
12174.663298	79.851667	1713.721680	40.226788
12174.663298	79.851667	1712.704102	-61.818623
12174.663298	79.851667	1711.685547	47.420689
12174.663298	79.851667	1710.667969	-64.023315
12174.663298	79.851667	1709.649414	-15.883698
12174.663298	79.851667	1708.630859	-47.554398
12174.663298	79.851667	1707.611328	94.340759
12174.663298	79.851667	1706.592773	111.864189
12174.663298	79.851667	1705.573242	-37.123806
12174.663298	79.851667	1704.553711	15.534433
12174.663298	79.851667	1703.534180	-60.763176
12174.663298	79.851667	1702.513672	-43.319996
12174.663298	79.851667	1701.494141	-16.530897
12174.663298	79.851667	1700.473633	-64.737686
12174.663298	79.851667	1699.453125	13.524079
12174.663298	79.851667	1698.432617	35.535126
12174.663298	79.851667	1697.412109	-89.977509
12174.663298	79.851667	1696.390625	-25.867584
12174.663298	79.851667	1695.369141	75.641197
12174.663298	79.851667	1694.347656	141.992920
12174.663298	79.851667	1693.326172	-4.584901
12174.663298	79.851667	1692.304688	12.598173
12174.663298	79.851667	1691.282227	-35.725750
12174.663298	79.851667	1690.260742	67.923660
12174.663298	79.851667	1689.238281	-155.750366
12174.663298	79.851667	1688.214844	-3.083078
12174.663298	79.851667	1687.192383	58.378868
12174.663298	79.851667	1686.168945	-15.706315
12174.663298	79.851667	1685.146484	-5.690384
12174.663298	79.851667	1684.123047	-16.717924
12174.663298	79.851667	1683.099609	133.347214
12174.663298	79.851667	1682.075195	84.907196
12174.663298	79.851667	1681.051758	-40.550259
12174.663298	79.851667	1680.027344	125.711510
12174.663298	79.851667	1679.002930	35.252792
12174.663298	79.851667	1677.978516	47.447891
12174.663298	79.851667	1676.953125	64.282639
12174.663298	79.851667	1675.928711	13.477589
12174.663298	79.851667	1674.903320	20.954807
12174.663298	79.851667	1673.877930	56.383320
12174.663298	79.851667	1672.852539	-24.736834
12174.663298	79.851667	1671.826172	94.530563
12174.663298	79.851667	1670.800781	76.300255
12174.663298	79.851667	1669.774414	-56.064171
12174.663298	79.851667	1668.748047	18.852734
12174.663298	79.851667	1667.721680	12.241444
12174.663298	79.851667	1666.694336	52.169468
12174.663298	79.851667	1665.667969	-35.926773
12174.663298	79.851667	1664.640625	1.641385
12174.663298	79.851667	1663.613281	64.771393
12174.663298	79.851667	1662.585938	48.784595
12174.663298	79.851667	1661.557617	-67.206627
12174.663298	79.851667	1660.530273	-20.411968
12174.663298	79.851667	1659.501953	30.998491
12174.663298	79.851667	1658.473633	68.432762
12174.663298	79.851667	1657.444336	52.394054
12174.663298	79.851667	1656.416016	-3.139984
12174.663298	79.851667	1655.386719	94.634377
12174.663298	79.851667	1654.358398	1.935526
12174.663298	79.851667	1653.328125	136.797104
12174.663298	79.851667	1652.298828	215.886551
12174.663298	79.851667	1651.269531	-57.848846
12174.663298	79.851667	1650.239258	-29.825340
12174.663298	79.851667	1649.208984	165.222092
12174.663298	79.851667	1648.178711	135.184418
12174.663298	79.851667	1647.148438	144.575348
12174.663298	79.851667	1646.117188	51.928352
12174.663298	79.851667	1645.086914	68.271751
12174.663298	79.851667	1644.055664	89.233116
12174.663298	79.851667	1643.024414	84.688843
12174.663298	79.851667	1641.992188	61.600578
12174.663298	79.851667	1640.960938	50.101189
12174.663298	79.851667	1639.928711	105.761086
12174.663298	79.851667	1638.896484	237.807770
12174.663298	79.851667	1637.864258	247.096527
12174.663298	79.851667	1636.832031	147.587189
12174.663298	79.851667	1635.798828	203.161285
12174.663298	79.851667	1634.766602	27.336006
12174.663298	79.851667	1633.733398	154.616302
12174.663298	79.851667	1632.699219	108.375061
12174.663298	79.851667	1631.666016	198.584564
12174.663298	79.851667	1630.632813	184.717178
12174.663298	79.851667	1629.598633	175.472305
12174.663298	79.851667	1628.564453	254.049149
12174.663298	79.851667	1627.530273	166.228821
12174.663298	79.851667	1626.495117	318.695557
12174.663298	79.851667	1625.460938	390.264954
12174.663298	79.851667	1624.425781	270.131866
12174.663298	79.851667	1623.390625	277.030151
12174.663298	79.851667	1622.355469	226.216049
12174.663298	79.851667	1621.319336	154.646744
12174.663298	79.851667	1620.284180	274.630463
12174.663298	79.851667	1619.248047	408.406555
12174.663298	79.851667	1618.211914	295.326996
12174.663298	79.851667	1617.174805	256.085907
12174.663298	79.851667	1616.138672	339.066162
12174.663298	79.851667	1615.101563	327.498291
12174.663298	79.851667	1614.065430	219.139252
12174.663298	79.851667	1613.027344	228.339615
12174.663298	79.851667	1611.990234	272.101501
12174.663298	79.851667	1610.953125	334.276672
12174.663298	79.851667	1609.915039	198.370773
12174.663298	79.851667	1608.876953	299.683533
12174.663298	79.851667	1607.838867	258.231384
12174.663298	79.851667	1606.800781	368.709015
12174.663298	79.851667	1605.761719	320.361786
12174.663298	79.851667	1604.723633	223.726776
12174.663298	79.851667	1603.684570	343.359863
12174.663298	79.851667	1602.644531	306.558716
12174.663298	79.851667	1601.605469	313.470795
12174.663298	79.851667	1600.566406	311.190552
12174.663298	79.851667	1599.526367	290.526428
12174.663298	79.851667	1598.486328	382.483154
12174.663298	79.851667	1597.446289	398.589874
12174.663298	79.851667	1596.405273	313.619843
12174.663298	79.851667	1595.365234	350.420563
12174.663298	79.851667	1594.324219	423.952301
12174.663298	79.851667	1593.283203	279.361908
12174.663298	79.851667	1592.242188	290.921631
12174.663298	79.851667	1591.200195	371.331055
12174.663298	79.851667	1590.159180	357.648987
12174.663298	79.851667	1589.117188	341.684967
12174.663298	79.851667	1588.075195	403.719025
12174.663298	79.851667	1587.032227	380.890686
12174.663298	79.851667	1585.990234	353.500427
12174.663298	79.851667	1584.947266	236.731842
12174.663298	79.851667	1583.904297	140.647141
12174.663298	79.851667	1582.861328	381.438049
12174.663298	79.851667	1581.818359	280.805054
12174.663298	79.851667	1580.775391	271.841705
12174.663298	79.851667	1579.731445	155.261871
12174.663298	79.851667	1578.687500	265.405548
12174.663298	79.851667	1577.643555	311.425385
12174.663298	79.851667	1576.598633	334.551361
12174.663298	79.851667	1575.554688	314.210114
12174.663298	79.851667	1574.509766	220.680206
12174.663298	79.851667	1573.464844	282.738098
12174.663298	79.851667	1572.419922	230.444122
12174.663298	79.851667	1571.374023	221.624557
12174.663298	79.851667	1570.329102	333.983185
12174.663298	79.851667	1569.283203	236.043869
12174.663298	79.851667	1568.237305	206.710876
12174.663298	79.851667	1567.191406	248.229126
12174.663298	79.851667	1566.144531	198.378555
12174.663298	79.851667	1565.098633	128.014175
12174.663298	79.851667	1564.051758	142.172668
12174.663298	79.851667	1563.004883	176.888611
12174.663298	79.851667	1561.957031	186.500137
12174.663298	79.851667	1560.910156	132.235580
12174.663298	79.851667	1559.862305	178.392075
12174.663298	79.851667	1558.814453	283.856598
12174.663298	79.851667	1557.766602	81.420959
12174.663298	79.851667	1556.718750	136.738693
12174.663298	79.851667	1555.669922	144.177856
12174.663298	79.851667	1554.621094	142.517426
12174.663298	79.851667	1553.573242	108.977768
12174.663298	79.851667	1552.523438	-29.336979
12174.663298	79.851667	1551.474609	67.048141
12174.663298	79.851667	1550.424805	218.072174
12174.663298	79.851667	1549.375000	139.082382
12174.663298	79.851667	1548.325195	110.228912
12174.663298	79.851667	1547.275391	217.974396
12174.663298	79.851667	1546.225586	209.641327
12174.663298	79.851667	1545.174805	108.048134
12174.663298	79.851667	1544.124023	31.539989
12174.663298	79.851667	1543.073242	123.382751
12174.663298	79.851667	1542.022461	131.080063
12174.663298	79.851667	1540.970703	27.398153
12174.663298	79.851667	1539.919922	-26.211353
12174.663298	79.851667	1538.868164	-18.421263
12174.663298	79.851667	1537.815430	107.534340
12174.663298	79.851667	1536.763672	85.811981
12174.663298	79.851667	1535.710938	93.645744
12174.663298	79.851667	1534.659180	28.840494
12174.663298	79.851667	1533.606445	34.461945
12174.663298	79.851667	1532.552734	60.531857
12174.663298	79.851667	1531.500000	29.885216
12174.663298	79.851667	1530.446289	65.072739
12174.663298	79.851667	1529.393555	91.200302
12174.663298	79.851667	1528.338867	56.102612
12174.663298	79.851667	1527.285156	70.933632
12174.663298	79.851667	1526.231445	35.908562
12174.663298	79.851667	1525.176758	-28.545376
12174.663298	79.851667	1524.122070	-38.557129
12174.663298	79.851667	1523.067383	98.738228
12174.663298	79.851667	1522.012695	102.351608
12174.663298	79.851667	1520.957031	-23.109974
12174.663298	79.851667	1519.901367	-8.098347
12174.663298	79.851667	1518.845703	-2.121639
12174.663298	79.851667	1517.790039	155.539063
12174.663298	79.851667	1516.734375	127.590958
12174.663298	79.851667	1515.677734	169.822815
12174.663298	79.851667	1514.621094	37.876884
12174.663298	79.851667	1513.564453	46.240646
12174.663298	79.851667	1512.507813	59.152527
12174.663298	79.851667	1511.450195	162.521027
12174.663298	79.851667	1510.393555	159.639969
12174.663298	79.851667	1509.335938	143.228561
12174.663298	79.851667	1508.278320	142.669144
12174.663298	79.851667	1507.219727	128.584152
12174.663298	79.851667	1506.162109	116.794556
12174.663298	79.851667	1505.103516	233.754135
12174.663298	79.851667	1504.044922	84.285507
12174.663298	79.851667	1502.986328	115.489410
12174.663298	79.851667	1501.926758	-54.148300
12174.663298	79.851667	1500.868164	108.001617
12174.663298	79.851667	1499.808594	-36.690754
12174.663298	79.851667	1498.749023	154.772842
12174.663298	79.851667	1497.688477	-30.401419
12174.663298	79.851667	1496.628906	172.320251
12174.663298	79.851667	1495.568359	102.239815
12174.663298	79.851667	1494.507813	102.083397
12174.663298	79.851667	1493.447266	117.731476
12174.663298	79.851667	1492.386719	128.899490
12174.663298	79.851667	1491.325195	4.951977
12174.663298	79.851667	1490.263672	-6.318617
12174.663298	79.851667	1489.202148	-123.371201
12174.663298	79.851667	1488.140625	137.824112
12174.663298	79.851667	1487.079102	90.621376
12174.663298	79.851667	1486.016602	158.224182
12174.663298	79.851667	1484.954102	66.106430
12174.663298	79.851667	1483.891602	-7.948136
12174.663298	79.851667	1482.829102	5.761739
12174.663298	79.851667	1481.765625	197.113068
12174.663298	79.851667	1480.702148	258.042511
12174.663298	79.851667	1479.638672	170.661438
12174.663298	79.851667	1478.575195	78.858604
12174.663298	79.851667	1477.511719	72.483658
12174.663298	79.851667	1476.447266	-91.053032
12174.663298	79.851667	1475.382813	140.653763
12174.663298	79.851667	1474.318359	221.925858
12174.663298	79.851667	1473.253906	148.368286
12174.663298	79.851667	1472.189453	47.994286
12174.663298	79.851667	1471.124023	187.541977
12174.663298	79.851667	1470.058594	-2.470304
12174.663298	79.851667	1468.993164	114.787079
12174.663298	79.851667	1467.927734	222.907913
12174.663298	79.851667	1466.861328	116.194389
12174.663298	79.851667	1465.794922	92.253601
12174.663298	79.851667	1464.728516	41.367302
12174.663298	79.851667	1463.662109	82.585312
12174.663298	79.851667	1462.594727	-15.071287
12174.663298	79.851667	1461.528320	-41.142632
12174.663298	79.851667	1460.460938	-15.366826
12174.663298	79.851667	1459.393555	79.392296
12174.663298	79.851667	1458.326172	37.902805
12174.663298	79.851667	1457.257813	63.249893
12174.663298	79.851667	1456.189453	84.503693
12174.663298	79.851667	1455.121094	-32.826511
12174.663298	79.851667	1454.052734	35.064434
12174.663298	79.851667	1452.984375	-14.359117
12174.663298	79.851667	1451.915039	57.574589
12174.663298	79.851667	1450.845703	70.019997
12174.663298	79.851667	1449.776367	77.993195
12174.663298	79.851667	1448.707031	20.821310
12174.663298	79.851667	1447.636719	53.556591
12174.663298	79.851667	1446.567383	-54.245350
12174.663298	79.851667	1445.497070	87.264664
12174.663298	79.851667	1444.425781	135.504166
12174.663298	79.851667	1443.355469	88.904053
12174.663298	79.851667	1442.285156	169.711960
12174.663298	79.851667	1441.213867	26.697559
12174.663298	79.851667	1440.142578	125.461258
12174.663298	79.851667	1439.070313	81.101906
12174.663298	79.851667	1437.999023	166.189255
12174.663298	79.851667	1436.926758	-28.974421
12174.663298	79.851667	1435.854492	-24.677044
12174.663298	79.851667	1434.782227	31.310816
12174.663298	79.851667	1433.709961	103.709312
12174.663298	79.851667	1432.636719	-0.931846
12174.663298	79.851667	1431.563477	101.092445
12174.663298	79.851667	1430.490234	11.334358
12174.663298	79.851667	1429.416992	-52.939087
12174.663298	79.851667	1428.343750	-30.832952
12174.663298	79.851667	1427.269531	-97.973160
12174.663298	79.851667	1426.195313	-6.637687
12174.663298	79.851667	1425.121094	-104.416466
12174.663298	79.851667	1424.046875	-21.016123
12174.663298	79.851667	1422.971680	-48.322727
12174.663298	79.851667	1421.896484	-165.442032
12174.663298	79.851667	1420.821289	-19.655863
12174.663298	79.851667	1419.746094	65.323769
12174.663298	79.851667	1418.669922	-115.726990
12174.663298	79.851667	1417.594727	-106.143913
12174.663298	79.851667	1416.518555	-32.046936
12174.663298	79.851667	1415.442383	-97.709969
12174.663298	79.851667	1414.365234	-51.355293
12174.663298	79.851667	1413.289063	-26.366291
12174.663298	79.851667	1412.211914	7.962523
12174.663298	79.851667	1411.134766	-4.083813
12174.663298	79.851667	1410.057617	-129.181198
12174.663298	79.851667	1408.979492	-32.564465
12174.663298	79.851667	1407.902344	11.355346
12174.663298	79.851667	1406.824219	141.286453
12174.663298	79.851667	1405.746094	25.051804
12174.663298	79.851667	1404.666992	-0.712704
12174.663298	79.851667	1403.588867	-10.622950
12174.663298	79.851667	1402.509766	51.720909
12174.663298	79.851667	1401.430664	154.558701
12174.663298	79.851667	1400.351563	48.953289
12174.663298	79.851667	1399.271484	104.206680
12174.663298	79.851667	1398.192383	82.523521
12174.663298	79.851667	1397.112305	292.297577
12174.663298	79.851667	1396.031250	121.073692
12174.663298	79.851667	1394.951172	106.824898
12174.663298	79.851667	1393.871094	46.888420
12174.663298	79.851667	1392.790039	-36.977028
12174.663298	79.851667	1391.708984	-13.362447
12174.663298	79.851667	1390.626953	67.391815
12174.663298	79.851667	1389.545898	44.961605
12174.663298	79.851667	1388.463867	-15.202241
12174.663298	79.851667	1387.381836	95.186104
12174.663298	79.851667	1386.299805	97.662613
12174.663298	79.851667	1385.217773	9.542048
12174.663298	79.851667	1384.134766	83.828949
12174.663298	79.851667	1383.051758	11.014092
12174.663298	79.851667	1381.968750	-28.162939
12174.663298	79.851667	1380.885742	43.721504
12174.663298	79.851667	1379.802734	34.462658
12174.663298	79.851667	1378.718750	160.190659
12174.663298	79.851667	1377.634766	23.852688
12174.663298	79.851667	1376.550781	90.983734
12174.663298	79.851667	1375.465820	79.024544
12174.663298	79.851667	1374.381836	154.146301
12174.663298	79.851667	1373.296875	153.016373
12174.663298	79.851667	1372.211914	113.359146
12174.663298	79.851667	1371.126953	146.798950
12174.663298	79.851667	1370.041016	215.559372
12174.663298	79.851667	1368.955078	54.815418
12174.663298	79.851667	1367.869141	49.557114
12174.663298	79.851667	1366.783203	57.045986
12174.663298	79.851667	1365.697266	89.788185
12174.663298	79.851667	1364.610352	32.053307
12174.663298	79.851667	1363.523438	143.686142
12174.663298	79.851667	1362.436523	43.158669
12174.663298	79.851667	1361.349609	51.874477
12174.663298	79.851667	1360.261719	41.589092
12174.663298	79.851667	1359.174805	1.529158
12174.663298	79.851667	1358.086914	-6.165152
12174.663298	79.851667	1356.998047	216.548492
12174.663298	79.851667	1355.910156	192.508438
12174.663298	79.851667	1354.821289	77.792450
12174.663298	79.851667	1353.732422	94.578140
12174.663298	79.851667	1352.643555	96.236374
12174.663298	79.851667	1351.554688	17.705425
12174.663298	79.851667	1350.464844	219.038345
12174.663298	79.851667	1349.375000	171.213425
12174.663298	79.851667	1348.285156	57.752411
12174.663298	79.851667	1347.195313	-24.461618
12174.663298	79.851667	1346.105469	119.207832
12174.663298	79.851667	1345.014648	125.892548
12174.663298	79.851667	1343.923828	181.077026
12174.663298	79.851667	1342.833008	191.871902
12174.663298	79.851667	1341.741211	162.430481
12174.663298	79.851667	1340.650391	230.503098
12174.663298	79.851667	1339.558594	282.043091
12174.663298	79.851667	1338.466797	305.426483
12174.663298	79.851667	1337.374023	233.743195
12174.663298	79.851667	1336.282227	288.131104
12174.663298	79.851667	1335.189453	251.983612
12174.663298	79.851667	1334.096680	258.314392
12174.663298	79.851667	1333.003906	303.327759
12174.663298	79.851667	1331.910156	420.800781
12174.663298	79.851667	1330.817383	323.370117
12174.663298	79.851667	1329.723633	383.390808
12174.663298	79.851667	1328.629883	239.091751
12174.663298	79.851667	1327.535156	193.402832
12174.663298	79.851667	1326.441406	245.254089
12174.663298	79.851667	1325.346680	307.395721
12174.663298	79.851667	1324.251953	106.948097
12174.663298	79.851667	1323.156250	143.834869
12174.663298	79.851667	1322.061523	258.219818
12174.663298	79.851667	1320.965820	214.286331
12174.663298	79.851667	1319.870117	132.224609
12174.663298	79.851667	1318.774414	56.306366
12174.663298	79.851667	1317.678711	149.292099
12174.663298	79.851667	1316.582031	108.612366
12174.663298	79.851667	1315.485352	162.671112
12174.663298	79.851667	1314.388672	120.127762
12174.663298	79.851667	1313.291016	118.523262
12174.663298	79.851667	1312.194336	133.214966
12174.663298	79.851667	1311.096680	67.566238
12174.663298	79.851667	1309.999023	105.749527
12174.663298	79.851667	1308.901367	120.896431
12174.663298	79.851667	1307.802734	83.850677
12174.663298	79.851667	1306.705078	82.438232
12174.663298	79.851667	1305.606445	54.342434
12174.663298	79.851667	1304.506836	54.633385
12174.663298	79.851667	1303.408203	124.844986
12174.663298	79.851667	1302.308594	114.636223
12174.663298	79.851667	1301.208984	249.958252
12174.663298	79.851667	1300.109375	103.597427
12174.663298	79.851667	1299.009766	218.571594
12174.663298	79.851667	1297.909180	181.800262
12174.663298	79.851667	1296.808594	178.587570
12174.663298	79.851667	1295.708008	63.839504
12174.663298	79.851667	1294.607422	187.004074
12174.663298	79.851667	1293.506836	133.682098
12174.663298	79.851667	1292.405273	80.341011
12174.663298	79.851667	1291.303711	187.820038
12174.663298	79.851667	1290.202148	81.473434
12174.663298	79.851667	1289.099609	66.224701
12174.663298	79.851667	1287.998047	38.138683
12174.663298	79.851667	1286.895508	-22.429028
12174.663298	79.851667	1285.792969	-40.817482
12174.663298	79.851667	1284.689453	-56.463482
12174.663298	79.851667	1283.586914	-23.049318
12174.663298	79.851667	1282.483398	-36.776962
12174.663298	79.851667	1281.379883	50.723984
12174.663298	79.851667	1280.276367	-24.191738
12174.663298	79.851667	1279.171875	-1.620078
12174.663298	79.851667	1278.067383	-38.676498
12174.663298	79.851667	1276.962891	-19.778719
12174.663298	79.851667	1275.858398	-24.035383
12174.663298	79.851667	1274.753906	21.971235
12174.663298	79.851667	1273.648438	-35.213165
12174.663298	79.851667	1272.542969	26.687025
12174.663298	79.851667	1271.437500	-1.002257
12174.663298	79.851667	1270.331055	-45.276806
12174.663298	79.851667	1269.225586	38.737553
12174.663298	79.851667	1268.119141	16.932293
12174.663298	79.851667	1267.012695	-53.475590
12174.663298	79.851667	1265.906250	-7.982913
12174.663298	79.851667	1264.798828	15.033697
12174.663298	79.851667	1263.691406	15.527064
12174.663298	79.851667	1262.583984	23.382206
12174.663298	79.851667	1261.476563	117.730728
12174.663298	79.851667	1260.368164	91.390846
12174.663298	79.851667	1259.260742	-112.730629
12174.663298	79.851667	1258.152344	37.470753
12174.663298	79.851667	1257.043945	10.942913
12174.663298	79.851667	1255.934570	-48.431946
12174.663298	79.851667	1254.825195	-70.442245
12174.663298	79.851667	1253.716797	-64.562439
12174.663298	79.851667	1252.606445	-28.192818
12174.663298	79.851667	1251.497070	-74.772415
12174.663298	79.851667	1250.387695	-62.997883
12174.663298	79.851667	1249.277344	-15.017021
12174.663298	79.851667	1248.166992	-74.836037
12174.663298	79.851667	1247.055664	12.510306
12174.663298	79.851667	1245.945313	58.445122
12174.663298	79.851667	1244.833984	7.569760
12174.663298	79.851667	1243.722656	56.058678
12174.663298	79.851667	1242.611328	96.021523
12174.663298	79.851667	1241.499023	97.636429
12174.663298	79.851667	1240.387695	53.657318
12174.663298	79.851667	1239.275391	16.574955
12174.663298	79.851667	1238.162109	96.479942
12174.663298	79.851667	1237.049805	70.711655
12174.663298	79.851667	1235.936523	93.041145
12174.663298	79.851667	1234.823242	173.243439
12174.663298	79.851667	1233.709961	41.520504
12174.663298	79.851667	1232.596680	97.119675
12174.663298	79.851667	1231.482422	38.328468
12174.663298	79.851667	1230.369141	48.241158
12174.663298	79.851667	1229.253906	126.493652
12174.663298	79.851667	1228.139648	148.791916
12174.663298	79.851667	1227.025391	191.712540
12174.663298	79.851667	1225.910156	139.103561
12174.663298	79.851667	1224.794922	124.504738
12174.663298	79.851667	1223.679688	176.492020
12174.663298	79.851667	1222.563477	146.609741
12174.663298	79.851667	1221.447266	74.387894
12174.663298	79.851667	1220.331055	95.732033
12174.663298	79.851667	1219.214844	45.986454
12174.663298	79.851667	1218.098633	160.063797
12174.663298	79.851667	1216.981445	82.928574
12174.663298	79.851667	1215.864258	91.846855
12174.663298	79.851667	1214.747070	98.080170
12174.663298	79.851667	1213.629883	191.197662
12174.663298	79.851667	1212.511719	99.801781
12174.663298	79.851667	1211.393555	121.108559
12174.663298	79.851667	1210.275391	106.467415
12174.663298	79.851667	1209.157227	129.081802
12174.663298	79.851667	1208.038086	164.716248
12174.663298	79.851667	1206.918945	132.295776
12174.663298	79.851667	1205.799805	104.333923
12174.663298	79.851667	1204.680664	263.831940
12174.663298	79.851667	1203.560547	190.424011
12174.663298	79.851667	1202.441406	188.089844
12174.663298	79.851667	1201.321289	241.450928
12174.663298	79.851667	1200.200195	172.762451
12174.663298	79.851667	1199.080078	170.615509
12174.663298	79.851667	1197.958984	93.527054
12174.663298	79.851667	1196.837891	75.713959
12174.663298	79.851667	1195.716797	140.896042
12174.663298	79.851667	1194.594727	132.344833
12174.663298	79.851667	1193.473633	154.362717
12174.663298	79.851667	1192.351563	182.404556
12174.663298	79.851667	1191.229492	87.745621
12174.663298	79.851667	1190.106445	33.945042
12174.663298	79.851667	1188.984375	-12.619818
12174.663298	79.851667	1187.861328	-15.317844
12174.663298	79.851667	1186.738281	50.602566
12174.663298	79.851667	1185.614258	-19.567545
12174.663298	79.851667	1184.491211	-77.438782
12174.663298	79.851667	1183.367188	37.186081
12174.663298	79.851667	1182.243164	-9.219395
12174.663298	79.851667	1181.119141	-64.136795
12174.663298	79.851667	1179.994141	-64.779495
12174.663298	79.851667	1178.869141	-75.493240
12174.663298	79.851667	1177.744141	-5.041348
12174.663298	79.851667	1176.619141	-77.105095
12174.663298	79.851667	1175.493164	-58.135445
12174.663298	79.851667	1174.368164	26.685387
12174.663298	79.851667	1173.242188	-76.376907
12174.663298	79.851667	1172.115234	-41.275600
12174.663298	79.851667	1170.989258	-47.680897
12174.663298	79.851667	1169.862305	-62.291256
12174.663298	79.851667	1168.735352	-91.724068
12174.663298	79.851667	1167.608398	-7.887394
12174.663298	79.851667	1166.481445	-14.518661
12174.663298	79.851667	1165.353516	-81.117470
12174.663298	79.851667	1164.225586	-112.351456
12174.663298	79.851667	1163.097656	11.124986
12174.663298	79.851667	1161.968750	17.919888
12174.663298	79.851667	1160.840820	25.244827
12174.663298	79.851667	1159.711914	14.647766
12174.663298	79.851667	1158.583008	32.776077
12174.663298	79.851667	1157.453125	24.899872
12174.663298	79.851667	1156.324219	-106.919571
12174.663298	79.851667	1155.194336	-21.812349
12174.663298	79.851667	1154.064453	-33.183285
12174.663298	79.851667	1152.933594	-21.586029
12174.663298	79.851667	1151.803711	-25.029530
12174.663298	79.851667	1150.672852	-62.312168
12174.663298	79.851667	1149.541992	-48.589939
12174.663298	79.851667	1148.411133	36.566517
12174.663298	79.851667	1147.279297	-23.024920
12174.663298	79.851667	1146.147461	-74.507019
12174.663298	79.851667	1145.015625	7.053973
12174.663298	79.851667	1143.883789	-90.874733
12174.663298	79.851667	1142.750977	-101.774597
12174.663298	79.851667	1141.619141	-75.975410
12174.663298	79.851667	1140.486328	-80.082123
12174.663298	79.851667	1139.352539	-3.433947
12174.663298	79.851667	1138.219727	-22.814205
12174.663298	79.851667	1137.085938	28.201382
12174.663298	79.851667	1135.952148	89.428162
12174.663298	79.851667	1134.818359	-8.359270
12174.663298	79.851667	1133.683594	63.970581
12174.663298	79.851667	1132.549805	21.194334
12174.663298	79.851667	1131.415039	20.066483
12174.663298	79.851667	1130.279297	134.123322
12174.663298	79.851667	1129.144531	105.302414
12174.663298	79.851667	1128.008789	44.752747
12174.663298	79.851667	1126.873047	92.768272
12174.663298	79.851667	1125.737305	27.263016
12174.663298	79.851667	1124.601563	14.048695
12174.663298	79.851667	1123.464844	12.652710
12174.663298	79.851667	1122.328125	14.799020
12174.663298	79.851667	1121.191406	60.043736
12174.663298	79.851667	1120.054688	30.079695
12174.663298	79.851667	1118.916992	65.971848
12174.663298	79.851667	1117.779297	109.974731
12174.663298	79.851667	1116.641602	59.260910
12174.663298	79.851667	1115.503906	83.015427
12174.663298	79.851667	1114.365234	108.443802
12174.663298	79.851667	1113.226563	159.074326
12174.663298	79.851667	1112.087891	124.449921
12174.663298	79.851667	1110.949219	123.121849
12174.663298	79.851667	1109.809570	33.255802
12174.663298	79.851667	1108.669922	36.010235
12174.663298	79.851667	1107.530273	54.924683
12174.663298	79.851667	1106.390625	64.925636
12174.663298	79.851667	1105.250000	74.053268
12174.663298	79.851667	1104.109375	151.661163
12174.663298	79.851667	1102.968750	171.181915
12174.663298	79.851667	1101.828125	83.504669
12174.663298	79.851667	1100.686523	56.151260
12174.663298	79.851667	1099.544922	40.674774
12174.663298	79.851667	1098.403320	115.168953
12174.663298	79.851667	1097.261719	66.555923
12174.663298	79.851667	1096.120117	76.102036
12174.663298	79.851667	1094.977539	153.263123
12174.663298	79.851667	1093.834961	61.044277
12174.663298	79.851667	1092.691406	123.091736
12174.663298	79.851667	1091.548828	38.986038
12174.663298	79.851667	1090.405273	21.903963
12174.663298	79.851667	1089.261719	42.094040
12174.663298	79.851667	1088.118164	112.651741
12174.663298	79.851667	1086.973633	86.659294
12174.663298	79.851667	1085.829102	7.716843
12174.663298	79.851667	1084.684570	28.757992
12174.663298	79.851667	1083.540039	40.334030
12174.663298	79.851667	1082.395508	93.690582
12174.663298	79.851667	1081.250000	45.723289
12174.663298	79.851667	1080.104492	-2.218846
12174.663298	79.851667	1078.958984	94.384460
12174.663298	79.851667	1077.812500	36.760849
12174.663298	79.851667	1076.666016	48.619225
12174.663298	79.851667	1075.519531	81.963524
12174.663298	79.851667	1074.373047	63.167786
12174.663298	79.851667	1073.226563	20.821400
12174.663298	79.851667	1072.079102	35.397812
12174.663298	79.851667	1070.931641	94.279816
12174.663298	79.851667	1069.784180	72.831940
12174.663298	79.851667	1068.635742	-35.110332
12174.663298	79.851667	1067.487305	76.733284
12174.663298	79.851667	1066.338867	46.942425
12174.663298	79.851667	1065.190430	26.726105
12174.663298	79.851667	1064.041992	24.805069
12174.663298	79.851667	1062.892578	56.298672
12174.663298	79.851667	1061.743164	60.441864
12174.663298	79.851667	1060.593750	51.965405
12174.663298	79.851667	1059.443359	62.051353
12174.663298	79.851667	1058.292969	53.326797
12174.663298	79.851667	1057.142578	39.971710
12174.663298	79.851667	1055.992188	125.948303
12174.663298	79.851667	1054.841797	30.785433
12174.663298	79.851667	1053.690430	143.613586
12174.663298	79.851667	1052.539063	41.002319
12174.663298	79.851667	1051.387695	44.676025
12174.663298	79.851667	1050.235352	135.729050
12174.663298	79.851667	1049.083984	11.782918
12174.663298	79.851667	1047.931641	-74.848259
12174.663298	79.851667	1046.778320	-115.070480
12174.663298	79.851667	1045.625977	66.220795
12174.663298	79.851667	1044.472656	24.283422
12174.663298	79.851667	1043.319336	74.526154
12174.663298	79.851667	1042.166016	9.531085
12174.663298	79.851667	1041.012695	26.794119
12174.663298	79.851667	1039.858398	-1.506520
12174.663298	79.851667	1038.704102	18.717649
12174.663298	79.851667	1037.549805	-18.929302
12174.663298	79.851667	1036.394531	65.283058
12174.663298	79.851667	1035.239258	67.809464
12174.663298	79.851667	1034.083984	84.822098
12174.663298	79.851667	1032.928711	-99.847916
12174.663298	79.851667	1031.773438	-5.328203
12174.663298	79.851667	1030.617188	78.224182
12174.663298	79.851667	1029.460938	68.041611
12174.663298	79.851667	1028.304688	38.303593
12174.663298	79.851667	1027.147461	79.608170
12174.663298	79.851667	1025.991211	44.820503
12174.663298	79.851667	1024.833984	5.534044
12174.663298	79.851667	1023.675781	157.158752
12174.663298	79.851667	1022.518555	53.780796
12174.663298	79.851667	1021.360352	-23.587725
12174.663298	79.851667	1020.202148	63.156013
12174.663298	79.851667	1019.043945	43.249149
12174.663298	79.851667	1017.884766	18.093830
12174.663298	79.851667	1016.726563	-18.743427
12174.663298	79.851667	1015.567383	-7.427878
12174.663298	79.851667	1014.407227	137.733643
12174.663298	79.851667	1013.248047	30.910475
12174.663298	79.851667	1012.087891	-26.125423
12174.663298	79.851667	1010.927734	-19.260891
12174.663298	79.851667	1009.767578	116.929688
12174.663298	79.851667	1008.606445	16.225586
12174.663298	79.851667	1007.446289	24.715700
12174.663298	79.851667	1006.285156	-73.111572
12174.663298	79.851667	1005.123047	29.027014
12174.663298	79.851667	1003.961914	17.442343
12174.663298	79.851667	1002.799805	-79.373833
12174.663298	79.851667	1001.637695	-12.873449
12174.663298	79.851667	1000.475586	31.554169
12174.663298	79.851667	999.312500	43.320793
12174.663298	79.851667	998.149414	-4.024265
12174.663298	79.851667	996.986328	-62.568813
12174.663298	79.851667	995.823242	-27.646759
12174.663298	79.851667	994.659180	-30.060472
12174.663298	79.851667	993.496094	6.876086
12174.663298	79.851667	992.332031	-7.750517
12174.663298	79.851667	991.166992	1.694295
12174.663298	79.851667	990.002930	-1.904651
12174.663298	79.851667	988.837891	-16.558256
12174.663298	79.851667	987.672852	31.282631
12174.663298	79.851667	986.506836	-46.297955
12174.663298	79.851667	985.341797	35.409592
12174.663298	79.851667	984.175781	47.815445
12174.663298	79.851667	983.009766	-74.112762
12174.663298	79.851667	981.843750	-20.296322
12174.663298	79.851667	980.676758	-93.950806
12174.663298	79.851667	979.509766	11.748384
12174.663298	79.851667	978.342773	123.158264
12174.663298	79.851667	977.175781	-89.866592
12174.663298	79.851667	976.007813	-35.037384
12174.663298	79.851667	974.839844	65.720512
12174.663298	79.851667	973.671875	7.077843
12174.663298	79.851667	972.503906	-42.418205
12174.663298	79.851667	971.334961	-71.338234
12174.663298	79.851667	970.166016	117.315514
12174.663298	79.851667	968.997070	23.242092
12174.663298	79.851667	967.828125	-23.096998
12174.663298	79.851667	966.658203	-50.888115
12174.663298	79.851667	965.488281	34.377754
12174.663298	79.851667	964.318359	-85.207512
12174.663298	79.851667	963.148438	-23.688278
12174.663298	79.851667	961.977539	4.594045
12174.663298	79.851667	960.806641	-58.897160
12174.663298	79.851667	959.635742	23.848438
12174.663298	79.851667	958.463867	-37.901714
12174.663298	79.851667	957.292969	-121.298744
12174.663298	79.851667	956.121094	-90.435043
12174.663298	79.851667	954.948242	31.060543
12174.663298	79.851667	953.776367	21.521542
12174.663298	79.851667	952.603516	-12.748483
12174.663298	79.851667	951.430664	65.285439
12174.663298	79.851667	950.257813	16.607759
12174.663298	79.851667	949.084961	62.589642
12174.663298	79.851667	947.911133	-10.143141
12174.663298	79.851667	946.737305	27.295485
12174.663298	79.851667	945.563477	56.135082
12174.663298	79.851667	944.388672	50.233582
12174.663298	79.851667	943.213867	-5.215552
12174.663298	79.851667	942.039063	58.135887
12174.663298	79.851667	940.864258	-49.124626
12174.663298	79.851667	939.688477	-63.700466
12174.663298	79.851667	938.513672	40.878529
12174.663298	79.851667	937.337891	15.614730
12174.663298	79.851667	936.161133	24.892458
12174.663298	79.851667	934.985352	90.438499
12174.663298	79.851667	933.808594	43.511292
12174.663298	79.851667	932.631836	24.769180
12174.663298	79.851667	931.454102	1.664022
12174.663298	79.851667	930.277344	-17.152061
12174.663298	79.851667	929.099609	15.939669
12174.663298	79.851667	927.921875	111.612473
12174.663298	79.851667	926.743164	6.370176
12174.663298	79.851667	925.565430	-3.818398
12174.663298	79.851667	924.386719	7.623687
12174.663298	79.851667	923.208008	-13.358074
12174.663298	79.851667	922.028320	64.979385
12174.663298	79.851667	920.849609	-66.095276
12174.663298	79.851667	919.669922	-64.811081
12174.663298	79.851667	919.474609	-24.263489
12174.663298	79.851667	918.309570	2.214001
12174.663298	79.851667	917.143555	2.789603
12174.663298	79.851667	915.977539	14.143211
12174.663298	79.851667	914.810547	88.020782
12174.663298	79.851667	913.644531	-101.156143
12174.663298	79.851667	912.477539	17.968073
12174.663298	79.851667	911.310547	-48.292385
12174.663298	79.851667	910.143555	-138.231430
12174.663298	79.851667	908.975586	58.360992
12174.663298	79.851667	907.807617	-12.189940
12174.663298	79.851667	906.639648	-37.499184
12174.663298	79.851667	905.471680	-30.511282
12174.663298	79.851667	904.303711	21.668333
12174.663298	79.851667	903.134766	4.960366
12174.663298	79.851667	901.965820	-46.169846
12174.663298	79.851667	900.796875	-30.601908
12174.663298	79.851667	899.626953	-19.345554
12174.663298	79.851667	898.457031	4.802113
12174.663298	79.851667	897.287109	-14.060246
12174.663298	79.851667	896.117188	156.219254
12174.663298	79.851667	894.947266	23.433359
12174.663298	79.851667	893.776367	15.306442
12174.663298	79.851667	892.605469	110.281410
12174.663298	79.851667	891.434570	-3.099977
12174.663298	79.851667	890.262695	93.977951
12174.663298	79.851667	889.091797	126.610001
12174.663298	79.851667	887.919922	4.695292
12174.663298	79.851667	886.748047	63.072739
12174.663298	79.851667	885.575195	16.299433
12174.663298	79.851667	884.403320	-2.576659
12174.663298	79.851667	883.230469	-55.760708
12174.663298	79.851667	882.057617	75.459991
12174.663298	79.851667	880.883789	24.416204
12174.663298	79.851667	879.710938	-9.467138
12174.663298	79.851667	878.537109	65.938499
12174.663298	79.851667	877.362305	-6.508971
12174.663298	79.851667	876.188477	53.862476
12174.663298	79.851667	875.013672	-89.229782
12174.663298	79.851667	873.839844	-11.747974
12174.663298	79.851667	872.664063	-58.452877
12174.663298	79.851667	871.489258	-47.361298
12174.663298	79.851667	870.313477	-36.278614
12174.663298	79.851667	869.138672	68.919891
12174.663298	79.851667	867.962891	105.629753
12174.663298	79.851667	866.786133	-37.301144
12174.663298	79.851667	865.610352	-28.387226
12174.663298	79.851667	864.433594	46.780441
12174.663298	79.851667	863.256836	-74.695251
12174.663298	79.851667	862.079102	26.081305
12174.663298	79.851667	860.902344	9.321792
12174.663298	79.851667	859.724609	-33.063923
12174.663298	79.851667	858.546875	82.573944
12174.663298	79.851667	857.368164	-85.775032
12174.663298	79.851667	856.190430	-19.275362
12174.663298	79.851667	855.011719	-31.764526
12174.663298	79.851667	853.833008	36.820839
12174.663298	79.851667	852.654297	-24.746340
12174.663298	79.851667	851.474609	-20.179876
12174.663298	79.851667	850.294922	1.436875
12174.663298	79.851667	849.115234	-21.727654
12174.663298	79.851667	847.935547	-42.756737
12174.663298	79.851667	846.754883	68.334511
12174.663298	79.851667	845.575195	-3.846372
12174.663298	79.851667	844.393555	-78.131554
12174.663298	79.851667	843.212891	-58.690155
12174.663298	79.851667	842.032227	-88.232597
12174.663298	79.851667	840.850586	18.470108
12174.663298	79.851667	839.668945	-15.343090
12174.663298	79.851667	838.486328	18.943758
12174.663298	79.851667	837.304688	-4.229726
12174.663298	79.851667	836.122070	13.013892
12174.663298	79.851667	834.939453	-18.665531
12174.663298	79.851667	833.756836	-58.842255
12174.663298	79.851667	832.573242	-28.860561
12174.663298	79.851667	831.389648	54.233116
12174.663298	79.851667	830.206055	124.538345
12174.663298	79.851667	829.022461	-4.879734
12174.663298	79.851667	827.838867	-47.170334
12174.663298	79.851667	826.654297	61.317345
12174.663298	79.851667	825.469727	118.801537
12174.663298	79.851667	824.284180	51.023617
12174.663298	79.851667	823.099609	-1.877972
12174.663298	79.851667	821.914063	-42.033241
12174.663298	79.851667	820.728516	30.249687
12174.663298	79.851667	819.542969	-69.291687
12174.663298	79.851667	818.356445	89.891350
12174.663298	79.851667	817.169922	17.926229
12174.663298	79.851667	815.983398	-28.581629
12174.663298	79.851667	814.796875	-3.027787
12174.663298	79.851667	813.609375	-70.710976
12174.663298	79.851667	812.422852	-23.990219
12174.663298	79.851667	811.235352	109.533905
12174.663298	79.851667	810.046875	60.905514
12174.663298	79.851667	808.859375	-72.386246
12174.663298	79.851667	807.670898	-8.798184
12174.663298	79.851667	806.482422	71.684624
12174.663298	79.851667	805.293945	33.654167
12174.663298	79.851667	804.104492	40.051155
12174.663298	79.851667	802.915039	21.061440
12174.663298	79.851667	801.725586	-25.413433
12174.663298	79.851667	800.536133	6.335941
12174.663298	79.851667	799.345703	-40.130848
12174.663298	79.851667	798.155273	95.128906
12174.663298	79.851667	796.964844	-10.502789
12174.663298	79.851667	795.774414	21.187134
12174.663298	79.851667	794.583008	97.201591
12174.663298	79.851667	793.392578	-46.390511
12174.663298	79.851667	792.200195	97.136002
12174.663298	79.851667	791.008789	35.891491
12174.663298	79.851667	789.816406	29.522223
12174.663298	79.851667	788.625000	25.256557
12174.663298	79.851667	787.432617	71.601318
12174.663298	79.851667	786.239258	75.747330
12174.663298	79.851667	785.046875	48.260406
12174.663298	79.851667	783.853516	75.577499
12174.663298	79.851667	782.660156	126.054718
12174.663298	79.851667	781.465820	-42.608810
12174.663298	79.851667	780.272461	-6.890182
12174.663298	79.851667	779.078125	-2.784390
12174.663298	79.851667	777.883789	34.999519
12174.663298	79.851667	776.688477	87.494629
12174.663298	79.851667	775.494141	-49.460682
12174.663298	79.851667	774.298828	-3.300666
12174.663298	79.851667	773.103516	34.415558
12174.663298	79.851667	771.907227	9.007173
12174.663298	79.851667	770.711914	15.142942
12174.663298	79.851667	769.515625	-77.549194
12174.663298	79.851667	768.318359	-37.783699
12174.663298	79.851667	767.122070	-2.248202
12174.663298	79.851667	765.924805	52.173710
12174.663298	79.851667	764.727539	-48.890263
12174.663298	79.851667	763.530273	51.705070
12174.663298	79.851667	762.333008	-7.339933
12174.663298	79.851667	761.134766	-53.773548
12174.663298	79.851667	759.936523	-14.140401
12174.663298	79.851667	758.738281	29.663433
12174.663298	79.851667	757.540039	48.261166
12174.663298	79.851667	756.340820	3.911081
12174.663298	79.851667	755.141602	53.944077
12174.663298	79.851667	753.942383	-0.893838
12174.663298	79.851667	752.742188	57.483727
12174.663298	79.851667	751.541992	-37.175804
12174.663298	79.851667	750.341797	-18.651075
12174.663298	79.851667	749.141602	22.900610
12174.663298	79.851667	747.941406	-48.684891
12174.663298	79.851667	746.740234	43.093803
12174.663298	79.851667	745.539063	74.104530
12174.663298	79.851667	744.337891	-51.906212
12174.663298	79.851667	743.135742	43.967720
12174.663298	79.851667	741.933594	139.789734
12174.663298	79.851667	740.731445	30.545862
12174.663298	79.851667	739.529297	186.962570
12174.663298	79.851667	738.326172	46.364185
12174.663298	79.851667	737.124023	129.514923
12174.663298	79.851667	735.919922	179.175705
12174.663298	79.851667	734.716797	258.060547
12174.663298	79.851667	733.513672	257.504303
12174.663298	79.851667	732.309570	210.980133
12174.663298	79.851667	731.105469	214.586716
12174.663298	79.851667	729.900391	287.085327
12174.663298	79.851667	728.696289	234.283981
12174.663298	79.851667	727.491211	152.271988
12174.663298	79.851667	726.286133	218.440491
12174.663298	79.851667	725.080078	105.145935
12174.663298	79.851667	723.874023	58.634289
12174.663298	79.851667	722.668945	139.340729
12174.663298	79.851667	721.461914	17.755569
12174.663298	79.851667	720.255859	19.197458
12174.663298	79.851667	719.048828	45.635387
12174.663298	79.851667	717.841797	26.208181
12174.663298	79.851667	716.634766	108.854988
12174.663298	79.851667	715.427734	26.911692
12174.663298	79.851667	714.219727	24.119907
12174.663298	79.851667	713.011719	33.807465
12174.663298	79.851667	711.803711	24.743847
12174.663298	79.851667	710.594727	-7.220963
12174.663298	79.851667	709.385742	-55.831360
12174.663298	79.851667	708.176758	20.377203
12174.663298	79.851667	706.967773	-76.080177
12174.663298	79.851667	705.758789	43.739067
12174.663298	79.851667	704.548828	42.918774
12174.663298	79.851667	703.338867	-43.131836
12174.663298	79.851667	702.127930	-27.337494
12174.663298	79.851667	700.917969	102.703384
12174.663298	79.851667	699.707031	54.041256
12174.663298	79.851667	698.496094	24.075636
12174.663298	79.851667	697.285156	0.337496
12174.663298	79.851667	696.073242	28.490917
12174.663298	79.851667	694.861328	104.352692
12174.663298	79.851667	693.649414	88.869797
12174.663298	79.851667	692.436523	27.739260
12174.663298	79.851667	691.224609	30.917297
12174.663298	79.851667	690.011719	100.436378
12174.663298	79.851667	688.798828	-31.190590
12174.663298	79.851667	687.584961	61.084190
12174.663298	79.851667	686.372070	-26.988529
12174.663298	79.851667	685.158203	32.066761
12174.663298	79.851667	683.943359	113.868904
12174.663298	79.851667	682.729492	23.725866
12174.663298	79.851667	681.514648	41.277386
12174.663298	79.851667	680.299805	29.824789
12174.663298	79.851667	679.084961	78.384422
12174.663298	79.851667	677.869141	-1.387581
12174.663298	79.851667	676.653320	129.883377
12174.663298	79.851667	675.437500	76.994171
12174.663298	79.851667	674.221680	117.172592
12174.663298	79.851667	673.004883	66.346207
12174.663298	79.851667	671.789063	75.473831
12174.663298	79.851667	670.571289	18.448023
12174.663298	79.851667	669.354492	-50.965309
12174.663298	79.851667	668.136719	38.702946
12174.663298	79.851667	666.919922	142.776947
12174.663298	79.851667	665.701172	-50.560123
12174.663298	79.851667	664.483398	76.168739
12174.663298	79.851667	663.264648	25.318800
12174.663298	79.851667	662.045898	19.875900
12174.663298	79.851667	660.827148	28.862778
12174.663298	79.851667	659.608398	31.643225
12174.663298	79.851667	658.388672	63.279968
12174.663298	79.851667	657.168945	92.827026
12174.663298	79.851667	655.949219	31.642584
12174.663298	79.851667	654.728516	-6.859583
12174.663298	79.851667	653.507813	86.517647
12174.663298	79.851667	652.287109	-5.572598
12174.663298	79.851667	651.066406	17.705656
12174.663298	79.851667	649.844727	26.544224
12174.663298	79.851667	648.623047	64.188629
12174.663298	79.851667	647.401367	-34.052486
12174.663298	79.851667	646.179688	108.516975
12174.663298	79.851667	644.957031	133.731384
12174.663298	79.851667	643.734375	6.695429
12174.663298	79.851667	642.511719	-29.807615
12174.663298	79.851667	641.289063	52.952541
12174.663298	79.851667	640.065430	-8.243002
12174.663298	79.851667	638.841797	43.618473
12174.663298	79.851667	637.618164	33.796070
12174.663298	79.851667	636.393555	19.854563
12174.663298	79.851667	635.168945	77.797180
12174.663298	79.851667	633.944336	43.288559
12174.663298	79.851667	632.719727	33.419113
12174.663298	79.851667	631.494141	46.120033
12174.663298	79.851667	630.269531	-2.766715
12174.663298	79.851667	629.042969	18.116215
12174.663298	79.851667	627.817383	-34.874229
12174.663298	79.851667	626.590820	57.766060
12174.663298	79.851667	625.365234	97.039536
12174.663298	79.851667	624.137695	23.523653
12174.663298	79.851667	622.911133	48.412888
12174.663298	79.851667	621.683594	50.735935
12174.663298	79.851667	620.456055	118.608246
12174.663298	79.851667	619.228516	71.728409
12174.663298	79.851667	618.000977	102.678818
12174.663298	79.851667	616.772461	78.319290
12174.663298	79.851667	615.543945	-42.256172
12174.663298	79.851667	614.314453	-105.486839
12174.663298	79.851667	613.085938	-86.852203
12174.663298	79.851667	611.856445	-0.727287
12174.663298	79.851667	610.626953	44.441940
12174.663298	79.851667	609.397461	-57.654701
12174.663298	79.851667	608.166992	-137.230927
12174.663298	79.851667	606.936523	-118.670197
12174.663298	79.851667	605.706055	-55.168652
12174.663298	79.851667	604.474609	4.207181
12174.663298	79.851667	603.244141	0.222092
12174.663298	79.851667	602.012695	24.819073
12174.663298	79.851667	600.780273	-54.742241
12174.663298	79.851667	599.548828	-17.916725
12174.663298	79.851667	598.316406	-15.815880
12174.663298	79.851667	597.083984	114.830734
12174.663298	79.851667	595.851563	12.834064
12174.663298	79.851667	594.618164	80.166107
12174.663298	79.851667	593.384766	47.534592
12174.663298	79.851667	592.151367	-48.297146
12174.663298	79.851667	590.917969	-156.328461
12174.663298	79.851667	589.683594	-58.488255
12174.663298	79.851667	588.449219	-48.313633
12174.663298	79.851667	587.214844	10.738038
12174.663298	79.851667	585.979492	4.580621
12174.663298	79.851667	584.745117	51.360497
12174.663298	79.851667	583.509766	-123.793259
12174.663298	79.851667	582.273438	0.318718
12174.663298	79.851667	581.038086	57.216869
12174.663298	79.851667	579.801758	105.943565
12174.663298	79.851667	578.565430	59.039639
12174.663298	79.851667	577.329102	52.820435
12174.663298	79.851667	576.091797	127.923164
12174.663298	79.851667	574.854492	56.626465
12174.663298	79.851667	573.617188	-10.582678
12174.663298	79.851667	572.378906	-4.623223
12174.663298	79.851667	571.141602	17.579567
12174.663298	79.851667	569.903320	66.168320
12174.663298	79.851667	568.664063	-68.026489
12174.663298	79.851667	567.425781	47.541588
12174.663298	79.851667	566.186523	-37.891594
12174.663298	79.851667	564.947266	-38.063953
12174.663298	79.851667	563.708008	-5.780257
12174.663298	79.851667	562.467773	4.169404
12174.663298	79.851667	561.227539	10.052734
12174.663298	79.851667	559.987305	38.230984
12174.663298	79.851667	558.747070	44.093227
12174.663298	79.851667	557.505859	3.332020
12174.663298	79.851667	556.264648	29.449947
12174.663298	79.851667	555.023438	-27.507915
12174.663298	79.851667	553.781250	22.898777
12174.663298	79.851667	552.539063	-1.645014
12174.663298	79.851667	551.296875	12.283470
12174.663298	79.851667	550.054688	18.104790
12174.663298	79.851667	548.811523	-18.578865
12174.663298	79.851667	547.569336	-4.669191
12174.663298	79.851667	546.325195	11.250918
12174.663298	79.851667	545.082031	15.027090
12174.663298	79.851667	543.837891	57.213390
12174.663298	79.851667	542.593750	-62.342621
12174.663298	79.851667	541.349609	66.741020
12174.663298	79.851667	540.105469	11.887545
12174.663298	79.851667	538.860352	5.537961
12174.663298	79.851667	537.615234	-14.950409
12174.663298	79.851667	536.369141	-39.473228
12174.663298	79.851667	535.124023	-140.705872
12174.663298	79.851667	533.877930	-155.104828
12174.663298	79.851667	532.631836	-20.165077
12174.663298	79.851667	531.384766	-32.572605
12174.663298	79.851667	530.138672	-36.907806
12174.663298	79.851667	528.891602	-107.797379
12174.663298	79.851667	527.643555	-1.224640
12174.663298	79.851667	526.396484	30.713638
12174.663298	79.851667	525.148438	-64.338753
12174.663298	79.851667	523.900391	5.879031
12174.663298	79.851667	522.652344	-14.592180
12174.663298	79.851667	521.403320	-24.986998
12174.663298	79.851667	520.154297	-23.297281
12174.663298	79.851667	518.905273	68.987755
12174.663298	79.851667	517.656250	4.228236
12174.663298	79.851667	516.406250	-86.668137
12174.663298	79.851667	515.156250	-52.784077
12174.663298	79.851667	513.906250	-45.066837
12174.663298	79.851667	512.655273	-43.389767
12174.663298	79.851667	511.404297	-77.907616
12174.663298	79.851667	510.153320	-29.991976
12174.663298	79.851667	508.902344	-20.285957
12174.663298	79.851667	507.650391	3.478418
12174.663298	79.851667	506.398438	-4.913205
12174.663298	79.851667	505.146484	-107.704292
12174.663298	79.851667	503.893555	-29.725788
12174.663298	79.851667	502.641602	-20.042601
12174.663298	79.851667	501.388672	13.719574
12174.663298	79.851667	500.134766	-0.700115
12174.663298	79.851667	498.881836	-71.293365
12174.663298	79.851667	497.627930	34.662468
12174.663298	79.851667	496.374023	60.349438
12174.663298	79.851667	495.119141	21.858139
12174.663298	79.851667	493.865234	25.479305
12174.663298	79.851667	492.610352	17.068579
12174.663298	79.851667	491.355469	-53.459625
12174.663298	79.851667	490.099609	78.376350
12174.663298	79.851667	488.843750	-4.161458
12174.663298	79.851667	487.587891	-6.568398
12174.663298	79.851667	486.332031	97.130119
12174.663298	79.851667	485.075195	-7.391695
12174.663298	79.851667	483.818359	12.200657
12174.663298	79.851667	482.561523	25.776743
12174.663298	79.851667	481.304688	3.335263
12174.663298	79.851667	480.046875	18.893841
12174.663298	79.851667	478.789063	58.432919
12174.663298	79.851667	477.531250	61.965305
12174.663298	79.851667	476.272461	55.494392
12174.663298	79.851667	475.013672	47.020111
12174.663298	79.851667	473.754883	44.534695
12174.663298	79.851667	472.496094	113.945160
12174.663298	79.851667	471.236328	-58.308189
12174.663298	79.851667	469.976563	29.042328
12174.663298	79.851667	468.716797	22.531595
12174.663298	79.851667	467.456055	-19.908966
12174.663298	79.851667	466.196289	97.271904
12174.663298	79.851667	464.935547	52.815468
12174.663298	79.851667	463.673828	169.902725
12174.663298	79.851667	462.413086	101.497520
12174.663298	79.851667	461.151367	37.093418
12174.663298	79.851667	459.889648	-17.332294
12174.663298	79.851667	458.626953	-19.944386
12174.663298	79.851667	457.364258	39.185318
12174.663298	79.851667	456.101563	14.620251
12174.663298	79.851667	454.838867	-117.481209
12174.663298	79.851667	453.575195	-8.652142
12174.663298	79.851667	452.312500	-7.370897
12174.663298	79.851667	451.047852	-16.063559
12174.663298	79.851667	449.784180	74.706360
12174.663298	79.851667	448.519531	103.749779
12174.663298	79.851667	447.254883	47.243031
12174.663298	79.851667	445.990234	-27.157923
12174.663298	79.851667	444.725586	65.427223
12174.663298	79.851667	443.459961	-56.696869
12174.663298	79.851667	442.194336	17.916080
12174.663298	79.851667	440.927734	30.883120
12174.663298	79.851667	439.662109	27.927107
12174.663298	79.851667	438.395508	18.982647
12174.663298	79.851667	437.127930	61.624584
12174.663298	79.851667	435.861328	-26.783081
12174.663298	79.851667	434.593750	-10.015720
12174.663298	79.851667	433.326172	62.259075
12174.663298	79.851667	432.058594	201.905380
12174.663298	79.851667	430.790039	105.458656
12174.663298	79.851667	429.521484	3.064519
12174.663298	79.851667	428.252930	-93.380875
12174.663298	79.851667	426.984375	75.736389
12174.663298	79.851667	425.714844	131.793030
12174.663298	79.851667	424.445313	128.348404
12174.663298	79.851667	423.174805	71.379189
12174.663298	79.851667	421.905273	125.272293
12174.663298	79.851667	420.634766	95.939903
12174.663298	79.851667	419.364258	114.067551
12174.663298	79.851667	418.092773	120.255577
12174.663298	79.851667	416.822266	118.470619
12174.663298	79.851667	415.550781	63.218063
12174.663298	79.851667	414.278320	79.115601
12174.663298	79.851667	413.006836	-5.888820
12174.663298	79.851667	411.734375	33.604298
12174.663298	79.851667	410.461914	88.820969
12174.663298	79.851667	409.188477	120.229218
12174.663298	79.851667	407.916016	66.610199
12174.663298	79.851667	406.642578	113.658417
12174.663298	79.851667	405.368164	158.629562
12174.663298	79.851667	404.094727	13.987810
12174.663298	79.851667	402.820313	-6.336776
12174.663298	79.851667	401.545898	22.591757
12174.663298	79.851667	400.270508	98.762314
12174.663298	79.851667	398.996094	131.417679
12174.663298	79.851667	397.720703	142.268616
12174.663298	79.851667	396.444336	58.378929
12174.663298	79.851667	395.168945	47.358826
12174.663298	79.851667	393.892578	48.059292
12174.663298	79.851667	392.616211	72.294739
12174.663298	79.851667	391.339844	49.132813
12174.663298	79.851667	390.062500	81.006348
12174.663298	79.851667	388.785156	-13.265843
12174.663298	79.851667	387.507813	-66.278908
12174.663298	79.851667	386.229492	101.030830
12174.663298	79.851667	384.951172	102.854294
12174.663298	79.851667	383.672852	96.675705
12174.663298	79.851667	382.394531	82.496780
12174.663298	79.851667	381.115234	58.348255
12174.663298	79.851667	379.835938	49.794418
12174.663298	79.851667	378.556641	29.303310
12174.663298	79.851667	377.277344	28.320663
12174.663298	79.851667	375.997070	52.719204
12174.663298	79.851667	374.716797	88.732277
12174.663298	79.851667	373.435547	100.994156
12174.663298	79.851667	372.155273	130.757339
12174.663298	79.851667	370.874023	11.142686
12174.663298	79.851667	369.591797	117.089882
12174.663298	79.851667	368.310547	105.086067
12174.663298	79.851667	367.028320	-28.731150
12174.663298	79.851667	365.746094	-37.161388
12174.663298	79.851667	364.463867	111.082001
12174.663298	79.851667	363.180664	-11.485770
12174.663298	79.851667	361.897461	34.350971
12174.663298	79.851667	360.614258	25.086578
12174.663298	79.851667	359.330078	-5.949568
12174.663298	79.851667	358.045898	19.605568
12174.663298	79.851667	356.761719	1.837581
12174.663298	79.851667	355.477539	7.335876
12174.663298	79.851667	354.192383	0.838140
12174.663298	79.851667	352.907227	-27.431505
12174.663298	79.851667	351.622070	-7.028269
12174.663298	79.851667	350.336914	24.843113
12174.663298	79.851667	349.050781	124.876633
12174.663298	79.851667	347.764648	-4.175945
12174.663298	79.851667	346.477539	36.613331
12174.663298	79.851667	345.191406	-44.068081
12174.663298	79.851667	343.904297	-50.763401
12174.663298	79.851667	342.616211	39.914776
12174.663298	79.851667	341.329102	7.206120
12174.663298	79.851667	340.041016	24.959499
12174.663298	79.851667	338.752930	-68.898621
12174.663298	79.851667	337.463867	8.711281
12174.663298	79.851667	336.175781	44.979980
12174.663298	79.851667	334.886719	-151.295181
12174.663298	79.851667	333.596680	7.163311
12174.663298	79.851667	332.307617	-139.025894
12174.663298	79.851667	331.017578	-39.861115
12174.663298	79.851667	329.727539	-85.367493
12174.663298	79.851667	328.436523	-70.835030
12174.663298	79.851667	327.146484	-58.639496
12174.663298	79.851667	325.855469	9.629559
12174.663298	79.851667	324.563477	-56.942627
12174.663298	79.851667	323.272461	-30.427731
12174.663298	79.851667	321.980469	28.727926
12174.663298	79.851667	320.688477	-70.237320
12174.663298	79.851667	319.395508	-64.541786
12174.663298	79.851667	318.103516	125.530235
12174.663298	79.851667	316.810547	-37.024052
12174.663298	79.851667	315.516602	-94.989777
12174.663298	79.851667	314.223633	42.963634
12174.663298	79.851667	312.929688	-39.308876
12174.663298	79.851667	311.635742	111.151016
12174.663298	79.851667	310.340820	113.342499
12174.663298	79.851667	309.045898	21.759926
12174.663298	79.851667	307.750977	123.884819
12174.663298	79.851667	306.456055	75.901649
12174.663298	79.851667	305.160156	31.237940
12174.663298	79.851667	303.865234	50.083153
12174.663298	79.851667	302.568359	233.227509
12174.663298	79.851667	301.272461	208.131287
12174.663298	79.851667	299.975586	168.835831
12174.663298	79.851667	298.678711	317.027771
