#X		#Y		#Wave		#Intensity
11816.032979	1452.191667	1999.980469	125.080284
11816.032979	1452.191667	1999.016602	-265.528839
11816.032979	1452.191667	1998.052734	-9.911180
11816.032979	1452.191667	1997.087891	-84.184586
11816.032979	1452.191667	1996.123047	7.377116
11816.032979	1452.191667	1995.158203	-37.536152
11816.032979	1452.191667	1994.193359	53.603291
11816.032979	1452.191667	1993.228516	-51.098873
11816.032979	1452.191667	1992.262695	-131.178070
11816.032979	1452.191667	1991.297852	224.268555
11816.032979	1452.191667	1990.332031	-88.804955
11816.032979	1452.191667	1989.366211	-6.007874
11816.032979	1452.191667	1988.399414	182.986542
11816.032979	1452.191667	1987.433594	139.251892
11816.032979	1452.191667	1986.466797	184.420212
11816.032979	1452.191667	1985.500977	76.135742
11816.032979	1452.191667	1984.534180	-61.907738
11816.032979	1452.191667	1983.567383	5.122109
11816.032979	1452.191667	1982.599609	235.105270
11816.032979	1452.191667	1981.632813	-31.739178
11816.032979	1452.191667	1980.665039	-66.390778
11816.032979	1452.191667	1979.697266	298.980957
11816.032979	1452.191667	1978.729492	98.618713
11816.032979	1452.191667	1977.761719	-3.012288
11816.032979	1452.191667	1976.792969	189.044815
11816.032979	1452.191667	1975.825195	198.306625
11816.032979	1452.191667	1974.856445	150.721481
11816.032979	1452.191667	1973.887695	-10.419157
11816.032979	1452.191667	1972.918945	-33.447430
11816.032979	1452.191667	1971.949219	-137.930801
11816.032979	1452.191667	1970.980469	73.167259
11816.032979	1452.191667	1970.010742	5.537943
11816.032979	1452.191667	1969.041016	154.771484
11816.032979	1452.191667	1968.071289	-50.984222
11816.032979	1452.191667	1967.101563	147.360031
11816.032979	1452.191667	1966.130859	323.397980
11816.032979	1452.191667	1965.161133	-148.448853
11816.032979	1452.191667	1964.190430	44.712620
11816.032979	1452.191667	1963.219727	-121.711090
11816.032979	1452.191667	1962.249023	76.202789
11816.032979	1452.191667	1961.277344	126.326675
11816.032979	1452.191667	1960.306641	-128.732315
11816.032979	1452.191667	1959.334961	-66.365112
11816.032979	1452.191667	1958.363281	104.174454
11816.032979	1452.191667	1957.391602	45.902534
11816.032979	1452.191667	1956.419922	307.274658
11816.032979	1452.191667	1955.447266	47.332493
11816.032979	1452.191667	1954.474609	-28.189615
11816.032979	1452.191667	1953.501953	127.298393
11816.032979	1452.191667	1952.529297	81.228333
11816.032979	1452.191667	1951.556641	91.658875
11816.032979	1452.191667	1950.583984	369.785370
11816.032979	1452.191667	1949.610352	127.188049
11816.032979	1452.191667	1948.636719	250.493546
11816.032979	1452.191667	1947.663086	86.535660
11816.032979	1452.191667	1946.689453	141.060257
11816.032979	1452.191667	1945.715820	168.565109
11816.032979	1452.191667	1944.741211	169.061737
11816.032979	1452.191667	1943.767578	-61.018990
11816.032979	1452.191667	1942.792969	91.565002
11816.032979	1452.191667	1941.818359	217.119659
11816.032979	1452.191667	1940.842773	72.947289
11816.032979	1452.191667	1939.868164	311.209015
11816.032979	1452.191667	1938.892578	348.424042
11816.032979	1452.191667	1937.916992	152.858994
11816.032979	1452.191667	1936.941406	-167.565033
11816.032979	1452.191667	1935.965820	144.051498
11816.032979	1452.191667	1934.990234	107.824860
11816.032979	1452.191667	1934.013672	15.301194
11816.032979	1452.191667	1933.037109	101.518364
11816.032979	1452.191667	1932.060547	236.662811
11816.032979	1452.191667	1931.083984	-34.438446
11816.032979	1452.191667	1930.107422	281.744720
11816.032979	1452.191667	1929.129883	-84.640198
11816.032979	1452.191667	1928.153320	28.469484
11816.032979	1452.191667	1927.175781	249.135574
11816.032979	1452.191667	1926.198242	46.795895
11816.032979	1452.191667	1925.219727	3.420149
11816.032979	1452.191667	1924.242188	-101.017197
11816.032979	1452.191667	1923.263672	119.561256
11816.032979	1452.191667	1922.285156	129.985703
11816.032979	1452.191667	1921.306641	-11.011026
11816.032979	1452.191667	1920.328125	275.409363
11816.032979	1452.191667	1919.349609	34.370270
11816.032979	1452.191667	1918.370117	232.827560
11816.032979	1452.191667	1917.391602	50.495407
11816.032979	1452.191667	1916.412109	275.751984
11816.032979	1452.191667	1915.431641	344.798767
11816.032979	1452.191667	1914.452148	84.541069
11816.032979	1452.191667	1913.472656	-146.334854
11816.032979	1452.191667	1912.492188	49.601353
11816.032979	1452.191667	1911.511719	-22.685921
11816.032979	1452.191667	1910.531250	-143.677109
11816.032979	1452.191667	1909.550781	30.272356
11816.032979	1452.191667	1908.569336	36.049839
11816.032979	1452.191667	1907.588867	-38.541340
11816.032979	1452.191667	1906.607422	106.113403
11816.032979	1452.191667	1905.625977	-58.529667
11816.032979	1452.191667	1904.644531	-130.576157
11816.032979	1452.191667	1903.662109	-285.345734
11816.032979	1452.191667	1902.680664	110.003654
11816.032979	1452.191667	1901.698242	-183.417267
11816.032979	1452.191667	1900.715820	-70.418083
11816.032979	1452.191667	1899.733398	-93.661156
11816.032979	1452.191667	1898.750000	-58.513050
11816.032979	1452.191667	1897.767578	180.891388
11816.032979	1452.191667	1896.784180	-112.186623
11816.032979	1452.191667	1895.800781	-186.381104
11816.032979	1452.191667	1894.817383	74.827133
11816.032979	1452.191667	1893.833984	27.383015
11816.032979	1452.191667	1892.850586	-44.321270
11816.032979	1452.191667	1891.866211	267.761749
11816.032979	1452.191667	1890.881836	-177.898651
11816.032979	1452.191667	1889.897461	134.120956
11816.032979	1452.191667	1888.913086	108.626701
11816.032979	1452.191667	1887.927734	-79.458923
11816.032979	1452.191667	1886.943359	16.447386
11816.032979	1452.191667	1885.958008	-207.916397
11816.032979	1452.191667	1884.972656	196.051636
11816.032979	1452.191667	1883.987305	8.138059
11816.032979	1452.191667	1883.001953	-94.829552
11816.032979	1452.191667	1882.015625	-112.901421
11816.032979	1452.191667	1881.029297	-43.702278
11816.032979	1452.191667	1880.042969	-56.912415
11816.032979	1452.191667	1879.056641	-237.290253
11816.032979	1452.191667	1878.070313	-201.994598
11816.032979	1452.191667	1877.083984	-108.578835
11816.032979	1452.191667	1876.096680	-63.626373
11816.032979	1452.191667	1875.109375	-30.789442
11816.032979	1452.191667	1874.122070	-56.055027
11816.032979	1452.191667	1873.134766	-224.095673
11816.032979	1452.191667	1872.146484	-125.904961
11816.032979	1452.191667	1871.159180	-100.323921
11816.032979	1452.191667	1870.170898	-57.819550
11816.032979	1452.191667	1869.182617	-218.471878
11816.032979	1452.191667	1868.194336	24.724228
11816.032979	1452.191667	1867.205078	74.433365
11816.032979	1452.191667	1866.216797	83.035149
11816.032979	1452.191667	1865.227539	159.293060
11816.032979	1452.191667	1864.238281	-97.898407
11816.032979	1452.191667	1863.249023	45.997131
11816.032979	1452.191667	1862.259766	-25.114813
11816.032979	1452.191667	1861.269531	-93.792351
11816.032979	1452.191667	1860.279297	180.376602
11816.032979	1452.191667	1859.290039	222.712326
11816.032979	1452.191667	1858.298828	134.700150
11816.032979	1452.191667	1857.308594	10.521214
11816.032979	1452.191667	1856.318359	219.300964
11816.032979	1452.191667	1855.327148	336.334778
11816.032979	1452.191667	1854.335938	-41.053188
11816.032979	1452.191667	1853.344727	54.263287
11816.032979	1452.191667	1852.353516	84.447487
11816.032979	1452.191667	1851.362305	206.195908
11816.032979	1452.191667	1850.370117	96.546051
11816.032979	1452.191667	1849.377930	179.667847
11816.032979	1452.191667	1848.385742	332.601532
11816.032979	1452.191667	1847.393555	-13.075537
11816.032979	1452.191667	1846.401367	279.465973
11816.032979	1452.191667	1845.408203	131.308380
11816.032979	1452.191667	1844.415039	144.459579
11816.032979	1452.191667	1843.421875	186.465698
11816.032979	1452.191667	1842.428711	60.009560
11816.032979	1452.191667	1841.435547	-56.796318
11816.032979	1452.191667	1840.441406	33.265106
11816.032979	1452.191667	1839.448242	-37.842144
11816.032979	1452.191667	1838.454102	-214.739883
11816.032979	1452.191667	1837.459961	98.794739
11816.032979	1452.191667	1836.464844	157.424011
11816.032979	1452.191667	1835.470703	355.379730
11816.032979	1452.191667	1834.475586	188.053558
11816.032979	1452.191667	1833.480469	179.299332
11816.032979	1452.191667	1832.485352	-48.024311
11816.032979	1452.191667	1831.490234	180.929565
11816.032979	1452.191667	1830.495117	116.882912
11816.032979	1452.191667	1829.499023	-290.404510
11816.032979	1452.191667	1828.502930	-76.024002
11816.032979	1452.191667	1827.506836	219.822510
11816.032979	1452.191667	1826.510742	47.745689
11816.032979	1452.191667	1825.513672	168.306000
11816.032979	1452.191667	1824.517578	8.228038
11816.032979	1452.191667	1823.520508	59.156879
11816.032979	1452.191667	1822.523438	11.751378
11816.032979	1452.191667	1821.526367	74.575317
11816.032979	1452.191667	1820.529297	65.454208
11816.032979	1452.191667	1819.531250	142.542130
11816.032979	1452.191667	1818.533203	25.548885
11816.032979	1452.191667	1817.535156	179.176941
11816.032979	1452.191667	1816.537109	126.792847
11816.032979	1452.191667	1815.539063	426.296387
11816.032979	1452.191667	1814.540039	120.097343
11816.032979	1452.191667	1813.541992	225.575409
11816.032979	1452.191667	1812.542969	-32.699196
11816.032979	1452.191667	1811.543945	103.780464
11816.032979	1452.191667	1810.543945	22.521744
11816.032979	1452.191667	1809.544922	89.510117
11816.032979	1452.191667	1808.544922	146.862396
11816.032979	1452.191667	1807.544922	256.736115
11816.032979	1452.191667	1806.544922	340.236176
11816.032979	1452.191667	1805.544922	156.047592
11816.032979	1452.191667	1804.544922	43.552654
11816.032979	1452.191667	1803.543945	57.639332
11816.032979	1452.191667	1802.542969	-19.069756
11816.032979	1452.191667	1801.541992	88.045982
11816.032979	1452.191667	1800.541016	113.911827
11816.032979	1452.191667	1799.539063	263.821869
11816.032979	1452.191667	1798.538086	72.401291
11816.032979	1452.191667	1797.536133	284.195740
11816.032979	1452.191667	1796.534180	188.154358
11816.032979	1452.191667	1795.532227	146.950516
11816.032979	1452.191667	1794.529297	418.065613
11816.032979	1452.191667	1793.527344	295.678040
11816.032979	1452.191667	1792.524414	42.186634
11816.032979	1452.191667	1791.521484	117.603233
11816.032979	1452.191667	1790.518555	83.337616
11816.032979	1452.191667	1789.514648	15.679597
11816.032979	1452.191667	1788.511719	188.550308
11816.032979	1452.191667	1787.507813	27.920345
11816.032979	1452.191667	1786.503906	-32.707855
11816.032979	1452.191667	1785.500000	-143.356140
11816.032979	1452.191667	1784.496094	5.393150
11816.032979	1452.191667	1783.491211	199.235825
11816.032979	1452.191667	1782.486328	36.100334
11816.032979	1452.191667	1781.481445	-112.759727
11816.032979	1452.191667	1780.476563	80.827240
11816.032979	1452.191667	1779.471680	195.823837
11816.032979	1452.191667	1778.465820	27.826080
11816.032979	1452.191667	1777.460938	273.396973
11816.032979	1452.191667	1776.455078	93.453354
11816.032979	1452.191667	1775.449219	165.359680
11816.032979	1452.191667	1774.442383	80.401245
11816.032979	1452.191667	1773.436523	-163.700302
11816.032979	1452.191667	1772.429688	7.762551
11816.032979	1452.191667	1771.422852	138.744324
11816.032979	1452.191667	1770.416016	53.619854
11816.032979	1452.191667	1769.409180	34.918251
11816.032979	1452.191667	1768.402344	158.524139
11816.032979	1452.191667	1767.394531	54.285004
11816.032979	1452.191667	1766.386719	116.048286
11816.032979	1452.191667	1765.378906	229.899796
11816.032979	1452.191667	1764.371094	6.981983
11816.032979	1452.191667	1763.362305	194.167587
11816.032979	1452.191667	1762.354492	229.550674
11816.032979	1452.191667	1761.345703	250.634537
11816.032979	1452.191667	1760.336914	75.017014
11816.032979	1452.191667	1759.328125	122.057419
11816.032979	1452.191667	1758.318359	-72.541672
11816.032979	1452.191667	1757.308594	47.780651
11816.032979	1452.191667	1756.299805	257.960510
11816.032979	1452.191667	1755.290039	112.967468
11816.032979	1452.191667	1754.279297	100.479050
11816.032979	1452.191667	1753.269531	69.014252
11816.032979	1452.191667	1752.258789	44.591137
11816.032979	1452.191667	1751.249023	-119.413666
11816.032979	1452.191667	1750.238281	220.230591
11816.032979	1452.191667	1749.226563	25.385136
11816.032979	1452.191667	1748.215820	-44.164829
11816.032979	1452.191667	1747.204102	280.902954
11816.032979	1452.191667	1746.193359	97.795784
11816.032979	1452.191667	1745.181641	-78.222862
11816.032979	1452.191667	1744.168945	24.458290
11816.032979	1452.191667	1743.157227	-21.720657
11816.032979	1452.191667	1742.144531	-261.551239
11816.032979	1452.191667	1741.132813	-140.182922
11816.032979	1452.191667	1740.120117	-59.048100
11816.032979	1452.191667	1739.106445	-251.730728
11816.032979	1452.191667	1738.093750	51.036076
11816.032979	1452.191667	1737.080078	98.876297
11816.032979	1452.191667	1736.067383	73.539467
11816.032979	1452.191667	1735.053711	-3.725597
11816.032979	1452.191667	1734.040039	-257.825226
11816.032979	1452.191667	1733.025391	13.699840
11816.032979	1452.191667	1732.011719	-162.660126
11816.032979	1452.191667	1730.997070	-202.369583
11816.032979	1452.191667	1729.982422	141.835266
11816.032979	1452.191667	1728.967773	-22.855822
11816.032979	1452.191667	1727.952148	-29.786510
11816.032979	1452.191667	1726.937500	-107.391762
11816.032979	1452.191667	1725.921875	7.974802
11816.032979	1452.191667	1724.906250	127.948433
11816.032979	1452.191667	1723.890625	113.705223
11816.032979	1452.191667	1722.875000	-121.717392
11816.032979	1452.191667	1721.858398	-225.405487
11816.032979	1452.191667	1720.841797	61.243214
11816.032979	1452.191667	1719.825195	-145.999451
11816.032979	1452.191667	1718.808594	-151.064743
11816.032979	1452.191667	1717.791992	-278.391754
11816.032979	1452.191667	1716.774414	-55.625370
11816.032979	1452.191667	1715.756836	68.333107
11816.032979	1452.191667	1714.739258	361.302429
11816.032979	1452.191667	1713.721680	125.722443
11816.032979	1452.191667	1712.704102	70.970535
11816.032979	1452.191667	1711.685547	-96.500702
11816.032979	1452.191667	1710.667969	-76.190918
11816.032979	1452.191667	1709.649414	80.150322
11816.032979	1452.191667	1708.630859	72.151382
11816.032979	1452.191667	1707.611328	120.391663
11816.032979	1452.191667	1706.592773	67.727379
11816.032979	1452.191667	1705.573242	38.471142
11816.032979	1452.191667	1704.553711	6.831611
11816.032979	1452.191667	1703.534180	-99.850876
11816.032979	1452.191667	1702.513672	9.045872
11816.032979	1452.191667	1701.494141	272.497681
11816.032979	1452.191667	1700.473633	102.422272
11816.032979	1452.191667	1699.453125	7.311724
11816.032979	1452.191667	1698.432617	-127.618568
11816.032979	1452.191667	1697.412109	-129.094635
11816.032979	1452.191667	1696.390625	-74.449539
11816.032979	1452.191667	1695.369141	52.676197
11816.032979	1452.191667	1694.347656	-220.400452
11816.032979	1452.191667	1693.326172	-109.760933
11816.032979	1452.191667	1692.304688	-90.426163
11816.032979	1452.191667	1691.282227	-197.428604
11816.032979	1452.191667	1690.260742	34.589409
11816.032979	1452.191667	1689.238281	130.888519
11816.032979	1452.191667	1688.214844	301.885254
11816.032979	1452.191667	1687.192383	234.443344
11816.032979	1452.191667	1686.168945	288.461945
11816.032979	1452.191667	1685.146484	349.435760
11816.032979	1452.191667	1684.123047	39.019737
11816.032979	1452.191667	1683.099609	64.907837
11816.032979	1452.191667	1682.075195	193.450180
11816.032979	1452.191667	1681.051758	321.917206
11816.032979	1452.191667	1680.027344	410.617828
11816.032979	1452.191667	1679.002930	69.959129
11816.032979	1452.191667	1677.978516	289.228882
11816.032979	1452.191667	1676.953125	333.454773
11816.032979	1452.191667	1675.928711	361.317780
11816.032979	1452.191667	1674.903320	412.439026
11816.032979	1452.191667	1673.877930	377.264832
11816.032979	1452.191667	1672.852539	498.208008
11816.032979	1452.191667	1671.826172	262.583252
11816.032979	1452.191667	1670.800781	80.604988
11816.032979	1452.191667	1669.774414	61.691040
11816.032979	1452.191667	1668.748047	159.182388
11816.032979	1452.191667	1667.721680	256.607056
11816.032979	1452.191667	1666.694336	698.453552
11816.032979	1452.191667	1665.667969	574.592834
11816.032979	1452.191667	1664.640625	353.016632
11816.032979	1452.191667	1663.613281	294.345428
11816.032979	1452.191667	1662.585938	510.124847
11816.032979	1452.191667	1661.557617	690.905823
11816.032979	1452.191667	1660.530273	667.002808
11816.032979	1452.191667	1659.501953	373.427032
11816.032979	1452.191667	1658.473633	191.500168
11816.032979	1452.191667	1657.444336	474.339478
11816.032979	1452.191667	1656.416016	485.245911
11816.032979	1452.191667	1655.386719	222.033295
11816.032979	1452.191667	1654.358398	416.405029
11816.032979	1452.191667	1653.328125	503.855743
11816.032979	1452.191667	1652.298828	386.984100
11816.032979	1452.191667	1651.269531	425.641754
11816.032979	1452.191667	1650.239258	984.051392
11816.032979	1452.191667	1649.208984	600.286682
11816.032979	1452.191667	1648.178711	455.575134
11816.032979	1452.191667	1647.148438	477.884277
11816.032979	1452.191667	1646.117188	481.612488
11816.032979	1452.191667	1645.086914	680.068848
11816.032979	1452.191667	1644.055664	398.639282
11816.032979	1452.191667	1643.024414	740.678833
11816.032979	1452.191667	1641.992188	433.830139
11816.032979	1452.191667	1640.960938	539.429565
11816.032979	1452.191667	1639.928711	596.333740
11816.032979	1452.191667	1638.896484	940.339172
11816.032979	1452.191667	1637.864258	999.442810
11816.032979	1452.191667	1636.832031	685.856384
11816.032979	1452.191667	1635.798828	856.048584
11816.032979	1452.191667	1634.766602	498.639099
11816.032979	1452.191667	1633.733398	823.785278
11816.032979	1452.191667	1632.699219	926.753601
11816.032979	1452.191667	1631.666016	715.202759
11816.032979	1452.191667	1630.632813	804.289001
11816.032979	1452.191667	1629.598633	449.516205
11816.032979	1452.191667	1628.564453	843.669250
11816.032979	1452.191667	1627.530273	722.401245
11816.032979	1452.191667	1626.495117	672.786560
11816.032979	1452.191667	1625.460938	600.106750
11816.032979	1452.191667	1624.425781	702.954895
11816.032979	1452.191667	1623.390625	905.045471
11816.032979	1452.191667	1622.355469	1021.652771
11816.032979	1452.191667	1621.319336	1103.593262
11816.032979	1452.191667	1620.284180	818.626953
11816.032979	1452.191667	1619.248047	875.210388
11816.032979	1452.191667	1618.211914	1095.548218
11816.032979	1452.191667	1617.174805	1039.060425
11816.032979	1452.191667	1616.138672	1206.268799
11816.032979	1452.191667	1615.101563	923.891602
11816.032979	1452.191667	1614.065430	858.296082
11816.032979	1452.191667	1613.027344	1163.715576
11816.032979	1452.191667	1611.990234	1287.033691
11816.032979	1452.191667	1610.953125	1140.815063
11816.032979	1452.191667	1609.915039	950.899780
11816.032979	1452.191667	1608.876953	1094.945435
11816.032979	1452.191667	1607.838867	1455.347412
11816.032979	1452.191667	1606.800781	1279.342896
11816.032979	1452.191667	1605.761719	1319.727173
11816.032979	1452.191667	1604.723633	1185.267456
11816.032979	1452.191667	1603.684570	1368.311401
11816.032979	1452.191667	1602.644531	1413.305176
11816.032979	1452.191667	1601.605469	1249.066895
11816.032979	1452.191667	1600.566406	1496.426880
11816.032979	1452.191667	1599.526367	1557.524292
11816.032979	1452.191667	1598.486328	1708.247192
11816.032979	1452.191667	1597.446289	1534.973145
11816.032979	1452.191667	1596.405273	1637.440918
11816.032979	1452.191667	1595.365234	1613.585571
11816.032979	1452.191667	1594.324219	1412.944580
11816.032979	1452.191667	1593.283203	1513.163330
11816.032979	1452.191667	1592.242188	1613.369629
11816.032979	1452.191667	1591.200195	1337.191040
11816.032979	1452.191667	1590.159180	1327.318115
11816.032979	1452.191667	1589.117188	1484.935059
11816.032979	1452.191667	1588.075195	1381.054443
11816.032979	1452.191667	1587.032227	1281.825562
11816.032979	1452.191667	1585.990234	1338.578979
11816.032979	1452.191667	1584.947266	1443.472046
11816.032979	1452.191667	1583.904297	1717.950684
11816.032979	1452.191667	1582.861328	1680.736450
11816.032979	1452.191667	1581.818359	1313.687378
11816.032979	1452.191667	1580.775391	1695.790527
11816.032979	1452.191667	1579.731445	1264.828369
11816.032979	1452.191667	1578.687500	1188.951782
11816.032979	1452.191667	1577.643555	1291.694458
11816.032979	1452.191667	1576.598633	1101.481689
11816.032979	1452.191667	1575.554688	1375.897095
11816.032979	1452.191667	1574.509766	1176.674927
11816.032979	1452.191667	1573.464844	1066.776367
11816.032979	1452.191667	1572.419922	1126.194214
11816.032979	1452.191667	1571.374023	1025.572510
11816.032979	1452.191667	1570.329102	1037.059082
11816.032979	1452.191667	1569.283203	897.734131
11816.032979	1452.191667	1568.237305	1103.552734
11816.032979	1452.191667	1567.191406	836.423889
11816.032979	1452.191667	1566.144531	1113.069702
11816.032979	1452.191667	1565.098633	999.149414
11816.032979	1452.191667	1564.051758	885.313965
11816.032979	1452.191667	1563.004883	1079.754395
11816.032979	1452.191667	1561.957031	867.898499
11816.032979	1452.191667	1560.910156	989.346130
11816.032979	1452.191667	1559.862305	1046.908936
11816.032979	1452.191667	1558.814453	908.334351
11816.032979	1452.191667	1557.766602	918.105591
11816.032979	1452.191667	1556.718750	916.525940
11816.032979	1452.191667	1555.669922	463.617065
11816.032979	1452.191667	1554.621094	902.120422
11816.032979	1452.191667	1553.573242	759.427612
11816.032979	1452.191667	1552.523438	885.672913
11816.032979	1452.191667	1551.474609	592.805359
11816.032979	1452.191667	1550.424805	746.481140
11816.032979	1452.191667	1549.375000	979.847778
11816.032979	1452.191667	1548.325195	612.177246
11816.032979	1452.191667	1547.275391	611.161621
11816.032979	1452.191667	1546.225586	601.106079
11816.032979	1452.191667	1545.174805	752.646179
11816.032979	1452.191667	1544.124023	729.032410
11816.032979	1452.191667	1543.073242	725.960693
11816.032979	1452.191667	1542.022461	795.714844
11816.032979	1452.191667	1540.970703	465.379639
11816.032979	1452.191667	1539.919922	746.671875
11816.032979	1452.191667	1538.868164	796.116211
11816.032979	1452.191667	1537.815430	638.840454
11816.032979	1452.191667	1536.763672	631.627197
11816.032979	1452.191667	1535.710938	538.171509
11816.032979	1452.191667	1534.659180	354.000000
11816.032979	1452.191667	1533.606445	549.096985
11816.032979	1452.191667	1532.552734	583.019775
11816.032979	1452.191667	1531.500000	514.884460
11816.032979	1452.191667	1530.446289	487.679565
11816.032979	1452.191667	1529.393555	263.204498
11816.032979	1452.191667	1528.338867	456.191437
11816.032979	1452.191667	1527.285156	277.299744
11816.032979	1452.191667	1526.231445	60.007484
11816.032979	1452.191667	1525.176758	191.935669
11816.032979	1452.191667	1524.122070	391.872559
11816.032979	1452.191667	1523.067383	-1.833743
11816.032979	1452.191667	1522.012695	245.782043
11816.032979	1452.191667	1520.957031	-20.762377
11816.032979	1452.191667	1519.901367	106.885422
11816.032979	1452.191667	1518.845703	139.470001
11816.032979	1452.191667	1517.790039	212.860901
11816.032979	1452.191667	1516.734375	-30.533272
11816.032979	1452.191667	1515.677734	262.487183
11816.032979	1452.191667	1514.621094	-5.557783
11816.032979	1452.191667	1513.564453	-316.392365
11816.032979	1452.191667	1512.507813	98.854897
11816.032979	1452.191667	1511.450195	147.749191
11816.032979	1452.191667	1510.393555	-2.205903
11816.032979	1452.191667	1509.335938	3.908777
11816.032979	1452.191667	1508.278320	93.702568
11816.032979	1452.191667	1507.219727	-49.147732
11816.032979	1452.191667	1506.162109	-164.752457
11816.032979	1452.191667	1505.103516	-81.518059
11816.032979	1452.191667	1504.044922	-194.655823
11816.032979	1452.191667	1502.986328	-206.089279
11816.032979	1452.191667	1501.926758	-95.574867
11816.032979	1452.191667	1500.868164	-97.833130
11816.032979	1452.191667	1499.808594	-312.072479
11816.032979	1452.191667	1498.749023	-131.432373
11816.032979	1452.191667	1497.688477	89.803680
11816.032979	1452.191667	1496.628906	-63.220287
11816.032979	1452.191667	1495.568359	-110.159340
11816.032979	1452.191667	1494.507813	-251.651367
11816.032979	1452.191667	1493.447266	8.075382
11816.032979	1452.191667	1492.386719	-27.332397
11816.032979	1452.191667	1491.325195	367.553192
11816.032979	1452.191667	1490.263672	134.088058
11816.032979	1452.191667	1489.202148	98.928680
11816.032979	1452.191667	1488.140625	-48.682579
11816.032979	1452.191667	1487.079102	44.662693
11816.032979	1452.191667	1486.016602	77.300957
11816.032979	1452.191667	1484.954102	157.255661
11816.032979	1452.191667	1483.891602	194.528915
11816.032979	1452.191667	1482.829102	213.888458
11816.032979	1452.191667	1481.765625	-128.645325
11816.032979	1452.191667	1480.702148	203.388123
11816.032979	1452.191667	1479.638672	202.768234
11816.032979	1452.191667	1478.575195	-13.457969
11816.032979	1452.191667	1477.511719	136.656906
11816.032979	1452.191667	1476.447266	1.631631
11816.032979	1452.191667	1475.382813	167.522049
11816.032979	1452.191667	1474.318359	162.810669
11816.032979	1452.191667	1473.253906	34.892132
11816.032979	1452.191667	1472.189453	295.200104
11816.032979	1452.191667	1471.124023	245.953003
11816.032979	1452.191667	1470.058594	365.006927
11816.032979	1452.191667	1468.993164	468.428406
11816.032979	1452.191667	1467.927734	116.899101
11816.032979	1452.191667	1466.861328	240.708023
11816.032979	1452.191667	1465.794922	377.787140
11816.032979	1452.191667	1464.728516	158.437256
11816.032979	1452.191667	1463.662109	501.916229
11816.032979	1452.191667	1462.594727	148.751633
11816.032979	1452.191667	1461.528320	298.220428
11816.032979	1452.191667	1460.460938	88.674789
11816.032979	1452.191667	1459.393555	259.483582
11816.032979	1452.191667	1458.326172	290.265930
11816.032979	1452.191667	1457.257813	283.874054
11816.032979	1452.191667	1456.189453	-111.505081
11816.032979	1452.191667	1455.121094	291.667572
11816.032979	1452.191667	1454.052734	1.290410
11816.032979	1452.191667	1452.984375	237.509857
11816.032979	1452.191667	1451.915039	198.897278
11816.032979	1452.191667	1450.845703	328.344238
11816.032979	1452.191667	1449.776367	103.579224
11816.032979	1452.191667	1448.707031	-162.214279
11816.032979	1452.191667	1447.636719	205.605713
11816.032979	1452.191667	1446.567383	132.309769
11816.032979	1452.191667	1445.497070	174.357758
11816.032979	1452.191667	1444.425781	-46.023613
11816.032979	1452.191667	1443.355469	11.865402
11816.032979	1452.191667	1442.285156	360.813385
11816.032979	1452.191667	1441.213867	242.884644
11816.032979	1452.191667	1440.142578	245.700302
11816.032979	1452.191667	1439.070313	148.254547
11816.032979	1452.191667	1437.999023	174.451279
11816.032979	1452.191667	1436.926758	291.253632
11816.032979	1452.191667	1435.854492	382.128082
11816.032979	1452.191667	1434.782227	1.117445
11816.032979	1452.191667	1433.709961	271.020355
11816.032979	1452.191667	1432.636719	36.950558
11816.032979	1452.191667	1431.563477	158.221832
11816.032979	1452.191667	1430.490234	125.501968
11816.032979	1452.191667	1429.416992	47.325905
11816.032979	1452.191667	1428.343750	125.632881
11816.032979	1452.191667	1427.269531	243.632736
11816.032979	1452.191667	1426.195313	55.767685
11816.032979	1452.191667	1425.121094	41.476974
11816.032979	1452.191667	1424.046875	440.209564
11816.032979	1452.191667	1422.971680	119.201004
11816.032979	1452.191667	1421.896484	70.383377
11816.032979	1452.191667	1420.821289	72.967384
11816.032979	1452.191667	1419.746094	-82.902710
11816.032979	1452.191667	1418.669922	232.534286
11816.032979	1452.191667	1417.594727	339.173218
11816.032979	1452.191667	1416.518555	332.532898
11816.032979	1452.191667	1415.442383	261.089874
11816.032979	1452.191667	1414.365234	306.853668
11816.032979	1452.191667	1413.289063	392.423523
11816.032979	1452.191667	1412.211914	457.055237
11816.032979	1452.191667	1411.134766	540.801147
11816.032979	1452.191667	1410.057617	636.750732
11816.032979	1452.191667	1408.979492	832.087769
11816.032979	1452.191667	1407.902344	885.365784
11816.032979	1452.191667	1406.824219	511.968170
11816.032979	1452.191667	1405.746094	608.486023
11816.032979	1452.191667	1404.666992	714.062256
11816.032979	1452.191667	1403.588867	776.743896
11816.032979	1452.191667	1402.509766	637.196350
11816.032979	1452.191667	1401.430664	823.527710
11816.032979	1452.191667	1400.351563	628.157654
11816.032979	1452.191667	1399.271484	586.317322
11816.032979	1452.191667	1398.192383	634.605713
11816.032979	1452.191667	1397.112305	798.001343
11816.032979	1452.191667	1396.031250	814.338135
11816.032979	1452.191667	1394.951172	655.013245
11816.032979	1452.191667	1393.871094	938.058899
11816.032979	1452.191667	1392.790039	884.921631
11816.032979	1452.191667	1391.708984	1058.363159
11816.032979	1452.191667	1390.626953	914.621155
11816.032979	1452.191667	1389.545898	839.957458
11816.032979	1452.191667	1388.463867	702.759949
11816.032979	1452.191667	1387.381836	695.823242
11816.032979	1452.191667	1386.299805	1035.621582
11816.032979	1452.191667	1385.217773	831.220886
11816.032979	1452.191667	1384.134766	919.406067
11816.032979	1452.191667	1383.051758	1336.047729
11816.032979	1452.191667	1381.968750	1292.561401
11816.032979	1452.191667	1380.885742	1022.518921
11816.032979	1452.191667	1379.802734	1003.214661
11816.032979	1452.191667	1378.718750	1104.090210
11816.032979	1452.191667	1377.634766	1041.271484
11816.032979	1452.191667	1376.550781	998.332275
11816.032979	1452.191667	1375.465820	958.724121
11816.032979	1452.191667	1374.381836	772.927368
11816.032979	1452.191667	1373.296875	991.384521
11816.032979	1452.191667	1372.211914	437.264313
11816.032979	1452.191667	1371.126953	628.882629
11816.032979	1452.191667	1370.041016	970.827881
11816.032979	1452.191667	1368.955078	571.297791
11816.032979	1452.191667	1367.869141	688.438416
11816.032979	1452.191667	1366.783203	696.964050
11816.032979	1452.191667	1365.697266	559.077271
11816.032979	1452.191667	1364.610352	550.669556
11816.032979	1452.191667	1363.523438	708.332886
11816.032979	1452.191667	1362.436523	472.621399
11816.032979	1452.191667	1361.349609	673.817688
11816.032979	1452.191667	1360.261719	758.672974
11816.032979	1452.191667	1359.174805	652.421631
11816.032979	1452.191667	1358.086914	722.558716
11816.032979	1452.191667	1356.998047	695.490112
11816.032979	1452.191667	1355.910156	790.420593
11816.032979	1452.191667	1354.821289	573.376831
11816.032979	1452.191667	1353.732422	775.846558
11816.032979	1452.191667	1352.643555	705.036316
11816.032979	1452.191667	1351.554688	467.664246
11816.032979	1452.191667	1350.464844	429.017090
11816.032979	1452.191667	1349.375000	563.865662
11816.032979	1452.191667	1348.285156	558.689880
11816.032979	1452.191667	1347.195313	404.645325
11816.032979	1452.191667	1346.105469	635.989319
11816.032979	1452.191667	1345.014648	621.020508
11816.032979	1452.191667	1343.923828	404.655945
11816.032979	1452.191667	1342.833008	545.602051
11816.032979	1452.191667	1341.741211	604.841248
11816.032979	1452.191667	1340.650391	381.942047
11816.032979	1452.191667	1339.558594	589.567322
11816.032979	1452.191667	1338.466797	424.108337
11816.032979	1452.191667	1337.374023	505.995056
11816.032979	1452.191667	1336.282227	739.641235
11816.032979	1452.191667	1335.189453	671.465942
11816.032979	1452.191667	1334.096680	834.653320
11816.032979	1452.191667	1333.003906	675.155823
11816.032979	1452.191667	1331.910156	608.354858
11816.032979	1452.191667	1330.817383	506.817871
11816.032979	1452.191667	1329.723633	533.419556
11816.032979	1452.191667	1328.629883	521.406311
11816.032979	1452.191667	1327.535156	772.981812
11816.032979	1452.191667	1326.441406	642.146912
11816.032979	1452.191667	1325.346680	917.278564
11816.032979	1452.191667	1324.251953	497.499786
11816.032979	1452.191667	1323.156250	364.020447
11816.032979	1452.191667	1322.061523	408.438599
11816.032979	1452.191667	1320.965820	383.223358
11816.032979	1452.191667	1319.870117	596.616760
11816.032979	1452.191667	1318.774414	533.885742
11816.032979	1452.191667	1317.678711	525.676147
11816.032979	1452.191667	1316.582031	503.678558
11816.032979	1452.191667	1315.485352	518.388672
11816.032979	1452.191667	1314.388672	379.016785
11816.032979	1452.191667	1313.291016	451.484039
11816.032979	1452.191667	1312.194336	503.907257
11816.032979	1452.191667	1311.096680	509.228943
11816.032979	1452.191667	1309.999023	355.102875
11816.032979	1452.191667	1308.901367	567.633911
11816.032979	1452.191667	1307.802734	457.717834
11816.032979	1452.191667	1306.705078	668.201721
11816.032979	1452.191667	1305.606445	438.922821
11816.032979	1452.191667	1304.506836	602.644287
11816.032979	1452.191667	1303.408203	541.535278
11816.032979	1452.191667	1302.308594	524.991760
11816.032979	1452.191667	1301.208984	571.413391
11816.032979	1452.191667	1300.109375	459.824982
11816.032979	1452.191667	1299.009766	626.600830
11816.032979	1452.191667	1297.909180	488.742554
11816.032979	1452.191667	1296.808594	513.680908
11816.032979	1452.191667	1295.708008	780.309753
11816.032979	1452.191667	1294.607422	657.628479
11816.032979	1452.191667	1293.506836	560.534851
11816.032979	1452.191667	1292.405273	628.329468
11816.032979	1452.191667	1291.303711	690.954590
11816.032979	1452.191667	1290.202148	592.997498
11816.032979	1452.191667	1289.099609	442.456177
11816.032979	1452.191667	1287.998047	568.158936
11816.032979	1452.191667	1286.895508	404.221527
11816.032979	1452.191667	1285.792969	516.091980
11816.032979	1452.191667	1284.689453	298.254578
11816.032979	1452.191667	1283.586914	177.064941
11816.032979	1452.191667	1282.483398	445.687744
11816.032979	1452.191667	1281.379883	209.990875
11816.032979	1452.191667	1280.276367	274.487366
11816.032979	1452.191667	1279.171875	292.034698
11816.032979	1452.191667	1278.067383	402.826904
11816.032979	1452.191667	1276.962891	19.398464
11816.032979	1452.191667	1275.858398	121.190170
11816.032979	1452.191667	1274.753906	203.775604
11816.032979	1452.191667	1273.648438	155.215515
11816.032979	1452.191667	1272.542969	221.084625
11816.032979	1452.191667	1271.437500	-6.057112
11816.032979	1452.191667	1270.331055	105.343254
11816.032979	1452.191667	1269.225586	67.549019
11816.032979	1452.191667	1268.119141	228.789810
11816.032979	1452.191667	1267.012695	66.195015
11816.032979	1452.191667	1265.906250	123.687820
11816.032979	1452.191667	1264.798828	148.448242
11816.032979	1452.191667	1263.691406	-73.480324
11816.032979	1452.191667	1262.583984	6.516737
11816.032979	1452.191667	1261.476563	116.352875
11816.032979	1452.191667	1260.368164	-63.452000
11816.032979	1452.191667	1259.260742	-130.400467
11816.032979	1452.191667	1258.152344	-221.852463
11816.032979	1452.191667	1257.043945	-38.458023
11816.032979	1452.191667	1255.934570	-173.837830
11816.032979	1452.191667	1254.825195	-323.634094
11816.032979	1452.191667	1253.716797	-15.399264
11816.032979	1452.191667	1252.606445	-137.480408
11816.032979	1452.191667	1251.497070	-51.920288
11816.032979	1452.191667	1250.387695	-237.718475
11816.032979	1452.191667	1249.277344	-53.212364
11816.032979	1452.191667	1248.166992	93.049522
11816.032979	1452.191667	1247.055664	-62.231159
11816.032979	1452.191667	1245.945313	57.659679
11816.032979	1452.191667	1244.833984	-107.983429
11816.032979	1452.191667	1243.722656	-324.800781
11816.032979	1452.191667	1242.611328	-41.037128
11816.032979	1452.191667	1241.499023	3.054169
11816.032979	1452.191667	1240.387695	-144.150711
11816.032979	1452.191667	1239.275391	52.031460
11816.032979	1452.191667	1238.162109	-82.712364
11816.032979	1452.191667	1237.049805	-46.621235
11816.032979	1452.191667	1235.936523	54.767399
11816.032979	1452.191667	1234.823242	-23.649658
11816.032979	1452.191667	1233.709961	35.882904
11816.032979	1452.191667	1232.596680	108.077438
11816.032979	1452.191667	1231.482422	83.885651
11816.032979	1452.191667	1230.369141	3.164220
11816.032979	1452.191667	1229.253906	-27.187672
11816.032979	1452.191667	1228.139648	144.728561
11816.032979	1452.191667	1227.025391	37.384178
11816.032979	1452.191667	1225.910156	77.945724
11816.032979	1452.191667	1224.794922	28.794434
11816.032979	1452.191667	1223.679688	-30.615139
11816.032979	1452.191667	1222.563477	-53.731678
11816.032979	1452.191667	1221.447266	68.355362
11816.032979	1452.191667	1220.331055	83.811501
11816.032979	1452.191667	1219.214844	5.030760
11816.032979	1452.191667	1218.098633	87.096634
11816.032979	1452.191667	1216.981445	30.378771
11816.032979	1452.191667	1215.864258	-1.489570
11816.032979	1452.191667	1214.747070	5.967689
11816.032979	1452.191667	1213.629883	240.789139
11816.032979	1452.191667	1212.511719	230.576813
11816.032979	1452.191667	1211.393555	50.010899
11816.032979	1452.191667	1210.275391	47.776485
11816.032979	1452.191667	1209.157227	-61.677677
11816.032979	1452.191667	1208.038086	45.619572
11816.032979	1452.191667	1206.918945	75.737152
11816.032979	1452.191667	1205.799805	119.315224
11816.032979	1452.191667	1204.680664	149.154129
11816.032979	1452.191667	1203.560547	81.580467
11816.032979	1452.191667	1202.441406	239.021729
11816.032979	1452.191667	1201.321289	11.016326
11816.032979	1452.191667	1200.200195	-15.035837
11816.032979	1452.191667	1199.080078	43.222527
11816.032979	1452.191667	1197.958984	-83.941742
11816.032979	1452.191667	1196.837891	-10.096299
11816.032979	1452.191667	1195.716797	46.529934
11816.032979	1452.191667	1194.594727	168.402145
11816.032979	1452.191667	1193.473633	65.422699
11816.032979	1452.191667	1192.351563	-123.440506
11816.032979	1452.191667	1191.229492	-15.680820
11816.032979	1452.191667	1190.106445	-27.151457
11816.032979	1452.191667	1188.984375	-81.590515
11816.032979	1452.191667	1187.861328	-103.225540
11816.032979	1452.191667	1186.738281	-161.399399
11816.032979	1452.191667	1185.614258	77.032692
11816.032979	1452.191667	1184.491211	-187.335175
11816.032979	1452.191667	1183.367188	120.031029
11816.032979	1452.191667	1182.243164	141.376434
11816.032979	1452.191667	1181.119141	241.515167
11816.032979	1452.191667	1179.994141	145.005936
11816.032979	1452.191667	1178.869141	285.476807
11816.032979	1452.191667	1177.744141	199.974258
11816.032979	1452.191667	1176.619141	269.972626
11816.032979	1452.191667	1175.493164	464.272736
11816.032979	1452.191667	1174.368164	532.357788
11816.032979	1452.191667	1173.242188	371.681427
11816.032979	1452.191667	1172.115234	552.747131
11816.032979	1452.191667	1170.989258	295.331268
11816.032979	1452.191667	1169.862305	440.680267
11816.032979	1452.191667	1168.735352	146.328644
11816.032979	1452.191667	1167.608398	442.393280
11816.032979	1452.191667	1166.481445	273.047729
11816.032979	1452.191667	1165.353516	233.967682
11816.032979	1452.191667	1164.225586	-30.171612
11816.032979	1452.191667	1163.097656	33.334652
11816.032979	1452.191667	1161.968750	-23.894516
11816.032979	1452.191667	1160.840820	-34.674145
11816.032979	1452.191667	1159.711914	-19.896818
11816.032979	1452.191667	1158.583008	-135.668396
11816.032979	1452.191667	1157.453125	-37.524258
11816.032979	1452.191667	1156.324219	43.796974
11816.032979	1452.191667	1155.194336	-113.538872
11816.032979	1452.191667	1154.064453	-288.037933
11816.032979	1452.191667	1152.933594	-107.942703
11816.032979	1452.191667	1151.803711	69.250610
11816.032979	1452.191667	1150.672852	42.537724
11816.032979	1452.191667	1149.541992	168.584503
11816.032979	1452.191667	1148.411133	-5.837793
11816.032979	1452.191667	1147.279297	-213.485413
11816.032979	1452.191667	1146.147461	-161.729523
11816.032979	1452.191667	1145.015625	-69.689453
11816.032979	1452.191667	1143.883789	-16.785315
11816.032979	1452.191667	1142.750977	-264.609406
11816.032979	1452.191667	1141.619141	-216.014832
11816.032979	1452.191667	1140.486328	-139.055145
11816.032979	1452.191667	1139.352539	0.083826
11816.032979	1452.191667	1138.219727	59.801140
11816.032979	1452.191667	1137.085938	55.515724
11816.032979	1452.191667	1135.952148	-56.041714
11816.032979	1452.191667	1134.818359	-27.226793
11816.032979	1452.191667	1133.683594	55.453934
11816.032979	1452.191667	1132.549805	-76.813072
11816.032979	1452.191667	1131.415039	-22.474375
11816.032979	1452.191667	1130.279297	312.233459
11816.032979	1452.191667	1129.144531	205.374069
11816.032979	1452.191667	1128.008789	111.662811
11816.032979	1452.191667	1126.873047	210.748627
11816.032979	1452.191667	1125.737305	346.477112
11816.032979	1452.191667	1124.601563	101.559128
11816.032979	1452.191667	1123.464844	22.612846
11816.032979	1452.191667	1122.328125	221.672150
11816.032979	1452.191667	1121.191406	-179.063843
11816.032979	1452.191667	1120.054688	-22.345230
11816.032979	1452.191667	1118.916992	11.123851
11816.032979	1452.191667	1117.779297	116.824661
11816.032979	1452.191667	1116.641602	33.794228
11816.032979	1452.191667	1115.503906	-124.057358
11816.032979	1452.191667	1114.365234	114.182831
11816.032979	1452.191667	1113.226563	46.310658
11816.032979	1452.191667	1112.087891	61.495983
11816.032979	1452.191667	1110.949219	-53.263199
11816.032979	1452.191667	1109.809570	175.024063
11816.032979	1452.191667	1108.669922	43.999470
11816.032979	1452.191667	1107.530273	90.661034
11816.032979	1452.191667	1106.390625	-37.145588
11816.032979	1452.191667	1105.250000	131.552872
11816.032979	1452.191667	1104.109375	-221.136871
11816.032979	1452.191667	1102.968750	210.982391
11816.032979	1452.191667	1101.828125	245.719238
11816.032979	1452.191667	1100.686523	386.779266
11816.032979	1452.191667	1099.544922	236.956802
11816.032979	1452.191667	1098.403320	293.857300
11816.032979	1452.191667	1097.261719	108.060867
11816.032979	1452.191667	1096.120117	323.924896
11816.032979	1452.191667	1094.977539	400.994659
11816.032979	1452.191667	1093.834961	190.562744
11816.032979	1452.191667	1092.691406	267.066956
11816.032979	1452.191667	1091.548828	375.496918
11816.032979	1452.191667	1090.405273	226.392303
11816.032979	1452.191667	1089.261719	193.014511
11816.032979	1452.191667	1088.118164	248.117508
11816.032979	1452.191667	1086.973633	123.830383
11816.032979	1452.191667	1085.829102	-48.065796
11816.032979	1452.191667	1084.684570	95.091125
11816.032979	1452.191667	1083.540039	103.273857
11816.032979	1452.191667	1082.395508	-63.414040
11816.032979	1452.191667	1081.250000	167.877075
11816.032979	1452.191667	1080.104492	67.889412
11816.032979	1452.191667	1078.958984	370.808563
11816.032979	1452.191667	1077.812500	163.605209
11816.032979	1452.191667	1076.666016	-91.027191
11816.032979	1452.191667	1075.519531	22.415344
11816.032979	1452.191667	1074.373047	303.538361
11816.032979	1452.191667	1073.226563	214.330200
11816.032979	1452.191667	1072.079102	262.193054
11816.032979	1452.191667	1070.931641	255.937729
11816.032979	1452.191667	1069.784180	337.908081
11816.032979	1452.191667	1068.635742	477.551117
11816.032979	1452.191667	1067.487305	528.833984
11816.032979	1452.191667	1066.338867	391.965851
11816.032979	1452.191667	1065.190430	312.300232
11816.032979	1452.191667	1064.041992	454.858795
11816.032979	1452.191667	1062.892578	464.609833
11816.032979	1452.191667	1061.743164	330.378143
11816.032979	1452.191667	1060.593750	485.859161
11816.032979	1452.191667	1059.443359	377.030945
11816.032979	1452.191667	1058.292969	589.950745
11816.032979	1452.191667	1057.142578	359.614777
11816.032979	1452.191667	1055.992188	250.247818
11816.032979	1452.191667	1054.841797	363.693695
11816.032979	1452.191667	1053.690430	157.752640
11816.032979	1452.191667	1052.539063	352.720337
11816.032979	1452.191667	1051.387695	222.749283
11816.032979	1452.191667	1050.235352	231.702057
11816.032979	1452.191667	1049.083984	235.760147
11816.032979	1452.191667	1047.931641	163.410278
11816.032979	1452.191667	1046.778320	176.203262
11816.032979	1452.191667	1045.625977	355.432098
11816.032979	1452.191667	1044.472656	95.893898
11816.032979	1452.191667	1043.319336	364.980347
11816.032979	1452.191667	1042.166016	257.627167
11816.032979	1452.191667	1041.012695	337.861816
11816.032979	1452.191667	1039.858398	170.546707
11816.032979	1452.191667	1038.704102	98.798218
11816.032979	1452.191667	1037.549805	48.833324
11816.032979	1452.191667	1036.394531	-38.950542
11816.032979	1452.191667	1035.239258	-86.175140
11816.032979	1452.191667	1034.083984	221.813980
11816.032979	1452.191667	1032.928711	157.993576
11816.032979	1452.191667	1031.773438	46.127483
11816.032979	1452.191667	1030.617188	-8.851850
11816.032979	1452.191667	1029.460938	-141.015244
11816.032979	1452.191667	1028.304688	100.028084
11816.032979	1452.191667	1027.147461	80.462486
11816.032979	1452.191667	1025.991211	-27.832155
11816.032979	1452.191667	1024.833984	47.004818
11816.032979	1452.191667	1023.675781	89.342651
11816.032979	1452.191667	1022.518555	196.801620
11816.032979	1452.191667	1021.360352	-1.820263
11816.032979	1452.191667	1020.202148	37.214981
11816.032979	1452.191667	1019.043945	32.368481
11816.032979	1452.191667	1017.884766	15.127110
11816.032979	1452.191667	1016.726563	-87.900314
11816.032979	1452.191667	1015.567383	-29.486334
11816.032979	1452.191667	1014.407227	-34.820297
11816.032979	1452.191667	1013.248047	56.044670
11816.032979	1452.191667	1012.087891	83.242111
11816.032979	1452.191667	1010.927734	-124.411652
11816.032979	1452.191667	1009.767578	52.327713
11816.032979	1452.191667	1008.606445	58.984001
11816.032979	1452.191667	1007.446289	-35.353096
11816.032979	1452.191667	1006.285156	-32.167454
11816.032979	1452.191667	1005.123047	124.232460
11816.032979	1452.191667	1003.961914	171.717728
11816.032979	1452.191667	1002.799805	22.833637
11816.032979	1452.191667	1001.637695	273.088104
11816.032979	1452.191667	1000.475586	170.899277
11816.032979	1452.191667	999.312500	39.464630
11816.032979	1452.191667	998.149414	-32.022320
11816.032979	1452.191667	996.986328	85.245270
11816.032979	1452.191667	995.823242	23.302752
11816.032979	1452.191667	994.659180	149.351395
11816.032979	1452.191667	993.496094	89.856422
11816.032979	1452.191667	992.332031	206.837341
11816.032979	1452.191667	991.166992	298.657562
11816.032979	1452.191667	990.002930	71.253159
11816.032979	1452.191667	988.837891	273.895447
11816.032979	1452.191667	987.672852	-77.163277
11816.032979	1452.191667	986.506836	19.317188
11816.032979	1452.191667	985.341797	63.058243
11816.032979	1452.191667	984.175781	236.877884
11816.032979	1452.191667	983.009766	358.018768
11816.032979	1452.191667	981.843750	267.549469
11816.032979	1452.191667	980.676758	376.436584
11816.032979	1452.191667	979.509766	277.149384
11816.032979	1452.191667	978.342773	79.340401
11816.032979	1452.191667	977.175781	9.769616
11816.032979	1452.191667	976.007813	103.266846
11816.032979	1452.191667	974.839844	57.883457
11816.032979	1452.191667	973.671875	5.715351
11816.032979	1452.191667	972.503906	121.850609
11816.032979	1452.191667	971.334961	-2.343925
11816.032979	1452.191667	970.166016	208.972275
11816.032979	1452.191667	968.997070	111.621643
11816.032979	1452.191667	967.828125	277.461792
11816.032979	1452.191667	966.658203	85.382957
11816.032979	1452.191667	965.488281	70.440536
11816.032979	1452.191667	964.318359	226.847610
11816.032979	1452.191667	963.148438	397.207855
11816.032979	1452.191667	961.977539	362.430969
11816.032979	1452.191667	960.806641	121.863457
11816.032979	1452.191667	959.635742	-7.351952
11816.032979	1452.191667	958.463867	-22.026337
11816.032979	1452.191667	957.292969	-74.476471
11816.032979	1452.191667	956.121094	100.647926
11816.032979	1452.191667	954.948242	231.708298
11816.032979	1452.191667	953.776367	188.294220
11816.032979	1452.191667	952.603516	-164.759750
11816.032979	1452.191667	951.430664	-26.958567
11816.032979	1452.191667	950.257813	-42.003223
11816.032979	1452.191667	949.084961	258.643555
11816.032979	1452.191667	947.911133	152.818909
11816.032979	1452.191667	946.737305	79.957466
11816.032979	1452.191667	945.563477	-171.073456
11816.032979	1452.191667	944.388672	47.705841
11816.032979	1452.191667	943.213867	-80.059074
11816.032979	1452.191667	942.039063	143.879990
11816.032979	1452.191667	940.864258	107.029030
11816.032979	1452.191667	939.688477	205.354019
11816.032979	1452.191667	938.513672	60.212475
11816.032979	1452.191667	937.337891	-173.178665
11816.032979	1452.191667	936.161133	53.026398
11816.032979	1452.191667	934.985352	109.386436
11816.032979	1452.191667	933.808594	-18.182487
11816.032979	1452.191667	932.631836	170.975052
11816.032979	1452.191667	931.454102	40.660851
11816.032979	1452.191667	930.277344	35.722858
11816.032979	1452.191667	929.099609	300.979340
11816.032979	1452.191667	927.921875	109.283043
11816.032979	1452.191667	926.743164	1.080224
11816.032979	1452.191667	925.565430	-80.072075
11816.032979	1452.191667	924.386719	-112.078369
11816.032979	1452.191667	923.208008	0.755930
11816.032979	1452.191667	922.028320	248.541061
11816.032979	1452.191667	920.849609	172.271698
11816.032979	1452.191667	919.669922	175.523636
11816.032979	1452.191667	919.474609	-168.429474
11816.032979	1452.191667	918.309570	76.708534
11816.032979	1452.191667	917.143555	32.325424
11816.032979	1452.191667	915.977539	-100.331406
11816.032979	1452.191667	914.810547	-277.077606
11816.032979	1452.191667	913.644531	-29.725006
11816.032979	1452.191667	912.477539	72.927017
11816.032979	1452.191667	911.310547	-221.399475
11816.032979	1452.191667	910.143555	-145.727859
11816.032979	1452.191667	908.975586	167.464020
11816.032979	1452.191667	907.807617	157.294724
11816.032979	1452.191667	906.639648	66.326828
11816.032979	1452.191667	905.471680	75.732254
11816.032979	1452.191667	904.303711	134.061829
11816.032979	1452.191667	903.134766	-44.968990
11816.032979	1452.191667	901.965820	30.455660
11816.032979	1452.191667	900.796875	-26.230577
11816.032979	1452.191667	899.626953	-7.105279
11816.032979	1452.191667	898.457031	-85.790039
11816.032979	1452.191667	897.287109	199.719086
11816.032979	1452.191667	896.117188	103.888931
11816.032979	1452.191667	894.947266	56.944115
11816.032979	1452.191667	893.776367	-36.403942
11816.032979	1452.191667	892.605469	224.383362
11816.032979	1452.191667	891.434570	150.542389
11816.032979	1452.191667	890.262695	-272.365906
11816.032979	1452.191667	889.091797	127.382278
11816.032979	1452.191667	887.919922	-24.522799
11816.032979	1452.191667	886.748047	16.354006
11816.032979	1452.191667	885.575195	54.761101
11816.032979	1452.191667	884.403320	80.941895
11816.032979	1452.191667	883.230469	-168.415405
11816.032979	1452.191667	882.057617	84.475922
11816.032979	1452.191667	880.883789	93.534164
11816.032979	1452.191667	879.710938	-121.604614
11816.032979	1452.191667	878.537109	9.269165
11816.032979	1452.191667	877.362305	-18.243000
11816.032979	1452.191667	876.188477	-113.946381
11816.032979	1452.191667	875.013672	-197.449844
11816.032979	1452.191667	873.839844	-173.832047
11816.032979	1452.191667	872.664063	102.866661
11816.032979	1452.191667	871.489258	-185.063446
11816.032979	1452.191667	870.313477	-112.852455
11816.032979	1452.191667	869.138672	-223.102371
11816.032979	1452.191667	867.962891	55.747696
11816.032979	1452.191667	866.786133	-103.142197
11816.032979	1452.191667	865.610352	-123.436501
11816.032979	1452.191667	864.433594	11.796689
11816.032979	1452.191667	863.256836	18.184095
11816.032979	1452.191667	862.079102	-196.500793
11816.032979	1452.191667	860.902344	6.618678
11816.032979	1452.191667	859.724609	-140.019852
11816.032979	1452.191667	858.546875	-19.566961
11816.032979	1452.191667	857.368164	-115.198448
11816.032979	1452.191667	856.190430	-167.129349
11816.032979	1452.191667	855.011719	130.321991
11816.032979	1452.191667	853.833008	240.854645
11816.032979	1452.191667	852.654297	67.573990
11816.032979	1452.191667	851.474609	56.804153
11816.032979	1452.191667	850.294922	-101.853409
11816.032979	1452.191667	849.115234	-284.700562
11816.032979	1452.191667	847.935547	104.390541
11816.032979	1452.191667	846.754883	-78.456253
11816.032979	1452.191667	845.575195	-16.601273
11816.032979	1452.191667	844.393555	-121.886681
11816.032979	1452.191667	843.212891	155.406433
11816.032979	1452.191667	842.032227	444.672394
11816.032979	1452.191667	840.850586	60.977333
11816.032979	1452.191667	839.668945	-32.209976
11816.032979	1452.191667	838.486328	-149.567566
11816.032979	1452.191667	837.304688	1.582498
11816.032979	1452.191667	836.122070	213.110840
11816.032979	1452.191667	834.939453	173.087799
11816.032979	1452.191667	833.756836	118.560127
11816.032979	1452.191667	832.573242	-15.716689
11816.032979	1452.191667	831.389648	-9.812882
11816.032979	1452.191667	830.206055	-20.843824
11816.032979	1452.191667	829.022461	91.291908
11816.032979	1452.191667	827.838867	-40.530823
11816.032979	1452.191667	826.654297	-227.845688
11816.032979	1452.191667	825.469727	4.892371
11816.032979	1452.191667	824.284180	285.782471
11816.032979	1452.191667	823.099609	96.043915
11816.032979	1452.191667	821.914063	89.697296
11816.032979	1452.191667	820.728516	15.803371
11816.032979	1452.191667	819.542969	-103.893875
11816.032979	1452.191667	818.356445	166.983871
11816.032979	1452.191667	817.169922	107.520828
11816.032979	1452.191667	815.983398	219.156296
11816.032979	1452.191667	814.796875	429.503418
11816.032979	1452.191667	813.609375	242.295853
11816.032979	1452.191667	812.422852	96.081345
11816.032979	1452.191667	811.235352	-28.422567
11816.032979	1452.191667	810.046875	196.160858
11816.032979	1452.191667	808.859375	-24.628401
11816.032979	1452.191667	807.670898	132.442749
11816.032979	1452.191667	806.482422	308.671539
11816.032979	1452.191667	805.293945	102.360565
11816.032979	1452.191667	804.104492	266.454285
11816.032979	1452.191667	802.915039	-40.789013
11816.032979	1452.191667	801.725586	-88.314850
11816.032979	1452.191667	800.536133	135.728180
11816.032979	1452.191667	799.345703	181.848938
11816.032979	1452.191667	798.155273	98.200256
11816.032979	1452.191667	796.964844	21.766363
11816.032979	1452.191667	795.774414	-37.849419
11816.032979	1452.191667	794.583008	-171.890259
11816.032979	1452.191667	793.392578	-34.663342
11816.032979	1452.191667	792.200195	373.664612
11816.032979	1452.191667	791.008789	33.205288
11816.032979	1452.191667	789.816406	-0.088143
11816.032979	1452.191667	788.625000	-42.985588
11816.032979	1452.191667	787.432617	19.612547
11816.032979	1452.191667	786.239258	-49.692425
11816.032979	1452.191667	785.046875	10.435184
11816.032979	1452.191667	783.853516	5.807724
11816.032979	1452.191667	782.660156	-116.239075
11816.032979	1452.191667	781.465820	-32.260132
11816.032979	1452.191667	780.272461	188.163406
11816.032979	1452.191667	779.078125	-39.278332
11816.032979	1452.191667	777.883789	154.667450
11816.032979	1452.191667	776.688477	221.657654
11816.032979	1452.191667	775.494141	-39.231438
11816.032979	1452.191667	774.298828	61.208660
11816.032979	1452.191667	773.103516	-13.028919
11816.032979	1452.191667	771.907227	137.529053
11816.032979	1452.191667	770.711914	276.039124
11816.032979	1452.191667	769.515625	82.197845
11816.032979	1452.191667	768.318359	258.844879
11816.032979	1452.191667	767.122070	26.800900
11816.032979	1452.191667	765.924805	-119.175079
11816.032979	1452.191667	764.727539	31.043045
11816.032979	1452.191667	763.530273	104.753929
11816.032979	1452.191667	762.333008	13.674220
11816.032979	1452.191667	761.134766	-77.396881
11816.032979	1452.191667	759.936523	20.067223
11816.032979	1452.191667	758.738281	67.353493
11816.032979	1452.191667	757.540039	-50.003067
11816.032979	1452.191667	756.340820	-184.035370
11816.032979	1452.191667	755.141602	56.312584
11816.032979	1452.191667	753.942383	-30.068724
11816.032979	1452.191667	752.742188	-11.575551
11816.032979	1452.191667	751.541992	80.750526
11816.032979	1452.191667	750.341797	-158.154099
11816.032979	1452.191667	749.141602	60.344215
11816.032979	1452.191667	747.941406	214.420151
11816.032979	1452.191667	746.740234	73.160744
11816.032979	1452.191667	745.539063	-84.734245
11816.032979	1452.191667	744.337891	-23.640909
11816.032979	1452.191667	743.135742	108.781624
11816.032979	1452.191667	741.933594	191.155090
11816.032979	1452.191667	740.731445	7.073123
11816.032979	1452.191667	739.529297	29.918432
11816.032979	1452.191667	738.326172	133.556213
11816.032979	1452.191667	737.124023	-17.218874
11816.032979	1452.191667	735.919922	224.155685
11816.032979	1452.191667	734.716797	56.724628
11816.032979	1452.191667	733.513672	248.028900
11816.032979	1452.191667	732.309570	429.720703
11816.032979	1452.191667	731.105469	231.381989
11816.032979	1452.191667	729.900391	367.827026
11816.032979	1452.191667	728.696289	81.698540
11816.032979	1452.191667	727.491211	239.406342
11816.032979	1452.191667	726.286133	190.604797
11816.032979	1452.191667	725.080078	153.651047
11816.032979	1452.191667	723.874023	2.844024
11816.032979	1452.191667	722.668945	-50.720322
11816.032979	1452.191667	721.461914	4.746188
11816.032979	1452.191667	720.255859	93.334198
11816.032979	1452.191667	719.048828	-121.449150
11816.032979	1452.191667	717.841797	-106.379936
11816.032979	1452.191667	716.634766	-53.455265
11816.032979	1452.191667	715.427734	-2.957370
11816.032979	1452.191667	714.219727	-23.540049
11816.032979	1452.191667	713.011719	112.076408
11816.032979	1452.191667	711.803711	65.374420
11816.032979	1452.191667	710.594727	-241.608475
11816.032979	1452.191667	709.385742	21.603838
11816.032979	1452.191667	708.176758	206.623672
11816.032979	1452.191667	706.967773	-17.542120
11816.032979	1452.191667	705.758789	4.217838
11816.032979	1452.191667	704.548828	33.022034
11816.032979	1452.191667	703.338867	78.320366
11816.032979	1452.191667	702.127930	57.412922
11816.032979	1452.191667	700.917969	-27.296440
11816.032979	1452.191667	699.707031	43.860760
11816.032979	1452.191667	698.496094	-0.741620
11816.032979	1452.191667	697.285156	-38.279285
11816.032979	1452.191667	696.073242	101.172760
11816.032979	1452.191667	694.861328	58.841991
11816.032979	1452.191667	693.649414	-365.685547
11816.032979	1452.191667	692.436523	153.382233
11816.032979	1452.191667	691.224609	-56.464352
11816.032979	1452.191667	690.011719	-202.601166
11816.032979	1452.191667	688.798828	14.288320
11816.032979	1452.191667	687.584961	99.079147
11816.032979	1452.191667	686.372070	30.653431
11816.032979	1452.191667	685.158203	244.897858
11816.032979	1452.191667	683.943359	221.148438
11816.032979	1452.191667	682.729492	110.253288
11816.032979	1452.191667	681.514648	213.598953
11816.032979	1452.191667	680.299805	116.805893
11816.032979	1452.191667	679.084961	45.905540
11816.032979	1452.191667	677.869141	-53.232075
11816.032979	1452.191667	676.653320	61.689384
11816.032979	1452.191667	675.437500	0.152545
11816.032979	1452.191667	674.221680	218.401764
11816.032979	1452.191667	673.004883	20.453505
11816.032979	1452.191667	671.789063	306.697388
11816.032979	1452.191667	670.571289	108.746719
11816.032979	1452.191667	669.354492	199.803146
11816.032979	1452.191667	668.136719	180.399246
11816.032979	1452.191667	666.919922	308.911194
11816.032979	1452.191667	665.701172	209.606384
11816.032979	1452.191667	664.483398	91.536339
11816.032979	1452.191667	663.264648	412.323364
11816.032979	1452.191667	662.045898	216.773895
11816.032979	1452.191667	660.827148	187.823837
11816.032979	1452.191667	659.608398	133.057465
11816.032979	1452.191667	658.388672	-8.469897
11816.032979	1452.191667	657.168945	-84.328583
11816.032979	1452.191667	655.949219	32.005165
11816.032979	1452.191667	654.728516	103.738998
11816.032979	1452.191667	653.507813	67.644447
11816.032979	1452.191667	652.287109	106.493355
11816.032979	1452.191667	651.066406	105.487267
11816.032979	1452.191667	649.844727	242.589615
11816.032979	1452.191667	648.623047	28.488085
11816.032979	1452.191667	647.401367	322.294373
11816.032979	1452.191667	646.179688	194.788208
11816.032979	1452.191667	644.957031	97.718117
11816.032979	1452.191667	643.734375	-36.755463
11816.032979	1452.191667	642.511719	-16.868431
11816.032979	1452.191667	641.289063	206.377686
11816.032979	1452.191667	640.065430	32.157185
11816.032979	1452.191667	638.841797	243.566147
11816.032979	1452.191667	637.618164	-19.416462
11816.032979	1452.191667	636.393555	-139.823395
11816.032979	1452.191667	635.168945	115.789139
11816.032979	1452.191667	633.944336	63.072014
11816.032979	1452.191667	632.719727	8.019845
11816.032979	1452.191667	631.494141	93.002190
11816.032979	1452.191667	630.269531	250.265762
11816.032979	1452.191667	629.042969	48.174084
11816.032979	1452.191667	627.817383	91.052132
11816.032979	1452.191667	626.590820	192.187317
11816.032979	1452.191667	625.365234	29.816723
11816.032979	1452.191667	624.137695	56.295933
11816.032979	1452.191667	622.911133	52.454006
11816.032979	1452.191667	621.683594	172.082184
11816.032979	1452.191667	620.456055	2.792483
11816.032979	1452.191667	619.228516	185.229980
11816.032979	1452.191667	618.000977	239.508499
11816.032979	1452.191667	616.772461	56.300274
11816.032979	1452.191667	615.543945	-10.474036
11816.032979	1452.191667	614.314453	120.557007
11816.032979	1452.191667	613.085938	165.441284
11816.032979	1452.191667	611.856445	56.780464
11816.032979	1452.191667	610.626953	145.817551
11816.032979	1452.191667	609.397461	90.658585
11816.032979	1452.191667	608.166992	309.798035
11816.032979	1452.191667	606.936523	-73.075790
11816.032979	1452.191667	605.706055	-65.452515
11816.032979	1452.191667	604.474609	74.568565
11816.032979	1452.191667	603.244141	47.304996
11816.032979	1452.191667	602.012695	-161.075226
11816.032979	1452.191667	600.780273	-53.647663
11816.032979	1452.191667	599.548828	-162.126022
11816.032979	1452.191667	598.316406	151.769043
11816.032979	1452.191667	597.083984	-167.842453
11816.032979	1452.191667	595.851563	-178.825150
11816.032979	1452.191667	594.618164	-326.631866
11816.032979	1452.191667	593.384766	-244.843719
11816.032979	1452.191667	592.151367	-209.452316
11816.032979	1452.191667	590.917969	-74.423859
11816.032979	1452.191667	589.683594	174.079865
11816.032979	1452.191667	588.449219	95.839012
11816.032979	1452.191667	587.214844	-70.380173
11816.032979	1452.191667	585.979492	45.971436
11816.032979	1452.191667	584.745117	243.307098
11816.032979	1452.191667	583.509766	165.117081
11816.032979	1452.191667	582.273438	184.153915
11816.032979	1452.191667	581.038086	92.133575
11816.032979	1452.191667	579.801758	337.870544
11816.032979	1452.191667	578.565430	227.359802
11816.032979	1452.191667	577.329102	165.455414
11816.032979	1452.191667	576.091797	263.085449
11816.032979	1452.191667	574.854492	293.653015
11816.032979	1452.191667	573.617188	234.100067
11816.032979	1452.191667	572.378906	59.067566
11816.032979	1452.191667	571.141602	117.396317
11816.032979	1452.191667	569.903320	-170.673386
11816.032979	1452.191667	568.664063	-197.730835
11816.032979	1452.191667	567.425781	-51.652092
11816.032979	1452.191667	566.186523	25.141058
11816.032979	1452.191667	564.947266	-299.544067
11816.032979	1452.191667	563.708008	213.257843
11816.032979	1452.191667	562.467773	-201.253723
11816.032979	1452.191667	561.227539	108.423820
11816.032979	1452.191667	559.987305	-20.017702
11816.032979	1452.191667	558.747070	-65.419685
11816.032979	1452.191667	557.505859	98.895874
11816.032979	1452.191667	556.264648	67.331841
11816.032979	1452.191667	555.023438	-113.918076
11816.032979	1452.191667	553.781250	82.578033
11816.032979	1452.191667	552.539063	-93.968475
11816.032979	1452.191667	551.296875	81.749344
11816.032979	1452.191667	550.054688	80.206383
11816.032979	1452.191667	548.811523	44.164593
11816.032979	1452.191667	547.569336	54.159443
11816.032979	1452.191667	546.325195	-34.728817
11816.032979	1452.191667	545.082031	147.757858
11816.032979	1452.191667	543.837891	-244.528778
11816.032979	1452.191667	542.593750	-66.643265
11816.032979	1452.191667	541.349609	-38.179237
11816.032979	1452.191667	540.105469	84.480576
11816.032979	1452.191667	538.860352	195.617584
11816.032979	1452.191667	537.615234	88.567711
11816.032979	1452.191667	536.369141	-66.635742
11816.032979	1452.191667	535.124023	193.710129
11816.032979	1452.191667	533.877930	45.466839
11816.032979	1452.191667	532.631836	85.444725
11816.032979	1452.191667	531.384766	-62.682343
11816.032979	1452.191667	530.138672	-107.524216
11816.032979	1452.191667	528.891602	175.555984
11816.032979	1452.191667	527.643555	59.642052
11816.032979	1452.191667	526.396484	-198.303802
11816.032979	1452.191667	525.148438	109.861122
11816.032979	1452.191667	523.900391	-35.701618
11816.032979	1452.191667	522.652344	134.898209
11816.032979	1452.191667	521.403320	51.248322
11816.032979	1452.191667	520.154297	82.119484
11816.032979	1452.191667	518.905273	106.124458
11816.032979	1452.191667	517.656250	50.034145
11816.032979	1452.191667	516.406250	-115.847061
11816.032979	1452.191667	515.156250	114.093155
11816.032979	1452.191667	513.906250	-40.274841
11816.032979	1452.191667	512.655273	54.663765
11816.032979	1452.191667	511.404297	-152.189850
11816.032979	1452.191667	510.153320	-73.250603
11816.032979	1452.191667	508.902344	-40.040943
11816.032979	1452.191667	507.650391	-29.688437
11816.032979	1452.191667	506.398438	-71.868332
11816.032979	1452.191667	505.146484	201.109665
11816.032979	1452.191667	503.893555	115.522102
11816.032979	1452.191667	502.641602	-262.199432
11816.032979	1452.191667	501.388672	-210.721512
11816.032979	1452.191667	500.134766	87.147881
11816.032979	1452.191667	498.881836	-32.562248
11816.032979	1452.191667	497.627930	37.067287
11816.032979	1452.191667	496.374023	147.702469
11816.032979	1452.191667	495.119141	-33.515392
11816.032979	1452.191667	493.865234	131.770569
11816.032979	1452.191667	492.610352	73.660835
11816.032979	1452.191667	491.355469	-116.571457
11816.032979	1452.191667	490.099609	64.527122
11816.032979	1452.191667	488.843750	118.004936
11816.032979	1452.191667	487.587891	7.518036
11816.032979	1452.191667	486.332031	72.323959
11816.032979	1452.191667	485.075195	168.938232
11816.032979	1452.191667	483.818359	185.850311
11816.032979	1452.191667	482.561523	332.387787
11816.032979	1452.191667	481.304688	158.157425
11816.032979	1452.191667	480.046875	193.154755
11816.032979	1452.191667	478.789063	346.310333
11816.032979	1452.191667	477.531250	331.172028
11816.032979	1452.191667	476.272461	540.953796
11816.032979	1452.191667	475.013672	264.429596
11816.032979	1452.191667	473.754883	171.951782
11816.032979	1452.191667	472.496094	256.587280
11816.032979	1452.191667	471.236328	-13.048238
11816.032979	1452.191667	469.976563	-19.321653
11816.032979	1452.191667	468.716797	423.677429
11816.032979	1452.191667	467.456055	321.884460
11816.032979	1452.191667	466.196289	546.713867
11816.032979	1452.191667	464.935547	490.149414
11816.032979	1452.191667	463.673828	306.551971
11816.032979	1452.191667	462.413086	456.189453
11816.032979	1452.191667	461.151367	628.333984
11816.032979	1452.191667	459.889648	596.375793
11816.032979	1452.191667	458.626953	659.481506
11816.032979	1452.191667	457.364258	668.095947
11816.032979	1452.191667	456.101563	676.596985
11816.032979	1452.191667	454.838867	660.079041
11816.032979	1452.191667	453.575195	358.244873
11816.032979	1452.191667	452.312500	434.342896
11816.032979	1452.191667	451.047852	474.071198
11816.032979	1452.191667	449.784180	481.980164
11816.032979	1452.191667	448.519531	575.678467
11816.032979	1452.191667	447.254883	558.397644
11816.032979	1452.191667	445.990234	466.371704
11816.032979	1452.191667	444.725586	555.029724
11816.032979	1452.191667	443.459961	462.710876
11816.032979	1452.191667	442.194336	485.470673
11816.032979	1452.191667	440.927734	758.739380
11816.032979	1452.191667	439.662109	455.887238
11816.032979	1452.191667	438.395508	532.244141
11816.032979	1452.191667	437.127930	348.790497
11816.032979	1452.191667	435.861328	760.963135
11816.032979	1452.191667	434.593750	852.358154
11816.032979	1452.191667	433.326172	720.173157
11816.032979	1452.191667	432.058594	653.208557
11816.032979	1452.191667	430.790039	549.946411
11816.032979	1452.191667	429.521484	419.426147
11816.032979	1452.191667	428.252930	581.679810
11816.032979	1452.191667	426.984375	507.002991
11816.032979	1452.191667	425.714844	934.430847
11816.032979	1452.191667	424.445313	503.270142
11816.032979	1452.191667	423.174805	772.289490
11816.032979	1452.191667	421.905273	700.941406
11816.032979	1452.191667	420.634766	654.053345
11816.032979	1452.191667	419.364258	681.109924
11816.032979	1452.191667	418.092773	811.295654
11816.032979	1452.191667	416.822266	457.468292
11816.032979	1452.191667	415.550781	562.184814
11816.032979	1452.191667	414.278320	617.001160
11816.032979	1452.191667	413.006836	835.506470
11816.032979	1452.191667	411.734375	941.134094
11816.032979	1452.191667	410.461914	794.645874
11816.032979	1452.191667	409.188477	495.027191
11816.032979	1452.191667	407.916016	518.517029
11816.032979	1452.191667	406.642578	615.627014
11816.032979	1452.191667	405.368164	595.479370
11816.032979	1452.191667	404.094727	747.687317
11816.032979	1452.191667	402.820313	472.966492
11816.032979	1452.191667	401.545898	707.118225
11816.032979	1452.191667	400.270508	675.957153
11816.032979	1452.191667	398.996094	402.084686
11816.032979	1452.191667	397.720703	728.618286
11816.032979	1452.191667	396.444336	352.822388
11816.032979	1452.191667	395.168945	801.313538
11816.032979	1452.191667	393.892578	942.029968
11816.032979	1452.191667	392.616211	528.761780
11816.032979	1452.191667	391.339844	491.279053
11816.032979	1452.191667	390.062500	518.067993
11816.032979	1452.191667	388.785156	391.938477
11816.032979	1452.191667	387.507813	401.690918
11816.032979	1452.191667	386.229492	437.554779
11816.032979	1452.191667	384.951172	716.516296
11816.032979	1452.191667	383.672852	632.257385
11816.032979	1452.191667	382.394531	361.657104
11816.032979	1452.191667	381.115234	385.468353
11816.032979	1452.191667	379.835938	457.623352
11816.032979	1452.191667	378.556641	397.058441
11816.032979	1452.191667	377.277344	592.596252
11816.032979	1452.191667	375.997070	436.444580
11816.032979	1452.191667	374.716797	487.145782
11816.032979	1452.191667	373.435547	655.208130
11816.032979	1452.191667	372.155273	500.818451
11816.032979	1452.191667	370.874023	443.691650
11816.032979	1452.191667	369.591797	423.495239
11816.032979	1452.191667	368.310547	219.376114
11816.032979	1452.191667	367.028320	351.051178
11816.032979	1452.191667	365.746094	379.013885
11816.032979	1452.191667	364.463867	700.137146
11816.032979	1452.191667	363.180664	398.100983
11816.032979	1452.191667	361.897461	571.911438
11816.032979	1452.191667	360.614258	316.701813
11816.032979	1452.191667	359.330078	363.282562
11816.032979	1452.191667	358.045898	156.953873
11816.032979	1452.191667	356.761719	223.294693
11816.032979	1452.191667	355.477539	274.947906
11816.032979	1452.191667	354.192383	42.567726
11816.032979	1452.191667	352.907227	-26.426874
11816.032979	1452.191667	351.622070	136.785080
11816.032979	1452.191667	350.336914	-8.423236
11816.032979	1452.191667	349.050781	49.498253
11816.032979	1452.191667	347.764648	-94.181900
11816.032979	1452.191667	346.477539	56.231369
11816.032979	1452.191667	345.191406	-48.262062
11816.032979	1452.191667	343.904297	-112.145897
11816.032979	1452.191667	342.616211	-104.390007
11816.032979	1452.191667	341.329102	10.547970
11816.032979	1452.191667	340.041016	136.997437
11816.032979	1452.191667	338.752930	286.058990
11816.032979	1452.191667	337.463867	-21.718189
11816.032979	1452.191667	336.175781	81.542259
11816.032979	1452.191667	334.886719	-114.403885
11816.032979	1452.191667	333.596680	-74.929916
11816.032979	1452.191667	332.307617	69.061714
11816.032979	1452.191667	331.017578	35.816277
11816.032979	1452.191667	329.727539	-3.879149
11816.032979	1452.191667	328.436523	16.343672
11816.032979	1452.191667	327.146484	27.853275
11816.032979	1452.191667	325.855469	143.440460
11816.032979	1452.191667	324.563477	130.480301
11816.032979	1452.191667	323.272461	2.425011
11816.032979	1452.191667	321.980469	31.416594
11816.032979	1452.191667	320.688477	44.761700
11816.032979	1452.191667	319.395508	-85.969666
11816.032979	1452.191667	318.103516	-53.126949
11816.032979	1452.191667	316.810547	198.268204
11816.032979	1452.191667	315.516602	-196.471832
11816.032979	1452.191667	314.223633	47.474392
11816.032979	1452.191667	312.929688	-228.569183
11816.032979	1452.191667	311.635742	-295.091553
11816.032979	1452.191667	310.340820	-165.627899
11816.032979	1452.191667	309.045898	-25.793894
11816.032979	1452.191667	307.750977	-67.756973
11816.032979	1452.191667	306.456055	-39.790855
11816.032979	1452.191667	305.160156	-34.790512
11816.032979	1452.191667	303.865234	221.009888
11816.032979	1452.191667	302.568359	111.579201
11816.032979	1452.191667	301.272461	111.605835
11816.032979	1452.191667	299.975586	626.504517
11816.032979	1452.191667	298.678711	383.871002
