#X		#Y		#Wave		#Intensity
11755.780319	1552.573333	1999.980469	54.268452
11755.780319	1552.573333	1999.016602	-26.089426
11755.780319	1552.573333	1998.052734	-2.720108
11755.780319	1552.573333	1997.087891	-18.979536
11755.780319	1552.573333	1996.123047	4.440211
11755.780319	1552.573333	1995.158203	13.017200
11755.780319	1552.573333	1994.193359	-55.159649
11755.780319	1552.573333	1993.228516	25.293533
11755.780319	1552.573333	1992.262695	11.661420
11755.780319	1552.573333	1991.297852	27.765368
11755.780319	1552.573333	1990.332031	160.208633
11755.780319	1552.573333	1989.366211	32.809078
11755.780319	1552.573333	1988.399414	9.387441
11755.780319	1552.573333	1987.433594	18.153860
11755.780319	1552.573333	1986.466797	17.045599
11755.780319	1552.573333	1985.500977	77.775429
11755.780319	1552.573333	1984.534180	-44.437531
11755.780319	1552.573333	1983.567383	-57.830631
11755.780319	1552.573333	1982.599609	17.764502
11755.780319	1552.573333	1981.632813	-0.539319
11755.780319	1552.573333	1980.665039	-50.933632
11755.780319	1552.573333	1979.697266	76.538521
11755.780319	1552.573333	1978.729492	68.161896
11755.780319	1552.573333	1977.761719	-21.670837
11755.780319	1552.573333	1976.792969	21.842688
11755.780319	1552.573333	1975.825195	15.994608
11755.780319	1552.573333	1974.856445	29.902754
11755.780319	1552.573333	1973.887695	88.227440
11755.780319	1552.573333	1972.918945	13.343592
11755.780319	1552.573333	1971.949219	-46.703377
11755.780319	1552.573333	1970.980469	43.694527
11755.780319	1552.573333	1970.010742	-18.777779
11755.780319	1552.573333	1969.041016	49.419415
11755.780319	1552.573333	1968.071289	46.135220
11755.780319	1552.573333	1967.101563	62.573009
11755.780319	1552.573333	1966.130859	-71.256577
11755.780319	1552.573333	1965.161133	-0.598872
11755.780319	1552.573333	1964.190430	50.340614
11755.780319	1552.573333	1963.219727	-48.917931
11755.780319	1552.573333	1962.249023	29.105045
11755.780319	1552.573333	1961.277344	-40.564091
11755.780319	1552.573333	1960.306641	47.285099
11755.780319	1552.573333	1959.334961	63.760242
11755.780319	1552.573333	1958.363281	-20.615784
11755.780319	1552.573333	1957.391602	-1.662930
11755.780319	1552.573333	1956.419922	17.288115
11755.780319	1552.573333	1955.447266	-3.097999
11755.780319	1552.573333	1954.474609	20.771446
11755.780319	1552.573333	1953.501953	-29.088743
11755.780319	1552.573333	1952.529297	-66.641296
11755.780319	1552.573333	1951.556641	33.393005
11755.780319	1552.573333	1950.583984	22.867136
11755.780319	1552.573333	1949.610352	81.107193
11755.780319	1552.573333	1948.636719	-76.731331
11755.780319	1552.573333	1947.663086	13.422578
11755.780319	1552.573333	1946.689453	147.722687
11755.780319	1552.573333	1945.715820	56.220505
11755.780319	1552.573333	1944.741211	-47.512951
11755.780319	1552.573333	1943.767578	49.934437
11755.780319	1552.573333	1942.792969	-58.661701
11755.780319	1552.573333	1941.818359	75.533852
11755.780319	1552.573333	1940.842773	-1.154910
11755.780319	1552.573333	1939.868164	-41.047543
11755.780319	1552.573333	1938.892578	-22.109831
11755.780319	1552.573333	1937.916992	-10.529485
11755.780319	1552.573333	1936.941406	5.945983
11755.780319	1552.573333	1935.965820	-29.020044
11755.780319	1552.573333	1934.990234	7.042459
11755.780319	1552.573333	1934.013672	74.919449
11755.780319	1552.573333	1933.037109	-4.104581
11755.780319	1552.573333	1932.060547	85.774399
11755.780319	1552.573333	1931.083984	6.775709
11755.780319	1552.573333	1930.107422	40.346214
11755.780319	1552.573333	1929.129883	10.303880
11755.780319	1552.573333	1928.153320	29.184452
11755.780319	1552.573333	1927.175781	-0.847910
11755.780319	1552.573333	1926.198242	-113.991333
11755.780319	1552.573333	1925.219727	41.774300
11755.780319	1552.573333	1924.242188	28.857096
11755.780319	1552.573333	1923.263672	11.055490
11755.780319	1552.573333	1922.285156	132.503418
11755.780319	1552.573333	1921.306641	12.101640
11755.780319	1552.573333	1920.328125	13.841269
11755.780319	1552.573333	1919.349609	125.446808
11755.780319	1552.573333	1918.370117	-24.187817
11755.780319	1552.573333	1917.391602	45.886810
11755.780319	1552.573333	1916.412109	-23.157578
11755.780319	1552.573333	1915.431641	73.720917
11755.780319	1552.573333	1914.452148	31.522770
11755.780319	1552.573333	1913.472656	3.969797
11755.780319	1552.573333	1912.492188	78.834343
11755.780319	1552.573333	1911.511719	-12.109458
11755.780319	1552.573333	1910.531250	40.786282
11755.780319	1552.573333	1909.550781	-3.820789
11755.780319	1552.573333	1908.569336	53.919315
11755.780319	1552.573333	1907.588867	-24.785837
11755.780319	1552.573333	1906.607422	62.156605
11755.780319	1552.573333	1905.625977	90.618721
11755.780319	1552.573333	1904.644531	48.460079
11755.780319	1552.573333	1903.662109	64.735001
11755.780319	1552.573333	1902.680664	42.059322
11755.780319	1552.573333	1901.698242	26.687971
11755.780319	1552.573333	1900.715820	-3.278914
11755.780319	1552.573333	1899.733398	-35.670959
11755.780319	1552.573333	1898.750000	-63.191410
11755.780319	1552.573333	1897.767578	26.007788
11755.780319	1552.573333	1896.784180	95.720604
11755.780319	1552.573333	1895.800781	0.121424
11755.780319	1552.573333	1894.817383	18.771505
11755.780319	1552.573333	1893.833984	-54.918526
11755.780319	1552.573333	1892.850586	94.905800
11755.780319	1552.573333	1891.866211	-5.496370
11755.780319	1552.573333	1890.881836	-67.011909
11755.780319	1552.573333	1889.897461	-36.248730
11755.780319	1552.573333	1888.913086	55.184261
11755.780319	1552.573333	1887.927734	-3.894475
11755.780319	1552.573333	1886.943359	36.532902
11755.780319	1552.573333	1885.958008	-5.546345
11755.780319	1552.573333	1884.972656	32.431396
11755.780319	1552.573333	1883.987305	2.485893
11755.780319	1552.573333	1883.001953	-10.479533
11755.780319	1552.573333	1882.015625	27.464399
11755.780319	1552.573333	1881.029297	41.151585
11755.780319	1552.573333	1880.042969	33.019520
11755.780319	1552.573333	1879.056641	-35.686424
11755.780319	1552.573333	1878.070313	-68.034363
11755.780319	1552.573333	1877.083984	74.008423
11755.780319	1552.573333	1876.096680	102.181259
11755.780319	1552.573333	1875.109375	11.706494
11755.780319	1552.573333	1874.122070	-23.064545
11755.780319	1552.573333	1873.134766	9.937978
11755.780319	1552.573333	1872.146484	11.467285
11755.780319	1552.573333	1871.159180	-16.039204
11755.780319	1552.573333	1870.170898	123.357574
11755.780319	1552.573333	1869.182617	-12.994521
11755.780319	1552.573333	1868.194336	15.117419
11755.780319	1552.573333	1867.205078	-14.804860
11755.780319	1552.573333	1866.216797	-1.213548
11755.780319	1552.573333	1865.227539	60.698788
11755.780319	1552.573333	1864.238281	35.604256
11755.780319	1552.573333	1863.249023	87.815369
11755.780319	1552.573333	1862.259766	50.640984
11755.780319	1552.573333	1861.269531	32.793510
11755.780319	1552.573333	1860.279297	-1.951156
11755.780319	1552.573333	1859.290039	45.383324
11755.780319	1552.573333	1858.298828	39.600647
11755.780319	1552.573333	1857.308594	24.164974
11755.780319	1552.573333	1856.318359	78.692276
11755.780319	1552.573333	1855.327148	24.653978
11755.780319	1552.573333	1854.335938	45.390205
11755.780319	1552.573333	1853.344727	-3.807522
11755.780319	1552.573333	1852.353516	67.541771
11755.780319	1552.573333	1851.362305	37.631695
11755.780319	1552.573333	1850.370117	19.777178
11755.780319	1552.573333	1849.377930	6.743648
11755.780319	1552.573333	1848.385742	-6.288948
11755.780319	1552.573333	1847.393555	72.198204
11755.780319	1552.573333	1846.401367	61.558155
11755.780319	1552.573333	1845.408203	-21.306801
11755.780319	1552.573333	1844.415039	148.592911
11755.780319	1552.573333	1843.421875	32.042946
11755.780319	1552.573333	1842.428711	33.432484
11755.780319	1552.573333	1841.435547	75.713936
11755.780319	1552.573333	1840.441406	101.138695
11755.780319	1552.573333	1839.448242	3.907379
11755.780319	1552.573333	1838.454102	-1.927914
11755.780319	1552.573333	1837.459961	-77.476952
11755.780319	1552.573333	1836.464844	80.128342
11755.780319	1552.573333	1835.470703	14.196525
11755.780319	1552.573333	1834.475586	-46.909790
11755.780319	1552.573333	1833.480469	134.609558
11755.780319	1552.573333	1832.485352	-36.977612
11755.780319	1552.573333	1831.490234	26.807735
11755.780319	1552.573333	1830.495117	23.346220
11755.780319	1552.573333	1829.499023	-68.927200
11755.780319	1552.573333	1828.502930	47.611370
11755.780319	1552.573333	1827.506836	-59.035610
11755.780319	1552.573333	1826.510742	14.270053
11755.780319	1552.573333	1825.513672	46.770184
11755.780319	1552.573333	1824.517578	2.519730
11755.780319	1552.573333	1823.520508	-15.345567
11755.780319	1552.573333	1822.523438	79.454460
11755.780319	1552.573333	1821.526367	83.143204
11755.780319	1552.573333	1820.529297	-11.415794
11755.780319	1552.573333	1819.531250	85.713600
11755.780319	1552.573333	1818.533203	82.201706
11755.780319	1552.573333	1817.535156	-65.001526
11755.780319	1552.573333	1816.537109	65.592941
11755.780319	1552.573333	1815.539063	-12.135510
11755.780319	1552.573333	1814.540039	-46.756851
11755.780319	1552.573333	1813.541992	47.853756
11755.780319	1552.573333	1812.542969	61.077824
11755.780319	1552.573333	1811.543945	52.764149
11755.780319	1552.573333	1810.543945	-22.516878
11755.780319	1552.573333	1809.544922	-28.427748
11755.780319	1552.573333	1808.544922	1.520444
11755.780319	1552.573333	1807.544922	55.356197
11755.780319	1552.573333	1806.544922	82.880051
11755.780319	1552.573333	1805.544922	41.097134
11755.780319	1552.573333	1804.544922	20.827024
11755.780319	1552.573333	1803.543945	-13.770802
11755.780319	1552.573333	1802.542969	94.922745
11755.780319	1552.573333	1801.541992	124.781189
11755.780319	1552.573333	1800.541016	23.332378
11755.780319	1552.573333	1799.539063	31.704994
11755.780319	1552.573333	1798.538086	54.388474
11755.780319	1552.573333	1797.536133	62.744446
11755.780319	1552.573333	1796.534180	1.919121
11755.780319	1552.573333	1795.532227	100.899551
11755.780319	1552.573333	1794.529297	99.692101
11755.780319	1552.573333	1793.527344	57.954937
11755.780319	1552.573333	1792.524414	125.870697
11755.780319	1552.573333	1791.521484	0.728421
11755.780319	1552.573333	1790.518555	11.439241
11755.780319	1552.573333	1789.514648	105.516823
11755.780319	1552.573333	1788.511719	39.981174
11755.780319	1552.573333	1787.507813	14.947279
11755.780319	1552.573333	1786.503906	23.250336
11755.780319	1552.573333	1785.500000	55.349808
11755.780319	1552.573333	1784.496094	68.394371
11755.780319	1552.573333	1783.491211	10.045376
11755.780319	1552.573333	1782.486328	32.600922
11755.780319	1552.573333	1781.481445	-59.026402
11755.780319	1552.573333	1780.476563	49.137516
11755.780319	1552.573333	1779.471680	-18.689556
11755.780319	1552.573333	1778.465820	96.548973
11755.780319	1552.573333	1777.460938	-44.948353
11755.780319	1552.573333	1776.455078	-55.700413
11755.780319	1552.573333	1775.449219	-30.814604
11755.780319	1552.573333	1774.442383	84.322289
11755.780319	1552.573333	1773.436523	-64.206879
11755.780319	1552.573333	1772.429688	62.756954
11755.780319	1552.573333	1771.422852	75.714561
11755.780319	1552.573333	1770.416016	31.696936
11755.780319	1552.573333	1769.409180	54.139854
11755.780319	1552.573333	1768.402344	128.769623
11755.780319	1552.573333	1767.394531	30.192610
11755.780319	1552.573333	1766.386719	64.469162
11755.780319	1552.573333	1765.378906	-31.695169
11755.780319	1552.573333	1764.371094	7.313625
11755.780319	1552.573333	1763.362305	84.229568
11755.780319	1552.573333	1762.354492	104.233490
11755.780319	1552.573333	1761.345703	83.942619
11755.780319	1552.573333	1760.336914	-0.310197
11755.780319	1552.573333	1759.328125	-49.005447
11755.780319	1552.573333	1758.318359	-50.323669
11755.780319	1552.573333	1757.308594	69.109001
11755.780319	1552.573333	1756.299805	44.088314
11755.780319	1552.573333	1755.290039	28.539574
11755.780319	1552.573333	1754.279297	39.021591
11755.780319	1552.573333	1753.269531	4.543619
11755.780319	1552.573333	1752.258789	-25.195379
11755.780319	1552.573333	1751.249023	-19.451271
11755.780319	1552.573333	1750.238281	85.597931
11755.780319	1552.573333	1749.226563	6.199767
11755.780319	1552.573333	1748.215820	0.102295
11755.780319	1552.573333	1747.204102	76.714882
11755.780319	1552.573333	1746.193359	11.528295
11755.780319	1552.573333	1745.181641	-8.754668
11755.780319	1552.573333	1744.168945	-14.864253
11755.780319	1552.573333	1743.157227	42.783581
11755.780319	1552.573333	1742.144531	10.687031
11755.780319	1552.573333	1741.132813	9.285866
11755.780319	1552.573333	1740.120117	-15.720804
11755.780319	1552.573333	1739.106445	-7.688962
11755.780319	1552.573333	1738.093750	26.287251
11755.780319	1552.573333	1737.080078	-27.027653
11755.780319	1552.573333	1736.067383	-16.652845
11755.780319	1552.573333	1735.053711	-48.728123
11755.780319	1552.573333	1734.040039	11.141704
11755.780319	1552.573333	1733.025391	26.201538
11755.780319	1552.573333	1732.011719	12.974231
11755.780319	1552.573333	1730.997070	4.458379
11755.780319	1552.573333	1729.982422	-65.303589
11755.780319	1552.573333	1728.967773	-31.418621
11755.780319	1552.573333	1727.952148	-51.709461
11755.780319	1552.573333	1726.937500	43.360451
11755.780319	1552.573333	1725.921875	25.407108
11755.780319	1552.573333	1724.906250	125.121887
11755.780319	1552.573333	1723.890625	217.735245
11755.780319	1552.573333	1722.875000	13.903407
11755.780319	1552.573333	1721.858398	59.452549
11755.780319	1552.573333	1720.841797	-26.705978
11755.780319	1552.573333	1719.825195	-21.144447
11755.780319	1552.573333	1718.808594	5.565843
11755.780319	1552.573333	1717.791992	93.365311
11755.780319	1552.573333	1716.774414	-20.950912
11755.780319	1552.573333	1715.756836	-1.319587
11755.780319	1552.573333	1714.739258	-31.026119
11755.780319	1552.573333	1713.721680	-25.500454
11755.780319	1552.573333	1712.704102	-62.244549
11755.780319	1552.573333	1711.685547	55.952480
11755.780319	1552.573333	1710.667969	-41.825546
11755.780319	1552.573333	1709.649414	15.301639
11755.780319	1552.573333	1708.630859	124.016449
11755.780319	1552.573333	1707.611328	-81.636513
11755.780319	1552.573333	1706.592773	-10.478162
11755.780319	1552.573333	1705.573242	-28.454689
11755.780319	1552.573333	1704.553711	63.753792
11755.780319	1552.573333	1703.534180	-17.524601
11755.780319	1552.573333	1702.513672	13.706387
11755.780319	1552.573333	1701.494141	2.747694
11755.780319	1552.573333	1700.473633	-38.665501
11755.780319	1552.573333	1699.453125	20.641201
11755.780319	1552.573333	1698.432617	9.671460
11755.780319	1552.573333	1697.412109	78.300514
11755.780319	1552.573333	1696.390625	100.082710
11755.780319	1552.573333	1695.369141	91.428047
11755.780319	1552.573333	1694.347656	19.596056
11755.780319	1552.573333	1693.326172	-12.443783
11755.780319	1552.573333	1692.304688	-28.104065
11755.780319	1552.573333	1691.282227	56.789886
11755.780319	1552.573333	1690.260742	64.492477
11755.780319	1552.573333	1689.238281	-0.279011
11755.780319	1552.573333	1688.214844	-34.649113
11755.780319	1552.573333	1687.192383	31.467184
11755.780319	1552.573333	1686.168945	11.111339
11755.780319	1552.573333	1685.146484	60.832729
11755.780319	1552.573333	1684.123047	0.768265
11755.780319	1552.573333	1683.099609	27.112438
11755.780319	1552.573333	1682.075195	-37.602440
11755.780319	1552.573333	1681.051758	75.086136
11755.780319	1552.573333	1680.027344	87.383141
11755.780319	1552.573333	1679.002930	22.678667
11755.780319	1552.573333	1677.978516	-0.018255
11755.780319	1552.573333	1676.953125	19.266321
11755.780319	1552.573333	1675.928711	61.857002
11755.780319	1552.573333	1674.903320	81.112305
11755.780319	1552.573333	1673.877930	44.415249
11755.780319	1552.573333	1672.852539	98.612282
11755.780319	1552.573333	1671.826172	-21.963057
11755.780319	1552.573333	1670.800781	-7.385278
11755.780319	1552.573333	1669.774414	32.800041
11755.780319	1552.573333	1668.748047	-6.207163
11755.780319	1552.573333	1667.721680	43.265003
11755.780319	1552.573333	1666.694336	83.401382
11755.780319	1552.573333	1665.667969	44.392159
11755.780319	1552.573333	1664.640625	68.215393
11755.780319	1552.573333	1663.613281	8.276372
11755.780319	1552.573333	1662.585938	97.212570
11755.780319	1552.573333	1661.557617	83.788895
11755.780319	1552.573333	1660.530273	19.217045
11755.780319	1552.573333	1659.501953	45.321255
11755.780319	1552.573333	1658.473633	38.873524
11755.780319	1552.573333	1657.444336	74.247635
11755.780319	1552.573333	1656.416016	130.513489
11755.780319	1552.573333	1655.386719	-1.390960
11755.780319	1552.573333	1654.358398	29.313190
11755.780319	1552.573333	1653.328125	83.216690
11755.780319	1552.573333	1652.298828	120.846275
11755.780319	1552.573333	1651.269531	33.125042
11755.780319	1552.573333	1650.239258	49.854733
11755.780319	1552.573333	1649.208984	36.412865
11755.780319	1552.573333	1648.178711	108.796783
11755.780319	1552.573333	1647.148438	150.999435
11755.780319	1552.573333	1646.117188	139.849670
11755.780319	1552.573333	1645.086914	279.387909
11755.780319	1552.573333	1644.055664	105.962227
11755.780319	1552.573333	1643.024414	134.209427
11755.780319	1552.573333	1641.992188	174.024979
11755.780319	1552.573333	1640.960938	144.328018
11755.780319	1552.573333	1639.928711	202.645767
11755.780319	1552.573333	1638.896484	281.776459
11755.780319	1552.573333	1637.864258	103.894920
11755.780319	1552.573333	1636.832031	199.208481
11755.780319	1552.573333	1635.798828	169.512253
11755.780319	1552.573333	1634.766602	260.140686
11755.780319	1552.573333	1633.733398	211.929367
11755.780319	1552.573333	1632.699219	209.988861
11755.780319	1552.573333	1631.666016	150.236221
11755.780319	1552.573333	1630.632813	259.276611
11755.780319	1552.573333	1629.598633	155.609451
11755.780319	1552.573333	1628.564453	84.334053
11755.780319	1552.573333	1627.530273	193.311295
11755.780319	1552.573333	1626.495117	223.694901
11755.780319	1552.573333	1625.460938	191.702225
11755.780319	1552.573333	1624.425781	83.510544
11755.780319	1552.573333	1623.390625	86.181335
11755.780319	1552.573333	1622.355469	121.164841
11755.780319	1552.573333	1621.319336	139.974640
11755.780319	1552.573333	1620.284180	94.165520
11755.780319	1552.573333	1619.248047	161.414261
11755.780319	1552.573333	1618.211914	180.195160
11755.780319	1552.573333	1617.174805	90.575790
11755.780319	1552.573333	1616.138672	141.636551
11755.780319	1552.573333	1615.101563	158.094513
11755.780319	1552.573333	1614.065430	96.181458
11755.780319	1552.573333	1613.027344	43.504192
11755.780319	1552.573333	1611.990234	55.354973
11755.780319	1552.573333	1610.953125	104.053291
11755.780319	1552.573333	1609.915039	79.032646
11755.780319	1552.573333	1608.876953	106.977592
11755.780319	1552.573333	1607.838867	171.742676
11755.780319	1552.573333	1606.800781	167.430511
11755.780319	1552.573333	1605.761719	117.092026
11755.780319	1552.573333	1604.723633	48.366043
11755.780319	1552.573333	1603.684570	165.987656
11755.780319	1552.573333	1602.644531	115.670288
11755.780319	1552.573333	1601.605469	182.641678
11755.780319	1552.573333	1600.566406	162.223969
11755.780319	1552.573333	1599.526367	157.900696
11755.780319	1552.573333	1598.486328	54.760269
11755.780319	1552.573333	1597.446289	126.276611
11755.780319	1552.573333	1596.405273	197.761887
11755.780319	1552.573333	1595.365234	119.932106
11755.780319	1552.573333	1594.324219	67.388786
11755.780319	1552.573333	1593.283203	168.683945
11755.780319	1552.573333	1592.242188	111.557640
11755.780319	1552.573333	1591.200195	164.606949
11755.780319	1552.573333	1590.159180	130.445343
11755.780319	1552.573333	1589.117188	128.410675
11755.780319	1552.573333	1588.075195	213.531525
11755.780319	1552.573333	1587.032227	211.477707
11755.780319	1552.573333	1585.990234	90.205742
11755.780319	1552.573333	1584.947266	246.338364
11755.780319	1552.573333	1583.904297	175.522842
11755.780319	1552.573333	1582.861328	155.143280
11755.780319	1552.573333	1581.818359	125.607460
11755.780319	1552.573333	1580.775391	171.666962
11755.780319	1552.573333	1579.731445	36.797249
11755.780319	1552.573333	1578.687500	227.094543
11755.780319	1552.573333	1577.643555	167.806015
11755.780319	1552.573333	1576.598633	170.332199
11755.780319	1552.573333	1575.554688	184.299515
11755.780319	1552.573333	1574.509766	86.160080
11755.780319	1552.573333	1573.464844	134.446152
11755.780319	1552.573333	1572.419922	235.310898
11755.780319	1552.573333	1571.374023	201.237137
11755.780319	1552.573333	1570.329102	96.313705
11755.780319	1552.573333	1569.283203	174.270554
11755.780319	1552.573333	1568.237305	201.926071
11755.780319	1552.573333	1567.191406	211.294495
11755.780319	1552.573333	1566.144531	248.068146
11755.780319	1552.573333	1565.098633	220.885406
11755.780319	1552.573333	1564.051758	264.493805
11755.780319	1552.573333	1563.004883	282.975189
11755.780319	1552.573333	1561.957031	212.436371
11755.780319	1552.573333	1560.910156	303.943970
11755.780319	1552.573333	1559.862305	222.023407
11755.780319	1552.573333	1558.814453	352.271576
11755.780319	1552.573333	1557.766602	414.052399
11755.780319	1552.573333	1556.718750	430.207947
11755.780319	1552.573333	1555.669922	423.560486
11755.780319	1552.573333	1554.621094	494.411011
11755.780319	1552.573333	1553.573242	496.873077
11755.780319	1552.573333	1552.523438	410.478577
11755.780319	1552.573333	1551.474609	574.688477
11755.780319	1552.573333	1550.424805	481.484253
11755.780319	1552.573333	1549.375000	645.618103
11755.780319	1552.573333	1548.325195	579.759155
11755.780319	1552.573333	1547.275391	486.615479
11755.780319	1552.573333	1546.225586	598.318481
11755.780319	1552.573333	1545.174805	534.788818
11755.780319	1552.573333	1544.124023	446.264496
11755.780319	1552.573333	1543.073242	419.183868
11755.780319	1552.573333	1542.022461	451.236725
11755.780319	1552.573333	1540.970703	506.012665
11755.780319	1552.573333	1539.919922	503.947571
11755.780319	1552.573333	1538.868164	422.347229
11755.780319	1552.573333	1537.815430	508.913147
11755.780319	1552.573333	1536.763672	436.437134
11755.780319	1552.573333	1535.710938	643.344421
11755.780319	1552.573333	1534.659180	495.943878
11755.780319	1552.573333	1533.606445	496.170959
11755.780319	1552.573333	1532.552734	360.211334
11755.780319	1552.573333	1531.500000	267.428589
11755.780319	1552.573333	1530.446289	258.635101
11755.780319	1552.573333	1529.393555	227.165894
11755.780319	1552.573333	1528.338867	238.803085
11755.780319	1552.573333	1527.285156	225.498138
11755.780319	1552.573333	1526.231445	293.819214
11755.780319	1552.573333	1525.176758	264.649414
11755.780319	1552.573333	1524.122070	160.710098
11755.780319	1552.573333	1523.067383	195.029449
11755.780319	1552.573333	1522.012695	229.339981
11755.780319	1552.573333	1520.957031	68.860298
11755.780319	1552.573333	1519.901367	173.388870
11755.780319	1552.573333	1518.845703	166.945313
11755.780319	1552.573333	1517.790039	122.029526
11755.780319	1552.573333	1516.734375	145.029755
11755.780319	1552.573333	1515.677734	181.600922
11755.780319	1552.573333	1514.621094	125.413048
11755.780319	1552.573333	1513.564453	64.729660
11755.780319	1552.573333	1512.507813	74.176605
11755.780319	1552.573333	1511.450195	61.015965
11755.780319	1552.573333	1510.393555	142.804932
11755.780319	1552.573333	1509.335938	9.870080
11755.780319	1552.573333	1508.278320	30.640932
11755.780319	1552.573333	1507.219727	31.077354
11755.780319	1552.573333	1506.162109	20.228188
11755.780319	1552.573333	1505.103516	7.130503
11755.780319	1552.573333	1504.044922	55.003105
11755.780319	1552.573333	1502.986328	-79.975685
11755.780319	1552.573333	1501.926758	107.831284
11755.780319	1552.573333	1500.868164	56.395390
11755.780319	1552.573333	1499.808594	81.687851
11755.780319	1552.573333	1498.749023	-28.351864
11755.780319	1552.573333	1497.688477	15.001075
11755.780319	1552.573333	1496.628906	92.164024
11755.780319	1552.573333	1495.568359	76.882927
11755.780319	1552.573333	1494.507813	7.527152
11755.780319	1552.573333	1493.447266	23.829708
11755.780319	1552.573333	1492.386719	40.133713
11755.780319	1552.573333	1491.325195	-35.907990
11755.780319	1552.573333	1490.263672	-17.331818
11755.780319	1552.573333	1489.202148	1.245379
11755.780319	1552.573333	1488.140625	-38.702667
11755.780319	1552.573333	1487.079102	-78.626541
11755.780319	1552.573333	1486.016602	-89.275711
11755.780319	1552.573333	1484.954102	28.318739
11755.780319	1552.573333	1483.891602	10.922282
11755.780319	1552.573333	1482.829102	-17.702291
11755.780319	1552.573333	1481.765625	9.901893
11755.780319	1552.573333	1480.702148	39.748138
11755.780319	1552.573333	1479.638672	-132.668350
11755.780319	1552.573333	1478.575195	-57.836479
11755.780319	1552.573333	1477.511719	-120.051582
11755.780319	1552.573333	1476.447266	-60.969524
11755.780319	1552.573333	1475.382813	-22.131498
11755.780319	1552.573333	1474.318359	88.566101
11755.780319	1552.573333	1473.253906	28.632893
11755.780319	1552.573333	1472.189453	11.365346
11755.780319	1552.573333	1471.124023	7.602014
11755.780319	1552.573333	1470.058594	39.707912
11755.780319	1552.573333	1468.993164	33.710472
11755.780319	1552.573333	1467.927734	23.297037
11755.780319	1552.573333	1466.861328	-36.481892
11755.780319	1552.573333	1465.794922	22.532358
11755.780319	1552.573333	1464.728516	63.664097
11755.780319	1552.573333	1463.662109	-25.148609
11755.780319	1552.573333	1462.594727	-15.426263
11755.780319	1552.573333	1461.528320	-12.335113
11755.780319	1552.573333	1460.460938	42.145767
11755.780319	1552.573333	1459.393555	-44.183651
11755.780319	1552.573333	1458.326172	46.269234
11755.780319	1552.573333	1457.257813	20.000086
11755.780319	1552.573333	1456.189453	-12.606202
11755.780319	1552.573333	1455.121094	-0.557122
11755.780319	1552.573333	1454.052734	-42.266903
11755.780319	1552.573333	1452.984375	-105.657341
11755.780319	1552.573333	1451.915039	57.796082
11755.780319	1552.573333	1450.845703	20.883961
11755.780319	1552.573333	1449.776367	-31.684645
11755.780319	1552.573333	1448.707031	24.452152
11755.780319	1552.573333	1447.636719	-31.520685
11755.780319	1552.573333	1446.567383	42.639942
11755.780319	1552.573333	1445.497070	36.722595
11755.780319	1552.573333	1444.425781	10.514726
11755.780319	1552.573333	1443.355469	7.716402
11755.780319	1552.573333	1442.285156	36.287746
11755.780319	1552.573333	1441.213867	56.682823
11755.780319	1552.573333	1440.142578	99.391327
11755.780319	1552.573333	1439.070313	109.400787
11755.780319	1552.573333	1437.999023	46.070339
11755.780319	1552.573333	1436.926758	94.069077
11755.780319	1552.573333	1435.854492	25.070484
11755.780319	1552.573333	1434.782227	80.552895
11755.780319	1552.573333	1433.709961	151.504410
11755.780319	1552.573333	1432.636719	135.559357
11755.780319	1552.573333	1431.563477	152.699493
11755.780319	1552.573333	1430.490234	148.412949
11755.780319	1552.573333	1429.416992	106.758850
11755.780319	1552.573333	1428.343750	204.960144
11755.780319	1552.573333	1427.269531	156.251801
11755.780319	1552.573333	1426.195313	194.470520
11755.780319	1552.573333	1425.121094	65.325096
11755.780319	1552.573333	1424.046875	93.057762
11755.780319	1552.573333	1422.971680	143.256317
11755.780319	1552.573333	1421.896484	111.811371
11755.780319	1552.573333	1420.821289	74.562302
11755.780319	1552.573333	1419.746094	111.209854
11755.780319	1552.573333	1418.669922	113.162918
11755.780319	1552.573333	1417.594727	120.564301
11755.780319	1552.573333	1416.518555	47.840645
11755.780319	1552.573333	1415.442383	104.021378
11755.780319	1552.573333	1414.365234	156.868454
11755.780319	1552.573333	1413.289063	144.093933
11755.780319	1552.573333	1412.211914	134.057892
11755.780319	1552.573333	1411.134766	145.993057
11755.780319	1552.573333	1410.057617	110.128235
11755.780319	1552.573333	1408.979492	14.984003
11755.780319	1552.573333	1407.902344	113.453163
11755.780319	1552.573333	1406.824219	83.278984
11755.780319	1552.573333	1405.746094	85.062294
11755.780319	1552.573333	1404.666992	135.024399
11755.780319	1552.573333	1403.588867	62.645172
11755.780319	1552.573333	1402.509766	157.918930
11755.780319	1552.573333	1401.430664	-1.809878
11755.780319	1552.573333	1400.351563	220.903336
11755.780319	1552.573333	1399.271484	113.111008
11755.780319	1552.573333	1398.192383	59.629997
11755.780319	1552.573333	1397.112305	206.905960
11755.780319	1552.573333	1396.031250	117.661598
11755.780319	1552.573333	1394.951172	88.045265
11755.780319	1552.573333	1393.871094	70.914566
11755.780319	1552.573333	1392.790039	139.759491
11755.780319	1552.573333	1391.708984	186.992447
11755.780319	1552.573333	1390.626953	21.812685
11755.780319	1552.573333	1389.545898	189.043686
11755.780319	1552.573333	1388.463867	97.504601
11755.780319	1552.573333	1387.381836	47.822121
11755.780319	1552.573333	1386.299805	192.124435
11755.780319	1552.573333	1385.217773	129.732101
11755.780319	1552.573333	1384.134766	119.003624
11755.780319	1552.573333	1383.051758	113.380836
11755.780319	1552.573333	1381.968750	181.944534
11755.780319	1552.573333	1380.885742	106.983078
11755.780319	1552.573333	1379.802734	196.205185
11755.780319	1552.573333	1378.718750	179.153488
11755.780319	1552.573333	1377.634766	132.152344
11755.780319	1552.573333	1376.550781	150.442932
11755.780319	1552.573333	1375.465820	156.397278
11755.780319	1552.573333	1374.381836	193.862656
11755.780319	1552.573333	1373.296875	157.524277
11755.780319	1552.573333	1372.211914	67.963470
11755.780319	1552.573333	1371.126953	98.079895
11755.780319	1552.573333	1370.041016	147.596207
11755.780319	1552.573333	1368.955078	131.731888
11755.780319	1552.573333	1367.869141	194.196625
11755.780319	1552.573333	1366.783203	121.293396
11755.780319	1552.573333	1365.697266	182.398636
11755.780319	1552.573333	1364.610352	210.622284
11755.780319	1552.573333	1363.523438	159.371979
11755.780319	1552.573333	1362.436523	80.501678
11755.780319	1552.573333	1361.349609	229.815826
11755.780319	1552.573333	1360.261719	81.203697
11755.780319	1552.573333	1359.174805	185.262146
11755.780319	1552.573333	1358.086914	64.831551
11755.780319	1552.573333	1356.998047	63.976852
11755.780319	1552.573333	1355.910156	129.389313
11755.780319	1552.573333	1354.821289	129.289505
11755.780319	1552.573333	1353.732422	62.169407
11755.780319	1552.573333	1352.643555	158.010651
11755.780319	1552.573333	1351.554688	151.059799
11755.780319	1552.573333	1350.464844	79.099312
11755.780319	1552.573333	1349.375000	68.792465
11755.780319	1552.573333	1348.285156	152.368240
11755.780319	1552.573333	1347.195313	202.840729
11755.780319	1552.573333	1346.105469	269.842987
11755.780319	1552.573333	1345.014648	161.571320
11755.780319	1552.573333	1343.923828	180.681870
11755.780319	1552.573333	1342.833008	231.476349
11755.780319	1552.573333	1341.741211	90.273209
11755.780319	1552.573333	1340.650391	85.259644
11755.780319	1552.573333	1339.558594	41.439537
11755.780319	1552.573333	1338.466797	161.868622
11755.780319	1552.573333	1337.374023	106.656876
11755.780319	1552.573333	1336.282227	145.238968
11755.780319	1552.573333	1335.189453	132.312714
11755.780319	1552.573333	1334.096680	78.771194
11755.780319	1552.573333	1333.003906	83.498138
11755.780319	1552.573333	1331.910156	99.802559
11755.780319	1552.573333	1330.817383	75.916595
11755.780319	1552.573333	1329.723633	88.666367
11755.780319	1552.573333	1328.629883	89.898727
11755.780319	1552.573333	1327.535156	132.696915
11755.780319	1552.573333	1326.441406	132.927963
11755.780319	1552.573333	1325.346680	63.417107
11755.780319	1552.573333	1324.251953	168.186447
11755.780319	1552.573333	1323.156250	202.654480
11755.780319	1552.573333	1322.061523	124.952278
11755.780319	1552.573333	1320.965820	65.454010
11755.780319	1552.573333	1319.870117	143.703934
11755.780319	1552.573333	1318.774414	177.923172
11755.780319	1552.573333	1317.678711	125.581596
11755.780319	1552.573333	1316.582031	127.010376
11755.780319	1552.573333	1315.485352	58.033733
11755.780319	1552.573333	1314.388672	78.670639
11755.780319	1552.573333	1313.291016	46.023018
11755.780319	1552.573333	1312.194336	10.679017
11755.780319	1552.573333	1311.096680	47.686817
11755.780319	1552.573333	1309.999023	115.149162
11755.780319	1552.573333	1308.901367	154.325470
11755.780319	1552.573333	1307.802734	228.739380
11755.780319	1552.573333	1306.705078	117.866585
11755.780319	1552.573333	1305.606445	180.798599
11755.780319	1552.573333	1304.506836	233.955765
11755.780319	1552.573333	1303.408203	301.682648
11755.780319	1552.573333	1302.308594	151.277115
11755.780319	1552.573333	1301.208984	176.464828
11755.780319	1552.573333	1300.109375	180.077240
11755.780319	1552.573333	1299.009766	204.976089
11755.780319	1552.573333	1297.909180	167.038818
11755.780319	1552.573333	1296.808594	126.512543
11755.780319	1552.573333	1295.708008	63.201126
11755.780319	1552.573333	1294.607422	175.796112
11755.780319	1552.573333	1293.506836	180.134079
11755.780319	1552.573333	1292.405273	98.604721
11755.780319	1552.573333	1291.303711	125.433624
11755.780319	1552.573333	1290.202148	69.929764
11755.780319	1552.573333	1289.099609	208.095673
11755.780319	1552.573333	1287.998047	177.908646
11755.780319	1552.573333	1286.895508	217.870911
11755.780319	1552.573333	1285.792969	198.887207
11755.780319	1552.573333	1284.689453	261.216187
11755.780319	1552.573333	1283.586914	331.342407
11755.780319	1552.573333	1282.483398	326.625854
11755.780319	1552.573333	1281.379883	394.714355
11755.780319	1552.573333	1280.276367	524.449341
11755.780319	1552.573333	1279.171875	627.360779
11755.780319	1552.573333	1278.067383	601.567200
11755.780319	1552.573333	1276.962891	705.999084
11755.780319	1552.573333	1275.858398	782.216492
11755.780319	1552.573333	1274.753906	860.351746
11755.780319	1552.573333	1273.648438	919.729553
11755.780319	1552.573333	1272.542969	1012.114380
11755.780319	1552.573333	1271.437500	1119.577148
11755.780319	1552.573333	1270.331055	1170.539795
11755.780319	1552.573333	1269.225586	1156.491333
11755.780319	1552.573333	1268.119141	1154.727661
11755.780319	1552.573333	1267.012695	1082.630859
11755.780319	1552.573333	1265.906250	936.854675
11755.780319	1552.573333	1264.798828	821.804382
11755.780319	1552.573333	1263.691406	689.765442
11755.780319	1552.573333	1262.583984	523.759338
11755.780319	1552.573333	1261.476563	392.697021
11755.780319	1552.573333	1260.368164	354.661255
11755.780319	1552.573333	1259.260742	282.354523
11755.780319	1552.573333	1258.152344	143.206207
11755.780319	1552.573333	1257.043945	222.780212
11755.780319	1552.573333	1255.934570	117.271667
11755.780319	1552.573333	1254.825195	171.393158
11755.780319	1552.573333	1253.716797	72.700020
11755.780319	1552.573333	1252.606445	218.519119
11755.780319	1552.573333	1251.497070	98.287712
11755.780319	1552.573333	1250.387695	134.835220
11755.780319	1552.573333	1249.277344	135.984467
11755.780319	1552.573333	1248.166992	152.593277
11755.780319	1552.573333	1247.055664	62.014511
11755.780319	1552.573333	1245.945313	83.283226
11755.780319	1552.573333	1244.833984	79.522301
11755.780319	1552.573333	1243.722656	82.489685
11755.780319	1552.573333	1242.611328	58.528236
11755.780319	1552.573333	1241.499023	82.254776
11755.780319	1552.573333	1240.387695	128.192093
11755.780319	1552.573333	1239.275391	14.528564
11755.780319	1552.573333	1238.162109	11.812875
11755.780319	1552.573333	1237.049805	-38.811852
11755.780319	1552.573333	1235.936523	-39.678707
11755.780319	1552.573333	1234.823242	-19.042500
11755.780319	1552.573333	1233.709961	21.278023
11755.780319	1552.573333	1232.596680	19.169680
11755.780319	1552.573333	1231.482422	-3.623722
11755.780319	1552.573333	1230.369141	-25.019178
11755.780319	1552.573333	1229.253906	-22.133606
11755.780319	1552.573333	1228.139648	-6.735387
11755.780319	1552.573333	1227.025391	26.697363
11755.780319	1552.573333	1225.910156	-34.617901
11755.780319	1552.573333	1224.794922	7.497320
11755.780319	1552.573333	1223.679688	-11.038415
11755.780319	1552.573333	1222.563477	-5.665850
11755.780319	1552.573333	1221.447266	-19.765820
11755.780319	1552.573333	1220.331055	-17.024502
11755.780319	1552.573333	1219.214844	-15.468658
11755.780319	1552.573333	1218.098633	13.508500
11755.780319	1552.573333	1216.981445	14.211359
11755.780319	1552.573333	1215.864258	-47.469688
11755.780319	1552.573333	1214.747070	30.580442
11755.780319	1552.573333	1213.629883	-10.701379
11755.780319	1552.573333	1212.511719	-15.701924
11755.780319	1552.573333	1211.393555	-63.011765
11755.780319	1552.573333	1210.275391	9.809623
11755.780319	1552.573333	1209.157227	-0.661734
11755.780319	1552.573333	1208.038086	-13.554787
11755.780319	1552.573333	1206.918945	60.124847
11755.780319	1552.573333	1205.799805	-2.381770
11755.780319	1552.573333	1204.680664	-43.844559
11755.780319	1552.573333	1203.560547	20.039660
11755.780319	1552.573333	1202.441406	28.499535
11755.780319	1552.573333	1201.321289	-6.105252
11755.780319	1552.573333	1200.200195	-6.329533
11755.780319	1552.573333	1199.080078	40.334637
11755.780319	1552.573333	1197.958984	34.792103
11755.780319	1552.573333	1196.837891	-27.930038
11755.780319	1552.573333	1195.716797	28.081152
11755.780319	1552.573333	1194.594727	2.733837
11755.780319	1552.573333	1193.473633	40.917309
11755.780319	1552.573333	1192.351563	58.630653
11755.780319	1552.573333	1191.229492	-17.642002
11755.780319	1552.573333	1190.106445	47.745541
11755.780319	1552.573333	1188.984375	123.407433
11755.780319	1552.573333	1187.861328	103.952377
11755.780319	1552.573333	1186.738281	25.770267
11755.780319	1552.573333	1185.614258	72.927704
11755.780319	1552.573333	1184.491211	74.287384
11755.780319	1552.573333	1183.367188	22.432615
11755.780319	1552.573333	1182.243164	84.238884
11755.780319	1552.573333	1181.119141	63.690678
11755.780319	1552.573333	1179.994141	70.087494
11755.780319	1552.573333	1178.869141	18.786774
11755.780319	1552.573333	1177.744141	83.468307
11755.780319	1552.573333	1176.619141	30.065052
11755.780319	1552.573333	1175.493164	27.972952
11755.780319	1552.573333	1174.368164	31.986629
11755.780319	1552.573333	1173.242188	31.568260
11755.780319	1552.573333	1172.115234	-41.187580
11755.780319	1552.573333	1170.989258	-51.299721
11755.780319	1552.573333	1169.862305	32.339260
11755.780319	1552.573333	1168.735352	-6.194676
11755.780319	1552.573333	1167.608398	-14.439989
11755.780319	1552.573333	1166.481445	6.655675
11755.780319	1552.573333	1165.353516	-51.509575
11755.780319	1552.573333	1164.225586	-20.870497
11755.780319	1552.573333	1163.097656	-101.866188
11755.780319	1552.573333	1161.968750	15.198077
11755.780319	1552.573333	1160.840820	4.659253
11755.780319	1552.573333	1159.711914	38.446964
11755.780319	1552.573333	1158.583008	-40.649403
11755.780319	1552.573333	1157.453125	-54.650467
11755.780319	1552.573333	1156.324219	-2.091311
11755.780319	1552.573333	1155.194336	-25.997904
11755.780319	1552.573333	1154.064453	-22.176546
11755.780319	1552.573333	1152.933594	18.310139
11755.780319	1552.573333	1151.803711	-0.127338
11755.780319	1552.573333	1150.672852	46.020424
11755.780319	1552.573333	1149.541992	39.306030
11755.780319	1552.573333	1148.411133	31.422230
11755.780319	1552.573333	1147.279297	-13.914077
11755.780319	1552.573333	1146.147461	-24.071896
11755.780319	1552.573333	1145.015625	-23.743238
11755.780319	1552.573333	1143.883789	-64.415283
11755.780319	1552.573333	1142.750977	-53.192692
11755.780319	1552.573333	1141.619141	-23.661423
11755.780319	1552.573333	1140.486328	21.194420
11755.780319	1552.573333	1139.352539	-30.605520
11755.780319	1552.573333	1138.219727	-80.396683
11755.780319	1552.573333	1137.085938	-2.307483
11755.780319	1552.573333	1135.952148	-18.428062
11755.780319	1552.573333	1134.818359	34.014912
11755.780319	1552.573333	1133.683594	38.752918
11755.780319	1552.573333	1132.549805	-60.785248
11755.780319	1552.573333	1131.415039	49.300987
11755.780319	1552.573333	1130.279297	-7.811993
11755.780319	1552.573333	1129.144531	71.078575
11755.780319	1552.573333	1128.008789	-14.639472
11755.780319	1552.573333	1126.873047	20.204538
11755.780319	1552.573333	1125.737305	68.708649
11755.780319	1552.573333	1124.601563	24.514362
11755.780319	1552.573333	1123.464844	43.804279
11755.780319	1552.573333	1122.328125	86.915367
11755.780319	1552.573333	1121.191406	65.366325
11755.780319	1552.573333	1120.054688	-2.309732
11755.780319	1552.573333	1118.916992	40.125919
11755.780319	1552.573333	1117.779297	89.805687
11755.780319	1552.573333	1116.641602	60.028561
11755.780319	1552.573333	1115.503906	58.381111
11755.780319	1552.573333	1114.365234	32.119137
11755.780319	1552.573333	1113.226563	39.449059
11755.780319	1552.573333	1112.087891	88.284843
11755.780319	1552.573333	1110.949219	-29.568888
11755.780319	1552.573333	1109.809570	103.385315
11755.780319	1552.573333	1108.669922	32.063877
11755.780319	1552.573333	1107.530273	66.121498
11755.780319	1552.573333	1106.390625	29.573977
11755.780319	1552.573333	1105.250000	79.900925
11755.780319	1552.573333	1104.109375	24.115225
11755.780319	1552.573333	1102.968750	18.269793
11755.780319	1552.573333	1101.828125	42.897511
11755.780319	1552.573333	1100.686523	60.164486
11755.780319	1552.573333	1099.544922	-5.180019
11755.780319	1552.573333	1098.403320	-8.852625
11755.780319	1552.573333	1097.261719	-31.207647
11755.780319	1552.573333	1096.120117	-6.113806
11755.780319	1552.573333	1094.977539	114.347168
11755.780319	1552.573333	1093.834961	106.577423
11755.780319	1552.573333	1092.691406	103.022552
11755.780319	1552.573333	1091.548828	44.664951
11755.780319	1552.573333	1090.405273	112.600700
11755.780319	1552.573333	1089.261719	-20.423527
11755.780319	1552.573333	1088.118164	48.664722
11755.780319	1552.573333	1086.973633	30.605436
11755.780319	1552.573333	1085.829102	9.687555
11755.780319	1552.573333	1084.684570	-36.577984
11755.780319	1552.573333	1083.540039	13.007988
11755.780319	1552.573333	1082.395508	-21.619761
11755.780319	1552.573333	1081.250000	26.934971
11755.780319	1552.573333	1080.104492	44.937492
11755.780319	1552.573333	1078.958984	-69.411064
11755.780319	1552.573333	1077.812500	-73.157883
11755.780319	1552.573333	1076.666016	-15.620140
11755.780319	1552.573333	1075.519531	89.152817
11755.780319	1552.573333	1074.373047	-55.500435
11755.780319	1552.573333	1073.226563	13.696692
11755.780319	1552.573333	1072.079102	-46.906792
11755.780319	1552.573333	1070.931641	129.278244
11755.780319	1552.573333	1069.784180	97.308418
11755.780319	1552.573333	1068.635742	45.156979
11755.780319	1552.573333	1067.487305	-0.865949
11755.780319	1552.573333	1066.338867	41.824322
11755.780319	1552.573333	1065.190430	-6.589612
11755.780319	1552.573333	1064.041992	-8.907091
11755.780319	1552.573333	1062.892578	73.948860
11755.780319	1552.573333	1061.743164	22.110439
11755.780319	1552.573333	1060.593750	11.650628
11755.780319	1552.573333	1059.443359	71.103645
11755.780319	1552.573333	1058.292969	98.394943
11755.780319	1552.573333	1057.142578	0.019381
11755.780319	1552.573333	1055.992188	114.953506
11755.780319	1552.573333	1054.841797	14.846978
11755.780319	1552.573333	1053.690430	-9.895913
11755.780319	1552.573333	1052.539063	-23.380423
11755.780319	1552.573333	1051.387695	67.188858
11755.780319	1552.573333	1050.235352	6.679577
11755.780319	1552.573333	1049.083984	44.032448
11755.780319	1552.573333	1047.931641	93.080421
11755.780319	1552.573333	1046.778320	-46.373798
11755.780319	1552.573333	1045.625977	89.320290
11755.780319	1552.573333	1044.472656	124.784882
11755.780319	1552.573333	1043.319336	113.435806
11755.780319	1552.573333	1042.166016	62.059467
11755.780319	1552.573333	1041.012695	96.812355
11755.780319	1552.573333	1039.858398	135.646774
11755.780319	1552.573333	1038.704102	160.940247
11755.780319	1552.573333	1037.549805	101.237015
11755.780319	1552.573333	1036.394531	32.437569
11755.780319	1552.573333	1035.239258	74.620178
11755.780319	1552.573333	1034.083984	69.611275
11755.780319	1552.573333	1032.928711	63.448978
11755.780319	1552.573333	1031.773438	19.794931
11755.780319	1552.573333	1030.617188	161.639679
11755.780319	1552.573333	1029.460938	26.875038
11755.780319	1552.573333	1028.304688	49.236382
11755.780319	1552.573333	1027.147461	72.912971
11755.780319	1552.573333	1025.991211	36.617435
11755.780319	1552.573333	1024.833984	65.426498
11755.780319	1552.573333	1023.675781	-25.444756
11755.780319	1552.573333	1022.518555	-54.558273
11755.780319	1552.573333	1021.360352	71.467285
11755.780319	1552.573333	1020.202148	61.498440
11755.780319	1552.573333	1019.043945	-2.627131
11755.780319	1552.573333	1017.884766	-0.707539
11755.780319	1552.573333	1016.726563	60.905571
11755.780319	1552.573333	1015.567383	-18.480034
11755.780319	1552.573333	1014.407227	-11.434645
11755.780319	1552.573333	1013.248047	145.450409
11755.780319	1552.573333	1012.087891	75.478455
11755.780319	1552.573333	1010.927734	54.954323
11755.780319	1552.573333	1009.767578	19.033092
11755.780319	1552.573333	1008.606445	-40.633709
11755.780319	1552.573333	1007.446289	-36.406837
11755.780319	1552.573333	1006.285156	100.276955
11755.780319	1552.573333	1005.123047	15.520720
11755.780319	1552.573333	1003.961914	7.767723
11755.780319	1552.573333	1002.799805	-20.610497
11755.780319	1552.573333	1001.637695	91.641663
11755.780319	1552.573333	1000.475586	41.036724
11755.780319	1552.573333	999.312500	46.370182
11755.780319	1552.573333	998.149414	77.991432
11755.780319	1552.573333	996.986328	53.116848
11755.780319	1552.573333	995.823242	90.608070
11755.780319	1552.573333	994.659180	64.339195
11755.780319	1552.573333	993.496094	52.912338
11755.780319	1552.573333	992.332031	24.525558
11755.780319	1552.573333	991.166992	15.250193
11755.780319	1552.573333	990.002930	-17.074516
11755.780319	1552.573333	988.837891	16.131027
11755.780319	1552.573333	987.672852	55.815178
11755.780319	1552.573333	986.506836	-44.909752
11755.780319	1552.573333	985.341797	12.282382
11755.780319	1552.573333	984.175781	115.113922
11755.780319	1552.573333	983.009766	35.763985
11755.780319	1552.573333	981.843750	118.666000
11755.780319	1552.573333	980.676758	85.826530
11755.780319	1552.573333	979.509766	30.962318
11755.780319	1552.573333	978.342773	-3.584755
11755.780319	1552.573333	977.175781	-28.258936
11755.780319	1552.573333	976.007813	85.350861
11755.780319	1552.573333	974.839844	59.072483
11755.780319	1552.573333	973.671875	-52.385723
11755.780319	1552.573333	972.503906	-90.537086
11755.780319	1552.573333	971.334961	-15.374122
11755.780319	1552.573333	970.166016	-87.034515
11755.780319	1552.573333	968.997070	100.833153
11755.780319	1552.573333	967.828125	23.758272
11755.780319	1552.573333	966.658203	29.122334
11755.780319	1552.573333	965.488281	117.933189
11755.780319	1552.573333	964.318359	15.605005
11755.780319	1552.573333	963.148438	-58.144592
11755.780319	1552.573333	961.977539	-1.236624
11755.780319	1552.573333	960.806641	147.333618
11755.780319	1552.573333	959.635742	-22.050461
11755.780319	1552.573333	958.463867	19.270178
11755.780319	1552.573333	957.292969	59.247784
11755.780319	1552.573333	956.121094	89.865852
11755.780319	1552.573333	954.948242	58.198441
11755.780319	1552.573333	953.776367	99.420746
11755.780319	1552.573333	952.603516	115.077499
11755.780319	1552.573333	951.430664	36.113907
11755.780319	1552.573333	950.257813	30.921677
11755.780319	1552.573333	949.084961	-36.342102
11755.780319	1552.573333	947.911133	43.333366
11755.780319	1552.573333	946.737305	-59.406010
11755.780319	1552.573333	945.563477	39.941593
11755.780319	1552.573333	944.388672	110.226547
11755.780319	1552.573333	943.213867	60.809147
11755.780319	1552.573333	942.039063	78.076210
11755.780319	1552.573333	940.864258	-6.876188
11755.780319	1552.573333	939.688477	48.005669
11755.780319	1552.573333	938.513672	49.590252
11755.780319	1552.573333	937.337891	93.351112
11755.780319	1552.573333	936.161133	106.076675
11755.780319	1552.573333	934.985352	98.749939
11755.780319	1552.573333	933.808594	-10.611622
11755.780319	1552.573333	932.631836	37.555687
11755.780319	1552.573333	931.454102	90.148590
11755.780319	1552.573333	930.277344	105.014610
11755.780319	1552.573333	929.099609	13.414360
11755.780319	1552.573333	927.921875	68.189384
11755.780319	1552.573333	926.743164	-38.941349
11755.780319	1552.573333	925.565430	26.932474
11755.780319	1552.573333	924.386719	68.378304
11755.780319	1552.573333	923.208008	69.901779
11755.780319	1552.573333	922.028320	86.941566
11755.780319	1552.573333	920.849609	81.809387
11755.780319	1552.573333	919.669922	81.608055
11755.780319	1552.573333	919.474609	23.465677
11755.780319	1552.573333	918.309570	-6.026495
11755.780319	1552.573333	917.143555	30.929123
11755.780319	1552.573333	915.977539	59.008591
11755.780319	1552.573333	914.810547	25.086845
11755.780319	1552.573333	913.644531	-6.611280
11755.780319	1552.573333	912.477539	52.426899
11755.780319	1552.573333	911.310547	7.453879
11755.780319	1552.573333	910.143555	15.582805
11755.780319	1552.573333	908.975586	28.128046
11755.780319	1552.573333	907.807617	-7.978942
11755.780319	1552.573333	906.639648	0.137927
11755.780319	1552.573333	905.471680	-16.063471
11755.780319	1552.573333	904.303711	18.562239
11755.780319	1552.573333	903.134766	-74.966736
11755.780319	1552.573333	901.965820	-9.425707
11755.780319	1552.573333	900.796875	-30.040159
11755.780319	1552.573333	899.626953	39.875351
11755.780319	1552.573333	898.457031	50.158546
11755.780319	1552.573333	897.287109	18.501675
11755.780319	1552.573333	896.117188	59.672176
11755.780319	1552.573333	894.947266	34.640125
11755.780319	1552.573333	893.776367	-38.908554
11755.780319	1552.573333	892.605469	0.036713
11755.780319	1552.573333	891.434570	54.397667
11755.780319	1552.573333	890.262695	-12.502819
11755.780319	1552.573333	889.091797	-81.581429
11755.780319	1552.573333	887.919922	-16.224976
11755.780319	1552.573333	886.748047	24.870569
11755.780319	1552.573333	885.575195	57.137699
11755.780319	1552.573333	884.403320	47.551338
11755.780319	1552.573333	883.230469	2.741740
11755.780319	1552.573333	882.057617	101.025154
11755.780319	1552.573333	880.883789	95.833572
11755.780319	1552.573333	879.710938	55.439293
11755.780319	1552.573333	878.537109	111.852440
11755.780319	1552.573333	877.362305	38.478870
11755.780319	1552.573333	876.188477	64.086235
11755.780319	1552.573333	875.013672	67.697845
11755.780319	1552.573333	873.839844	33.941696
11755.780319	1552.573333	872.664063	-6.394482
11755.780319	1552.573333	871.489258	6.017003
11755.780319	1552.573333	870.313477	106.289787
11755.780319	1552.573333	869.138672	70.356316
11755.780319	1552.573333	867.962891	-29.240343
11755.780319	1552.573333	866.786133	5.118562
11755.780319	1552.573333	865.610352	-4.433612
11755.780319	1552.573333	864.433594	7.962376
11755.780319	1552.573333	863.256836	35.711628
11755.780319	1552.573333	862.079102	23.966337
11755.780319	1552.573333	860.902344	-36.021000
11755.780319	1552.573333	859.724609	83.811737
11755.780319	1552.573333	858.546875	6.300544
11755.780319	1552.573333	857.368164	-68.986359
11755.780319	1552.573333	856.190430	-8.382437
11755.780319	1552.573333	855.011719	28.098269
11755.780319	1552.573333	853.833008	44.851563
11755.780319	1552.573333	852.654297	-23.807791
11755.780319	1552.573333	851.474609	12.656929
11755.780319	1552.573333	850.294922	0.949137
11755.780319	1552.573333	849.115234	17.699026
11755.780319	1552.573333	847.935547	-7.130936
11755.780319	1552.573333	846.754883	22.742550
11755.780319	1552.573333	845.575195	-8.637057
11755.780319	1552.573333	844.393555	14.666924
11755.780319	1552.573333	843.212891	0.795569
11755.780319	1552.573333	842.032227	8.790474
11755.780319	1552.573333	840.850586	18.969114
11755.780319	1552.573333	839.668945	53.180145
11755.780319	1552.573333	838.486328	-43.693039
11755.780319	1552.573333	837.304688	-16.031820
11755.780319	1552.573333	836.122070	40.007206
11755.780319	1552.573333	834.939453	26.163300
11755.780319	1552.573333	833.756836	-29.144548
11755.780319	1552.573333	832.573242	-53.875957
11755.780319	1552.573333	831.389648	-0.048997
11755.780319	1552.573333	830.206055	1.404731
11755.780319	1552.573333	829.022461	61.745522
11755.780319	1552.573333	827.838867	-28.389870
11755.780319	1552.573333	826.654297	29.756712
11755.780319	1552.573333	825.469727	61.726257
11755.780319	1552.573333	824.284180	-76.287529
11755.780319	1552.573333	823.099609	99.489174
11755.780319	1552.573333	821.914063	2.915910
11755.780319	1552.573333	820.728516	74.074425
11755.780319	1552.573333	819.542969	55.935444
11755.780319	1552.573333	818.356445	-75.392044
11755.780319	1552.573333	817.169922	-54.311901
11755.780319	1552.573333	815.983398	-7.125865
11755.780319	1552.573333	814.796875	79.203194
11755.780319	1552.573333	813.609375	61.094315
11755.780319	1552.573333	812.422852	-26.592791
11755.780319	1552.573333	811.235352	9.687717
11755.780319	1552.573333	810.046875	13.349918
11755.780319	1552.573333	808.859375	17.013260
11755.780319	1552.573333	807.670898	-29.297892
11755.780319	1552.573333	806.482422	-34.311653
11755.780319	1552.573333	805.293945	-15.429148
11755.780319	1552.573333	804.104492	16.477171
11755.780319	1552.573333	802.915039	57.057102
11755.780319	1552.573333	801.725586	62.893158
11755.780319	1552.573333	800.536133	-7.225604
11755.780319	1552.573333	799.345703	15.984369
11755.780319	1552.573333	798.155273	-2.028559
11755.780319	1552.573333	796.964844	-24.368895
11755.780319	1552.573333	795.774414	-1.161652
11755.780319	1552.573333	794.583008	-36.495346
11755.780319	1552.573333	793.392578	-52.304329
11755.780319	1552.573333	792.200195	12.074848
11755.780319	1552.573333	791.008789	95.929131
11755.780319	1552.573333	789.816406	15.126679
11755.780319	1552.573333	788.625000	10.158403
11755.780319	1552.573333	787.432617	42.003307
11755.780319	1552.573333	786.239258	-38.730476
11755.780319	1552.573333	785.046875	3.937929
11755.780319	1552.573333	783.853516	9.804923
11755.780319	1552.573333	782.660156	22.162315
11755.780319	1552.573333	781.465820	15.050010
11755.780319	1552.573333	780.272461	-18.007189
11755.780319	1552.573333	779.078125	-44.562489
11755.780319	1552.573333	777.883789	62.916386
11755.780319	1552.573333	776.688477	-41.442532
11755.780319	1552.573333	775.494141	35.744919
11755.780319	1552.573333	774.298828	-27.515625
11755.780319	1552.573333	773.103516	15.083724
11755.780319	1552.573333	771.907227	-0.636123
11755.780319	1552.573333	770.711914	-27.142107
11755.780319	1552.573333	769.515625	-12.624141
11755.780319	1552.573333	768.318359	23.469717
11755.780319	1552.573333	767.122070	94.071922
11755.780319	1552.573333	765.924805	-42.439075
11755.780319	1552.573333	764.727539	58.344200
11755.780319	1552.573333	763.530273	10.306440
11755.780319	1552.573333	762.333008	80.858459
11755.780319	1552.573333	761.134766	71.634888
11755.780319	1552.573333	759.936523	-38.863552
11755.780319	1552.573333	758.738281	-35.129375
11755.780319	1552.573333	757.540039	67.688164
11755.780319	1552.573333	756.340820	26.176332
11755.780319	1552.573333	755.141602	6.213764
11755.780319	1552.573333	753.942383	70.213455
11755.780319	1552.573333	752.742188	48.099342
11755.780319	1552.573333	751.541992	-10.584672
11755.780319	1552.573333	750.341797	87.801460
11755.780319	1552.573333	749.141602	-3.128097
11755.780319	1552.573333	747.941406	78.013031
11755.780319	1552.573333	746.740234	-38.675446
11755.780319	1552.573333	745.539063	66.084251
11755.780319	1552.573333	744.337891	74.092804
11755.780319	1552.573333	743.135742	58.463093
11755.780319	1552.573333	741.933594	44.988033
11755.780319	1552.573333	740.731445	70.177292
11755.780319	1552.573333	739.529297	20.201160
11755.780319	1552.573333	738.326172	90.467438
11755.780319	1552.573333	737.124023	143.533020
11755.780319	1552.573333	735.919922	106.446671
11755.780319	1552.573333	734.716797	105.848114
11755.780319	1552.573333	733.513672	165.309921
11755.780319	1552.573333	732.309570	188.287735
11755.780319	1552.573333	731.105469	95.471916
11755.780319	1552.573333	729.900391	101.302963
11755.780319	1552.573333	728.696289	107.130234
11755.780319	1552.573333	727.491211	29.384644
11755.780319	1552.573333	726.286133	22.367386
11755.780319	1552.573333	725.080078	23.918612
11755.780319	1552.573333	723.874023	102.559242
11755.780319	1552.573333	722.668945	-41.498367
11755.780319	1552.573333	721.461914	41.399979
11755.780319	1552.573333	720.255859	-14.844763
11755.780319	1552.573333	719.048828	18.796677
11755.780319	1552.573333	717.841797	82.370132
11755.780319	1552.573333	716.634766	24.005590
11755.780319	1552.573333	715.427734	-57.858845
11755.780319	1552.573333	714.219727	29.198730
11755.780319	1552.573333	713.011719	150.415314
11755.780319	1552.573333	711.803711	17.279530
11755.780319	1552.573333	710.594727	20.933006
11755.780319	1552.573333	709.385742	88.663284
11755.780319	1552.573333	708.176758	-76.420898
11755.780319	1552.573333	706.967773	140.756012
11755.780319	1552.573333	705.758789	46.168224
11755.780319	1552.573333	704.548828	152.237625
11755.780319	1552.573333	703.338867	149.433411
11755.780319	1552.573333	702.127930	176.492859
11755.780319	1552.573333	700.917969	111.820839
11755.780319	1552.573333	699.707031	136.735107
11755.780319	1552.573333	698.496094	61.428715
11755.780319	1552.573333	697.285156	92.728203
11755.780319	1552.573333	696.073242	-1.728036
11755.780319	1552.573333	694.861328	191.493561
11755.780319	1552.573333	693.649414	165.213409
11755.780319	1552.573333	692.436523	200.702698
11755.780319	1552.573333	691.224609	104.151756
11755.780319	1552.573333	690.011719	39.568939
11755.780319	1552.573333	688.798828	83.558479
11755.780319	1552.573333	687.584961	93.475060
11755.780319	1552.573333	686.372070	16.151117
11755.780319	1552.573333	685.158203	87.750984
11755.780319	1552.573333	683.943359	48.727623
11755.780319	1552.573333	682.729492	35.228447
11755.780319	1552.573333	681.514648	68.494659
11755.780319	1552.573333	680.299805	48.606850
11755.780319	1552.573333	679.084961	86.091980
11755.780319	1552.573333	677.869141	25.829828
11755.780319	1552.573333	676.653320	95.148323
11755.780319	1552.573333	675.437500	-56.417271
11755.780319	1552.573333	674.221680	72.320152
11755.780319	1552.573333	673.004883	71.514282
11755.780319	1552.573333	671.789063	64.334366
11755.780319	1552.573333	670.571289	44.418247
11755.780319	1552.573333	669.354492	-20.045044
11755.780319	1552.573333	668.136719	91.540794
11755.780319	1552.573333	666.919922	35.559181
11755.780319	1552.573333	665.701172	70.749931
11755.780319	1552.573333	664.483398	23.256256
11755.780319	1552.573333	663.264648	30.868753
11755.780319	1552.573333	662.045898	40.587559
11755.780319	1552.573333	660.827148	99.010437
11755.780319	1552.573333	659.608398	129.868942
11755.780319	1552.573333	658.388672	52.723698
11755.780319	1552.573333	657.168945	108.960838
11755.780319	1552.573333	655.949219	-46.473217
11755.780319	1552.573333	654.728516	134.580750
11755.780319	1552.573333	653.507813	68.036728
11755.780319	1552.573333	652.287109	67.076515
11755.780319	1552.573333	651.066406	61.876987
11755.780319	1552.573333	649.844727	98.951576
11755.780319	1552.573333	648.623047	106.408195
11755.780319	1552.573333	647.401367	189.927628
11755.780319	1552.573333	646.179688	146.632828
11755.780319	1552.573333	644.957031	126.580658
11755.780319	1552.573333	643.734375	119.197418
11755.780319	1552.573333	642.511719	170.926865
11755.780319	1552.573333	641.289063	64.296967
11755.780319	1552.573333	640.065430	-12.751633
11755.780319	1552.573333	638.841797	45.268444
11755.780319	1552.573333	637.618164	27.303886
11755.780319	1552.573333	636.393555	32.536274
11755.780319	1552.573333	635.168945	-12.856055
11755.780319	1552.573333	633.944336	13.442246
11755.780319	1552.573333	632.719727	58.688423
11755.780319	1552.573333	631.494141	61.753735
11755.780319	1552.573333	630.269531	75.341232
11755.780319	1552.573333	629.042969	166.851929
11755.780319	1552.573333	627.817383	94.035797
11755.780319	1552.573333	626.590820	75.985008
11755.780319	1552.573333	625.365234	85.297241
11755.780319	1552.573333	624.137695	14.610934
11755.780319	1552.573333	622.911133	91.244820
11755.780319	1552.573333	621.683594	155.209686
11755.780319	1552.573333	620.456055	59.274357
11755.780319	1552.573333	619.228516	-28.221121
11755.780319	1552.573333	618.000977	35.690014
11755.780319	1552.573333	616.772461	126.887726
11755.780319	1552.573333	615.543945	-13.146702
11755.780319	1552.573333	614.314453	61.186409
11755.780319	1552.573333	613.085938	1.027945
11755.780319	1552.573333	611.856445	-10.811864
11755.780319	1552.573333	610.626953	-18.460083
11755.780319	1552.573333	609.397461	76.753197
11755.780319	1552.573333	608.166992	35.479397
11755.780319	1552.573333	606.936523	6.801452
11755.780319	1552.573333	605.706055	-13.485470
11755.780319	1552.573333	604.474609	60.615734
11755.780319	1552.573333	603.244141	-5.837846
11755.780319	1552.573333	602.012695	38.849640
11755.780319	1552.573333	600.780273	56.252651
11755.780319	1552.573333	599.548828	-37.443474
11755.780319	1552.573333	598.316406	2.991489
11755.780319	1552.573333	597.083984	-55.066189
11755.780319	1552.573333	595.851563	39.786613
11755.780319	1552.573333	594.618164	44.540852
11755.780319	1552.573333	593.384766	114.181961
11755.780319	1552.573333	592.151367	-38.094925
11755.780319	1552.573333	590.917969	-20.809521
11755.780319	1552.573333	589.683594	-64.220886
11755.780319	1552.573333	588.449219	84.821754
11755.780319	1552.573333	587.214844	47.655403
11755.780319	1552.573333	585.979492	-8.327165
11755.780319	1552.573333	584.745117	-60.116581
11755.780319	1552.573333	583.509766	5.145626
11755.780319	1552.573333	582.273438	-11.127627
11755.780319	1552.573333	581.038086	89.587257
11755.780319	1552.573333	579.801758	-49.955296
11755.780319	1552.573333	578.565430	-20.300907
11755.780319	1552.573333	577.329102	9.329105
11755.780319	1552.573333	576.091797	63.982037
11755.780319	1552.573333	574.854492	22.601313
11755.780319	1552.573333	573.617188	10.437561
11755.780319	1552.573333	572.378906	-14.249533
11755.780319	1552.573333	571.141602	-49.364166
11755.780319	1552.573333	569.903320	76.080421
11755.780319	1552.573333	568.664063	-38.281353
11755.780319	1552.573333	567.425781	12.052137
11755.780319	1552.573333	566.186523	56.101315
11755.780319	1552.573333	564.947266	12.619776
11755.780319	1552.573333	563.708008	25.385296
11755.780319	1552.573333	562.467773	56.876781
11755.780319	1552.573333	561.227539	52.950165
11755.780319	1552.573333	559.987305	28.199642
11755.780319	1552.573333	558.747070	-23.604559
11755.780319	1552.573333	557.505859	43.202740
11755.780319	1552.573333	556.264648	68.367424
11755.780319	1552.573333	555.023438	-6.318544
11755.780319	1552.573333	553.781250	8.430382
11755.780319	1552.573333	552.539063	10.691173
11755.780319	1552.573333	551.296875	85.689407
11755.780319	1552.573333	550.054688	77.526405
11755.780319	1552.573333	548.811523	63.125168
11755.780319	1552.573333	547.569336	-21.898855
11755.780319	1552.573333	546.325195	42.626133
11755.780319	1552.573333	545.082031	-63.134949
11755.780319	1552.573333	543.837891	103.072075
11755.780319	1552.573333	542.593750	-60.780956
11755.780319	1552.573333	541.349609	80.442711
11755.780319	1552.573333	540.105469	82.610550
11755.780319	1552.573333	538.860352	-101.891785
11755.780319	1552.573333	537.615234	49.600441
11755.780319	1552.573333	536.369141	41.389629
11755.780319	1552.573333	535.124023	26.960760
11755.780319	1552.573333	533.877930	6.316041
11755.780319	1552.573333	532.631836	-10.180534
11755.780319	1552.573333	531.384766	-18.389158
11755.780319	1552.573333	530.138672	-20.383890
11755.780319	1552.573333	528.891602	33.520824
11755.780319	1552.573333	527.643555	6.667353
11755.780319	1552.573333	526.396484	10.867894
11755.780319	1552.573333	525.148438	6.787006
11755.780319	1552.573333	523.900391	23.392977
11755.780319	1552.573333	522.652344	102.038208
11755.780319	1552.573333	521.403320	-69.557388
11755.780319	1552.573333	520.154297	-57.084698
11755.780319	1552.573333	518.905273	4.988880
11755.780319	1552.573333	517.656250	31.905399
11755.780319	1552.573333	516.406250	21.621363
11755.780319	1552.573333	515.156250	-1.051166
11755.780319	1552.573333	513.906250	-62.950684
11755.780319	1552.573333	512.655273	-44.299389
11755.780319	1552.573333	511.404297	17.695013
11755.780319	1552.573333	510.153320	26.006044
11755.780319	1552.573333	508.902344	-11.078073
11755.780319	1552.573333	507.650391	1.365993
11755.780319	1552.573333	506.398438	34.433262
11755.780319	1552.573333	505.146484	1.504739
11755.780319	1552.573333	503.893555	114.967148
11755.780319	1552.573333	502.641602	-64.297989
11755.780319	1552.573333	501.388672	69.746796
11755.780319	1552.573333	500.134766	67.760117
11755.780319	1552.573333	498.881836	24.584898
11755.780319	1552.573333	497.627930	-16.507479
11755.780319	1552.573333	496.374023	2.133890
11755.780319	1552.573333	495.119141	14.597670
11755.780319	1552.573333	493.865234	2.368097
11755.780319	1552.573333	492.610352	43.648239
11755.780319	1552.573333	491.355469	105.490334
11755.780319	1552.573333	490.099609	13.059247
11755.780319	1552.573333	488.843750	79.010468
11755.780319	1552.573333	487.587891	-33.915398
11755.780319	1552.573333	486.332031	23.815229
11755.780319	1552.573333	485.075195	60.980263
11755.780319	1552.573333	483.818359	11.850385
11755.780319	1552.573333	482.561523	-86.544991
11755.780319	1552.573333	481.304688	-22.650330
11755.780319	1552.573333	480.046875	76.131386
11755.780319	1552.573333	478.789063	41.454338
11755.780319	1552.573333	477.531250	70.425545
11755.780319	1552.573333	476.272461	-27.818882
11755.780319	1552.573333	475.013672	-29.591377
11755.780319	1552.573333	473.754883	-4.687519
11755.780319	1552.573333	472.496094	-0.285952
11755.780319	1552.573333	471.236328	79.979660
11755.780319	1552.573333	469.976563	-13.994686
11755.780319	1552.573333	468.716797	-3.404510
11755.780319	1552.573333	467.456055	-3.048991
11755.780319	1552.573333	466.196289	1.419098
11755.780319	1552.573333	464.935547	34.569813
11755.780319	1552.573333	463.673828	8.345573
11755.780319	1552.573333	462.413086	57.887684
11755.780319	1552.573333	461.151367	60.353405
11755.780319	1552.573333	459.889648	-70.162735
11755.780319	1552.573333	458.626953	63.283756
11755.780319	1552.573333	457.364258	18.755123
11755.780319	1552.573333	456.101563	-33.916439
11755.780319	1552.573333	454.838867	1.358075
11755.780319	1552.573333	453.575195	30.502140
11755.780319	1552.573333	452.312500	0.391352
11755.780319	1552.573333	451.047852	-11.303240
11755.780319	1552.573333	449.784180	40.344887
11755.780319	1552.573333	448.519531	34.808033
11755.780319	1552.573333	447.254883	-34.001202
11755.780319	1552.573333	445.990234	56.454296
11755.780319	1552.573333	444.725586	106.071983
11755.780319	1552.573333	443.459961	37.344124
11755.780319	1552.573333	442.194336	-23.176939
11755.780319	1552.573333	440.927734	12.200757
11755.780319	1552.573333	439.662109	35.346943
11755.780319	1552.573333	438.395508	85.001534
11755.780319	1552.573333	437.127930	136.689316
11755.780319	1552.573333	435.861328	-9.286057
11755.780319	1552.573333	434.593750	40.396137
11755.780319	1552.573333	433.326172	14.710562
11755.780319	1552.573333	432.058594	-23.165812
11755.780319	1552.573333	430.790039	16.355585
11755.780319	1552.573333	429.521484	33.484871
11755.780319	1552.573333	428.252930	30.271481
11755.780319	1552.573333	426.984375	-25.826258
11755.780319	1552.573333	425.714844	-8.654683
11755.780319	1552.573333	424.445313	-5.712846
11755.780319	1552.573333	423.174805	50.106476
11755.780319	1552.573333	421.905273	22.567717
11755.780319	1552.573333	420.634766	161.711456
11755.780319	1552.573333	419.364258	16.328955
11755.780319	1552.573333	418.092773	5.101784
11755.780319	1552.573333	416.822266	67.009949
11755.780319	1552.573333	415.550781	2.999441
11755.780319	1552.573333	414.278320	66.928841
11755.780319	1552.573333	413.006836	108.511360
11755.780319	1552.573333	411.734375	28.321812
11755.780319	1552.573333	410.461914	11.069041
11755.780319	1552.573333	409.188477	-0.086438
11755.780319	1552.573333	407.916016	35.411858
11755.780319	1552.573333	406.642578	26.290161
11755.780319	1552.573333	405.368164	-19.314522
11755.780319	1552.573333	404.094727	20.222466
11755.780319	1552.573333	402.820313	27.320797
11755.780319	1552.573333	401.545898	111.394966
11755.780319	1552.573333	400.270508	-29.388575
11755.780319	1552.573333	398.996094	6.053824
11755.780319	1552.573333	397.720703	90.061737
11755.780319	1552.573333	396.444336	99.134003
11755.780319	1552.573333	395.168945	-43.578747
11755.780319	1552.573333	393.892578	16.076284
11755.780319	1552.573333	392.616211	0.850053
11755.780319	1552.573333	391.339844	74.596367
11755.780319	1552.573333	390.062500	87.636574
11755.780319	1552.573333	388.785156	54.158684
11755.780319	1552.573333	387.507813	32.799236
11755.780319	1552.573333	386.229492	43.753300
11755.780319	1552.573333	384.951172	-46.329147
11755.780319	1552.573333	383.672852	-15.221250
11755.780319	1552.573333	382.394531	-34.638863
11755.780319	1552.573333	381.115234	-56.101212
11755.780319	1552.573333	379.835938	83.876846
11755.780319	1552.573333	378.556641	84.518883
11755.780319	1552.573333	377.277344	70.996124
11755.780319	1552.573333	375.997070	35.245876
11755.780319	1552.573333	374.716797	31.728348
11755.780319	1552.573333	373.435547	122.919373
11755.780319	1552.573333	372.155273	-29.884968
11755.780319	1552.573333	370.874023	38.998646
11755.780319	1552.573333	369.591797	-99.738564
11755.780319	1552.573333	368.310547	5.262167
11755.780319	1552.573333	367.028320	57.784367
11755.780319	1552.573333	365.746094	27.656179
11755.780319	1552.573333	364.463867	1.490381
11755.780319	1552.573333	363.180664	47.709003
11755.780319	1552.573333	361.897461	97.846519
11755.780319	1552.573333	360.614258	63.378139
11755.780319	1552.573333	359.330078	-61.680470
11755.780319	1552.573333	358.045898	24.360252
11755.780319	1552.573333	356.761719	104.228279
11755.780319	1552.573333	355.477539	41.242020
11755.780319	1552.573333	354.192383	-88.148155
11755.780319	1552.573333	352.907227	7.422822
11755.780319	1552.573333	351.622070	44.575924
11755.780319	1552.573333	350.336914	29.368002
11755.780319	1552.573333	349.050781	-56.244236
11755.780319	1552.573333	347.764648	52.756149
11755.780319	1552.573333	346.477539	-41.142212
11755.780319	1552.573333	345.191406	39.415882
11755.780319	1552.573333	343.904297	-32.684780
11755.780319	1552.573333	342.616211	-36.731194
11755.780319	1552.573333	341.329102	47.282684
11755.780319	1552.573333	340.041016	-31.308197
11755.780319	1552.573333	338.752930	-31.883034
11755.780319	1552.573333	337.463867	43.493172
11755.780319	1552.573333	336.175781	-7.578904
11755.780319	1552.573333	334.886719	81.369797
11755.780319	1552.573333	333.596680	15.860960
11755.780319	1552.573333	332.307617	-23.812492
11755.780319	1552.573333	331.017578	78.415085
11755.780319	1552.573333	329.727539	50.274555
11755.780319	1552.573333	328.436523	-48.137104
11755.780319	1552.573333	327.146484	-66.744621
11755.780319	1552.573333	325.855469	-19.618195
11755.780319	1552.573333	324.563477	37.203194
11755.780319	1552.573333	323.272461	5.758013
11755.780319	1552.573333	321.980469	57.968040
11755.780319	1552.573333	320.688477	83.872047
11755.780319	1552.573333	319.395508	29.530975
11755.780319	1552.573333	318.103516	90.737587
11755.780319	1552.573333	316.810547	3.802941
11755.780319	1552.573333	315.516602	8.387677
11755.780319	1552.573333	314.223633	-19.319651
11755.780319	1552.573333	312.929688	58.372505
11755.780319	1552.573333	311.635742	43.869816
11755.780319	1552.573333	310.340820	-44.834671
11755.780319	1552.573333	309.045898	-68.097481
11755.780319	1552.573333	307.750977	91.662582
11755.780319	1552.573333	306.456055	27.657560
11755.780319	1552.573333	305.160156	36.964287
11755.780319	1552.573333	303.865234	59.763699
11755.780319	1552.573333	302.568359	-61.372025
11755.780319	1552.573333	301.272461	70.008537
11755.780319	1552.573333	299.975586	45.502010
11755.780319	1552.573333	298.678711	50.350273
