#X		#Y		#Wave		#Intensity
11498.092021	2886.453333	1999.980469	-12.031622
11498.092021	2886.453333	1999.016602	31.668098
11498.092021	2886.453333	1998.052734	-20.101328
11498.092021	2886.453333	1997.087891	-186.048004
11498.092021	2886.453333	1996.123047	-153.919403
11498.092021	2886.453333	1995.158203	21.679577
11498.092021	2886.453333	1994.193359	68.233261
11498.092021	2886.453333	1993.228516	-53.803402
11498.092021	2886.453333	1992.262695	17.143253
11498.092021	2886.453333	1991.297852	28.477179
11498.092021	2886.453333	1990.332031	49.539429
11498.092021	2886.453333	1989.366211	147.136459
11498.092021	2886.453333	1988.399414	-54.814838
11498.092021	2886.453333	1987.433594	-41.651718
11498.092021	2886.453333	1986.466797	75.225945
11498.092021	2886.453333	1985.500977	142.459381
11498.092021	2886.453333	1984.534180	140.306152
11498.092021	2886.453333	1983.567383	83.637123
11498.092021	2886.453333	1982.599609	-44.809475
11498.092021	2886.453333	1981.632813	123.153824
11498.092021	2886.453333	1980.665039	51.308025
11498.092021	2886.453333	1979.697266	-52.741871
11498.092021	2886.453333	1978.729492	30.802998
11498.092021	2886.453333	1977.761719	82.105667
11498.092021	2886.453333	1976.792969	143.152679
11498.092021	2886.453333	1975.825195	125.092453
11498.092021	2886.453333	1974.856445	27.972654
11498.092021	2886.453333	1973.887695	56.611431
11498.092021	2886.453333	1972.918945	-11.057556
11498.092021	2886.453333	1971.949219	44.514847
11498.092021	2886.453333	1970.980469	72.853661
11498.092021	2886.453333	1970.010742	22.204939
11498.092021	2886.453333	1969.041016	89.802490
11498.092021	2886.453333	1968.071289	56.254910
11498.092021	2886.453333	1967.101563	0.466136
11498.092021	2886.453333	1966.130859	-8.571733
11498.092021	2886.453333	1965.161133	43.896889
11498.092021	2886.453333	1964.190430	19.937487
11498.092021	2886.453333	1963.219727	37.775169
11498.092021	2886.453333	1962.249023	40.773022
11498.092021	2886.453333	1961.277344	-20.283075
11498.092021	2886.453333	1960.306641	46.582058
11498.092021	2886.453333	1959.334961	103.524261
11498.092021	2886.453333	1958.363281	-16.713768
11498.092021	2886.453333	1957.391602	-45.963085
11498.092021	2886.453333	1956.419922	114.082375
11498.092021	2886.453333	1955.447266	97.014488
11498.092021	2886.453333	1954.474609	74.991943
11498.092021	2886.453333	1953.501953	-84.685196
11498.092021	2886.453333	1952.529297	146.327011
11498.092021	2886.453333	1951.556641	3.813355
11498.092021	2886.453333	1950.583984	-57.630856
11498.092021	2886.453333	1949.610352	-65.063736
11498.092021	2886.453333	1948.636719	-136.361816
11498.092021	2886.453333	1947.663086	-1.464118
11498.092021	2886.453333	1946.689453	22.910959
11498.092021	2886.453333	1945.715820	106.142151
11498.092021	2886.453333	1944.741211	69.099174
11498.092021	2886.453333	1943.767578	5.065771
11498.092021	2886.453333	1942.792969	-5.013434
11498.092021	2886.453333	1941.818359	107.492226
11498.092021	2886.453333	1940.842773	-3.157662
11498.092021	2886.453333	1939.868164	-8.383971
11498.092021	2886.453333	1938.892578	91.751251
11498.092021	2886.453333	1937.916992	69.325340
11498.092021	2886.453333	1936.941406	-68.243835
11498.092021	2886.453333	1935.965820	-66.164429
11498.092021	2886.453333	1934.990234	126.912010
11498.092021	2886.453333	1934.013672	77.516663
11498.092021	2886.453333	1933.037109	57.506012
11498.092021	2886.453333	1932.060547	-114.246712
11498.092021	2886.453333	1931.083984	59.085789
11498.092021	2886.453333	1930.107422	9.713078
11498.092021	2886.453333	1929.129883	102.226181
11498.092021	2886.453333	1928.153320	47.965179
11498.092021	2886.453333	1927.175781	-67.408531
11498.092021	2886.453333	1926.198242	-126.511337
11498.092021	2886.453333	1925.219727	-107.377861
11498.092021	2886.453333	1924.242188	-73.586121
11498.092021	2886.453333	1923.263672	-47.137463
11498.092021	2886.453333	1922.285156	28.161648
11498.092021	2886.453333	1921.306641	169.382278
11498.092021	2886.453333	1920.328125	-31.325418
11498.092021	2886.453333	1919.349609	-65.928528
11498.092021	2886.453333	1918.370117	33.743206
11498.092021	2886.453333	1917.391602	82.132973
11498.092021	2886.453333	1916.412109	-76.905266
11498.092021	2886.453333	1915.431641	-133.411438
11498.092021	2886.453333	1914.452148	-4.503042
11498.092021	2886.453333	1913.472656	51.200989
11498.092021	2886.453333	1912.492188	58.124207
11498.092021	2886.453333	1911.511719	-42.213589
11498.092021	2886.453333	1910.531250	67.115280
11498.092021	2886.453333	1909.550781	-16.108507
11498.092021	2886.453333	1908.569336	185.780731
11498.092021	2886.453333	1907.588867	19.760382
11498.092021	2886.453333	1906.607422	58.403084
11498.092021	2886.453333	1905.625977	92.172752
11498.092021	2886.453333	1904.644531	-46.923492
11498.092021	2886.453333	1903.662109	16.085634
11498.092021	2886.453333	1902.680664	-45.038548
11498.092021	2886.453333	1901.698242	49.604256
11498.092021	2886.453333	1900.715820	-72.302498
11498.092021	2886.453333	1899.733398	-179.556488
11498.092021	2886.453333	1898.750000	133.973190
11498.092021	2886.453333	1897.767578	-133.733612
11498.092021	2886.453333	1896.784180	80.022240
11498.092021	2886.453333	1895.800781	-80.602821
11498.092021	2886.453333	1894.817383	31.023605
11498.092021	2886.453333	1893.833984	69.730186
11498.092021	2886.453333	1892.850586	76.855331
11498.092021	2886.453333	1891.866211	-37.450062
11498.092021	2886.453333	1890.881836	10.999577
11498.092021	2886.453333	1889.897461	-49.809929
11498.092021	2886.453333	1888.913086	8.360644
11498.092021	2886.453333	1887.927734	-6.288016
11498.092021	2886.453333	1886.943359	-16.063692
11498.092021	2886.453333	1885.958008	56.663052
11498.092021	2886.453333	1884.972656	90.565407
11498.092021	2886.453333	1883.987305	-47.718071
11498.092021	2886.453333	1883.001953	44.410152
11498.092021	2886.453333	1882.015625	32.272331
11498.092021	2886.453333	1881.029297	104.984909
11498.092021	2886.453333	1880.042969	-23.454723
11498.092021	2886.453333	1879.056641	-16.152218
11498.092021	2886.453333	1878.070313	73.522606
11498.092021	2886.453333	1877.083984	-93.554970
11498.092021	2886.453333	1876.096680	0.966136
11498.092021	2886.453333	1875.109375	-59.485302
11498.092021	2886.453333	1874.122070	-10.974948
11498.092021	2886.453333	1873.134766	93.192261
11498.092021	2886.453333	1872.146484	49.726776
11498.092021	2886.453333	1871.159180	54.675186
11498.092021	2886.453333	1870.170898	-112.104836
11498.092021	2886.453333	1869.182617	54.920822
11498.092021	2886.453333	1868.194336	47.804611
11498.092021	2886.453333	1867.205078	76.960594
11498.092021	2886.453333	1866.216797	-7.482278
11498.092021	2886.453333	1865.227539	-24.222904
11498.092021	2886.453333	1864.238281	-11.955779
11498.092021	2886.453333	1863.249023	80.030678
11498.092021	2886.453333	1862.259766	22.249302
11498.092021	2886.453333	1861.269531	-8.941979
11498.092021	2886.453333	1860.279297	-122.200127
11498.092021	2886.453333	1859.290039	-88.164551
11498.092021	2886.453333	1858.298828	-92.751472
11498.092021	2886.453333	1857.308594	-65.961433
11498.092021	2886.453333	1856.318359	-22.289072
11498.092021	2886.453333	1855.327148	74.435562
11498.092021	2886.453333	1854.335938	195.243912
11498.092021	2886.453333	1853.344727	-91.464523
11498.092021	2886.453333	1852.353516	5.231740
11498.092021	2886.453333	1851.362305	-47.536854
11498.092021	2886.453333	1850.370117	-54.498302
11498.092021	2886.453333	1849.377930	128.879761
11498.092021	2886.453333	1848.385742	56.854721
11498.092021	2886.453333	1847.393555	81.193756
11498.092021	2886.453333	1846.401367	110.341255
11498.092021	2886.453333	1845.408203	62.438843
11498.092021	2886.453333	1844.415039	-88.946960
11498.092021	2886.453333	1843.421875	22.040337
11498.092021	2886.453333	1842.428711	-18.599197
11498.092021	2886.453333	1841.435547	41.813686
11498.092021	2886.453333	1840.441406	10.803899
11498.092021	2886.453333	1839.448242	-61.075684
11498.092021	2886.453333	1838.454102	138.755951
11498.092021	2886.453333	1837.459961	45.239334
11498.092021	2886.453333	1836.464844	33.470158
11498.092021	2886.453333	1835.470703	-33.565098
11498.092021	2886.453333	1834.475586	38.765831
11498.092021	2886.453333	1833.480469	39.003567
11498.092021	2886.453333	1832.485352	63.252655
11498.092021	2886.453333	1831.490234	-49.377483
11498.092021	2886.453333	1830.495117	154.920319
11498.092021	2886.453333	1829.499023	-5.701610
11498.092021	2886.453333	1828.502930	-82.276855
11498.092021	2886.453333	1827.506836	-22.068064
11498.092021	2886.453333	1826.510742	90.886246
11498.092021	2886.453333	1825.513672	246.961014
11498.092021	2886.453333	1824.517578	105.620857
11498.092021	2886.453333	1823.520508	41.044804
11498.092021	2886.453333	1822.523438	74.764275
11498.092021	2886.453333	1821.526367	29.373552
11498.092021	2886.453333	1820.529297	19.932276
11498.092021	2886.453333	1819.531250	3.295816
11498.092021	2886.453333	1818.533203	51.327656
11498.092021	2886.453333	1817.535156	68.197289
11498.092021	2886.453333	1816.537109	113.781250
11498.092021	2886.453333	1815.539063	226.365265
11498.092021	2886.453333	1814.540039	34.924763
11498.092021	2886.453333	1813.541992	-20.054405
11498.092021	2886.453333	1812.542969	46.993324
11498.092021	2886.453333	1811.543945	15.925659
11498.092021	2886.453333	1810.543945	-89.286377
11498.092021	2886.453333	1809.544922	-10.349715
11498.092021	2886.453333	1808.544922	97.229347
11498.092021	2886.453333	1807.544922	140.214844
11498.092021	2886.453333	1806.544922	-10.408768
11498.092021	2886.453333	1805.544922	75.557846
11498.092021	2886.453333	1804.544922	178.198288
11498.092021	2886.453333	1803.543945	46.710060
11498.092021	2886.453333	1802.542969	46.596046
11498.092021	2886.453333	1801.541992	98.991135
11498.092021	2886.453333	1800.541016	101.218689
11498.092021	2886.453333	1799.539063	12.732018
11498.092021	2886.453333	1798.538086	79.366089
11498.092021	2886.453333	1797.536133	69.609406
11498.092021	2886.453333	1796.534180	4.974762
11498.092021	2886.453333	1795.532227	-11.958117
11498.092021	2886.453333	1794.529297	180.922714
11498.092021	2886.453333	1793.527344	-29.179438
11498.092021	2886.453333	1792.524414	123.070480
11498.092021	2886.453333	1791.521484	-8.343446
11498.092021	2886.453333	1790.518555	127.123871
11498.092021	2886.453333	1789.514648	-1.903991
11498.092021	2886.453333	1788.511719	59.633453
11498.092021	2886.453333	1787.507813	102.073021
11498.092021	2886.453333	1786.503906	130.188965
11498.092021	2886.453333	1785.500000	-10.734353
11498.092021	2886.453333	1784.496094	-8.833433
11498.092021	2886.453333	1783.491211	78.702209
11498.092021	2886.453333	1782.486328	-38.414581
11498.092021	2886.453333	1781.481445	51.423336
11498.092021	2886.453333	1780.476563	46.078495
11498.092021	2886.453333	1779.471680	102.529640
11498.092021	2886.453333	1778.465820	25.808867
11498.092021	2886.453333	1777.460938	127.349754
11498.092021	2886.453333	1776.455078	55.355396
11498.092021	2886.453333	1775.449219	-0.007082
11498.092021	2886.453333	1774.442383	-19.746187
11498.092021	2886.453333	1773.436523	62.621201
11498.092021	2886.453333	1772.429688	-4.664893
11498.092021	2886.453333	1771.422852	-36.342003
11498.092021	2886.453333	1770.416016	41.151199
11498.092021	2886.453333	1769.409180	49.766655
11498.092021	2886.453333	1768.402344	-15.201878
11498.092021	2886.453333	1767.394531	140.442520
11498.092021	2886.453333	1766.386719	99.141190
11498.092021	2886.453333	1765.378906	131.338776
11498.092021	2886.453333	1764.371094	-23.804241
11498.092021	2886.453333	1763.362305	15.456829
11498.092021	2886.453333	1762.354492	-66.193092
11498.092021	2886.453333	1761.345703	-45.952946
11498.092021	2886.453333	1760.336914	31.109026
11498.092021	2886.453333	1759.328125	22.840834
11498.092021	2886.453333	1758.318359	-87.287346
11498.092021	2886.453333	1757.308594	141.182709
11498.092021	2886.453333	1756.299805	149.381241
11498.092021	2886.453333	1755.290039	-19.967667
11498.092021	2886.453333	1754.279297	-33.103935
11498.092021	2886.453333	1753.269531	60.204781
11498.092021	2886.453333	1752.258789	-177.722351
11498.092021	2886.453333	1751.249023	194.591278
11498.092021	2886.453333	1750.238281	11.054095
11498.092021	2886.453333	1749.226563	61.602962
11498.092021	2886.453333	1748.215820	-43.898613
11498.092021	2886.453333	1747.204102	-87.949081
11498.092021	2886.453333	1746.193359	54.648197
11498.092021	2886.453333	1745.181641	36.520157
11498.092021	2886.453333	1744.168945	193.143723
11498.092021	2886.453333	1743.157227	28.525789
11498.092021	2886.453333	1742.144531	17.400558
11498.092021	2886.453333	1741.132813	51.101223
11498.092021	2886.453333	1740.120117	-78.089775
11498.092021	2886.453333	1739.106445	-46.811211
11498.092021	2886.453333	1738.093750	45.765919
11498.092021	2886.453333	1737.080078	-38.630795
11498.092021	2886.453333	1736.067383	-31.050165
11498.092021	2886.453333	1735.053711	59.017048
11498.092021	2886.453333	1734.040039	33.507401
11498.092021	2886.453333	1733.025391	-79.233009
11498.092021	2886.453333	1732.011719	-17.578911
11498.092021	2886.453333	1730.997070	-83.207802
11498.092021	2886.453333	1729.982422	-127.642448
11498.092021	2886.453333	1728.967773	75.196793
11498.092021	2886.453333	1727.952148	211.993301
11498.092021	2886.453333	1726.937500	-103.300674
11498.092021	2886.453333	1725.921875	59.307537
11498.092021	2886.453333	1724.906250	170.049728
11498.092021	2886.453333	1723.890625	50.137394
11498.092021	2886.453333	1722.875000	-57.997711
11498.092021	2886.453333	1721.858398	29.088400
11498.092021	2886.453333	1720.841797	80.837616
11498.092021	2886.453333	1719.825195	-76.708435
11498.092021	2886.453333	1718.808594	99.563622
11498.092021	2886.453333	1717.791992	-39.184948
11498.092021	2886.453333	1716.774414	-13.433594
11498.092021	2886.453333	1715.756836	134.439911
11498.092021	2886.453333	1714.739258	-23.119947
11498.092021	2886.453333	1713.721680	101.155518
11498.092021	2886.453333	1712.704102	49.259628
11498.092021	2886.453333	1711.685547	48.994556
11498.092021	2886.453333	1710.667969	-56.911575
11498.092021	2886.453333	1709.649414	3.796299
11498.092021	2886.453333	1708.630859	113.720131
11498.092021	2886.453333	1707.611328	-15.689044
11498.092021	2886.453333	1706.592773	-27.812757
11498.092021	2886.453333	1705.573242	-79.825317
11498.092021	2886.453333	1704.553711	-56.827770
11498.092021	2886.453333	1703.534180	-76.057220
11498.092021	2886.453333	1702.513672	-85.937256
11498.092021	2886.453333	1701.494141	-152.069336
11498.092021	2886.453333	1700.473633	1.990172
11498.092021	2886.453333	1699.453125	99.752678
11498.092021	2886.453333	1698.432617	59.295055
11498.092021	2886.453333	1697.412109	32.872429
11498.092021	2886.453333	1696.390625	-14.637150
11498.092021	2886.453333	1695.369141	-59.814438
11498.092021	2886.453333	1694.347656	110.262688
11498.092021	2886.453333	1693.326172	50.988995
11498.092021	2886.453333	1692.304688	50.186039
11498.092021	2886.453333	1691.282227	39.999355
11498.092021	2886.453333	1690.260742	113.963806
11498.092021	2886.453333	1689.238281	10.214944
11498.092021	2886.453333	1688.214844	-79.500450
11498.092021	2886.453333	1687.192383	-101.437897
11498.092021	2886.453333	1686.168945	51.821232
11498.092021	2886.453333	1685.146484	-72.956512
11498.092021	2886.453333	1684.123047	28.812956
11498.092021	2886.453333	1683.099609	195.896362
11498.092021	2886.453333	1682.075195	73.418114
11498.092021	2886.453333	1681.051758	-23.357996
11498.092021	2886.453333	1680.027344	89.893669
11498.092021	2886.453333	1679.002930	107.423340
11498.092021	2886.453333	1677.978516	108.595100
11498.092021	2886.453333	1676.953125	35.110424
11498.092021	2886.453333	1675.928711	-133.964432
11498.092021	2886.453333	1674.903320	-76.865044
11498.092021	2886.453333	1673.877930	36.131592
11498.092021	2886.453333	1672.852539	90.804138
11498.092021	2886.453333	1671.826172	87.182594
11498.092021	2886.453333	1670.800781	106.841240
11498.092021	2886.453333	1669.774414	-41.222267
11498.092021	2886.453333	1668.748047	22.653669
11498.092021	2886.453333	1667.721680	195.907867
11498.092021	2886.453333	1666.694336	68.800758
11498.092021	2886.453333	1665.667969	97.653366
11498.092021	2886.453333	1664.640625	38.054520
11498.092021	2886.453333	1663.613281	85.472542
11498.092021	2886.453333	1662.585938	0.279392
11498.092021	2886.453333	1661.557617	115.085518
11498.092021	2886.453333	1660.530273	118.235558
11498.092021	2886.453333	1659.501953	16.758638
11498.092021	2886.453333	1658.473633	-96.314812
11498.092021	2886.453333	1657.444336	60.177876
11498.092021	2886.453333	1656.416016	119.025284
11498.092021	2886.453333	1655.386719	-89.285522
11498.092021	2886.453333	1654.358398	-23.493740
11498.092021	2886.453333	1653.328125	142.088455
11498.092021	2886.453333	1652.298828	35.993763
11498.092021	2886.453333	1651.269531	45.974171
11498.092021	2886.453333	1650.239258	-2.079198
11498.092021	2886.453333	1649.208984	19.475538
11498.092021	2886.453333	1648.178711	187.144638
11498.092021	2886.453333	1647.148438	48.608696
11498.092021	2886.453333	1646.117188	218.498047
11498.092021	2886.453333	1645.086914	163.444809
11498.092021	2886.453333	1644.055664	275.279572
11498.092021	2886.453333	1643.024414	338.396759
11498.092021	2886.453333	1641.992188	283.312408
11498.092021	2886.453333	1640.960938	239.827194
11498.092021	2886.453333	1639.928711	103.704247
11498.092021	2886.453333	1638.896484	169.080200
11498.092021	2886.453333	1637.864258	162.654221
11498.092021	2886.453333	1636.832031	-17.377008
11498.092021	2886.453333	1635.798828	198.380508
11498.092021	2886.453333	1634.766602	101.694275
11498.092021	2886.453333	1633.733398	213.232681
11498.092021	2886.453333	1632.699219	313.152405
11498.092021	2886.453333	1631.666016	119.355728
11498.092021	2886.453333	1630.632813	221.561340
11498.092021	2886.453333	1629.598633	173.468887
11498.092021	2886.453333	1628.564453	257.122253
11498.092021	2886.453333	1627.530273	181.306061
11498.092021	2886.453333	1626.495117	204.848358
11498.092021	2886.453333	1625.460938	191.428329
11498.092021	2886.453333	1624.425781	106.417946
11498.092021	2886.453333	1623.390625	298.498322
11498.092021	2886.453333	1622.355469	331.224609
11498.092021	2886.453333	1621.319336	303.925323
11498.092021	2886.453333	1620.284180	239.721069
11498.092021	2886.453333	1619.248047	376.248474
11498.092021	2886.453333	1618.211914	445.832214
11498.092021	2886.453333	1617.174805	420.833069
11498.092021	2886.453333	1616.138672	370.486389
11498.092021	2886.453333	1615.101563	373.176819
11498.092021	2886.453333	1614.065430	163.832092
11498.092021	2886.453333	1613.027344	396.995148
11498.092021	2886.453333	1611.990234	185.423218
11498.092021	2886.453333	1610.953125	446.143616
11498.092021	2886.453333	1609.915039	458.037659
11498.092021	2886.453333	1608.876953	423.879700
11498.092021	2886.453333	1607.838867	350.604279
11498.092021	2886.453333	1606.800781	482.208893
11498.092021	2886.453333	1605.761719	397.450378
11498.092021	2886.453333	1604.723633	367.953064
11498.092021	2886.453333	1603.684570	228.054474
11498.092021	2886.453333	1602.644531	327.397614
11498.092021	2886.453333	1601.605469	406.018921
11498.092021	2886.453333	1600.566406	365.071228
11498.092021	2886.453333	1599.526367	360.919342
11498.092021	2886.453333	1598.486328	329.200836
11498.092021	2886.453333	1597.446289	230.872665
11498.092021	2886.453333	1596.405273	171.639023
11498.092021	2886.453333	1595.365234	298.477600
11498.092021	2886.453333	1594.324219	363.272919
11498.092021	2886.453333	1593.283203	338.516479
11498.092021	2886.453333	1592.242188	325.258026
11498.092021	2886.453333	1591.200195	362.499634
11498.092021	2886.453333	1590.159180	243.718933
11498.092021	2886.453333	1589.117188	514.977234
11498.092021	2886.453333	1588.075195	428.344208
11498.092021	2886.453333	1587.032227	460.996216
11498.092021	2886.453333	1585.990234	461.556732
11498.092021	2886.453333	1584.947266	569.861206
11498.092021	2886.453333	1583.904297	426.042145
11498.092021	2886.453333	1582.861328	561.836731
11498.092021	2886.453333	1581.818359	457.051056
11498.092021	2886.453333	1580.775391	430.196777
11498.092021	2886.453333	1579.731445	401.074982
11498.092021	2886.453333	1578.687500	362.822937
11498.092021	2886.453333	1577.643555	340.627075
11498.092021	2886.453333	1576.598633	458.060028
11498.092021	2886.453333	1575.554688	374.108673
11498.092021	2886.453333	1574.509766	310.793823
11498.092021	2886.453333	1573.464844	636.362976
11498.092021	2886.453333	1572.419922	438.135406
11498.092021	2886.453333	1571.374023	368.039307
11498.092021	2886.453333	1570.329102	304.852783
11498.092021	2886.453333	1569.283203	257.706268
11498.092021	2886.453333	1568.237305	359.127441
11498.092021	2886.453333	1567.191406	344.015137
11498.092021	2886.453333	1566.144531	463.691650
11498.092021	2886.453333	1565.098633	382.381226
11498.092021	2886.453333	1564.051758	276.004974
11498.092021	2886.453333	1563.004883	393.408813
11498.092021	2886.453333	1561.957031	364.714996
11498.092021	2886.453333	1560.910156	482.102570
11498.092021	2886.453333	1559.862305	508.205261
11498.092021	2886.453333	1558.814453	436.238525
11498.092021	2886.453333	1557.766602	336.958130
11498.092021	2886.453333	1556.718750	326.666626
11498.092021	2886.453333	1555.669922	279.926361
11498.092021	2886.453333	1554.621094	173.970230
11498.092021	2886.453333	1553.573242	58.970966
11498.092021	2886.453333	1552.523438	192.374161
11498.092021	2886.453333	1551.474609	179.971283
11498.092021	2886.453333	1550.424805	409.005371
11498.092021	2886.453333	1549.375000	116.547066
11498.092021	2886.453333	1548.325195	174.819382
11498.092021	2886.453333	1547.275391	210.335861
11498.092021	2886.453333	1546.225586	159.393692
11498.092021	2886.453333	1545.174805	99.395744
11498.092021	2886.453333	1544.124023	-46.988831
11498.092021	2886.453333	1543.073242	297.962952
11498.092021	2886.453333	1542.022461	290.361755
11498.092021	2886.453333	1540.970703	275.970917
11498.092021	2886.453333	1539.919922	209.342911
11498.092021	2886.453333	1538.868164	160.948410
11498.092021	2886.453333	1537.815430	210.300034
11498.092021	2886.453333	1536.763672	255.124374
11498.092021	2886.453333	1535.710938	265.892761
11498.092021	2886.453333	1534.659180	126.826309
11498.092021	2886.453333	1533.606445	187.627441
11498.092021	2886.453333	1532.552734	350.576324
11498.092021	2886.453333	1531.500000	170.823044
11498.092021	2886.453333	1530.446289	115.962799
11498.092021	2886.453333	1529.393555	58.893078
11498.092021	2886.453333	1528.338867	103.935020
11498.092021	2886.453333	1527.285156	135.392059
11498.092021	2886.453333	1526.231445	51.248055
11498.092021	2886.453333	1525.176758	60.104187
11498.092021	2886.453333	1524.122070	175.505386
11498.092021	2886.453333	1523.067383	55.255638
11498.092021	2886.453333	1522.012695	77.805870
11498.092021	2886.453333	1520.957031	30.169508
11498.092021	2886.453333	1519.901367	61.844452
11498.092021	2886.453333	1518.845703	73.168358
11498.092021	2886.453333	1517.790039	-39.969864
11498.092021	2886.453333	1516.734375	77.810890
11498.092021	2886.453333	1515.677734	57.558384
11498.092021	2886.453333	1514.621094	123.316216
11498.092021	2886.453333	1513.564453	60.166153
11498.092021	2886.453333	1512.507813	28.738804
11498.092021	2886.453333	1511.450195	146.576675
11498.092021	2886.453333	1510.393555	-101.776131
11498.092021	2886.453333	1509.335938	172.057190
11498.092021	2886.453333	1508.278320	41.369545
11498.092021	2886.453333	1507.219727	7.910601
11498.092021	2886.453333	1506.162109	130.352539
11498.092021	2886.453333	1505.103516	63.097874
11498.092021	2886.453333	1504.044922	219.425644
11498.092021	2886.453333	1502.986328	61.970810
11498.092021	2886.453333	1501.926758	-25.421066
11498.092021	2886.453333	1500.868164	79.057518
11498.092021	2886.453333	1499.808594	179.022842
11498.092021	2886.453333	1498.749023	53.441696
11498.092021	2886.453333	1497.688477	155.709122
11498.092021	2886.453333	1496.628906	100.159149
11498.092021	2886.453333	1495.568359	98.770645
11498.092021	2886.453333	1494.507813	156.021957
11498.092021	2886.453333	1493.447266	17.260916
11498.092021	2886.453333	1492.386719	160.197601
11498.092021	2886.453333	1491.325195	57.612545
11498.092021	2886.453333	1490.263672	-38.132317
11498.092021	2886.453333	1489.202148	-27.977274
11498.092021	2886.453333	1488.140625	74.508476
11498.092021	2886.453333	1487.079102	-25.552389
11498.092021	2886.453333	1486.016602	-107.530540
11498.092021	2886.453333	1484.954102	107.524132
11498.092021	2886.453333	1483.891602	39.136150
11498.092021	2886.453333	1482.829102	-159.606964
11498.092021	2886.453333	1481.765625	-32.217834
11498.092021	2886.453333	1480.702148	-26.220654
11498.092021	2886.453333	1479.638672	-6.704679
11498.092021	2886.453333	1478.575195	21.853621
11498.092021	2886.453333	1477.511719	45.949455
11498.092021	2886.453333	1476.447266	-64.656166
11498.092021	2886.453333	1475.382813	24.654909
11498.092021	2886.453333	1474.318359	-123.991272
11498.092021	2886.453333	1473.253906	37.242779
11498.092021	2886.453333	1472.189453	90.612488
11498.092021	2886.453333	1471.124023	-35.228832
11498.092021	2886.453333	1470.058594	4.806443
11498.092021	2886.453333	1468.993164	51.583611
11498.092021	2886.453333	1467.927734	-62.715145
11498.092021	2886.453333	1466.861328	4.238429
11498.092021	2886.453333	1465.794922	-51.766556
11498.092021	2886.453333	1464.728516	-103.157791
11498.092021	2886.453333	1463.662109	-94.504097
11498.092021	2886.453333	1462.594727	-121.202148
11498.092021	2886.453333	1461.528320	17.614798
11498.092021	2886.453333	1460.460938	-105.269478
11498.092021	2886.453333	1459.393555	20.375750
11498.092021	2886.453333	1458.326172	-23.893358
11498.092021	2886.453333	1457.257813	76.193214
11498.092021	2886.453333	1456.189453	-37.248203
11498.092021	2886.453333	1455.121094	-139.275726
11498.092021	2886.453333	1454.052734	-45.005074
11498.092021	2886.453333	1452.984375	152.968536
11498.092021	2886.453333	1451.915039	16.127224
11498.092021	2886.453333	1450.845703	56.795574
11498.092021	2886.453333	1449.776367	63.754326
11498.092021	2886.453333	1448.707031	-28.811972
11498.092021	2886.453333	1447.636719	41.253284
11498.092021	2886.453333	1446.567383	-71.985710
11498.092021	2886.453333	1445.497070	21.895643
11498.092021	2886.453333	1444.425781	-61.293484
11498.092021	2886.453333	1443.355469	138.698822
11498.092021	2886.453333	1442.285156	115.264084
11498.092021	2886.453333	1441.213867	-45.187916
11498.092021	2886.453333	1440.142578	-95.278885
11498.092021	2886.453333	1439.070313	35.534813
11498.092021	2886.453333	1437.999023	119.137939
11498.092021	2886.453333	1436.926758	226.384949
11498.092021	2886.453333	1435.854492	-95.674660
11498.092021	2886.453333	1434.782227	-18.939892
11498.092021	2886.453333	1433.709961	49.119942
11498.092021	2886.453333	1432.636719	12.765504
11498.092021	2886.453333	1431.563477	-87.065712
11498.092021	2886.453333	1430.490234	-223.842545
11498.092021	2886.453333	1429.416992	-21.515280
11498.092021	2886.453333	1428.343750	-68.920448
11498.092021	2886.453333	1427.269531	53.122742
11498.092021	2886.453333	1426.195313	-61.028049
11498.092021	2886.453333	1425.121094	-43.583374
11498.092021	2886.453333	1424.046875	-44.271378
11498.092021	2886.453333	1422.971680	20.265644
11498.092021	2886.453333	1421.896484	138.844635
11498.092021	2886.453333	1420.821289	-51.472012
11498.092021	2886.453333	1419.746094	178.602676
11498.092021	2886.453333	1418.669922	-76.926979
11498.092021	2886.453333	1417.594727	125.803551
11498.092021	2886.453333	1416.518555	43.627800
11498.092021	2886.453333	1415.442383	-50.548195
11498.092021	2886.453333	1414.365234	-36.407932
11498.092021	2886.453333	1413.289063	-71.951515
11498.092021	2886.453333	1412.211914	69.039688
11498.092021	2886.453333	1411.134766	30.750345
11498.092021	2886.453333	1410.057617	-103.870979
11498.092021	2886.453333	1408.979492	30.474819
11498.092021	2886.453333	1407.902344	-32.881233
11498.092021	2886.453333	1406.824219	-98.303619
11498.092021	2886.453333	1405.746094	-46.374008
11498.092021	2886.453333	1404.666992	0.220038
11498.092021	2886.453333	1403.588867	34.089478
11498.092021	2886.453333	1402.509766	170.173355
11498.092021	2886.453333	1401.430664	8.573922
11498.092021	2886.453333	1400.351563	10.662068
11498.092021	2886.453333	1399.271484	158.987717
11498.092021	2886.453333	1398.192383	71.350883
11498.092021	2886.453333	1397.112305	100.112366
11498.092021	2886.453333	1396.031250	285.444946
11498.092021	2886.453333	1394.951172	103.741119
11498.092021	2886.453333	1393.871094	153.080704
11498.092021	2886.453333	1392.790039	-12.950562
11498.092021	2886.453333	1391.708984	74.827820
11498.092021	2886.453333	1390.626953	-45.571068
11498.092021	2886.453333	1389.545898	100.277138
11498.092021	2886.453333	1388.463867	254.447220
11498.092021	2886.453333	1387.381836	59.200047
11498.092021	2886.453333	1386.299805	220.259506
11498.092021	2886.453333	1385.217773	104.325577
11498.092021	2886.453333	1384.134766	72.216232
11498.092021	2886.453333	1383.051758	156.753220
11498.092021	2886.453333	1381.968750	87.282501
11498.092021	2886.453333	1380.885742	2.618759
11498.092021	2886.453333	1379.802734	99.603058
11498.092021	2886.453333	1378.718750	55.556980
11498.092021	2886.453333	1377.634766	189.502258
11498.092021	2886.453333	1376.550781	81.618828
11498.092021	2886.453333	1375.465820	-61.449879
11498.092021	2886.453333	1374.381836	34.846897
11498.092021	2886.453333	1373.296875	169.764587
11498.092021	2886.453333	1372.211914	84.646530
11498.092021	2886.453333	1371.126953	92.352325
11498.092021	2886.453333	1370.041016	-33.089180
11498.092021	2886.453333	1368.955078	102.589081
11498.092021	2886.453333	1367.869141	117.130478
11498.092021	2886.453333	1366.783203	201.755936
11498.092021	2886.453333	1365.697266	205.983704
11498.092021	2886.453333	1364.610352	89.068901
11498.092021	2886.453333	1363.523438	50.690487
11498.092021	2886.453333	1362.436523	44.845257
11498.092021	2886.453333	1361.349609	167.513870
11498.092021	2886.453333	1360.261719	206.964737
11498.092021	2886.453333	1359.174805	199.537643
11498.092021	2886.453333	1358.086914	107.212105
11498.092021	2886.453333	1356.998047	153.672470
11498.092021	2886.453333	1355.910156	72.032288
11498.092021	2886.453333	1354.821289	29.321028
11498.092021	2886.453333	1353.732422	121.347740
11498.092021	2886.453333	1352.643555	61.588684
11498.092021	2886.453333	1351.554688	143.660736
11498.092021	2886.453333	1350.464844	73.172386
11498.092021	2886.453333	1349.375000	186.696228
11498.092021	2886.453333	1348.285156	57.426769
11498.092021	2886.453333	1347.195313	201.794861
11498.092021	2886.453333	1346.105469	290.740112
11498.092021	2886.453333	1345.014648	76.800850
11498.092021	2886.453333	1343.923828	41.632996
11498.092021	2886.453333	1342.833008	244.731842
11498.092021	2886.453333	1341.741211	243.013702
11498.092021	2886.453333	1340.650391	111.409172
11498.092021	2886.453333	1339.558594	-8.388916
11498.092021	2886.453333	1338.466797	176.347015
11498.092021	2886.453333	1337.374023	189.173004
11498.092021	2886.453333	1336.282227	168.729904
11498.092021	2886.453333	1335.189453	192.349915
11498.092021	2886.453333	1334.096680	207.538300
11498.092021	2886.453333	1333.003906	212.363602
11498.092021	2886.453333	1331.910156	214.169098
11498.092021	2886.453333	1330.817383	-21.547695
11498.092021	2886.453333	1329.723633	245.523666
11498.092021	2886.453333	1328.629883	259.653015
11498.092021	2886.453333	1327.535156	247.576782
11498.092021	2886.453333	1326.441406	153.852829
11498.092021	2886.453333	1325.346680	217.845032
11498.092021	2886.453333	1324.251953	184.401703
11498.092021	2886.453333	1323.156250	250.766220
11498.092021	2886.453333	1322.061523	268.235535
11498.092021	2886.453333	1320.965820	163.527649
11498.092021	2886.453333	1319.870117	201.300400
11498.092021	2886.453333	1318.774414	54.057346
11498.092021	2886.453333	1317.678711	334.999786
11498.092021	2886.453333	1316.582031	101.141258
11498.092021	2886.453333	1315.485352	191.633102
11498.092021	2886.453333	1314.388672	207.829941
11498.092021	2886.453333	1313.291016	209.256104
11498.092021	2886.453333	1312.194336	338.835114
11498.092021	2886.453333	1311.096680	199.617844
11498.092021	2886.453333	1309.999023	147.010483
11498.092021	2886.453333	1308.901367	202.370117
11498.092021	2886.453333	1307.802734	51.412498
11498.092021	2886.453333	1306.705078	168.504349
11498.092021	2886.453333	1305.606445	209.541000
11498.092021	2886.453333	1304.506836	188.109543
11498.092021	2886.453333	1303.408203	18.865162
11498.092021	2886.453333	1302.308594	21.670553
11498.092021	2886.453333	1301.208984	88.902924
11498.092021	2886.453333	1300.109375	89.291428
11498.092021	2886.453333	1299.009766	150.905029
11498.092021	2886.453333	1297.909180	8.274614
11498.092021	2886.453333	1296.808594	182.005356
11498.092021	2886.453333	1295.708008	100.679398
11498.092021	2886.453333	1294.607422	5.325224
11498.092021	2886.453333	1293.506836	121.528893
11498.092021	2886.453333	1292.405273	112.706604
11498.092021	2886.453333	1291.303711	260.003998
11498.092021	2886.453333	1290.202148	140.473907
11498.092021	2886.453333	1289.099609	85.292366
11498.092021	2886.453333	1287.998047	100.523796
11498.092021	2886.453333	1286.895508	89.172424
11498.092021	2886.453333	1285.792969	118.297379
11498.092021	2886.453333	1284.689453	78.241714
11498.092021	2886.453333	1283.586914	-13.115788
11498.092021	2886.453333	1282.483398	67.123238
11498.092021	2886.453333	1281.379883	51.130184
11498.092021	2886.453333	1280.276367	76.099525
11498.092021	2886.453333	1279.171875	-85.805328
11498.092021	2886.453333	1278.067383	29.255928
11498.092021	2886.453333	1276.962891	-20.178474
11498.092021	2886.453333	1275.858398	85.022957
11498.092021	2886.453333	1274.753906	83.333008
11498.092021	2886.453333	1273.648438	66.429787
11498.092021	2886.453333	1272.542969	-50.361080
11498.092021	2886.453333	1271.437500	41.153416
11498.092021	2886.453333	1270.331055	77.989777
11498.092021	2886.453333	1269.225586	59.405479
11498.092021	2886.453333	1268.119141	32.195114
11498.092021	2886.453333	1267.012695	81.630554
11498.092021	2886.453333	1265.906250	119.230507
11498.092021	2886.453333	1264.798828	115.373810
11498.092021	2886.453333	1263.691406	5.196579
11498.092021	2886.453333	1262.583984	151.010498
11498.092021	2886.453333	1261.476563	82.488075
11498.092021	2886.453333	1260.368164	80.079468
11498.092021	2886.453333	1259.260742	73.708069
11498.092021	2886.453333	1258.152344	-8.073605
11498.092021	2886.453333	1257.043945	-7.745677
11498.092021	2886.453333	1255.934570	63.603451
11498.092021	2886.453333	1254.825195	-29.292471
11498.092021	2886.453333	1253.716797	-214.909195
11498.092021	2886.453333	1252.606445	-131.425293
11498.092021	2886.453333	1251.497070	-8.749741
11498.092021	2886.453333	1250.387695	-58.612545
11498.092021	2886.453333	1249.277344	-4.537624
11498.092021	2886.453333	1248.166992	11.742449
11498.092021	2886.453333	1247.055664	-49.370956
11498.092021	2886.453333	1245.945313	-66.152725
11498.092021	2886.453333	1244.833984	-78.220695
11498.092021	2886.453333	1243.722656	-38.399727
11498.092021	2886.453333	1242.611328	8.387511
11498.092021	2886.453333	1241.499023	-25.608486
11498.092021	2886.453333	1240.387695	-46.298832
11498.092021	2886.453333	1239.275391	14.113688
11498.092021	2886.453333	1238.162109	-71.182274
11498.092021	2886.453333	1237.049805	17.910971
11498.092021	2886.453333	1235.936523	-0.022263
11498.092021	2886.453333	1234.823242	56.675117
11498.092021	2886.453333	1233.709961	13.248422
11498.092021	2886.453333	1232.596680	-28.146402
11498.092021	2886.453333	1231.482422	-62.184147
11498.092021	2886.453333	1230.369141	-89.909187
11498.092021	2886.453333	1229.253906	-52.166595
11498.092021	2886.453333	1228.139648	-72.048889
11498.092021	2886.453333	1227.025391	-89.377350
11498.092021	2886.453333	1225.910156	-36.848740
11498.092021	2886.453333	1224.794922	-26.979279
11498.092021	2886.453333	1223.679688	9.057418
11498.092021	2886.453333	1222.563477	28.557730
11498.092021	2886.453333	1221.447266	91.562592
11498.092021	2886.453333	1220.331055	72.899857
11498.092021	2886.453333	1219.214844	32.535065
11498.092021	2886.453333	1218.098633	-28.037914
11498.092021	2886.453333	1216.981445	-43.830334
11498.092021	2886.453333	1215.864258	38.752491
11498.092021	2886.453333	1214.747070	47.549160
11498.092021	2886.453333	1213.629883	34.768391
11498.092021	2886.453333	1212.511719	-39.489265
11498.092021	2886.453333	1211.393555	-51.192085
11498.092021	2886.453333	1210.275391	-55.613762
11498.092021	2886.453333	1209.157227	-29.971346
11498.092021	2886.453333	1208.038086	-64.675545
11498.092021	2886.453333	1206.918945	-60.937759
11498.092021	2886.453333	1205.799805	-31.195250
11498.092021	2886.453333	1204.680664	-28.949234
11498.092021	2886.453333	1203.560547	-49.610447
11498.092021	2886.453333	1202.441406	-112.927994
11498.092021	2886.453333	1201.321289	-46.313911
11498.092021	2886.453333	1200.200195	-90.045326
11498.092021	2886.453333	1199.080078	-31.397148
11498.092021	2886.453333	1197.958984	-23.116928
11498.092021	2886.453333	1196.837891	-0.200140
11498.092021	2886.453333	1195.716797	-63.504921
11498.092021	2886.453333	1194.594727	9.268873
11498.092021	2886.453333	1193.473633	-92.368896
11498.092021	2886.453333	1192.351563	-36.153648
11498.092021	2886.453333	1191.229492	-42.177483
11498.092021	2886.453333	1190.106445	15.755713
11498.092021	2886.453333	1188.984375	-38.391956
11498.092021	2886.453333	1187.861328	-20.526403
11498.092021	2886.453333	1186.738281	-86.594650
11498.092021	2886.453333	1185.614258	-84.959213
11498.092021	2886.453333	1184.491211	-143.969910
11498.092021	2886.453333	1183.367188	-98.540031
11498.092021	2886.453333	1182.243164	2.378545
11498.092021	2886.453333	1181.119141	51.181145
11498.092021	2886.453333	1179.994141	-48.505543
11498.092021	2886.453333	1178.869141	-31.873558
11498.092021	2886.453333	1177.744141	0.524665
11498.092021	2886.453333	1176.619141	21.242653
11498.092021	2886.453333	1175.493164	-73.532890
11498.092021	2886.453333	1174.368164	-156.625641
11498.092021	2886.453333	1173.242188	-63.267967
11498.092021	2886.453333	1172.115234	36.566280
11498.092021	2886.453333	1170.989258	-39.500195
11498.092021	2886.453333	1169.862305	-117.251595
11498.092021	2886.453333	1168.735352	-15.266543
11498.092021	2886.453333	1167.608398	-42.084747
11498.092021	2886.453333	1166.481445	-25.349432
11498.092021	2886.453333	1165.353516	-28.109842
11498.092021	2886.453333	1164.225586	45.348446
11498.092021	2886.453333	1163.097656	47.065323
11498.092021	2886.453333	1161.968750	11.434381
11498.092021	2886.453333	1160.840820	33.403316
11498.092021	2886.453333	1159.711914	-20.068172
11498.092021	2886.453333	1158.583008	-32.209427
11498.092021	2886.453333	1157.453125	-12.638129
11498.092021	2886.453333	1156.324219	5.085249
11498.092021	2886.453333	1155.194336	-131.482056
11498.092021	2886.453333	1154.064453	15.596225
11498.092021	2886.453333	1152.933594	26.703810
11498.092021	2886.453333	1151.803711	15.019142
11498.092021	2886.453333	1150.672852	6.836156
11498.092021	2886.453333	1149.541992	34.160526
11498.092021	2886.453333	1148.411133	86.441841
11498.092021	2886.453333	1147.279297	23.046671
11498.092021	2886.453333	1146.147461	88.947540
11498.092021	2886.453333	1145.015625	24.161430
11498.092021	2886.453333	1143.883789	76.413818
11498.092021	2886.453333	1142.750977	34.946220
11498.092021	2886.453333	1141.619141	51.698627
11498.092021	2886.453333	1140.486328	59.586277
11498.092021	2886.453333	1139.352539	30.486956
11498.092021	2886.453333	1138.219727	-111.140678
11498.092021	2886.453333	1137.085938	41.676620
11498.092021	2886.453333	1135.952148	65.478951
11498.092021	2886.453333	1134.818359	-36.034565
11498.092021	2886.453333	1133.683594	75.999054
11498.092021	2886.453333	1132.549805	121.466881
11498.092021	2886.453333	1131.415039	109.850304
11498.092021	2886.453333	1130.279297	77.522720
11498.092021	2886.453333	1129.144531	207.287338
11498.092021	2886.453333	1128.008789	269.100555
11498.092021	2886.453333	1126.873047	185.065109
11498.092021	2886.453333	1125.737305	307.666779
11498.092021	2886.453333	1124.601563	243.713608
11498.092021	2886.453333	1123.464844	205.081619
11498.092021	2886.453333	1122.328125	198.676865
11498.092021	2886.453333	1121.191406	172.464142
11498.092021	2886.453333	1120.054688	196.245651
11498.092021	2886.453333	1118.916992	179.178574
11498.092021	2886.453333	1117.779297	286.028931
11498.092021	2886.453333	1116.641602	189.808884
11498.092021	2886.453333	1115.503906	122.920746
11498.092021	2886.453333	1114.365234	139.669586
11498.092021	2886.453333	1113.226563	155.756577
11498.092021	2886.453333	1112.087891	95.980003
11498.092021	2886.453333	1110.949219	117.333984
11498.092021	2886.453333	1109.809570	143.881851
11498.092021	2886.453333	1108.669922	71.207634
11498.092021	2886.453333	1107.530273	15.106734
11498.092021	2886.453333	1106.390625	-35.773411
11498.092021	2886.453333	1105.250000	100.807701
11498.092021	2886.453333	1104.109375	27.621220
11498.092021	2886.453333	1102.968750	8.965462
11498.092021	2886.453333	1101.828125	7.662687
11498.092021	2886.453333	1100.686523	235.581268
11498.092021	2886.453333	1099.544922	124.414299
11498.092021	2886.453333	1098.403320	131.718918
11498.092021	2886.453333	1097.261719	154.661118
11498.092021	2886.453333	1096.120117	58.368858
11498.092021	2886.453333	1094.977539	-9.947309
11498.092021	2886.453333	1093.834961	266.873108
11498.092021	2886.453333	1092.691406	-41.717144
11498.092021	2886.453333	1091.548828	145.623047
11498.092021	2886.453333	1090.405273	121.649712
11498.092021	2886.453333	1089.261719	0.511222
11498.092021	2886.453333	1088.118164	54.871647
11498.092021	2886.453333	1086.973633	92.035690
11498.092021	2886.453333	1085.829102	-2.250072
11498.092021	2886.453333	1084.684570	-8.898705
11498.092021	2886.453333	1083.540039	27.119114
11498.092021	2886.453333	1082.395508	157.786819
11498.092021	2886.453333	1081.250000	-7.880060
11498.092021	2886.453333	1080.104492	136.350525
11498.092021	2886.453333	1078.958984	-44.576557
11498.092021	2886.453333	1077.812500	102.695969
11498.092021	2886.453333	1076.666016	61.078434
11498.092021	2886.453333	1075.519531	-19.864672
11498.092021	2886.453333	1074.373047	45.645500
11498.092021	2886.453333	1073.226563	162.802841
11498.092021	2886.453333	1072.079102	37.821991
11498.092021	2886.453333	1070.931641	-50.670322
11498.092021	2886.453333	1069.784180	88.857201
11498.092021	2886.453333	1068.635742	170.265137
11498.092021	2886.453333	1067.487305	95.450798
11498.092021	2886.453333	1066.338867	174.484055
11498.092021	2886.453333	1065.190430	216.017303
11498.092021	2886.453333	1064.041992	142.938309
11498.092021	2886.453333	1062.892578	169.967911
11498.092021	2886.453333	1061.743164	158.269638
11498.092021	2886.453333	1060.593750	194.699005
11498.092021	2886.453333	1059.443359	88.228767
11498.092021	2886.453333	1058.292969	75.383354
11498.092021	2886.453333	1057.142578	112.563217
11498.092021	2886.453333	1055.992188	86.050644
11498.092021	2886.453333	1054.841797	1.151873
11498.092021	2886.453333	1053.690430	108.692596
11498.092021	2886.453333	1052.539063	121.296936
11498.092021	2886.453333	1051.387695	161.121216
11498.092021	2886.453333	1050.235352	12.142959
11498.092021	2886.453333	1049.083984	40.696407
11498.092021	2886.453333	1047.931641	101.886887
11498.092021	2886.453333	1046.778320	-22.913988
11498.092021	2886.453333	1045.625977	-3.213648
11498.092021	2886.453333	1044.472656	51.683945
11498.092021	2886.453333	1043.319336	29.200426
11498.092021	2886.453333	1042.166016	109.232368
11498.092021	2886.453333	1041.012695	98.783272
11498.092021	2886.453333	1039.858398	121.598572
11498.092021	2886.453333	1038.704102	184.019913
11498.092021	2886.453333	1037.549805	72.489738
11498.092021	2886.453333	1036.394531	36.031784
11498.092021	2886.453333	1035.239258	-89.503983
11498.092021	2886.453333	1034.083984	111.246315
11498.092021	2886.453333	1032.928711	56.398975
11498.092021	2886.453333	1031.773438	169.236816
11498.092021	2886.453333	1030.617188	75.258072
11498.092021	2886.453333	1029.460938	74.626297
11498.092021	2886.453333	1028.304688	135.673126
11498.092021	2886.453333	1027.147461	49.836708
11498.092021	2886.453333	1025.991211	70.774742
11498.092021	2886.453333	1024.833984	3.617785
11498.092021	2886.453333	1023.675781	139.021652
11498.092021	2886.453333	1022.518555	70.642197
11498.092021	2886.453333	1021.360352	-9.798816
11498.092021	2886.453333	1020.202148	12.090818
11498.092021	2886.453333	1019.043945	96.298996
11498.092021	2886.453333	1017.884766	18.763248
11498.092021	2886.453333	1016.726563	89.615173
11498.092021	2886.453333	1015.567383	-35.412384
11498.092021	2886.453333	1014.407227	118.332008
11498.092021	2886.453333	1013.248047	28.689516
11498.092021	2886.453333	1012.087891	-62.765797
11498.092021	2886.453333	1010.927734	190.691895
11498.092021	2886.453333	1009.767578	-148.772751
11498.092021	2886.453333	1008.606445	62.779156
11498.092021	2886.453333	1007.446289	77.043900
11498.092021	2886.453333	1006.285156	-32.378716
11498.092021	2886.453333	1005.123047	41.185692
11498.092021	2886.453333	1003.961914	-59.860920
11498.092021	2886.453333	1002.799805	-45.278214
11498.092021	2886.453333	1001.637695	-24.027752
11498.092021	2886.453333	1000.475586	44.597614
11498.092021	2886.453333	999.312500	54.026890
11498.092021	2886.453333	998.149414	-68.905548
11498.092021	2886.453333	996.986328	49.055798
11498.092021	2886.453333	995.823242	73.826073
11498.092021	2886.453333	994.659180	-85.481201
11498.092021	2886.453333	993.496094	-15.665483
11498.092021	2886.453333	992.332031	4.627089
11498.092021	2886.453333	991.166992	-130.867081
11498.092021	2886.453333	990.002930	11.096084
11498.092021	2886.453333	988.837891	-68.580315
11498.092021	2886.453333	987.672852	32.821529
11498.092021	2886.453333	986.506836	114.665527
11498.092021	2886.453333	985.341797	122.311104
11498.092021	2886.453333	984.175781	87.962029
11498.092021	2886.453333	983.009766	-146.069107
11498.092021	2886.453333	981.843750	136.564972
11498.092021	2886.453333	980.676758	4.790123
11498.092021	2886.453333	979.509766	80.105507
11498.092021	2886.453333	978.342773	-70.828125
11498.092021	2886.453333	977.175781	-144.779221
11498.092021	2886.453333	976.007813	-96.284843
11498.092021	2886.453333	974.839844	-6.023060
11498.092021	2886.453333	973.671875	106.827049
11498.092021	2886.453333	972.503906	-19.006374
11498.092021	2886.453333	971.334961	183.457596
11498.092021	2886.453333	970.166016	35.104942
11498.092021	2886.453333	968.997070	1.539755
11498.092021	2886.453333	967.828125	38.819771
11498.092021	2886.453333	966.658203	-31.964254
11498.092021	2886.453333	965.488281	10.016549
11498.092021	2886.453333	964.318359	-32.340736
11498.092021	2886.453333	963.148438	10.079232
11498.092021	2886.453333	961.977539	40.374969
11498.092021	2886.453333	960.806641	-2.971283
11498.092021	2886.453333	959.635742	24.823780
11498.092021	2886.453333	958.463867	-65.851807
11498.092021	2886.453333	957.292969	21.081173
11498.092021	2886.453333	956.121094	-51.385513
11498.092021	2886.453333	954.948242	-13.955896
11498.092021	2886.453333	953.776367	70.546463
11498.092021	2886.453333	952.603516	-27.310059
11498.092021	2886.453333	951.430664	25.927061
11498.092021	2886.453333	950.257813	79.630478
11498.092021	2886.453333	949.084961	-51.276363
11498.092021	2886.453333	947.911133	26.653547
11498.092021	2886.453333	946.737305	26.736061
11498.092021	2886.453333	945.563477	24.530842
11498.092021	2886.453333	944.388672	71.590340
11498.092021	2886.453333	943.213867	31.747036
11498.092021	2886.453333	942.039063	-42.997028
11498.092021	2886.453333	940.864258	-19.365396
11498.092021	2886.453333	939.688477	97.807625
11498.092021	2886.453333	938.513672	4.419905
11498.092021	2886.453333	937.337891	53.538570
11498.092021	2886.453333	936.161133	25.713482
11498.092021	2886.453333	934.985352	4.659462
11498.092021	2886.453333	933.808594	-88.683868
11498.092021	2886.453333	932.631836	23.563892
11498.092021	2886.453333	931.454102	65.615723
11498.092021	2886.453333	930.277344	119.393555
11498.092021	2886.453333	929.099609	163.775406
11498.092021	2886.453333	927.921875	229.161713
11498.092021	2886.453333	926.743164	70.402641
11498.092021	2886.453333	925.565430	84.423592
11498.092021	2886.453333	924.386719	30.749474
11498.092021	2886.453333	923.208008	310.674347
11498.092021	2886.453333	922.028320	110.035583
11498.092021	2886.453333	920.849609	242.912979
11498.092021	2886.453333	919.669922	244.005692
11498.092021	2886.453333	919.474609	161.421463
11498.092021	2886.453333	918.309570	-85.738548
11498.092021	2886.453333	917.143555	47.058300
11498.092021	2886.453333	915.977539	-57.867043
11498.092021	2886.453333	914.810547	121.441422
11498.092021	2886.453333	913.644531	-92.940849
11498.092021	2886.453333	912.477539	37.382942
11498.092021	2886.453333	911.310547	97.801147
11498.092021	2886.453333	910.143555	-41.989407
11498.092021	2886.453333	908.975586	46.327579
11498.092021	2886.453333	907.807617	13.612643
11498.092021	2886.453333	906.639648	36.730576
11498.092021	2886.453333	905.471680	-77.388405
11498.092021	2886.453333	904.303711	113.137573
11498.092021	2886.453333	903.134766	-47.463596
11498.092021	2886.453333	901.965820	12.799986
11498.092021	2886.453333	900.796875	-15.275740
11498.092021	2886.453333	899.626953	-152.546417
11498.092021	2886.453333	898.457031	-66.773544
11498.092021	2886.453333	897.287109	-20.525919
11498.092021	2886.453333	896.117188	55.879093
11498.092021	2886.453333	894.947266	48.670532
11498.092021	2886.453333	893.776367	131.975616
11498.092021	2886.453333	892.605469	64.403969
11498.092021	2886.453333	891.434570	75.732483
11498.092021	2886.453333	890.262695	149.676224
11498.092021	2886.453333	889.091797	49.647404
11498.092021	2886.453333	887.919922	-59.622612
11498.092021	2886.453333	886.748047	44.411896
11498.092021	2886.453333	885.575195	-23.112164
11498.092021	2886.453333	884.403320	124.881516
11498.092021	2886.453333	883.230469	85.151108
11498.092021	2886.453333	882.057617	10.684238
11498.092021	2886.453333	880.883789	54.344353
11498.092021	2886.453333	879.710938	53.985630
11498.092021	2886.453333	878.537109	-57.492695
11498.092021	2886.453333	877.362305	-50.902164
11498.092021	2886.453333	876.188477	4.268178
11498.092021	2886.453333	875.013672	17.766151
11498.092021	2886.453333	873.839844	-56.643356
11498.092021	2886.453333	872.664063	-33.906303
11498.092021	2886.453333	871.489258	-25.060139
11498.092021	2886.453333	870.313477	-127.179375
11498.092021	2886.453333	869.138672	-90.603081
11498.092021	2886.453333	867.962891	22.198214
11498.092021	2886.453333	866.786133	-93.755516
11498.092021	2886.453333	865.610352	7.434009
11498.092021	2886.453333	864.433594	20.825500
11498.092021	2886.453333	863.256836	-2.736892
11498.092021	2886.453333	862.079102	49.872826
11498.092021	2886.453333	860.902344	-79.860092
11498.092021	2886.453333	859.724609	-6.509829
11498.092021	2886.453333	858.546875	22.972387
11498.092021	2886.453333	857.368164	29.370714
11498.092021	2886.453333	856.190430	-72.618607
11498.092021	2886.453333	855.011719	-70.833000
11498.092021	2886.453333	853.833008	57.711376
11498.092021	2886.453333	852.654297	-9.682280
11498.092021	2886.453333	851.474609	56.571411
11498.092021	2886.453333	850.294922	95.146744
11498.092021	2886.453333	849.115234	55.394760
11498.092021	2886.453333	847.935547	82.422348
11498.092021	2886.453333	846.754883	199.209869
11498.092021	2886.453333	845.575195	115.701752
11498.092021	2886.453333	844.393555	18.411888
11498.092021	2886.453333	843.212891	82.195908
11498.092021	2886.453333	842.032227	189.647461
11498.092021	2886.453333	840.850586	-195.089096
11498.092021	2886.453333	839.668945	-152.022507
11498.092021	2886.453333	838.486328	-143.464935
11498.092021	2886.453333	837.304688	-61.376194
11498.092021	2886.453333	836.122070	167.727814
11498.092021	2886.453333	834.939453	-28.278847
11498.092021	2886.453333	833.756836	33.032982
11498.092021	2886.453333	832.573242	9.343253
11498.092021	2886.453333	831.389648	153.254105
11498.092021	2886.453333	830.206055	104.278641
11498.092021	2886.453333	829.022461	-2.061694
11498.092021	2886.453333	827.838867	43.067497
11498.092021	2886.453333	826.654297	-10.475169
11498.092021	2886.453333	825.469727	-18.135859
11498.092021	2886.453333	824.284180	13.178398
11498.092021	2886.453333	823.099609	-81.624802
11498.092021	2886.453333	821.914063	39.060455
11498.092021	2886.453333	820.728516	19.893505
11498.092021	2886.453333	819.542969	220.676514
11498.092021	2886.453333	818.356445	54.852516
11498.092021	2886.453333	817.169922	33.370403
11498.092021	2886.453333	815.983398	34.782833
11498.092021	2886.453333	814.796875	61.365608
11498.092021	2886.453333	813.609375	152.012390
11498.092021	2886.453333	812.422852	57.253979
11498.092021	2886.453333	811.235352	-74.082695
11498.092021	2886.453333	810.046875	23.362610
11498.092021	2886.453333	808.859375	-25.607771
11498.092021	2886.453333	807.670898	-21.981415
11498.092021	2886.453333	806.482422	4.490952
11498.092021	2886.453333	805.293945	-60.480305
11498.092021	2886.453333	804.104492	-29.465481
11498.092021	2886.453333	802.915039	12.946836
11498.092021	2886.453333	801.725586	-65.727821
11498.092021	2886.453333	800.536133	42.873753
11498.092021	2886.453333	799.345703	78.357483
11498.092021	2886.453333	798.155273	-114.454056
11498.092021	2886.453333	796.964844	-10.513094
11498.092021	2886.453333	795.774414	-150.772842
11498.092021	2886.453333	794.583008	-97.081039
11498.092021	2886.453333	793.392578	45.525555
11498.092021	2886.453333	792.200195	12.476085
11498.092021	2886.453333	791.008789	-38.812099
11498.092021	2886.453333	789.816406	144.681900
11498.092021	2886.453333	788.625000	-161.875961
11498.092021	2886.453333	787.432617	5.591311
11498.092021	2886.453333	786.239258	15.795999
11498.092021	2886.453333	785.046875	37.370426
11498.092021	2886.453333	783.853516	-120.961983
11498.092021	2886.453333	782.660156	71.343163
11498.092021	2886.453333	781.465820	60.984398
11498.092021	2886.453333	780.272461	25.584377
11498.092021	2886.453333	779.078125	90.289284
11498.092021	2886.453333	777.883789	11.650381
11498.092021	2886.453333	776.688477	46.737263
11498.092021	2886.453333	775.494141	120.447571
11498.092021	2886.453333	774.298828	-5.931489
11498.092021	2886.453333	773.103516	8.637728
11498.092021	2886.453333	771.907227	216.329254
11498.092021	2886.453333	770.711914	26.352837
11498.092021	2886.453333	769.515625	38.588360
11498.092021	2886.453333	768.318359	12.198295
11498.092021	2886.453333	767.122070	-30.088493
11498.092021	2886.453333	765.924805	-38.325302
11498.092021	2886.453333	764.727539	32.856174
11498.092021	2886.453333	763.530273	1.888457
11498.092021	2886.453333	762.333008	-26.814480
11498.092021	2886.453333	761.134766	76.024315
11498.092021	2886.453333	759.936523	137.987549
11498.092021	2886.453333	758.738281	-13.196844
11498.092021	2886.453333	757.540039	-164.335587
11498.092021	2886.453333	756.340820	19.961504
11498.092021	2886.453333	755.141602	34.239590
11498.092021	2886.453333	753.942383	-53.439400
11498.092021	2886.453333	752.742188	28.756083
11498.092021	2886.453333	751.541992	18.065582
11498.092021	2886.453333	750.341797	75.275635
11498.092021	2886.453333	749.141602	150.551697
11498.092021	2886.453333	747.941406	56.065548
11498.092021	2886.453333	746.740234	113.179939
11498.092021	2886.453333	745.539063	104.658401
11498.092021	2886.453333	744.337891	71.246964
11498.092021	2886.453333	743.135742	46.875214
11498.092021	2886.453333	741.933594	-63.402737
11498.092021	2886.453333	740.731445	36.528770
11498.092021	2886.453333	739.529297	75.392799
11498.092021	2886.453333	738.326172	84.854744
11498.092021	2886.453333	737.124023	78.484489
11498.092021	2886.453333	735.919922	128.551224
11498.092021	2886.453333	734.716797	156.002441
11498.092021	2886.453333	733.513672	208.252991
11498.092021	2886.453333	732.309570	158.911102
11498.092021	2886.453333	731.105469	267.507568
11498.092021	2886.453333	729.900391	134.673035
11498.092021	2886.453333	728.696289	231.915573
11498.092021	2886.453333	727.491211	26.952541
11498.092021	2886.453333	726.286133	169.225967
11498.092021	2886.453333	725.080078	126.602264
11498.092021	2886.453333	723.874023	-1.651324
11498.092021	2886.453333	722.668945	-73.546791
11498.092021	2886.453333	721.461914	61.794426
11498.092021	2886.453333	720.255859	82.209015
11498.092021	2886.453333	719.048828	-61.766041
11498.092021	2886.453333	717.841797	-5.356084
11498.092021	2886.453333	716.634766	-84.024040
11498.092021	2886.453333	715.427734	71.333084
11498.092021	2886.453333	714.219727	-23.104933
11498.092021	2886.453333	713.011719	-34.303112
11498.092021	2886.453333	711.803711	-32.024174
11498.092021	2886.453333	710.594727	-135.432617
11498.092021	2886.453333	709.385742	10.682861
11498.092021	2886.453333	708.176758	-29.806667
11498.092021	2886.453333	706.967773	26.314116
11498.092021	2886.453333	705.758789	-2.968475
11498.092021	2886.453333	704.548828	-38.997215
11498.092021	2886.453333	703.338867	-34.613453
11498.092021	2886.453333	702.127930	66.279457
11498.092021	2886.453333	700.917969	-39.378017
11498.092021	2886.453333	699.707031	-50.764648
11498.092021	2886.453333	698.496094	18.600550
11498.092021	2886.453333	697.285156	29.597466
11498.092021	2886.453333	696.073242	-143.320862
11498.092021	2886.453333	694.861328	4.433053
11498.092021	2886.453333	693.649414	64.681496
11498.092021	2886.453333	692.436523	212.289078
11498.092021	2886.453333	691.224609	48.362080
11498.092021	2886.453333	690.011719	25.615530
11498.092021	2886.453333	688.798828	-8.339055
11498.092021	2886.453333	687.584961	36.073833
11498.092021	2886.453333	686.372070	114.031876
11498.092021	2886.453333	685.158203	95.688004
11498.092021	2886.453333	683.943359	166.845444
11498.092021	2886.453333	682.729492	155.171234
11498.092021	2886.453333	681.514648	-149.553848
11498.092021	2886.453333	680.299805	84.812119
11498.092021	2886.453333	679.084961	-83.414902
11498.092021	2886.453333	677.869141	77.027031
11498.092021	2886.453333	676.653320	2.704209
11498.092021	2886.453333	675.437500	40.121086
11498.092021	2886.453333	674.221680	-14.094335
11498.092021	2886.453333	673.004883	41.139675
11498.092021	2886.453333	671.789063	132.063202
11498.092021	2886.453333	670.571289	100.129234
11498.092021	2886.453333	669.354492	12.386423
11498.092021	2886.453333	668.136719	114.357452
11498.092021	2886.453333	666.919922	191.724442
11498.092021	2886.453333	665.701172	121.804970
11498.092021	2886.453333	664.483398	65.279701
11498.092021	2886.453333	663.264648	84.573578
11498.092021	2886.453333	662.045898	101.611000
11498.092021	2886.453333	660.827148	167.659180
11498.092021	2886.453333	659.608398	113.325638
11498.092021	2886.453333	658.388672	197.129486
11498.092021	2886.453333	657.168945	280.879974
11498.092021	2886.453333	655.949219	233.182220
11498.092021	2886.453333	654.728516	127.595314
11498.092021	2886.453333	653.507813	162.278656
11498.092021	2886.453333	652.287109	270.374969
11498.092021	2886.453333	651.066406	62.437622
11498.092021	2886.453333	649.844727	103.733208
11498.092021	2886.453333	648.623047	51.577435
11498.092021	2886.453333	647.401367	163.983154
11498.092021	2886.453333	646.179688	169.607758
11498.092021	2886.453333	644.957031	30.730007
11498.092021	2886.453333	643.734375	47.457188
11498.092021	2886.453333	642.511719	-2.494708
11498.092021	2886.453333	641.289063	-21.342304
11498.092021	2886.453333	640.065430	1.998314
11498.092021	2886.453333	638.841797	29.753630
11498.092021	2886.453333	637.618164	-13.557617
11498.092021	2886.453333	636.393555	23.034210
11498.092021	2886.453333	635.168945	15.214621
11498.092021	2886.453333	633.944336	-70.266182
11498.092021	2886.453333	632.719727	106.009476
11498.092021	2886.453333	631.494141	133.612762
11498.092021	2886.453333	630.269531	28.162214
11498.092021	2886.453333	629.042969	75.689743
11498.092021	2886.453333	627.817383	151.995880
11498.092021	2886.453333	626.590820	44.346756
11498.092021	2886.453333	625.365234	-27.824070
11498.092021	2886.453333	624.137695	4.114332
11498.092021	2886.453333	622.911133	36.028065
11498.092021	2886.453333	621.683594	67.912682
11498.092021	2886.453333	620.456055	-68.446541
11498.092021	2886.453333	619.228516	-41.004433
11498.092021	2886.453333	618.000977	32.875473
11498.092021	2886.453333	616.772461	-8.313360
11498.092021	2886.453333	615.543945	105.310104
11498.092021	2886.453333	614.314453	137.062073
11498.092021	2886.453333	613.085938	104.684891
11498.092021	2886.453333	611.856445	30.316111
11498.092021	2886.453333	610.626953	88.546272
11498.092021	2886.453333	609.397461	0.935699
11498.092021	2886.453333	608.166992	-49.102264
11498.092021	2886.453333	606.936523	163.651382
11498.092021	2886.453333	605.706055	89.294586
11498.092021	2886.453333	604.474609	-46.846260
11498.092021	2886.453333	603.244141	39.953289
11498.092021	2886.453333	602.012695	38.450291
11498.092021	2886.453333	600.780273	70.024887
11498.092021	2886.453333	599.548828	-50.593563
11498.092021	2886.453333	598.316406	-10.210045
11498.092021	2886.453333	597.083984	-69.053726
11498.092021	2886.453333	595.851563	2.156928
11498.092021	2886.453333	594.618164	-102.955307
11498.092021	2886.453333	593.384766	16.683153
11498.092021	2886.453333	592.151367	101.022301
11498.092021	2886.453333	590.917969	68.605888
11498.092021	2886.453333	589.683594	-5.637174
11498.092021	2886.453333	588.449219	-38.031715
11498.092021	2886.453333	587.214844	79.231636
11498.092021	2886.453333	585.979492	-5.986569
11498.092021	2886.453333	584.745117	117.808281
11498.092021	2886.453333	583.509766	162.368240
11498.092021	2886.453333	582.273438	-98.738533
11498.092021	2886.453333	581.038086	-40.970043
11498.092021	2886.453333	579.801758	38.746540
11498.092021	2886.453333	578.565430	48.107414
11498.092021	2886.453333	577.329102	31.096756
11498.092021	2886.453333	576.091797	82.180069
11498.092021	2886.453333	574.854492	-2.915680
11498.092021	2886.453333	573.617188	6.431854
11498.092021	2886.453333	572.378906	17.966013
11498.092021	2886.453333	571.141602	20.716593
11498.092021	2886.453333	569.903320	84.898987
11498.092021	2886.453333	568.664063	131.501266
11498.092021	2886.453333	567.425781	94.741211
11498.092021	2886.453333	566.186523	-23.138453
11498.092021	2886.453333	564.947266	-5.046031
11498.092021	2886.453333	563.708008	37.148624
11498.092021	2886.453333	562.467773	-56.541149
11498.092021	2886.453333	561.227539	22.888926
11498.092021	2886.453333	559.987305	141.713516
11498.092021	2886.453333	558.747070	218.878677
11498.092021	2886.453333	557.505859	44.219040
11498.092021	2886.453333	556.264648	-95.340744
11498.092021	2886.453333	555.023438	-26.926905
11498.092021	2886.453333	553.781250	-155.470444
11498.092021	2886.453333	552.539063	22.308739
11498.092021	2886.453333	551.296875	70.972397
11498.092021	2886.453333	550.054688	-42.196537
11498.092021	2886.453333	548.811523	-37.261414
11498.092021	2886.453333	547.569336	9.205866
11498.092021	2886.453333	546.325195	99.357124
11498.092021	2886.453333	545.082031	14.690345
11498.092021	2886.453333	543.837891	-41.542000
11498.092021	2886.453333	542.593750	129.375183
11498.092021	2886.453333	541.349609	68.782394
11498.092021	2886.453333	540.105469	84.621689
11498.092021	2886.453333	538.860352	48.077236
11498.092021	2886.453333	537.615234	-45.179379
11498.092021	2886.453333	536.369141	12.131726
11498.092021	2886.453333	535.124023	23.622564
11498.092021	2886.453333	533.877930	93.986526
11498.092021	2886.453333	532.631836	-149.613647
11498.092021	2886.453333	531.384766	-59.618320
11498.092021	2886.453333	530.138672	-82.972687
11498.092021	2886.453333	528.891602	-23.522915
11498.092021	2886.453333	527.643555	-9.839248
11498.092021	2886.453333	526.396484	75.712646
11498.092021	2886.453333	525.148438	43.655239
11498.092021	2886.453333	523.900391	29.031525
11498.092021	2886.453333	522.652344	-244.571594
11498.092021	2886.453333	521.403320	-24.119444
11498.092021	2886.453333	520.154297	-75.689705
11498.092021	2886.453333	518.905273	-72.857628
11498.092021	2886.453333	517.656250	-117.861549
11498.092021	2886.453333	516.406250	-175.888046
11498.092021	2886.453333	515.156250	-120.858124
11498.092021	2886.453333	513.906250	-102.789993
11498.092021	2886.453333	512.655273	21.732294
11498.092021	2886.453333	511.404297	-5.847613
11498.092021	2886.453333	510.153320	-124.623634
11498.092021	2886.453333	508.902344	-6.678487
11498.092021	2886.453333	507.650391	52.606831
11498.092021	2886.453333	506.398438	27.227633
11498.092021	2886.453333	505.146484	49.599186
11498.092021	2886.453333	503.893555	-27.829969
11498.092021	2886.453333	502.641602	89.982185
11498.092021	2886.453333	501.388672	45.109718
11498.092021	2886.453333	500.134766	76.135780
11498.092021	2886.453333	498.881836	-42.406471
11498.092021	2886.453333	497.627930	-15.705739
11498.092021	2886.453333	496.374023	21.817064
11498.092021	2886.453333	495.119141	-5.661657
11498.092021	2886.453333	493.865234	-113.255844
11498.092021	2886.453333	492.610352	-41.095207
11498.092021	2886.453333	491.355469	-10.096867
11498.092021	2886.453333	490.099609	-65.685608
11498.092021	2886.453333	488.843750	47.522659
11498.092021	2886.453333	487.587891	71.983368
11498.092021	2886.453333	486.332031	40.195374
11498.092021	2886.453333	485.075195	66.799698
11498.092021	2886.453333	483.818359	67.444450
11498.092021	2886.453333	482.561523	55.114239
11498.092021	2886.453333	481.304688	12.528993
11498.092021	2886.453333	480.046875	-55.973656
11498.092021	2886.453333	478.789063	89.391495
11498.092021	2886.453333	477.531250	141.822281
11498.092021	2886.453333	476.272461	153.195297
11498.092021	2886.453333	475.013672	-44.838661
11498.092021	2886.453333	473.754883	57.190613
11498.092021	2886.453333	472.496094	159.163422
11498.092021	2886.453333	471.236328	-47.413956
11498.092021	2886.453333	469.976563	78.230736
11498.092021	2886.453333	468.716797	352.591949
11498.092021	2886.453333	467.456055	23.170412
11498.092021	2886.453333	466.196289	60.293507
11498.092021	2886.453333	464.935547	196.506271
11498.092021	2886.453333	463.673828	229.221390
11498.092021	2886.453333	462.413086	162.816498
11498.092021	2886.453333	461.151367	229.934036
11498.092021	2886.453333	459.889648	258.241058
11498.092021	2886.453333	458.626953	181.027863
11498.092021	2886.453333	457.364258	138.253418
11498.092021	2886.453333	456.101563	282.663177
11498.092021	2886.453333	454.838867	394.710022
11498.092021	2886.453333	453.575195	227.073624
11498.092021	2886.453333	452.312500	166.989929
11498.092021	2886.453333	451.047852	231.580322
11498.092021	2886.453333	449.784180	74.720139
11498.092021	2886.453333	448.519531	218.729553
11498.092021	2886.453333	447.254883	180.016022
11498.092021	2886.453333	445.990234	390.437286
11498.092021	2886.453333	444.725586	218.463409
11498.092021	2886.453333	443.459961	166.745468
11498.092021	2886.453333	442.194336	269.550171
11498.092021	2886.453333	440.927734	385.129456
11498.092021	2886.453333	439.662109	266.728180
11498.092021	2886.453333	438.395508	337.091156
11498.092021	2886.453333	437.127930	107.097580
11498.092021	2886.453333	435.861328	239.519623
11498.092021	2886.453333	434.593750	123.133415
11498.092021	2886.453333	433.326172	161.046783
11498.092021	2886.453333	432.058594	192.440475
11498.092021	2886.453333	430.790039	183.035721
11498.092021	2886.453333	429.521484	137.141922
11498.092021	2886.453333	428.252930	249.653992
11498.092021	2886.453333	426.984375	359.889587
11498.092021	2886.453333	425.714844	294.460449
11498.092021	2886.453333	424.445313	209.706192
11498.092021	2886.453333	423.174805	163.401840
11498.092021	2886.453333	421.905273	149.108658
11498.092021	2886.453333	420.634766	310.086334
11498.092021	2886.453333	419.364258	207.885880
11498.092021	2886.453333	418.092773	178.298691
11498.092021	2886.453333	416.822266	281.125092
11498.092021	2886.453333	415.550781	294.037842
11498.092021	2886.453333	414.278320	225.635223
11498.092021	2886.453333	413.006836	330.147461
11498.092021	2886.453333	411.734375	381.092682
11498.092021	2886.453333	410.461914	154.332367
11498.092021	2886.453333	409.188477	286.124847
11498.092021	2886.453333	407.916016	236.324310
11498.092021	2886.453333	406.642578	175.723038
11498.092021	2886.453333	405.368164	198.180756
11498.092021	2886.453333	404.094727	288.719482
11498.092021	2886.453333	402.820313	140.242310
11498.092021	2886.453333	401.545898	194.175156
11498.092021	2886.453333	400.270508	403.487701
11498.092021	2886.453333	398.996094	96.877304
11498.092021	2886.453333	397.720703	231.190918
11498.092021	2886.453333	396.444336	154.390381
11498.092021	2886.453333	395.168945	215.844040
11498.092021	2886.453333	393.892578	285.577698
11498.092021	2886.453333	392.616211	135.836319
11498.092021	2886.453333	391.339844	130.651031
11498.092021	2886.453333	390.062500	140.133362
11498.092021	2886.453333	388.785156	151.510727
11498.092021	2886.453333	387.507813	171.154709
11498.092021	2886.453333	386.229492	171.406403
11498.092021	2886.453333	384.951172	145.901016
11498.092021	2886.453333	383.672852	71.271004
11498.092021	2886.453333	382.394531	245.012894
11498.092021	2886.453333	381.115234	269.698364
11498.092021	2886.453333	379.835938	289.848572
11498.092021	2886.453333	378.556641	231.139343
11498.092021	2886.453333	377.277344	161.549072
11498.092021	2886.453333	375.997070	225.397980
11498.092021	2886.453333	374.716797	246.470688
11498.092021	2886.453333	373.435547	25.350279
11498.092021	2886.453333	372.155273	255.806442
11498.092021	2886.453333	370.874023	280.117706
11498.092021	2886.453333	369.591797	289.226135
11498.092021	2886.453333	368.310547	147.489807
11498.092021	2886.453333	367.028320	75.381523
11498.092021	2886.453333	365.746094	108.875908
11498.092021	2886.453333	364.463867	91.137794
11498.092021	2886.453333	363.180664	85.716545
11498.092021	2886.453333	361.897461	-13.265421
11498.092021	2886.453333	360.614258	240.919647
11498.092021	2886.453333	359.330078	64.917358
11498.092021	2886.453333	358.045898	127.676125
11498.092021	2886.453333	356.761719	82.075516
11498.092021	2886.453333	355.477539	29.701466
11498.092021	2886.453333	354.192383	2.253647
11498.092021	2886.453333	352.907227	37.772820
11498.092021	2886.453333	351.622070	24.179792
11498.092021	2886.453333	350.336914	111.536789
11498.092021	2886.453333	349.050781	160.305878
11498.092021	2886.453333	347.764648	-28.044790
11498.092021	2886.453333	346.477539	32.345070
11498.092021	2886.453333	345.191406	-68.284996
11498.092021	2886.453333	343.904297	-36.449707
11498.092021	2886.453333	342.616211	-24.205532
11498.092021	2886.453333	341.329102	59.212833
11498.092021	2886.453333	340.041016	-94.287704
11498.092021	2886.453333	338.752930	-7.887583
11498.092021	2886.453333	337.463867	-2.291625
11498.092021	2886.453333	336.175781	-54.233784
11498.092021	2886.453333	334.886719	9.106282
11498.092021	2886.453333	333.596680	-27.305264
11498.092021	2886.453333	332.307617	-85.425278
11498.092021	2886.453333	331.017578	-41.020096
11498.092021	2886.453333	329.727539	-66.835419
11498.092021	2886.453333	328.436523	138.215622
11498.092021	2886.453333	327.146484	75.129539
11498.092021	2886.453333	325.855469	21.818377
11498.092021	2886.453333	324.563477	-86.968971
11498.092021	2886.453333	323.272461	3.371607
11498.092021	2886.453333	321.980469	-20.723257
11498.092021	2886.453333	320.688477	-121.324379
11498.092021	2886.453333	319.395508	-163.882080
11498.092021	2886.453333	318.103516	-39.107826
11498.092021	2886.453333	316.810547	0.660974
11498.092021	2886.453333	315.516602	-46.640919
11498.092021	2886.453333	314.223633	96.332756
11498.092021	2886.453333	312.929688	24.094772
11498.092021	2886.453333	311.635742	7.628034
11498.092021	2886.453333	310.340820	38.448162
11498.092021	2886.453333	309.045898	97.648697
11498.092021	2886.453333	307.750977	-56.089294
11498.092021	2886.453333	306.456055	265.376892
11498.092021	2886.453333	305.160156	197.645065
11498.092021	2886.453333	303.865234	122.620033
11498.092021	2886.453333	302.568359	224.650665
11498.092021	2886.453333	301.272461	296.221130
11498.092021	2886.453333	299.975586	314.208405
11498.092021	2886.453333	298.678711	299.609100
