#X		#Y		#Wave		#Intensity
11466.875532	2997.518333	1999.980469	-44.618973
11466.875532	2997.518333	1999.016602	134.889450
11466.875532	2997.518333	1998.052734	-265.292267
11466.875532	2997.518333	1997.087891	-26.224344
11466.875532	2997.518333	1996.123047	4.385975
11466.875532	2997.518333	1995.158203	-108.930519
11466.875532	2997.518333	1994.193359	-106.025101
11466.875532	2997.518333	1993.228516	-100.864479
11466.875532	2997.518333	1992.262695	-38.971977
11466.875532	2997.518333	1991.297852	-34.237240
11466.875532	2997.518333	1990.332031	89.096321
11466.875532	2997.518333	1989.366211	88.475067
11466.875532	2997.518333	1988.399414	-117.666855
11466.875532	2997.518333	1987.433594	49.602009
11466.875532	2997.518333	1986.466797	-134.532318
11466.875532	2997.518333	1985.500977	66.975197
11466.875532	2997.518333	1984.534180	-58.067368
11466.875532	2997.518333	1983.567383	54.076359
11466.875532	2997.518333	1982.599609	59.778988
11466.875532	2997.518333	1981.632813	52.998146
11466.875532	2997.518333	1980.665039	172.082108
11466.875532	2997.518333	1979.697266	58.837456
11466.875532	2997.518333	1978.729492	91.220581
11466.875532	2997.518333	1977.761719	-61.683407
11466.875532	2997.518333	1976.792969	207.479874
11466.875532	2997.518333	1975.825195	195.097122
11466.875532	2997.518333	1974.856445	172.759521
11466.875532	2997.518333	1973.887695	68.932533
11466.875532	2997.518333	1972.918945	24.267929
11466.875532	2997.518333	1971.949219	97.922630
11466.875532	2997.518333	1970.980469	159.157455
11466.875532	2997.518333	1970.010742	-38.550224
11466.875532	2997.518333	1969.041016	15.171007
11466.875532	2997.518333	1968.071289	204.358902
11466.875532	2997.518333	1967.101563	9.058904
11466.875532	2997.518333	1966.130859	20.712934
11466.875532	2997.518333	1965.161133	17.548443
11466.875532	2997.518333	1964.190430	14.346087
11466.875532	2997.518333	1963.219727	55.429932
11466.875532	2997.518333	1962.249023	17.698284
11466.875532	2997.518333	1961.277344	139.927277
11466.875532	2997.518333	1960.306641	116.912376
11466.875532	2997.518333	1959.334961	187.373810
11466.875532	2997.518333	1958.363281	169.242630
11466.875532	2997.518333	1957.391602	111.756363
11466.875532	2997.518333	1956.419922	49.366344
11466.875532	2997.518333	1955.447266	38.616501
11466.875532	2997.518333	1954.474609	99.149391
11466.875532	2997.518333	1953.501953	125.254868
11466.875532	2997.518333	1952.529297	158.724655
11466.875532	2997.518333	1951.556641	-97.689682
11466.875532	2997.518333	1950.583984	193.716446
11466.875532	2997.518333	1949.610352	70.011772
11466.875532	2997.518333	1948.636719	172.245468
11466.875532	2997.518333	1947.663086	213.086670
11466.875532	2997.518333	1946.689453	10.953470
11466.875532	2997.518333	1945.715820	86.199387
11466.875532	2997.518333	1944.741211	281.650604
11466.875532	2997.518333	1943.767578	-18.438311
11466.875532	2997.518333	1942.792969	83.811501
11466.875532	2997.518333	1941.818359	21.763880
11466.875532	2997.518333	1940.842773	55.373684
11466.875532	2997.518333	1939.868164	79.199600
11466.875532	2997.518333	1938.892578	220.675095
11466.875532	2997.518333	1937.916992	-130.360855
11466.875532	2997.518333	1936.941406	194.894745
11466.875532	2997.518333	1935.965820	30.206675
11466.875532	2997.518333	1934.990234	333.341644
11466.875532	2997.518333	1934.013672	185.895844
11466.875532	2997.518333	1933.037109	92.396179
11466.875532	2997.518333	1932.060547	172.739014
11466.875532	2997.518333	1931.083984	-182.477219
11466.875532	2997.518333	1930.107422	-18.852356
11466.875532	2997.518333	1929.129883	81.150055
11466.875532	2997.518333	1928.153320	132.247116
11466.875532	2997.518333	1927.175781	190.697556
11466.875532	2997.518333	1926.198242	95.151573
11466.875532	2997.518333	1925.219727	-117.645447
11466.875532	2997.518333	1924.242188	90.019104
11466.875532	2997.518333	1923.263672	60.640385
11466.875532	2997.518333	1922.285156	-34.642532
11466.875532	2997.518333	1921.306641	-59.015015
11466.875532	2997.518333	1920.328125	38.765266
11466.875532	2997.518333	1919.349609	-78.302582
11466.875532	2997.518333	1918.370117	-29.292580
11466.875532	2997.518333	1917.391602	17.304737
11466.875532	2997.518333	1916.412109	-197.171448
11466.875532	2997.518333	1915.431641	66.657799
11466.875532	2997.518333	1914.452148	125.535904
11466.875532	2997.518333	1913.472656	-88.708946
11466.875532	2997.518333	1912.492188	114.123627
11466.875532	2997.518333	1911.511719	63.382622
11466.875532	2997.518333	1910.531250	-209.103195
11466.875532	2997.518333	1909.550781	81.497833
11466.875532	2997.518333	1908.569336	52.846096
11466.875532	2997.518333	1907.588867	36.428242
11466.875532	2997.518333	1906.607422	117.480415
11466.875532	2997.518333	1905.625977	127.923378
11466.875532	2997.518333	1904.644531	-192.718048
11466.875532	2997.518333	1903.662109	-60.429920
11466.875532	2997.518333	1902.680664	-105.817978
11466.875532	2997.518333	1901.698242	211.414719
11466.875532	2997.518333	1900.715820	-228.060471
11466.875532	2997.518333	1899.733398	33.205952
11466.875532	2997.518333	1898.750000	112.011147
11466.875532	2997.518333	1897.767578	-15.854669
11466.875532	2997.518333	1896.784180	-95.018135
11466.875532	2997.518333	1895.800781	-254.328735
11466.875532	2997.518333	1894.817383	-177.820496
11466.875532	2997.518333	1893.833984	-305.403442
11466.875532	2997.518333	1892.850586	-73.377304
11466.875532	2997.518333	1891.866211	-8.996594
11466.875532	2997.518333	1890.881836	-32.030025
11466.875532	2997.518333	1889.897461	85.791977
11466.875532	2997.518333	1888.913086	-121.679016
11466.875532	2997.518333	1887.927734	-239.247299
11466.875532	2997.518333	1886.943359	-43.723209
11466.875532	2997.518333	1885.958008	-18.072769
11466.875532	2997.518333	1884.972656	104.615685
11466.875532	2997.518333	1883.987305	45.395805
11466.875532	2997.518333	1883.001953	-28.329174
11466.875532	2997.518333	1882.015625	-85.037323
11466.875532	2997.518333	1881.029297	3.724861
11466.875532	2997.518333	1880.042969	-89.279068
11466.875532	2997.518333	1879.056641	60.059162
11466.875532	2997.518333	1878.070313	-8.661960
11466.875532	2997.518333	1877.083984	-183.908401
11466.875532	2997.518333	1876.096680	-141.137680
11466.875532	2997.518333	1875.109375	153.420883
11466.875532	2997.518333	1874.122070	-169.376404
11466.875532	2997.518333	1873.134766	-252.444794
11466.875532	2997.518333	1872.146484	61.358814
11466.875532	2997.518333	1871.159180	-96.700554
11466.875532	2997.518333	1870.170898	-172.454727
11466.875532	2997.518333	1869.182617	-134.511993
11466.875532	2997.518333	1868.194336	-82.070847
11466.875532	2997.518333	1867.205078	-29.646366
11466.875532	2997.518333	1866.216797	42.098644
11466.875532	2997.518333	1865.227539	-144.752548
11466.875532	2997.518333	1864.238281	-130.998764
11466.875532	2997.518333	1863.249023	119.481888
11466.875532	2997.518333	1862.259766	22.079775
11466.875532	2997.518333	1861.269531	-191.195801
11466.875532	2997.518333	1860.279297	8.444259
11466.875532	2997.518333	1859.290039	116.279274
11466.875532	2997.518333	1858.298828	-63.125343
11466.875532	2997.518333	1857.308594	30.189947
11466.875532	2997.518333	1856.318359	12.488349
11466.875532	2997.518333	1855.327148	40.609196
11466.875532	2997.518333	1854.335938	-71.162285
11466.875532	2997.518333	1853.344727	272.793793
11466.875532	2997.518333	1852.353516	91.084694
11466.875532	2997.518333	1851.362305	95.014870
11466.875532	2997.518333	1850.370117	202.544708
11466.875532	2997.518333	1849.377930	372.657776
11466.875532	2997.518333	1848.385742	94.643906
11466.875532	2997.518333	1847.393555	141.847656
11466.875532	2997.518333	1846.401367	-1.214545
11466.875532	2997.518333	1845.408203	72.426422
11466.875532	2997.518333	1844.415039	268.775696
11466.875532	2997.518333	1843.421875	19.809683
11466.875532	2997.518333	1842.428711	69.271416
11466.875532	2997.518333	1841.435547	-71.360718
11466.875532	2997.518333	1840.441406	-58.034687
11466.875532	2997.518333	1839.448242	145.233917
11466.875532	2997.518333	1838.454102	79.112778
11466.875532	2997.518333	1837.459961	128.370911
11466.875532	2997.518333	1836.464844	-45.940697
11466.875532	2997.518333	1835.470703	118.598190
11466.875532	2997.518333	1834.475586	-74.933846
11466.875532	2997.518333	1833.480469	178.352524
11466.875532	2997.518333	1832.485352	124.102760
11466.875532	2997.518333	1831.490234	-11.802311
11466.875532	2997.518333	1830.495117	178.799408
11466.875532	2997.518333	1829.499023	88.459717
11466.875532	2997.518333	1828.502930	65.307404
11466.875532	2997.518333	1827.506836	123.699921
11466.875532	2997.518333	1826.510742	66.881432
11466.875532	2997.518333	1825.513672	60.405579
11466.875532	2997.518333	1824.517578	113.839027
11466.875532	2997.518333	1823.520508	107.267502
11466.875532	2997.518333	1822.523438	59.902145
11466.875532	2997.518333	1821.526367	91.595596
11466.875532	2997.518333	1820.529297	163.964188
11466.875532	2997.518333	1819.531250	82.927574
11466.875532	2997.518333	1818.533203	-165.796036
11466.875532	2997.518333	1817.535156	83.644104
11466.875532	2997.518333	1816.537109	191.671997
11466.875532	2997.518333	1815.539063	151.184326
11466.875532	2997.518333	1814.540039	196.820267
11466.875532	2997.518333	1813.541992	31.802988
11466.875532	2997.518333	1812.542969	-200.200668
11466.875532	2997.518333	1811.543945	249.576797
11466.875532	2997.518333	1810.543945	-8.802691
11466.875532	2997.518333	1809.544922	15.022151
11466.875532	2997.518333	1808.544922	100.937569
11466.875532	2997.518333	1807.544922	57.684948
11466.875532	2997.518333	1806.544922	181.679672
11466.875532	2997.518333	1805.544922	128.752136
11466.875532	2997.518333	1804.544922	42.339260
11466.875532	2997.518333	1803.543945	17.995815
11466.875532	2997.518333	1802.542969	148.820984
11466.875532	2997.518333	1801.541992	272.372803
11466.875532	2997.518333	1800.541016	233.488617
11466.875532	2997.518333	1799.539063	-36.954712
11466.875532	2997.518333	1798.538086	165.116516
11466.875532	2997.518333	1797.536133	214.354050
11466.875532	2997.518333	1796.534180	139.469833
11466.875532	2997.518333	1795.532227	-2.227057
11466.875532	2997.518333	1794.529297	115.961357
11466.875532	2997.518333	1793.527344	238.809647
11466.875532	2997.518333	1792.524414	68.367462
11466.875532	2997.518333	1791.521484	193.423309
11466.875532	2997.518333	1790.518555	103.927963
11466.875532	2997.518333	1789.514648	35.834053
11466.875532	2997.518333	1788.511719	46.296745
11466.875532	2997.518333	1787.507813	35.251854
11466.875532	2997.518333	1786.503906	36.044933
11466.875532	2997.518333	1785.500000	84.374908
11466.875532	2997.518333	1784.496094	-12.557331
11466.875532	2997.518333	1783.491211	145.073578
11466.875532	2997.518333	1782.486328	48.019783
11466.875532	2997.518333	1781.481445	62.724396
11466.875532	2997.518333	1780.476563	155.829803
11466.875532	2997.518333	1779.471680	75.258659
11466.875532	2997.518333	1778.465820	282.283325
11466.875532	2997.518333	1777.460938	89.868294
11466.875532	2997.518333	1776.455078	180.228333
11466.875532	2997.518333	1775.449219	63.783180
11466.875532	2997.518333	1774.442383	44.696602
11466.875532	2997.518333	1773.436523	196.544006
11466.875532	2997.518333	1772.429688	134.552414
11466.875532	2997.518333	1771.422852	55.892887
11466.875532	2997.518333	1770.416016	62.639584
11466.875532	2997.518333	1769.409180	114.399910
11466.875532	2997.518333	1768.402344	123.359421
11466.875532	2997.518333	1767.394531	144.097534
11466.875532	2997.518333	1766.386719	143.408768
11466.875532	2997.518333	1765.378906	5.109556
11466.875532	2997.518333	1764.371094	-123.726776
11466.875532	2997.518333	1763.362305	-13.179216
11466.875532	2997.518333	1762.354492	-14.130630
11466.875532	2997.518333	1761.345703	169.663254
11466.875532	2997.518333	1760.336914	-174.991806
11466.875532	2997.518333	1759.328125	167.315460
11466.875532	2997.518333	1758.318359	47.618126
11466.875532	2997.518333	1757.308594	-3.442843
11466.875532	2997.518333	1756.299805	51.976925
11466.875532	2997.518333	1755.290039	-46.546978
11466.875532	2997.518333	1754.279297	-45.723511
11466.875532	2997.518333	1753.269531	35.474995
11466.875532	2997.518333	1752.258789	38.503658
11466.875532	2997.518333	1751.249023	221.208801
11466.875532	2997.518333	1750.238281	-173.192001
11466.875532	2997.518333	1749.226563	16.420523
11466.875532	2997.518333	1748.215820	-28.108843
11466.875532	2997.518333	1747.204102	2.925430
11466.875532	2997.518333	1746.193359	220.544220
11466.875532	2997.518333	1745.181641	-67.535469
11466.875532	2997.518333	1744.168945	43.575218
11466.875532	2997.518333	1743.157227	-100.452988
11466.875532	2997.518333	1742.144531	-88.677841
11466.875532	2997.518333	1741.132813	-100.573837
11466.875532	2997.518333	1740.120117	-15.777073
11466.875532	2997.518333	1739.106445	-67.946472
11466.875532	2997.518333	1738.093750	-80.050255
11466.875532	2997.518333	1737.080078	-127.604736
11466.875532	2997.518333	1736.067383	-19.554430
11466.875532	2997.518333	1735.053711	36.508945
11466.875532	2997.518333	1734.040039	125.488922
11466.875532	2997.518333	1733.025391	-125.034805
11466.875532	2997.518333	1732.011719	-139.872437
11466.875532	2997.518333	1730.997070	-6.347549
11466.875532	2997.518333	1729.982422	-26.048515
11466.875532	2997.518333	1728.967773	-97.618309
11466.875532	2997.518333	1727.952148	-122.138580
11466.875532	2997.518333	1726.937500	-97.263618
11466.875532	2997.518333	1725.921875	-86.590958
11466.875532	2997.518333	1724.906250	53.449585
11466.875532	2997.518333	1723.890625	-128.967514
11466.875532	2997.518333	1722.875000	69.718941
11466.875532	2997.518333	1721.858398	-35.143269
11466.875532	2997.518333	1720.841797	15.176462
11466.875532	2997.518333	1719.825195	-174.389542
11466.875532	2997.518333	1718.808594	-131.228271
11466.875532	2997.518333	1717.791992	-36.436668
11466.875532	2997.518333	1716.774414	-129.722824
11466.875532	2997.518333	1715.756836	-37.436882
11466.875532	2997.518333	1714.739258	78.248085
11466.875532	2997.518333	1713.721680	-80.924004
11466.875532	2997.518333	1712.704102	-26.427986
11466.875532	2997.518333	1711.685547	-115.208450
11466.875532	2997.518333	1710.667969	-91.341705
11466.875532	2997.518333	1709.649414	-217.723587
11466.875532	2997.518333	1708.630859	-224.454819
11466.875532	2997.518333	1707.611328	-207.784821
11466.875532	2997.518333	1706.592773	111.373596
11466.875532	2997.518333	1705.573242	69.257072
11466.875532	2997.518333	1704.553711	24.766092
11466.875532	2997.518333	1703.534180	52.905411
11466.875532	2997.518333	1702.513672	-40.877289
11466.875532	2997.518333	1701.494141	-66.713135
11466.875532	2997.518333	1700.473633	-186.293564
11466.875532	2997.518333	1699.453125	-45.899487
11466.875532	2997.518333	1698.432617	232.553955
11466.875532	2997.518333	1697.412109	140.954391
11466.875532	2997.518333	1696.390625	-30.244829
11466.875532	2997.518333	1695.369141	158.986115
11466.875532	2997.518333	1694.347656	114.122765
11466.875532	2997.518333	1693.326172	132.402344
11466.875532	2997.518333	1692.304688	96.842384
11466.875532	2997.518333	1691.282227	-25.271814
11466.875532	2997.518333	1690.260742	137.874756
11466.875532	2997.518333	1689.238281	146.635895
11466.875532	2997.518333	1688.214844	258.183380
11466.875532	2997.518333	1687.192383	63.561905
11466.875532	2997.518333	1686.168945	-14.213745
11466.875532	2997.518333	1685.146484	230.357300
11466.875532	2997.518333	1684.123047	101.142273
11466.875532	2997.518333	1683.099609	-51.399872
11466.875532	2997.518333	1682.075195	279.307007
11466.875532	2997.518333	1681.051758	294.783478
11466.875532	2997.518333	1680.027344	214.543121
11466.875532	2997.518333	1679.002930	358.286224
11466.875532	2997.518333	1677.978516	128.728607
11466.875532	2997.518333	1676.953125	286.370178
11466.875532	2997.518333	1675.928711	497.568634
11466.875532	2997.518333	1674.903320	340.313965
11466.875532	2997.518333	1673.877930	285.656158
11466.875532	2997.518333	1672.852539	282.270050
11466.875532	2997.518333	1671.826172	432.634033
11466.875532	2997.518333	1670.800781	315.042450
11466.875532	2997.518333	1669.774414	444.348480
11466.875532	2997.518333	1668.748047	564.276978
11466.875532	2997.518333	1667.721680	334.924683
11466.875532	2997.518333	1666.694336	582.815796
11466.875532	2997.518333	1665.667969	234.835724
11466.875532	2997.518333	1664.640625	473.320862
11466.875532	2997.518333	1663.613281	481.397491
11466.875532	2997.518333	1662.585938	510.396790
11466.875532	2997.518333	1661.557617	437.047028
11466.875532	2997.518333	1660.530273	521.830261
11466.875532	2997.518333	1659.501953	434.548798
11466.875532	2997.518333	1658.473633	433.288879
11466.875532	2997.518333	1657.444336	320.481964
11466.875532	2997.518333	1656.416016	470.247803
11466.875532	2997.518333	1655.386719	527.035156
11466.875532	2997.518333	1654.358398	572.200073
11466.875532	2997.518333	1653.328125	452.476227
11466.875532	2997.518333	1652.298828	476.738525
11466.875532	2997.518333	1651.269531	584.549255
11466.875532	2997.518333	1650.239258	488.109467
11466.875532	2997.518333	1649.208984	760.600098
11466.875532	2997.518333	1648.178711	529.637451
11466.875532	2997.518333	1647.148438	922.624939
11466.875532	2997.518333	1646.117188	976.928650
11466.875532	2997.518333	1645.086914	899.088989
11466.875532	2997.518333	1644.055664	1006.706360
11466.875532	2997.518333	1643.024414	917.318115
11466.875532	2997.518333	1641.992188	1105.996460
11466.875532	2997.518333	1640.960938	1384.967163
11466.875532	2997.518333	1639.928711	1534.138550
11466.875532	2997.518333	1638.896484	1810.623779
11466.875532	2997.518333	1637.864258	2327.791260
11466.875532	2997.518333	1636.832031	2733.672119
11466.875532	2997.518333	1635.798828	3312.971680
11466.875532	2997.518333	1634.766602	3771.759277
11466.875532	2997.518333	1633.733398	4364.553711
11466.875532	2997.518333	1632.699219	5086.650391
11466.875532	2997.518333	1631.666016	5272.019043
11466.875532	2997.518333	1630.632813	5448.092285
11466.875532	2997.518333	1629.598633	5390.646973
11466.875532	2997.518333	1628.564453	4972.723145
11466.875532	2997.518333	1627.530273	4374.759766
11466.875532	2997.518333	1626.495117	4396.175293
11466.875532	2997.518333	1625.460938	4262.869141
11466.875532	2997.518333	1624.425781	4180.439453
11466.875532	2997.518333	1623.390625	4292.016113
11466.875532	2997.518333	1622.355469	4632.109375
11466.875532	2997.518333	1621.319336	4672.064453
11466.875532	2997.518333	1620.284180	4832.036621
11466.875532	2997.518333	1619.248047	4740.504883
11466.875532	2997.518333	1618.211914	4877.399414
11466.875532	2997.518333	1617.174805	4735.223145
11466.875532	2997.518333	1616.138672	4761.466797
11466.875532	2997.518333	1615.101563	4411.975586
11466.875532	2997.518333	1614.065430	3714.646240
11466.875532	2997.518333	1613.027344	3446.218750
11466.875532	2997.518333	1611.990234	3099.614990
11466.875532	2997.518333	1610.953125	2626.500488
11466.875532	2997.518333	1609.915039	2469.115234
11466.875532	2997.518333	1608.876953	2226.641357
11466.875532	2997.518333	1607.838867	2117.831543
11466.875532	2997.518333	1606.800781	1940.060547
11466.875532	2997.518333	1605.761719	2056.951660
11466.875532	2997.518333	1604.723633	1623.975098
11466.875532	2997.518333	1603.684570	1708.776855
11466.875532	2997.518333	1602.644531	1542.903564
11466.875532	2997.518333	1601.605469	1692.174194
11466.875532	2997.518333	1600.566406	1397.739990
11466.875532	2997.518333	1599.526367	1305.734253
11466.875532	2997.518333	1598.486328	1418.346924
11466.875532	2997.518333	1597.446289	1225.388306
11466.875532	2997.518333	1596.405273	1142.816040
11466.875532	2997.518333	1595.365234	989.143311
11466.875532	2997.518333	1594.324219	1216.760986
11466.875532	2997.518333	1593.283203	1139.004150
11466.875532	2997.518333	1592.242188	902.956604
11466.875532	2997.518333	1591.200195	960.803772
11466.875532	2997.518333	1590.159180	832.845337
11466.875532	2997.518333	1589.117188	950.451172
11466.875532	2997.518333	1588.075195	896.056702
11466.875532	2997.518333	1587.032227	1146.724365
11466.875532	2997.518333	1585.990234	1028.245605
11466.875532	2997.518333	1584.947266	1116.171509
11466.875532	2997.518333	1583.904297	1112.456543
11466.875532	2997.518333	1582.861328	1195.881958
11466.875532	2997.518333	1581.818359	1167.088867
11466.875532	2997.518333	1580.775391	1142.956055
11466.875532	2997.518333	1579.731445	1228.812866
11466.875532	2997.518333	1578.687500	1213.967163
11466.875532	2997.518333	1577.643555	949.687256
11466.875532	2997.518333	1576.598633	1369.878906
11466.875532	2997.518333	1575.554688	1394.127075
11466.875532	2997.518333	1574.509766	1239.987915
11466.875532	2997.518333	1573.464844	1442.800049
11466.875532	2997.518333	1572.419922	1798.826904
11466.875532	2997.518333	1571.374023	2010.738281
11466.875532	2997.518333	1570.329102	2076.347656
11466.875532	2997.518333	1569.283203	2379.693604
11466.875532	2997.518333	1568.237305	2577.884766
11466.875532	2997.518333	1567.191406	2979.405029
11466.875532	2997.518333	1566.144531	3563.572998
11466.875532	2997.518333	1565.098633	3711.406738
11466.875532	2997.518333	1564.051758	4295.358398
11466.875532	2997.518333	1563.004883	4872.313477
11466.875532	2997.518333	1561.957031	5284.786133
11466.875532	2997.518333	1560.910156	5656.106934
11466.875532	2997.518333	1559.862305	6444.868652
11466.875532	2997.518333	1558.814453	7041.794434
11466.875532	2997.518333	1557.766602	7643.130371
11466.875532	2997.518333	1556.718750	7610.439941
11466.875532	2997.518333	1555.669922	7851.399902
11466.875532	2997.518333	1554.621094	7723.113281
11466.875532	2997.518333	1553.573242	7540.278320
11466.875532	2997.518333	1552.523438	6870.024902
11466.875532	2997.518333	1551.474609	5767.329102
11466.875532	2997.518333	1550.424805	4968.046387
11466.875532	2997.518333	1549.375000	4403.695313
11466.875532	2997.518333	1548.325195	3862.420410
11466.875532	2997.518333	1547.275391	3153.013916
11466.875532	2997.518333	1546.225586	2837.661621
11466.875532	2997.518333	1545.174805	2411.033203
11466.875532	2997.518333	1544.124023	2441.885742
11466.875532	2997.518333	1543.073242	2045.248169
11466.875532	2997.518333	1542.022461	1908.074585
11466.875532	2997.518333	1540.970703	1884.712769
11466.875532	2997.518333	1539.919922	1918.279053
11466.875532	2997.518333	1538.868164	2154.171631
11466.875532	2997.518333	1537.815430	2015.169189
11466.875532	2997.518333	1536.763672	1949.009888
11466.875532	2997.518333	1535.710938	1814.829346
11466.875532	2997.518333	1534.659180	2023.676758
11466.875532	2997.518333	1533.606445	2109.936279
11466.875532	2997.518333	1532.552734	2368.757324
11466.875532	2997.518333	1531.500000	2253.128174
11466.875532	2997.518333	1530.446289	2652.679932
11466.875532	2997.518333	1529.393555	2913.794678
11466.875532	2997.518333	1528.338867	3009.328125
11466.875532	2997.518333	1527.285156	3311.271484
11466.875532	2997.518333	1526.231445	3590.519287
11466.875532	2997.518333	1525.176758	4008.017090
11466.875532	2997.518333	1524.122070	4647.534668
11466.875532	2997.518333	1523.067383	5366.197266
11466.875532	2997.518333	1522.012695	5685.973633
11466.875532	2997.518333	1520.957031	6279.767578
11466.875532	2997.518333	1519.901367	6504.320313
11466.875532	2997.518333	1518.845703	6414.182617
11466.875532	2997.518333	1517.790039	6471.310059
11466.875532	2997.518333	1516.734375	6897.395508
11466.875532	2997.518333	1515.677734	7699.005371
11466.875532	2997.518333	1514.621094	8120.345703
11466.875532	2997.518333	1513.564453	7867.613281
11466.875532	2997.518333	1512.507813	7013.571777
11466.875532	2997.518333	1511.450195	5992.659668
11466.875532	2997.518333	1510.393555	4615.105957
11466.875532	2997.518333	1509.335938	3737.644531
11466.875532	2997.518333	1508.278320	2605.305176
11466.875532	2997.518333	1507.219727	1956.949585
11466.875532	2997.518333	1506.162109	1453.502563
11466.875532	2997.518333	1505.103516	1234.881348
11466.875532	2997.518333	1504.044922	1039.022949
11466.875532	2997.518333	1502.986328	692.101929
11466.875532	2997.518333	1501.926758	934.447510
11466.875532	2997.518333	1500.868164	797.724548
11466.875532	2997.518333	1499.808594	733.343384
11466.875532	2997.518333	1498.749023	687.129028
11466.875532	2997.518333	1497.688477	634.265381
11466.875532	2997.518333	1496.628906	910.691956
11466.875532	2997.518333	1495.568359	695.702637
11466.875532	2997.518333	1494.507813	453.852478
11466.875532	2997.518333	1493.447266	351.898132
11466.875532	2997.518333	1492.386719	236.565048
11466.875532	2997.518333	1491.325195	170.926331
11466.875532	2997.518333	1490.263672	136.938995
11466.875532	2997.518333	1489.202148	-20.767275
11466.875532	2997.518333	1488.140625	28.778019
11466.875532	2997.518333	1487.079102	44.643032
11466.875532	2997.518333	1486.016602	-153.161224
11466.875532	2997.518333	1484.954102	-58.333534
11466.875532	2997.518333	1483.891602	0.566301
11466.875532	2997.518333	1482.829102	-183.328171
11466.875532	2997.518333	1481.765625	82.605682
11466.875532	2997.518333	1480.702148	-76.306877
11466.875532	2997.518333	1479.638672	36.856720
11466.875532	2997.518333	1478.575195	-119.547371
11466.875532	2997.518333	1477.511719	189.211014
11466.875532	2997.518333	1476.447266	-25.330013
11466.875532	2997.518333	1475.382813	132.945297
11466.875532	2997.518333	1474.318359	206.015121
11466.875532	2997.518333	1473.253906	88.541267
11466.875532	2997.518333	1472.189453	356.744080
11466.875532	2997.518333	1471.124023	291.005768
11466.875532	2997.518333	1470.058594	272.431885
11466.875532	2997.518333	1468.993164	453.205627
11466.875532	2997.518333	1467.927734	383.433044
11466.875532	2997.518333	1466.861328	522.024048
11466.875532	2997.518333	1465.794922	373.778107
11466.875532	2997.518333	1464.728516	317.717285
11466.875532	2997.518333	1463.662109	223.555969
11466.875532	2997.518333	1462.594727	185.127213
11466.875532	2997.518333	1461.528320	167.333099
11466.875532	2997.518333	1460.460938	424.764984
11466.875532	2997.518333	1459.393555	275.045044
11466.875532	2997.518333	1458.326172	429.473541
11466.875532	2997.518333	1457.257813	331.950348
11466.875532	2997.518333	1456.189453	669.444946
11466.875532	2997.518333	1455.121094	738.465698
11466.875532	2997.518333	1454.052734	400.191772
11466.875532	2997.518333	1452.984375	681.575806
11466.875532	2997.518333	1451.915039	635.852905
11466.875532	2997.518333	1450.845703	786.030273
11466.875532	2997.518333	1449.776367	779.611328
11466.875532	2997.518333	1448.707031	1211.979248
11466.875532	2997.518333	1447.636719	1478.393921
11466.875532	2997.518333	1446.567383	1594.570435
11466.875532	2997.518333	1445.497070	1860.021362
11466.875532	2997.518333	1444.425781	2134.744141
11466.875532	2997.518333	1443.355469	2309.402100
11466.875532	2997.518333	1442.285156	2406.057373
11466.875532	2997.518333	1441.213867	2698.500977
11466.875532	2997.518333	1440.142578	2730.496826
11466.875532	2997.518333	1439.070313	2761.920410
11466.875532	2997.518333	1437.999023	2923.302246
11466.875532	2997.518333	1436.926758	2993.989746
11466.875532	2997.518333	1435.854492	2872.715576
11466.875532	2997.518333	1434.782227	3014.564941
11466.875532	2997.518333	1433.709961	2720.109619
11466.875532	2997.518333	1432.636719	2245.570313
11466.875532	2997.518333	1431.563477	1884.818726
11466.875532	2997.518333	1430.490234	1457.160034
11466.875532	2997.518333	1429.416992	1274.868042
11466.875532	2997.518333	1428.343750	1015.708557
11466.875532	2997.518333	1427.269531	842.713257
11466.875532	2997.518333	1426.195313	863.592529
11466.875532	2997.518333	1425.121094	570.449158
11466.875532	2997.518333	1424.046875	719.672180
11466.875532	2997.518333	1422.971680	364.204559
11466.875532	2997.518333	1421.896484	225.133270
11466.875532	2997.518333	1420.821289	175.190094
11466.875532	2997.518333	1419.746094	-18.821009
11466.875532	2997.518333	1418.669922	121.147659
11466.875532	2997.518333	1417.594727	135.531876
11466.875532	2997.518333	1416.518555	24.624039
11466.875532	2997.518333	1415.442383	56.654354
11466.875532	2997.518333	1414.365234	85.089661
11466.875532	2997.518333	1413.289063	147.018555
11466.875532	2997.518333	1412.211914	301.628448
11466.875532	2997.518333	1411.134766	285.407074
11466.875532	2997.518333	1410.057617	315.934753
11466.875532	2997.518333	1408.979492	551.796753
11466.875532	2997.518333	1407.902344	417.273468
11466.875532	2997.518333	1406.824219	447.619263
11466.875532	2997.518333	1405.746094	577.104736
11466.875532	2997.518333	1404.666992	556.773376
11466.875532	2997.518333	1403.588867	868.292908
11466.875532	2997.518333	1402.509766	866.774414
11466.875532	2997.518333	1401.430664	1075.587036
11466.875532	2997.518333	1400.351563	1005.983765
11466.875532	2997.518333	1399.271484	1367.840576
11466.875532	2997.518333	1398.192383	1299.590942
11466.875532	2997.518333	1397.112305	1368.696289
11466.875532	2997.518333	1396.031250	1112.513428
11466.875532	2997.518333	1394.951172	972.546082
11466.875532	2997.518333	1393.871094	980.732422
11466.875532	2997.518333	1392.790039	1008.397888
11466.875532	2997.518333	1391.708984	874.517334
11466.875532	2997.518333	1390.626953	703.591003
11466.875532	2997.518333	1389.545898	834.514648
11466.875532	2997.518333	1388.463867	782.257202
11466.875532	2997.518333	1387.381836	688.327576
11466.875532	2997.518333	1386.299805	941.272827
11466.875532	2997.518333	1385.217773	868.005310
11466.875532	2997.518333	1384.134766	1000.705933
11466.875532	2997.518333	1383.051758	1145.031128
11466.875532	2997.518333	1381.968750	1295.137207
11466.875532	2997.518333	1380.885742	1273.592651
11466.875532	2997.518333	1379.802734	1253.911377
11466.875532	2997.518333	1378.718750	1451.096802
11466.875532	2997.518333	1377.634766	1567.261230
11466.875532	2997.518333	1376.550781	1523.049072
11466.875532	2997.518333	1375.465820	1680.237427
11466.875532	2997.518333	1374.381836	1598.197632
11466.875532	2997.518333	1373.296875	1455.366455
11466.875532	2997.518333	1372.211914	1454.797119
11466.875532	2997.518333	1371.126953	1349.011353
11466.875532	2997.518333	1370.041016	1169.982544
11466.875532	2997.518333	1368.955078	907.531616
11466.875532	2997.518333	1367.869141	1033.894897
11466.875532	2997.518333	1366.783203	756.635254
11466.875532	2997.518333	1365.697266	768.336609
11466.875532	2997.518333	1364.610352	603.163147
11466.875532	2997.518333	1363.523438	498.708923
11466.875532	2997.518333	1362.436523	531.126404
11466.875532	2997.518333	1361.349609	467.943115
11466.875532	2997.518333	1360.261719	593.657227
11466.875532	2997.518333	1359.174805	404.181030
11466.875532	2997.518333	1358.086914	418.685577
11466.875532	2997.518333	1356.998047	569.579224
11466.875532	2997.518333	1355.910156	627.547729
11466.875532	2997.518333	1354.821289	600.563904
11466.875532	2997.518333	1353.732422	766.114258
11466.875532	2997.518333	1352.643555	928.496704
11466.875532	2997.518333	1351.554688	929.589417
11466.875532	2997.518333	1350.464844	1018.957153
11466.875532	2997.518333	1349.375000	1416.389893
11466.875532	2997.518333	1348.285156	1352.122314
11466.875532	2997.518333	1347.195313	1830.950317
11466.875532	2997.518333	1346.105469	2025.596802
11466.875532	2997.518333	1345.014648	2274.196045
11466.875532	2997.518333	1343.923828	2549.768311
11466.875532	2997.518333	1342.833008	2661.964355
11466.875532	2997.518333	1341.741211	2949.697510
11466.875532	2997.518333	1340.650391	2809.767578
11466.875532	2997.518333	1339.558594	3098.736328
11466.875532	2997.518333	1338.466797	3161.883301
11466.875532	2997.518333	1337.374023	3029.452881
11466.875532	2997.518333	1336.282227	2975.517334
11466.875532	2997.518333	1335.189453	2570.329834
11466.875532	2997.518333	1334.096680	2292.488281
11466.875532	2997.518333	1333.003906	2136.741943
11466.875532	2997.518333	1331.910156	1782.171143
11466.875532	2997.518333	1330.817383	1649.609619
11466.875532	2997.518333	1329.723633	1450.032715
11466.875532	2997.518333	1328.629883	1149.500977
11466.875532	2997.518333	1327.535156	1116.339111
11466.875532	2997.518333	1326.441406	1142.805420
11466.875532	2997.518333	1325.346680	862.601990
11466.875532	2997.518333	1324.251953	1065.906494
11466.875532	2997.518333	1323.156250	1024.195923
11466.875532	2997.518333	1322.061523	950.329224
11466.875532	2997.518333	1320.965820	887.003662
11466.875532	2997.518333	1319.870117	940.259155
11466.875532	2997.518333	1318.774414	972.225769
11466.875532	2997.518333	1317.678711	1182.309082
11466.875532	2997.518333	1316.582031	1112.969604
11466.875532	2997.518333	1315.485352	996.086121
11466.875532	2997.518333	1314.388672	853.032959
11466.875532	2997.518333	1313.291016	1007.520630
11466.875532	2997.518333	1312.194336	852.141541
11466.875532	2997.518333	1311.096680	838.095764
11466.875532	2997.518333	1309.999023	752.667480
11466.875532	2997.518333	1308.901367	795.765137
11466.875532	2997.518333	1307.802734	663.566040
11466.875532	2997.518333	1306.705078	589.299438
11466.875532	2997.518333	1305.606445	760.565796
11466.875532	2997.518333	1304.506836	611.089905
11466.875532	2997.518333	1303.408203	692.750549
11466.875532	2997.518333	1302.308594	675.392212
11466.875532	2997.518333	1301.208984	888.715210
11466.875532	2997.518333	1300.109375	794.234436
11466.875532	2997.518333	1299.009766	951.371155
11466.875532	2997.518333	1297.909180	924.092651
11466.875532	2997.518333	1296.808594	1040.481079
11466.875532	2997.518333	1295.708008	1160.145142
11466.875532	2997.518333	1294.607422	1088.398804
11466.875532	2997.518333	1293.506836	950.314575
11466.875532	2997.518333	1292.405273	1171.943604
11466.875532	2997.518333	1291.303711	1165.823364
11466.875532	2997.518333	1290.202148	1295.083130
11466.875532	2997.518333	1289.099609	1127.851074
11466.875532	2997.518333	1287.998047	948.205872
11466.875532	2997.518333	1286.895508	969.952454
11466.875532	2997.518333	1285.792969	775.265076
11466.875532	2997.518333	1284.689453	831.883301
11466.875532	2997.518333	1283.586914	684.690430
11466.875532	2997.518333	1282.483398	775.674133
11466.875532	2997.518333	1281.379883	661.057434
11466.875532	2997.518333	1280.276367	787.309570
11466.875532	2997.518333	1279.171875	722.258911
11466.875532	2997.518333	1278.067383	1041.954834
11466.875532	2997.518333	1276.962891	1073.676147
11466.875532	2997.518333	1275.858398	1282.264038
11466.875532	2997.518333	1274.753906	1230.562866
11466.875532	2997.518333	1273.648438	1546.424072
11466.875532	2997.518333	1272.542969	1530.314453
11466.875532	2997.518333	1271.437500	1580.614380
11466.875532	2997.518333	1270.331055	1711.304199
11466.875532	2997.518333	1269.225586	1792.726196
11466.875532	2997.518333	1268.119141	1637.297974
11466.875532	2997.518333	1267.012695	1568.483154
11466.875532	2997.518333	1265.906250	1671.957275
11466.875532	2997.518333	1264.798828	1464.979004
11466.875532	2997.518333	1263.691406	1290.205566
11466.875532	2997.518333	1262.583984	1316.259644
11466.875532	2997.518333	1261.476563	1235.262817
11466.875532	2997.518333	1260.368164	1115.161255
11466.875532	2997.518333	1259.260742	953.755615
11466.875532	2997.518333	1258.152344	852.529602
11466.875532	2997.518333	1257.043945	759.599609
11466.875532	2997.518333	1255.934570	762.704651
11466.875532	2997.518333	1254.825195	595.502319
11466.875532	2997.518333	1253.716797	551.924683
11466.875532	2997.518333	1252.606445	525.530457
11466.875532	2997.518333	1251.497070	444.309906
11466.875532	2997.518333	1250.387695	610.384033
11466.875532	2997.518333	1249.277344	399.085480
11466.875532	2997.518333	1248.166992	430.046600
11466.875532	2997.518333	1247.055664	436.423248
11466.875532	2997.518333	1245.945313	517.542358
11466.875532	2997.518333	1244.833984	542.403442
11466.875532	2997.518333	1243.722656	548.283569
11466.875532	2997.518333	1242.611328	426.014465
11466.875532	2997.518333	1241.499023	533.938416
11466.875532	2997.518333	1240.387695	511.975403
11466.875532	2997.518333	1239.275391	388.085602
11466.875532	2997.518333	1238.162109	511.187622
11466.875532	2997.518333	1237.049805	371.089417
11466.875532	2997.518333	1235.936523	306.129852
11466.875532	2997.518333	1234.823242	359.777771
11466.875532	2997.518333	1233.709961	361.052460
11466.875532	2997.518333	1232.596680	179.145081
11466.875532	2997.518333	1231.482422	31.584131
11466.875532	2997.518333	1230.369141	163.945694
11466.875532	2997.518333	1229.253906	29.626163
11466.875532	2997.518333	1228.139648	-83.268349
11466.875532	2997.518333	1227.025391	-70.606812
11466.875532	2997.518333	1225.910156	66.774857
11466.875532	2997.518333	1224.794922	-3.433383
11466.875532	2997.518333	1223.679688	-115.637955
11466.875532	2997.518333	1222.563477	-98.666092
11466.875532	2997.518333	1221.447266	-16.320845
11466.875532	2997.518333	1220.331055	-65.652176
11466.875532	2997.518333	1219.214844	-58.375069
11466.875532	2997.518333	1218.098633	88.888268
11466.875532	2997.518333	1216.981445	7.121973
11466.875532	2997.518333	1215.864258	-95.371307
11466.875532	2997.518333	1214.747070	92.433708
11466.875532	2997.518333	1213.629883	13.856247
11466.875532	2997.518333	1212.511719	277.387146
11466.875532	2997.518333	1211.393555	-45.599442
11466.875532	2997.518333	1210.275391	5.283099
11466.875532	2997.518333	1209.157227	168.352081
11466.875532	2997.518333	1208.038086	120.149002
11466.875532	2997.518333	1206.918945	23.731775
11466.875532	2997.518333	1205.799805	63.792732
11466.875532	2997.518333	1204.680664	-55.088089
11466.875532	2997.518333	1203.560547	65.134575
11466.875532	2997.518333	1202.441406	-65.694382
11466.875532	2997.518333	1201.321289	133.795837
11466.875532	2997.518333	1200.200195	-212.899780
11466.875532	2997.518333	1199.080078	-64.995644
11466.875532	2997.518333	1197.958984	-131.582123
11466.875532	2997.518333	1196.837891	-108.016853
11466.875532	2997.518333	1195.716797	3.911109
11466.875532	2997.518333	1194.594727	32.861988
11466.875532	2997.518333	1193.473633	137.500732
11466.875532	2997.518333	1192.351563	67.861618
11466.875532	2997.518333	1191.229492	-37.155945
11466.875532	2997.518333	1190.106445	-102.965103
11466.875532	2997.518333	1188.984375	2.050622
11466.875532	2997.518333	1187.861328	-208.235931
11466.875532	2997.518333	1186.738281	-256.310913
11466.875532	2997.518333	1185.614258	-36.617828
11466.875532	2997.518333	1184.491211	-164.418808
11466.875532	2997.518333	1183.367188	-79.146935
11466.875532	2997.518333	1182.243164	69.951080
11466.875532	2997.518333	1181.119141	-79.840446
11466.875532	2997.518333	1179.994141	12.870694
11466.875532	2997.518333	1178.869141	62.786205
11466.875532	2997.518333	1177.744141	-11.886743
11466.875532	2997.518333	1176.619141	210.265076
11466.875532	2997.518333	1175.493164	108.394493
11466.875532	2997.518333	1174.368164	30.771471
11466.875532	2997.518333	1173.242188	93.658508
11466.875532	2997.518333	1172.115234	44.928703
11466.875532	2997.518333	1170.989258	25.385485
11466.875532	2997.518333	1169.862305	95.247192
11466.875532	2997.518333	1168.735352	68.722794
11466.875532	2997.518333	1167.608398	-132.630875
11466.875532	2997.518333	1166.481445	137.702988
11466.875532	2997.518333	1165.353516	5.232383
11466.875532	2997.518333	1164.225586	-26.967331
11466.875532	2997.518333	1163.097656	-35.238705
11466.875532	2997.518333	1161.968750	-197.506454
11466.875532	2997.518333	1160.840820	-129.214432
11466.875532	2997.518333	1159.711914	35.536682
11466.875532	2997.518333	1158.583008	-82.498802
11466.875532	2997.518333	1157.453125	0.061885
11466.875532	2997.518333	1156.324219	-95.275566
11466.875532	2997.518333	1155.194336	-88.925583
11466.875532	2997.518333	1154.064453	-24.009659
11466.875532	2997.518333	1152.933594	-164.530899
11466.875532	2997.518333	1151.803711	48.694454
11466.875532	2997.518333	1150.672852	-47.783459
11466.875532	2997.518333	1149.541992	-88.737335
11466.875532	2997.518333	1148.411133	-68.669815
11466.875532	2997.518333	1147.279297	3.971539
11466.875532	2997.518333	1146.147461	35.508862
11466.875532	2997.518333	1145.015625	8.542077
11466.875532	2997.518333	1143.883789	136.411346
11466.875532	2997.518333	1142.750977	62.688526
11466.875532	2997.518333	1141.619141	194.267975
11466.875532	2997.518333	1140.486328	83.917061
11466.875532	2997.518333	1139.352539	38.901630
11466.875532	2997.518333	1138.219727	281.304779
11466.875532	2997.518333	1137.085938	145.339935
11466.875532	2997.518333	1135.952148	118.019066
11466.875532	2997.518333	1134.818359	245.026123
11466.875532	2997.518333	1133.683594	203.259857
11466.875532	2997.518333	1132.549805	249.765625
11466.875532	2997.518333	1131.415039	202.695053
11466.875532	2997.518333	1130.279297	43.677311
11466.875532	2997.518333	1129.144531	261.256012
11466.875532	2997.518333	1128.008789	383.093323
11466.875532	2997.518333	1126.873047	315.622406
11466.875532	2997.518333	1125.737305	298.108276
11466.875532	2997.518333	1124.601563	315.110962
11466.875532	2997.518333	1123.464844	391.490814
11466.875532	2997.518333	1122.328125	219.215378
11466.875532	2997.518333	1121.191406	413.815277
11466.875532	2997.518333	1120.054688	306.918884
11466.875532	2997.518333	1118.916992	210.575958
11466.875532	2997.518333	1117.779297	332.388885
11466.875532	2997.518333	1116.641602	245.511383
11466.875532	2997.518333	1115.503906	228.760284
11466.875532	2997.518333	1114.365234	142.608170
11466.875532	2997.518333	1113.226563	332.693604
11466.875532	2997.518333	1112.087891	144.318817
11466.875532	2997.518333	1110.949219	198.133621
11466.875532	2997.518333	1109.809570	187.503098
11466.875532	2997.518333	1108.669922	246.747589
11466.875532	2997.518333	1107.530273	11.050138
11466.875532	2997.518333	1106.390625	288.629974
11466.875532	2997.518333	1105.250000	313.438934
11466.875532	2997.518333	1104.109375	396.632477
11466.875532	2997.518333	1102.968750	398.193451
11466.875532	2997.518333	1101.828125	172.310822
11466.875532	2997.518333	1100.686523	397.442200
11466.875532	2997.518333	1099.544922	226.491196
11466.875532	2997.518333	1098.403320	299.036377
11466.875532	2997.518333	1097.261719	244.841873
11466.875532	2997.518333	1096.120117	237.121048
11466.875532	2997.518333	1094.977539	263.240631
11466.875532	2997.518333	1093.834961	195.528168
11466.875532	2997.518333	1092.691406	278.743866
11466.875532	2997.518333	1091.548828	82.401833
11466.875532	2997.518333	1090.405273	127.629517
11466.875532	2997.518333	1089.261719	409.177368
11466.875532	2997.518333	1088.118164	159.998962
11466.875532	2997.518333	1086.973633	357.052734
11466.875532	2997.518333	1085.829102	182.501312
11466.875532	2997.518333	1084.684570	342.684967
11466.875532	2997.518333	1083.540039	236.650131
11466.875532	2997.518333	1082.395508	377.863068
11466.875532	2997.518333	1081.250000	176.402222
11466.875532	2997.518333	1080.104492	508.542633
11466.875532	2997.518333	1078.958984	400.464417
11466.875532	2997.518333	1077.812500	315.879822
11466.875532	2997.518333	1076.666016	452.913483
11466.875532	2997.518333	1075.519531	448.351990
11466.875532	2997.518333	1074.373047	716.075745
11466.875532	2997.518333	1073.226563	802.217041
11466.875532	2997.518333	1072.079102	765.729187
11466.875532	2997.518333	1070.931641	912.285828
11466.875532	2997.518333	1069.784180	721.260376
11466.875532	2997.518333	1068.635742	721.905029
11466.875532	2997.518333	1067.487305	546.463684
11466.875532	2997.518333	1066.338867	472.273743
11466.875532	2997.518333	1065.190430	564.019226
11466.875532	2997.518333	1064.041992	389.676147
11466.875532	2997.518333	1062.892578	662.510376
11466.875532	2997.518333	1061.743164	843.754089
11466.875532	2997.518333	1060.593750	865.770020
11466.875532	2997.518333	1059.443359	1080.490967
11466.875532	2997.518333	1058.292969	1242.982056
11466.875532	2997.518333	1057.142578	1389.861084
11466.875532	2997.518333	1055.992188	1469.114624
11466.875532	2997.518333	1054.841797	1855.118408
11466.875532	2997.518333	1053.690430	1669.064697
11466.875532	2997.518333	1052.539063	1546.752197
11466.875532	2997.518333	1051.387695	1496.794678
11466.875532	2997.518333	1050.235352	1395.972412
11466.875532	2997.518333	1049.083984	1370.895020
11466.875532	2997.518333	1047.931641	1533.335693
11466.875532	2997.518333	1046.778320	1221.931396
11466.875532	2997.518333	1045.625977	873.198120
11466.875532	2997.518333	1044.472656	682.808411
11466.875532	2997.518333	1043.319336	618.710205
11466.875532	2997.518333	1042.166016	674.125732
11466.875532	2997.518333	1041.012695	501.471375
11466.875532	2997.518333	1039.858398	602.301819
11466.875532	2997.518333	1038.704102	374.033936
11466.875532	2997.518333	1037.549805	292.514801
11466.875532	2997.518333	1036.394531	355.606689
11466.875532	2997.518333	1035.239258	164.249908
11466.875532	2997.518333	1034.083984	132.236832
11466.875532	2997.518333	1032.928711	257.401825
11466.875532	2997.518333	1031.773438	59.689632
11466.875532	2997.518333	1030.617188	41.766251
11466.875532	2997.518333	1029.460938	53.725243
11466.875532	2997.518333	1028.304688	3.667571
11466.875532	2997.518333	1027.147461	197.086380
11466.875532	2997.518333	1025.991211	92.017014
11466.875532	2997.518333	1024.833984	20.554750
11466.875532	2997.518333	1023.675781	8.820087
11466.875532	2997.518333	1022.518555	-16.726881
11466.875532	2997.518333	1021.360352	-101.913696
11466.875532	2997.518333	1020.202148	-76.096092
11466.875532	2997.518333	1019.043945	-123.957306
11466.875532	2997.518333	1017.884766	-85.421188
11466.875532	2997.518333	1016.726563	-140.226944
11466.875532	2997.518333	1015.567383	4.664135
11466.875532	2997.518333	1014.407227	269.365662
11466.875532	2997.518333	1013.248047	44.054394
11466.875532	2997.518333	1012.087891	-94.891106
11466.875532	2997.518333	1010.927734	131.315948
11466.875532	2997.518333	1009.767578	87.515671
11466.875532	2997.518333	1008.606445	187.426819
11466.875532	2997.518333	1007.446289	397.538574
11466.875532	2997.518333	1006.285156	412.356476
11466.875532	2997.518333	1005.123047	646.816345
11466.875532	2997.518333	1003.961914	397.475708
11466.875532	2997.518333	1002.799805	717.256104
11466.875532	2997.518333	1001.637695	890.659058
11466.875532	2997.518333	1000.475586	1069.014893
11466.875532	2997.518333	999.312500	1185.979004
11466.875532	2997.518333	998.149414	974.274353
11466.875532	2997.518333	996.986328	816.968628
11466.875532	2997.518333	995.823242	535.315002
11466.875532	2997.518333	994.659180	710.440491
11466.875532	2997.518333	993.496094	457.521362
11466.875532	2997.518333	992.332031	353.275330
11466.875532	2997.518333	991.166992	361.189880
11466.875532	2997.518333	990.002930	146.308517
11466.875532	2997.518333	988.837891	140.601791
11466.875532	2997.518333	987.672852	-11.561761
11466.875532	2997.518333	986.506836	89.592300
11466.875532	2997.518333	985.341797	-46.231499
11466.875532	2997.518333	984.175781	119.749969
11466.875532	2997.518333	983.009766	61.929543
11466.875532	2997.518333	981.843750	-65.669189
11466.875532	2997.518333	980.676758	-33.750267
11466.875532	2997.518333	979.509766	50.541019
11466.875532	2997.518333	978.342773	156.330765
11466.875532	2997.518333	977.175781	246.040955
11466.875532	2997.518333	976.007813	236.042755
11466.875532	2997.518333	974.839844	490.717194
11466.875532	2997.518333	973.671875	454.453979
11466.875532	2997.518333	972.503906	858.018799
11466.875532	2997.518333	971.334961	720.605164
11466.875532	2997.518333	970.166016	804.668213
11466.875532	2997.518333	968.997070	795.428650
11466.875532	2997.518333	967.828125	738.263550
11466.875532	2997.518333	966.658203	565.591858
11466.875532	2997.518333	965.488281	351.278931
11466.875532	2997.518333	964.318359	358.287628
11466.875532	2997.518333	963.148438	231.943115
11466.875532	2997.518333	961.977539	-22.226088
11466.875532	2997.518333	960.806641	223.076767
11466.875532	2997.518333	959.635742	322.676849
11466.875532	2997.518333	958.463867	344.552887
11466.875532	2997.518333	957.292969	136.477905
11466.875532	2997.518333	956.121094	109.832130
11466.875532	2997.518333	954.948242	91.310883
11466.875532	2997.518333	953.776367	243.016235
11466.875532	2997.518333	952.603516	187.204422
11466.875532	2997.518333	951.430664	-75.820129
11466.875532	2997.518333	950.257813	186.754990
11466.875532	2997.518333	949.084961	95.341827
11466.875532	2997.518333	947.911133	51.238407
11466.875532	2997.518333	946.737305	133.366257
11466.875532	2997.518333	945.563477	111.874695
11466.875532	2997.518333	944.388672	-88.455818
11466.875532	2997.518333	943.213867	40.725876
11466.875532	2997.518333	942.039063	-42.015911
11466.875532	2997.518333	940.864258	95.599937
11466.875532	2997.518333	939.688477	87.766022
11466.875532	2997.518333	938.513672	113.800797
11466.875532	2997.518333	937.337891	-142.006088
11466.875532	2997.518333	936.161133	90.593254
11466.875532	2997.518333	934.985352	200.170151
11466.875532	2997.518333	933.808594	39.262302
11466.875532	2997.518333	932.631836	67.971664
11466.875532	2997.518333	931.454102	21.398085
11466.875532	2997.518333	930.277344	58.560978
11466.875532	2997.518333	929.099609	98.524490
11466.875532	2997.518333	927.921875	65.916855
11466.875532	2997.518333	926.743164	41.736359
11466.875532	2997.518333	925.565430	-107.868774
11466.875532	2997.518333	924.386719	-56.760151
11466.875532	2997.518333	923.208008	-2.889674
11466.875532	2997.518333	922.028320	170.758514
11466.875532	2997.518333	920.849609	-31.661602
11466.875532	2997.518333	919.669922	-28.662956
11466.875532	2997.518333	919.474609	-183.376968
11466.875532	2997.518333	918.309570	-12.598718
11466.875532	2997.518333	917.143555	-72.911339
11466.875532	2997.518333	915.977539	142.322998
11466.875532	2997.518333	914.810547	-104.397400
11466.875532	2997.518333	913.644531	119.120361
11466.875532	2997.518333	912.477539	-188.666855
11466.875532	2997.518333	911.310547	137.681473
11466.875532	2997.518333	910.143555	19.081982
11466.875532	2997.518333	908.975586	-46.647697
11466.875532	2997.518333	907.807617	-140.133499
11466.875532	2997.518333	906.639648	-144.663879
11466.875532	2997.518333	905.471680	-63.072208
11466.875532	2997.518333	904.303711	93.479027
11466.875532	2997.518333	903.134766	38.942200
11466.875532	2997.518333	901.965820	200.975494
11466.875532	2997.518333	900.796875	60.404697
11466.875532	2997.518333	899.626953	55.875515
11466.875532	2997.518333	898.457031	18.058804
11466.875532	2997.518333	897.287109	232.687531
11466.875532	2997.518333	896.117188	186.536682
11466.875532	2997.518333	894.947266	159.816727
11466.875532	2997.518333	893.776367	27.767157
11466.875532	2997.518333	892.605469	120.278473
11466.875532	2997.518333	891.434570	137.933228
11466.875532	2997.518333	890.262695	100.174973
11466.875532	2997.518333	889.091797	336.655273
11466.875532	2997.518333	887.919922	80.088806
11466.875532	2997.518333	886.748047	-46.238434
11466.875532	2997.518333	885.575195	-130.988403
11466.875532	2997.518333	884.403320	-174.192184
11466.875532	2997.518333	883.230469	-54.116547
11466.875532	2997.518333	882.057617	-50.289024
11466.875532	2997.518333	880.883789	-162.635269
11466.875532	2997.518333	879.710938	-161.558426
11466.875532	2997.518333	878.537109	-182.603653
11466.875532	2997.518333	877.362305	-84.775398
11466.875532	2997.518333	876.188477	-127.946533
11466.875532	2997.518333	875.013672	-276.104645
11466.875532	2997.518333	873.839844	-59.544430
11466.875532	2997.518333	872.664063	-86.135773
11466.875532	2997.518333	871.489258	-148.625137
11466.875532	2997.518333	870.313477	-9.547083
11466.875532	2997.518333	869.138672	-185.217773
11466.875532	2997.518333	867.962891	-40.686420
11466.875532	2997.518333	866.786133	43.074684
11466.875532	2997.518333	865.610352	190.238663
11466.875532	2997.518333	864.433594	-12.944962
11466.875532	2997.518333	863.256836	109.333237
11466.875532	2997.518333	862.079102	24.778261
11466.875532	2997.518333	860.902344	86.332809
11466.875532	2997.518333	859.724609	51.396717
11466.875532	2997.518333	858.546875	-110.281136
11466.875532	2997.518333	857.368164	-84.584663
11466.875532	2997.518333	856.190430	-47.899223
11466.875532	2997.518333	855.011719	-146.167862
11466.875532	2997.518333	853.833008	-227.893616
11466.875532	2997.518333	852.654297	-114.180603
11466.875532	2997.518333	851.474609	-226.182388
11466.875532	2997.518333	850.294922	-24.506474
11466.875532	2997.518333	849.115234	-78.753075
11466.875532	2997.518333	847.935547	-75.242172
11466.875532	2997.518333	846.754883	148.219299
11466.875532	2997.518333	845.575195	330.329224
11466.875532	2997.518333	844.393555	658.017639
11466.875532	2997.518333	843.212891	523.896179
11466.875532	2997.518333	842.032227	-14.054956
11466.875532	2997.518333	840.850586	-87.596947
11466.875532	2997.518333	839.668945	-139.164291
11466.875532	2997.518333	838.486328	141.492538
11466.875532	2997.518333	837.304688	56.908642
11466.875532	2997.518333	836.122070	87.605202
11466.875532	2997.518333	834.939453	5.761066
11466.875532	2997.518333	833.756836	148.880463
11466.875532	2997.518333	832.573242	-171.623108
11466.875532	2997.518333	831.389648	64.656792
11466.875532	2997.518333	830.206055	-115.928932
11466.875532	2997.518333	829.022461	65.360283
11466.875532	2997.518333	827.838867	-0.108054
11466.875532	2997.518333	826.654297	-43.658863
11466.875532	2997.518333	825.469727	-57.090652
11466.875532	2997.518333	824.284180	-95.197151
11466.875532	2997.518333	823.099609	-78.556961
11466.875532	2997.518333	821.914063	-51.004948
11466.875532	2997.518333	820.728516	25.769859
11466.875532	2997.518333	819.542969	-12.460730
11466.875532	2997.518333	818.356445	-121.847023
11466.875532	2997.518333	817.169922	53.265789
11466.875532	2997.518333	815.983398	-78.042870
11466.875532	2997.518333	814.796875	34.022270
11466.875532	2997.518333	813.609375	156.938690
11466.875532	2997.518333	812.422852	148.568787
11466.875532	2997.518333	811.235352	82.777336
11466.875532	2997.518333	810.046875	90.739388
11466.875532	2997.518333	808.859375	196.991348
11466.875532	2997.518333	807.670898	49.178104
11466.875532	2997.518333	806.482422	-54.930984
11466.875532	2997.518333	805.293945	75.725967
11466.875532	2997.518333	804.104492	-6.597439
11466.875532	2997.518333	802.915039	148.465942
11466.875532	2997.518333	801.725586	123.361801
11466.875532	2997.518333	800.536133	122.770172
11466.875532	2997.518333	799.345703	119.406448
11466.875532	2997.518333	798.155273	148.714111
11466.875532	2997.518333	796.964844	58.020695
11466.875532	2997.518333	795.774414	57.253326
11466.875532	2997.518333	794.583008	-44.379574
11466.875532	2997.518333	793.392578	6.535394
11466.875532	2997.518333	792.200195	258.928253
11466.875532	2997.518333	791.008789	129.935196
11466.875532	2997.518333	789.816406	191.519379
11466.875532	2997.518333	788.625000	380.956848
11466.875532	2997.518333	787.432617	521.277954
11466.875532	2997.518333	786.239258	471.030823
11466.875532	2997.518333	785.046875	559.482117
11466.875532	2997.518333	783.853516	930.691101
11466.875532	2997.518333	782.660156	809.527771
11466.875532	2997.518333	781.465820	533.401184
11466.875532	2997.518333	780.272461	662.314758
11466.875532	2997.518333	779.078125	500.351868
11466.875532	2997.518333	777.883789	572.049622
11466.875532	2997.518333	776.688477	543.155945
11466.875532	2997.518333	775.494141	364.850220
11466.875532	2997.518333	774.298828	194.703934
11466.875532	2997.518333	773.103516	252.597122
11466.875532	2997.518333	771.907227	291.407410
11466.875532	2997.518333	770.711914	406.117401
11466.875532	2997.518333	769.515625	214.159485
11466.875532	2997.518333	768.318359	-37.453236
11466.875532	2997.518333	767.122070	275.029755
11466.875532	2997.518333	765.924805	264.684174
11466.875532	2997.518333	764.727539	256.990051
11466.875532	2997.518333	763.530273	279.045654
11466.875532	2997.518333	762.333008	192.647446
11466.875532	2997.518333	761.134766	517.984192
11466.875532	2997.518333	759.936523	171.434662
11466.875532	2997.518333	758.738281	168.860779
11466.875532	2997.518333	757.540039	44.395046
11466.875532	2997.518333	756.340820	74.196732
11466.875532	2997.518333	755.141602	225.696609
11466.875532	2997.518333	753.942383	452.823090
11466.875532	2997.518333	752.742188	433.629822
11466.875532	2997.518333	751.541992	468.465820
11466.875532	2997.518333	750.341797	605.967468
11466.875532	2997.518333	749.141602	681.166687
11466.875532	2997.518333	747.941406	710.319214
11466.875532	2997.518333	746.740234	350.272369
11466.875532	2997.518333	745.539063	376.641083
11466.875532	2997.518333	744.337891	284.081390
11466.875532	2997.518333	743.135742	240.099777
11466.875532	2997.518333	741.933594	69.167763
11466.875532	2997.518333	740.731445	41.305695
11466.875532	2997.518333	739.529297	240.085678
11466.875532	2997.518333	738.326172	290.307007
11466.875532	2997.518333	737.124023	237.925293
11466.875532	2997.518333	735.919922	390.474304
11466.875532	2997.518333	734.716797	429.632965
11466.875532	2997.518333	733.513672	253.023804
11466.875532	2997.518333	732.309570	195.015228
11466.875532	2997.518333	731.105469	266.313782
11466.875532	2997.518333	729.900391	318.649109
11466.875532	2997.518333	728.696289	317.017792
11466.875532	2997.518333	727.491211	-37.495850
11466.875532	2997.518333	726.286133	-14.963297
11466.875532	2997.518333	725.080078	171.701370
11466.875532	2997.518333	723.874023	368.982483
11466.875532	2997.518333	722.668945	135.559921
11466.875532	2997.518333	721.461914	381.047577
11466.875532	2997.518333	720.255859	365.449860
11466.875532	2997.518333	719.048828	279.864075
11466.875532	2997.518333	717.841797	344.809082
11466.875532	2997.518333	716.634766	229.550674
11466.875532	2997.518333	715.427734	503.965912
11466.875532	2997.518333	714.219727	254.227310
11466.875532	2997.518333	713.011719	128.098160
11466.875532	2997.518333	711.803711	173.847198
11466.875532	2997.518333	710.594727	171.167313
11466.875532	2997.518333	709.385742	407.360107
11466.875532	2997.518333	708.176758	434.016663
11466.875532	2997.518333	706.967773	635.026917
11466.875532	2997.518333	705.758789	994.183105
11466.875532	2997.518333	704.548828	1109.009033
11466.875532	2997.518333	703.338867	1196.897339
11466.875532	2997.518333	702.127930	759.127747
11466.875532	2997.518333	700.917969	557.387268
11466.875532	2997.518333	699.707031	390.502075
11466.875532	2997.518333	698.496094	518.383911
11466.875532	2997.518333	697.285156	485.396423
11466.875532	2997.518333	696.073242	519.316040
11466.875532	2997.518333	694.861328	451.390594
11466.875532	2997.518333	693.649414	533.362671
11466.875532	2997.518333	692.436523	872.209900
11466.875532	2997.518333	691.224609	531.070374
11466.875532	2997.518333	690.011719	412.092041
11466.875532	2997.518333	688.798828	424.182190
11466.875532	2997.518333	687.584961	460.270355
11466.875532	2997.518333	686.372070	298.403473
11466.875532	2997.518333	685.158203	203.374557
11466.875532	2997.518333	683.943359	372.939972
11466.875532	2997.518333	682.729492	93.416489
11466.875532	2997.518333	681.514648	179.983673
11466.875532	2997.518333	680.299805	375.974121
11466.875532	2997.518333	679.084961	537.102356
11466.875532	2997.518333	677.869141	532.551697
11466.875532	2997.518333	676.653320	549.300354
11466.875532	2997.518333	675.437500	413.851135
11466.875532	2997.518333	674.221680	782.736023
11466.875532	2997.518333	673.004883	916.630310
11466.875532	2997.518333	671.789063	914.384949
11466.875532	2997.518333	670.571289	906.742981
11466.875532	2997.518333	669.354492	645.765869
11466.875532	2997.518333	668.136719	478.138245
11466.875532	2997.518333	666.919922	123.979019
11466.875532	2997.518333	665.701172	276.162659
11466.875532	2997.518333	664.483398	95.243340
11466.875532	2997.518333	663.264648	52.841026
11466.875532	2997.518333	662.045898	204.793167
11466.875532	2997.518333	660.827148	239.494308
11466.875532	2997.518333	659.608398	316.720856
11466.875532	2997.518333	658.388672	127.750443
11466.875532	2997.518333	657.168945	103.770325
11466.875532	2997.518333	655.949219	183.496429
11466.875532	2997.518333	654.728516	287.075470
11466.875532	2997.518333	653.507813	403.863831
11466.875532	2997.518333	652.287109	674.743530
11466.875532	2997.518333	651.066406	331.527191
11466.875532	2997.518333	649.844727	262.104645
11466.875532	2997.518333	648.623047	325.504395
11466.875532	2997.518333	647.401367	378.216888
11466.875532	2997.518333	646.179688	98.933746
11466.875532	2997.518333	644.957031	180.801620
11466.875532	2997.518333	643.734375	225.441940
11466.875532	2997.518333	642.511719	70.993652
11466.875532	2997.518333	641.289063	-125.870079
11466.875532	2997.518333	640.065430	136.231750
11466.875532	2997.518333	638.841797	-169.363480
11466.875532	2997.518333	637.618164	44.854382
11466.875532	2997.518333	636.393555	97.239944
11466.875532	2997.518333	635.168945	-41.254044
11466.875532	2997.518333	633.944336	-44.566628
11466.875532	2997.518333	632.719727	-153.872192
11466.875532	2997.518333	631.494141	-90.986023
11466.875532	2997.518333	630.269531	-51.973503
11466.875532	2997.518333	629.042969	-174.510864
11466.875532	2997.518333	627.817383	-56.122086
11466.875532	2997.518333	626.590820	-130.997757
11466.875532	2997.518333	625.365234	-248.184555
11466.875532	2997.518333	624.137695	-69.057983
11466.875532	2997.518333	622.911133	104.698952
11466.875532	2997.518333	621.683594	24.517738
11466.875532	2997.518333	620.456055	-39.772583
11466.875532	2997.518333	619.228516	4.328559
11466.875532	2997.518333	618.000977	6.126436
11466.875532	2997.518333	616.772461	-42.282024
11466.875532	2997.518333	615.543945	36.121712
11466.875532	2997.518333	614.314453	-117.913048
11466.875532	2997.518333	613.085938	-97.610573
11466.875532	2997.518333	611.856445	30.915823
11466.875532	2997.518333	610.626953	45.905403
11466.875532	2997.518333	609.397461	269.352966
11466.875532	2997.518333	608.166992	9.934669
11466.875532	2997.518333	606.936523	272.874146
11466.875532	2997.518333	605.706055	50.508049
11466.875532	2997.518333	604.474609	7.524285
11466.875532	2997.518333	603.244141	246.617447
11466.875532	2997.518333	602.012695	32.349255
11466.875532	2997.518333	600.780273	181.781998
11466.875532	2997.518333	599.548828	146.784988
11466.875532	2997.518333	598.316406	272.471832
11466.875532	2997.518333	597.083984	158.521194
11466.875532	2997.518333	595.851563	271.041229
11466.875532	2997.518333	594.618164	204.564774
11466.875532	2997.518333	593.384766	567.063416
11466.875532	2997.518333	592.151367	718.972473
11466.875532	2997.518333	590.917969	634.127625
11466.875532	2997.518333	589.683594	594.053101
11466.875532	2997.518333	588.449219	856.385376
11466.875532	2997.518333	587.214844	653.384949
11466.875532	2997.518333	585.979492	560.883728
11466.875532	2997.518333	584.745117	447.448669
11466.875532	2997.518333	583.509766	410.282867
11466.875532	2997.518333	582.273438	168.317902
11466.875532	2997.518333	581.038086	165.455368
11466.875532	2997.518333	579.801758	144.261932
11466.875532	2997.518333	578.565430	62.761505
11466.875532	2997.518333	577.329102	159.787796
11466.875532	2997.518333	576.091797	-37.014496
11466.875532	2997.518333	574.854492	41.736782
11466.875532	2997.518333	573.617188	-89.281914
11466.875532	2997.518333	572.378906	199.310577
11466.875532	2997.518333	571.141602	427.554749
11466.875532	2997.518333	569.903320	718.657593
11466.875532	2997.518333	568.664063	810.563232
11466.875532	2997.518333	567.425781	912.977905
11466.875532	2997.518333	566.186523	640.885132
11466.875532	2997.518333	564.947266	596.788696
11466.875532	2997.518333	563.708008	335.491974
11466.875532	2997.518333	562.467773	257.593140
11466.875532	2997.518333	561.227539	266.157257
11466.875532	2997.518333	559.987305	60.259083
11466.875532	2997.518333	558.747070	-12.071623
11466.875532	2997.518333	557.505859	-170.596741
11466.875532	2997.518333	556.264648	23.996471
11466.875532	2997.518333	555.023438	4.237736
11466.875532	2997.518333	553.781250	183.192444
11466.875532	2997.518333	552.539063	372.606659
11466.875532	2997.518333	551.296875	593.373291
11466.875532	2997.518333	550.054688	902.935120
11466.875532	2997.518333	548.811523	844.264832
11466.875532	2997.518333	547.569336	412.384613
11466.875532	2997.518333	546.325195	513.239746
11466.875532	2997.518333	545.082031	222.712509
11466.875532	2997.518333	543.837891	211.565826
11466.875532	2997.518333	542.593750	130.089844
11466.875532	2997.518333	541.349609	-26.884256
11466.875532	2997.518333	540.105469	-84.614265
11466.875532	2997.518333	538.860352	-196.966888
11466.875532	2997.518333	537.615234	-92.855545
11466.875532	2997.518333	536.369141	-56.437885
11466.875532	2997.518333	535.124023	-14.721038
11466.875532	2997.518333	533.877930	-48.454823
11466.875532	2997.518333	532.631836	-74.258224
11466.875532	2997.518333	531.384766	-16.639343
11466.875532	2997.518333	530.138672	121.750305
11466.875532	2997.518333	528.891602	187.319565
11466.875532	2997.518333	527.643555	479.317322
11466.875532	2997.518333	526.396484	630.834534
11466.875532	2997.518333	525.148438	426.104614
11466.875532	2997.518333	523.900391	645.383667
11466.875532	2997.518333	522.652344	516.340881
11466.875532	2997.518333	521.403320	470.626709
11466.875532	2997.518333	520.154297	690.078735
11466.875532	2997.518333	518.905273	605.598572
11466.875532	2997.518333	517.656250	121.280914
11466.875532	2997.518333	516.406250	167.012634
11466.875532	2997.518333	515.156250	184.277206
11466.875532	2997.518333	513.906250	175.686844
11466.875532	2997.518333	512.655273	107.522911
11466.875532	2997.518333	511.404297	-152.495239
11466.875532	2997.518333	510.153320	23.489492
11466.875532	2997.518333	508.902344	-18.336769
11466.875532	2997.518333	507.650391	-18.551031
11466.875532	2997.518333	506.398438	15.041005
11466.875532	2997.518333	505.146484	-18.657988
11466.875532	2997.518333	503.893555	-285.438873
11466.875532	2997.518333	502.641602	15.340380
11466.875532	2997.518333	501.388672	147.744202
11466.875532	2997.518333	500.134766	52.319668
11466.875532	2997.518333	498.881836	13.997138
11466.875532	2997.518333	497.627930	294.162506
11466.875532	2997.518333	496.374023	206.838791
11466.875532	2997.518333	495.119141	267.125641
11466.875532	2997.518333	493.865234	120.550003
11466.875532	2997.518333	492.610352	124.129883
11466.875532	2997.518333	491.355469	55.408039
11466.875532	2997.518333	490.099609	-2.849961
11466.875532	2997.518333	488.843750	-9.301910
11466.875532	2997.518333	487.587891	-23.413698
11466.875532	2997.518333	486.332031	68.487350
11466.875532	2997.518333	485.075195	-30.692755
11466.875532	2997.518333	483.818359	43.263424
11466.875532	2997.518333	482.561523	-84.102661
11466.875532	2997.518333	481.304688	-221.660812
11466.875532	2997.518333	480.046875	113.163689
11466.875532	2997.518333	478.789063	-6.167371
11466.875532	2997.518333	477.531250	124.830315
11466.875532	2997.518333	476.272461	39.212681
11466.875532	2997.518333	475.013672	180.589371
11466.875532	2997.518333	473.754883	260.099548
11466.875532	2997.518333	472.496094	195.306091
11466.875532	2997.518333	471.236328	444.950073
11466.875532	2997.518333	469.976563	295.237061
11466.875532	2997.518333	468.716797	289.865234
11466.875532	2997.518333	467.456055	256.213959
11466.875532	2997.518333	466.196289	526.397705
11466.875532	2997.518333	464.935547	186.485687
11466.875532	2997.518333	463.673828	361.418732
11466.875532	2997.518333	462.413086	497.706116
11466.875532	2997.518333	461.151367	623.664795
11466.875532	2997.518333	459.889648	332.971527
11466.875532	2997.518333	458.626953	428.081787
11466.875532	2997.518333	457.364258	518.012756
11466.875532	2997.518333	456.101563	613.041016
11466.875532	2997.518333	454.838867	597.533813
11466.875532	2997.518333	453.575195	589.726257
11466.875532	2997.518333	452.312500	489.438538
11466.875532	2997.518333	451.047852	355.788818
11466.875532	2997.518333	449.784180	481.452698
11466.875532	2997.518333	448.519531	324.687683
11466.875532	2997.518333	447.254883	327.042603
11466.875532	2997.518333	445.990234	416.569916
11466.875532	2997.518333	444.725586	423.916595
11466.875532	2997.518333	443.459961	320.920258
11466.875532	2997.518333	442.194336	210.197525
11466.875532	2997.518333	440.927734	340.394135
11466.875532	2997.518333	439.662109	370.490234
11466.875532	2997.518333	438.395508	454.277954
11466.875532	2997.518333	437.127930	653.195618
11466.875532	2997.518333	435.861328	296.139252
11466.875532	2997.518333	434.593750	417.936798
11466.875532	2997.518333	433.326172	460.181335
11466.875532	2997.518333	432.058594	522.735352
11466.875532	2997.518333	430.790039	620.928406
11466.875532	2997.518333	429.521484	741.935181
11466.875532	2997.518333	428.252930	463.692596
11466.875532	2997.518333	426.984375	650.799438
11466.875532	2997.518333	425.714844	627.975403
11466.875532	2997.518333	424.445313	801.771484
11466.875532	2997.518333	423.174805	875.599792
11466.875532	2997.518333	421.905273	946.605591
11466.875532	2997.518333	420.634766	1002.004517
11466.875532	2997.518333	419.364258	1138.845215
11466.875532	2997.518333	418.092773	1170.664063
11466.875532	2997.518333	416.822266	1268.557739
11466.875532	2997.518333	415.550781	1534.557495
11466.875532	2997.518333	414.278320	1634.265503
11466.875532	2997.518333	413.006836	1583.085938
11466.875532	2997.518333	411.734375	1605.554321
11466.875532	2997.518333	410.461914	1576.655396
11466.875532	2997.518333	409.188477	1626.430420
11466.875532	2997.518333	407.916016	1311.300781
11466.875532	2997.518333	406.642578	1299.164063
11466.875532	2997.518333	405.368164	1253.489258
11466.875532	2997.518333	404.094727	1197.215088
11466.875532	2997.518333	402.820313	1298.410278
11466.875532	2997.518333	401.545898	1292.155029
11466.875532	2997.518333	400.270508	985.028625
11466.875532	2997.518333	398.996094	993.129761
11466.875532	2997.518333	397.720703	919.278564
11466.875532	2997.518333	396.444336	959.393555
11466.875532	2997.518333	395.168945	1156.633057
11466.875532	2997.518333	393.892578	877.689880
11466.875532	2997.518333	392.616211	994.873657
11466.875532	2997.518333	391.339844	1007.179932
11466.875532	2997.518333	390.062500	945.143616
11466.875532	2997.518333	388.785156	945.994812
11466.875532	2997.518333	387.507813	1040.153442
11466.875532	2997.518333	386.229492	1057.377319
11466.875532	2997.518333	384.951172	936.767090
11466.875532	2997.518333	383.672852	1033.775635
11466.875532	2997.518333	382.394531	947.249023
11466.875532	2997.518333	381.115234	870.109375
11466.875532	2997.518333	379.835938	926.643127
11466.875532	2997.518333	378.556641	908.766541
11466.875532	2997.518333	377.277344	981.324158
11466.875532	2997.518333	375.997070	700.566650
11466.875532	2997.518333	374.716797	1004.512817
11466.875532	2997.518333	373.435547	777.761536
11466.875532	2997.518333	372.155273	930.187439
11466.875532	2997.518333	370.874023	921.967712
11466.875532	2997.518333	369.591797	806.357178
11466.875532	2997.518333	368.310547	780.919800
11466.875532	2997.518333	367.028320	969.561462
11466.875532	2997.518333	365.746094	921.664001
11466.875532	2997.518333	364.463867	804.345764
11466.875532	2997.518333	363.180664	599.890076
11466.875532	2997.518333	361.897461	695.295898
11466.875532	2997.518333	360.614258	786.912720
11466.875532	2997.518333	359.330078	831.710754
11466.875532	2997.518333	358.045898	814.548828
11466.875532	2997.518333	356.761719	879.468018
11466.875532	2997.518333	355.477539	738.381104
11466.875532	2997.518333	354.192383	628.782654
11466.875532	2997.518333	352.907227	565.796814
11466.875532	2997.518333	351.622070	387.781128
11466.875532	2997.518333	350.336914	627.363953
11466.875532	2997.518333	349.050781	537.227722
11466.875532	2997.518333	347.764648	485.943970
11466.875532	2997.518333	346.477539	422.965973
11466.875532	2997.518333	345.191406	313.029510
11466.875532	2997.518333	343.904297	438.446167
11466.875532	2997.518333	342.616211	136.045227
11466.875532	2997.518333	341.329102	283.201050
11466.875532	2997.518333	340.041016	337.756866
11466.875532	2997.518333	338.752930	403.062134
11466.875532	2997.518333	337.463867	458.872345
11466.875532	2997.518333	336.175781	475.028259
11466.875532	2997.518333	334.886719	-31.944977
11466.875532	2997.518333	333.596680	413.193207
11466.875532	2997.518333	332.307617	118.842300
11466.875532	2997.518333	331.017578	174.710938
11466.875532	2997.518333	329.727539	180.641556
11466.875532	2997.518333	328.436523	-127.487762
11466.875532	2997.518333	327.146484	105.430733
11466.875532	2997.518333	325.855469	-31.066860
11466.875532	2997.518333	324.563477	-174.903290
11466.875532	2997.518333	323.272461	-132.529053
11466.875532	2997.518333	321.980469	148.511246
11466.875532	2997.518333	320.688477	-20.070761
11466.875532	2997.518333	319.395508	77.515663
11466.875532	2997.518333	318.103516	49.562283
11466.875532	2997.518333	316.810547	-16.195107
11466.875532	2997.518333	315.516602	65.895325
11466.875532	2997.518333	314.223633	-70.442291
11466.875532	2997.518333	312.929688	-3.893369
11466.875532	2997.518333	311.635742	-60.566116
11466.875532	2997.518333	310.340820	128.025879
11466.875532	2997.518333	309.045898	-37.318695
11466.875532	2997.518333	307.750977	-65.249214
11466.875532	2997.518333	306.456055	-198.942154
11466.875532	2997.518333	305.160156	-295.699432
11466.875532	2997.518333	303.865234	35.258160
11466.875532	2997.518333	302.568359	-55.484989
11466.875532	2997.518333	301.272461	258.648041
11466.875532	2997.518333	299.975586	98.681236
11466.875532	2997.518333	298.678711	350.726105
