#X		#Y		#Wave		#Intensity
11960.947340	2796.755000	1999.980469	48.368534
11960.947340	2796.755000	1999.016602	45.097569
11960.947340	2796.755000	1998.052734	8.843347
11960.947340	2796.755000	1997.087891	-71.923523
11960.947340	2796.755000	1996.123047	115.008324
11960.947340	2796.755000	1995.158203	14.594090
11960.947340	2796.755000	1994.193359	38.132267
11960.947340	2796.755000	1993.228516	17.164534
11960.947340	2796.755000	1992.262695	-95.330170
11960.947340	2796.755000	1991.297852	101.713455
11960.947340	2796.755000	1990.332031	68.585716
11960.947340	2796.755000	1989.366211	-51.066830
11960.947340	2796.755000	1988.399414	54.524197
11960.947340	2796.755000	1987.433594	-52.579811
11960.947340	2796.755000	1986.466797	65.468292
11960.947340	2796.755000	1985.500977	17.872242
11960.947340	2796.755000	1984.534180	4.963392
11960.947340	2796.755000	1983.567383	100.873840
11960.947340	2796.755000	1982.599609	137.495560
11960.947340	2796.755000	1981.632813	-55.619980
11960.947340	2796.755000	1980.665039	-46.043682
11960.947340	2796.755000	1979.697266	45.089310
11960.947340	2796.755000	1978.729492	81.913811
11960.947340	2796.755000	1977.761719	-56.518841
11960.947340	2796.755000	1976.792969	17.438663
11960.947340	2796.755000	1975.825195	-41.854614
11960.947340	2796.755000	1974.856445	32.168877
11960.947340	2796.755000	1973.887695	17.395288
11960.947340	2796.755000	1972.918945	-88.594154
11960.947340	2796.755000	1971.949219	20.057674
11960.947340	2796.755000	1970.980469	-9.368670
11960.947340	2796.755000	1970.010742	-68.327042
11960.947340	2796.755000	1969.041016	13.271214
11960.947340	2796.755000	1968.071289	-6.160546
11960.947340	2796.755000	1967.101563	109.968307
11960.947340	2796.755000	1966.130859	11.768656
11960.947340	2796.755000	1965.161133	-37.097466
11960.947340	2796.755000	1964.190430	37.214531
11960.947340	2796.755000	1963.219727	-6.646782
11960.947340	2796.755000	1962.249023	40.620255
11960.947340	2796.755000	1961.277344	31.293291
11960.947340	2796.755000	1960.306641	-34.594803
11960.947340	2796.755000	1959.334961	74.247757
11960.947340	2796.755000	1958.363281	92.066139
11960.947340	2796.755000	1957.391602	-15.521012
11960.947340	2796.755000	1956.419922	2.361299
11960.947340	2796.755000	1955.447266	-51.032928
11960.947340	2796.755000	1954.474609	151.245529
11960.947340	2796.755000	1953.501953	-37.270561
11960.947340	2796.755000	1952.529297	-117.583580
11960.947340	2796.755000	1951.556641	-45.536228
11960.947340	2796.755000	1950.583984	65.803238
11960.947340	2796.755000	1949.610352	66.615799
11960.947340	2796.755000	1948.636719	20.797890
11960.947340	2796.755000	1947.663086	43.749069
11960.947340	2796.755000	1946.689453	12.715094
11960.947340	2796.755000	1945.715820	8.701501
11960.947340	2796.755000	1944.741211	16.971958
11960.947340	2796.755000	1943.767578	84.125687
11960.947340	2796.755000	1942.792969	45.812435
11960.947340	2796.755000	1941.818359	-39.061623
11960.947340	2796.755000	1940.842773	77.136917
11960.947340	2796.755000	1939.868164	-76.316513
11960.947340	2796.755000	1938.892578	25.165987
11960.947340	2796.755000	1937.916992	9.012555
11960.947340	2796.755000	1936.941406	68.817230
11960.947340	2796.755000	1935.965820	20.841055
11960.947340	2796.755000	1934.990234	-14.863902
11960.947340	2796.755000	1934.013672	35.145012
11960.947340	2796.755000	1933.037109	-0.533644
11960.947340	2796.755000	1932.060547	64.153694
11960.947340	2796.755000	1931.083984	-84.065559
11960.947340	2796.755000	1930.107422	34.449596
11960.947340	2796.755000	1929.129883	-52.546093
11960.947340	2796.755000	1928.153320	41.473217
11960.947340	2796.755000	1927.175781	5.866777
11960.947340	2796.755000	1926.198242	-22.388903
11960.947340	2796.755000	1925.219727	3.142636
11960.947340	2796.755000	1924.242188	14.004325
11960.947340	2796.755000	1923.263672	32.194164
11960.947340	2796.755000	1922.285156	-64.437782
11960.947340	2796.755000	1921.306641	124.733482
11960.947340	2796.755000	1920.328125	-10.949782
11960.947340	2796.755000	1919.349609	-39.155048
11960.947340	2796.755000	1918.370117	-89.320297
11960.947340	2796.755000	1917.391602	21.613579
11960.947340	2796.755000	1916.412109	22.696898
11960.947340	2796.755000	1915.431641	-42.094719
11960.947340	2796.755000	1914.452148	-62.957512
11960.947340	2796.755000	1913.472656	3.981622
11960.947340	2796.755000	1912.492188	61.138760
11960.947340	2796.755000	1911.511719	-142.583191
11960.947340	2796.755000	1910.531250	-90.301826
11960.947340	2796.755000	1909.550781	35.064495
11960.947340	2796.755000	1908.569336	43.425510
11960.947340	2796.755000	1907.588867	34.726688
11960.947340	2796.755000	1906.607422	82.043777
11960.947340	2796.755000	1905.625977	12.450169
11960.947340	2796.755000	1904.644531	140.087097
11960.947340	2796.755000	1903.662109	-63.388584
11960.947340	2796.755000	1902.680664	-64.790131
11960.947340	2796.755000	1901.698242	74.935242
11960.947340	2796.755000	1900.715820	2.939616
11960.947340	2796.755000	1899.733398	198.530762
11960.947340	2796.755000	1898.750000	58.427055
11960.947340	2796.755000	1897.767578	25.354418
11960.947340	2796.755000	1896.784180	-24.732548
11960.947340	2796.755000	1895.800781	15.122502
11960.947340	2796.755000	1894.817383	62.243992
11960.947340	2796.755000	1893.833984	140.924133
11960.947340	2796.755000	1892.850586	32.512737
11960.947340	2796.755000	1891.866211	26.140268
11960.947340	2796.755000	1890.881836	-99.229042
11960.947340	2796.755000	1889.897461	47.361580
11960.947340	2796.755000	1888.913086	-68.277069
11960.947340	2796.755000	1887.927734	32.117283
11960.947340	2796.755000	1886.943359	-83.497711
11960.947340	2796.755000	1885.958008	-55.943947
11960.947340	2796.755000	1884.972656	32.228249
11960.947340	2796.755000	1883.987305	20.923449
11960.947340	2796.755000	1883.001953	-9.786775
11960.947340	2796.755000	1882.015625	134.046829
11960.947340	2796.755000	1881.029297	66.943329
11960.947340	2796.755000	1880.042969	16.815643
11960.947340	2796.755000	1879.056641	12.728516
11960.947340	2796.755000	1878.070313	15.896614
11960.947340	2796.755000	1877.083984	28.737736
11960.947340	2796.755000	1876.096680	10.079497
11960.947340	2796.755000	1875.109375	-11.006173
11960.947340	2796.755000	1874.122070	67.147072
11960.947340	2796.755000	1873.134766	65.391121
11960.947340	2796.755000	1872.146484	3.127792
11960.947340	2796.755000	1871.159180	47.321571
11960.947340	2796.755000	1870.170898	-19.781898
11960.947340	2796.755000	1869.182617	77.572533
11960.947340	2796.755000	1868.194336	34.637653
11960.947340	2796.755000	1867.205078	42.469040
11960.947340	2796.755000	1866.216797	57.534275
11960.947340	2796.755000	1865.227539	38.745876
11960.947340	2796.755000	1864.238281	7.868357
11960.947340	2796.755000	1863.249023	172.653564
11960.947340	2796.755000	1862.259766	95.842598
11960.947340	2796.755000	1861.269531	-34.080315
11960.947340	2796.755000	1860.279297	-40.842297
11960.947340	2796.755000	1859.290039	131.005875
11960.947340	2796.755000	1858.298828	-95.434601
11960.947340	2796.755000	1857.308594	37.719288
11960.947340	2796.755000	1856.318359	-137.988205
11960.947340	2796.755000	1855.327148	-53.150570
11960.947340	2796.755000	1854.335938	-79.293137
11960.947340	2796.755000	1853.344727	-33.108856
11960.947340	2796.755000	1852.353516	63.664421
11960.947340	2796.755000	1851.362305	-30.020727
11960.947340	2796.755000	1850.370117	59.452106
11960.947340	2796.755000	1849.377930	180.194885
11960.947340	2796.755000	1848.385742	-67.676720
11960.947340	2796.755000	1847.393555	26.518398
11960.947340	2796.755000	1846.401367	-16.591383
11960.947340	2796.755000	1845.408203	113.635178
11960.947340	2796.755000	1844.415039	5.500579
11960.947340	2796.755000	1843.421875	65.849022
11960.947340	2796.755000	1842.428711	94.877739
11960.947340	2796.755000	1841.435547	164.775177
11960.947340	2796.755000	1840.441406	160.065338
11960.947340	2796.755000	1839.448242	61.556095
11960.947340	2796.755000	1838.454102	52.023972
11960.947340	2796.755000	1837.459961	52.093861
11960.947340	2796.755000	1836.464844	167.507950
11960.947340	2796.755000	1835.470703	-55.953541
11960.947340	2796.755000	1834.475586	-5.464924
11960.947340	2796.755000	1833.480469	4.152001
11960.947340	2796.755000	1832.485352	-72.709213
11960.947340	2796.755000	1831.490234	40.130634
11960.947340	2796.755000	1830.495117	13.671056
11960.947340	2796.755000	1829.499023	44.807476
11960.947340	2796.755000	1828.502930	-5.677810
11960.947340	2796.755000	1827.506836	-39.366341
11960.947340	2796.755000	1826.510742	94.861526
11960.947340	2796.755000	1825.513672	49.137985
11960.947340	2796.755000	1824.517578	-78.115768
11960.947340	2796.755000	1823.520508	135.107788
11960.947340	2796.755000	1822.523438	-16.121849
11960.947340	2796.755000	1821.526367	115.489304
11960.947340	2796.755000	1820.529297	-62.072411
11960.947340	2796.755000	1819.531250	-2.410721
11960.947340	2796.755000	1818.533203	-26.623035
11960.947340	2796.755000	1817.535156	-38.869476
11960.947340	2796.755000	1816.537109	-65.495224
11960.947340	2796.755000	1815.539063	44.324463
11960.947340	2796.755000	1814.540039	8.082948
11960.947340	2796.755000	1813.541992	91.489418
11960.947340	2796.755000	1812.542969	-9.381082
11960.947340	2796.755000	1811.543945	-170.033539
11960.947340	2796.755000	1810.543945	123.768501
11960.947340	2796.755000	1809.544922	25.288567
11960.947340	2796.755000	1808.544922	60.708035
11960.947340	2796.755000	1807.544922	-9.076169
11960.947340	2796.755000	1806.544922	114.726540
11960.947340	2796.755000	1805.544922	66.428726
11960.947340	2796.755000	1804.544922	-129.981277
11960.947340	2796.755000	1803.543945	48.655746
11960.947340	2796.755000	1802.542969	112.582527
11960.947340	2796.755000	1801.541992	76.190247
11960.947340	2796.755000	1800.541016	11.148883
11960.947340	2796.755000	1799.539063	-1.379462
11960.947340	2796.755000	1798.538086	129.255814
11960.947340	2796.755000	1797.536133	92.818771
11960.947340	2796.755000	1796.534180	-58.117210
11960.947340	2796.755000	1795.532227	77.172569
11960.947340	2796.755000	1794.529297	90.787140
11960.947340	2796.755000	1793.527344	75.774239
11960.947340	2796.755000	1792.524414	106.035469
11960.947340	2796.755000	1791.521484	62.393829
11960.947340	2796.755000	1790.518555	142.648712
11960.947340	2796.755000	1789.514648	37.046066
11960.947340	2796.755000	1788.511719	-49.477066
11960.947340	2796.755000	1787.507813	-43.116375
11960.947340	2796.755000	1786.503906	70.362823
11960.947340	2796.755000	1785.500000	140.936203
11960.947340	2796.755000	1784.496094	171.008652
11960.947340	2796.755000	1783.491211	110.632660
11960.947340	2796.755000	1782.486328	221.552261
11960.947340	2796.755000	1781.481445	18.444811
11960.947340	2796.755000	1780.476563	96.014977
11960.947340	2796.755000	1779.471680	71.301918
11960.947340	2796.755000	1778.465820	27.562191
11960.947340	2796.755000	1777.460938	-51.824451
11960.947340	2796.755000	1776.455078	-17.136036
11960.947340	2796.755000	1775.449219	-10.986332
11960.947340	2796.755000	1774.442383	-114.124702
11960.947340	2796.755000	1773.436523	70.132439
11960.947340	2796.755000	1772.429688	-116.119026
11960.947340	2796.755000	1771.422852	15.807986
11960.947340	2796.755000	1770.416016	-23.229008
11960.947340	2796.755000	1769.409180	89.615807
11960.947340	2796.755000	1768.402344	-106.046623
11960.947340	2796.755000	1767.394531	66.045975
11960.947340	2796.755000	1766.386719	10.366879
11960.947340	2796.755000	1765.378906	66.148125
11960.947340	2796.755000	1764.371094	-36.955872
11960.947340	2796.755000	1763.362305	42.487038
11960.947340	2796.755000	1762.354492	50.789150
11960.947340	2796.755000	1761.345703	35.376163
11960.947340	2796.755000	1760.336914	1.002688
11960.947340	2796.755000	1759.328125	120.590218
11960.947340	2796.755000	1758.318359	10.402894
11960.947340	2796.755000	1757.308594	37.572300
11960.947340	2796.755000	1756.299805	57.619236
11960.947340	2796.755000	1755.290039	-14.664026
11960.947340	2796.755000	1754.279297	2.987739
11960.947340	2796.755000	1753.269531	44.281570
11960.947340	2796.755000	1752.258789	87.910072
11960.947340	2796.755000	1751.249023	122.052002
11960.947340	2796.755000	1750.238281	26.113785
11960.947340	2796.755000	1749.226563	-72.167175
11960.947340	2796.755000	1748.215820	-12.053458
11960.947340	2796.755000	1747.204102	3.121069
11960.947340	2796.755000	1746.193359	39.545532
11960.947340	2796.755000	1745.181641	-113.044640
11960.947340	2796.755000	1744.168945	-29.403255
11960.947340	2796.755000	1743.157227	-23.729795
11960.947340	2796.755000	1742.144531	-13.350903
11960.947340	2796.755000	1741.132813	6.457813
11960.947340	2796.755000	1740.120117	-157.840775
11960.947340	2796.755000	1739.106445	-17.699701
11960.947340	2796.755000	1738.093750	53.964386
11960.947340	2796.755000	1737.080078	-34.806114
11960.947340	2796.755000	1736.067383	102.843651
11960.947340	2796.755000	1735.053711	23.507822
11960.947340	2796.755000	1734.040039	21.984743
11960.947340	2796.755000	1733.025391	6.307847
11960.947340	2796.755000	1732.011719	-14.082974
11960.947340	2796.755000	1730.997070	-20.343170
11960.947340	2796.755000	1729.982422	-0.699742
11960.947340	2796.755000	1728.967773	-6.980184
11960.947340	2796.755000	1727.952148	14.985618
11960.947340	2796.755000	1726.937500	18.102970
11960.947340	2796.755000	1725.921875	40.036171
11960.947340	2796.755000	1724.906250	104.312172
11960.947340	2796.755000	1723.890625	41.498985
11960.947340	2796.755000	1722.875000	37.511799
11960.947340	2796.755000	1721.858398	-34.693184
11960.947340	2796.755000	1720.841797	-8.114858
11960.947340	2796.755000	1719.825195	-23.875149
11960.947340	2796.755000	1718.808594	-25.533968
11960.947340	2796.755000	1717.791992	-6.048684
11960.947340	2796.755000	1716.774414	67.461678
11960.947340	2796.755000	1715.756836	2.328835
11960.947340	2796.755000	1714.739258	-48.694145
11960.947340	2796.755000	1713.721680	142.177078
11960.947340	2796.755000	1712.704102	-38.004131
11960.947340	2796.755000	1711.685547	44.790157
11960.947340	2796.755000	1710.667969	5.503563
11960.947340	2796.755000	1709.649414	-40.817982
11960.947340	2796.755000	1708.630859	-66.013626
11960.947340	2796.755000	1707.611328	-51.333286
11960.947340	2796.755000	1706.592773	-20.245419
11960.947340	2796.755000	1705.573242	74.129860
11960.947340	2796.755000	1704.553711	16.081354
11960.947340	2796.755000	1703.534180	47.116547
11960.947340	2796.755000	1702.513672	-32.010605
11960.947340	2796.755000	1701.494141	48.211971
11960.947340	2796.755000	1700.473633	1.898974
11960.947340	2796.755000	1699.453125	-91.243774
11960.947340	2796.755000	1698.432617	40.439651
11960.947340	2796.755000	1697.412109	26.914736
11960.947340	2796.755000	1696.390625	81.267456
11960.947340	2796.755000	1695.369141	39.643585
11960.947340	2796.755000	1694.347656	56.526199
11960.947340	2796.755000	1693.326172	40.645931
11960.947340	2796.755000	1692.304688	-120.245605
11960.947340	2796.755000	1691.282227	-49.573669
11960.947340	2796.755000	1690.260742	-126.226021
11960.947340	2796.755000	1689.238281	84.665886
11960.947340	2796.755000	1688.214844	-55.098976
11960.947340	2796.755000	1687.192383	-87.323868
11960.947340	2796.755000	1686.168945	-105.525513
11960.947340	2796.755000	1685.146484	-11.602872
11960.947340	2796.755000	1684.123047	70.600166
11960.947340	2796.755000	1683.099609	150.434021
11960.947340	2796.755000	1682.075195	50.479248
11960.947340	2796.755000	1681.051758	-2.756341
11960.947340	2796.755000	1680.027344	-9.307075
11960.947340	2796.755000	1679.002930	159.123749
11960.947340	2796.755000	1677.978516	131.546066
11960.947340	2796.755000	1676.953125	117.967201
11960.947340	2796.755000	1675.928711	109.058052
11960.947340	2796.755000	1674.903320	100.147072
11960.947340	2796.755000	1673.877930	-36.957794
11960.947340	2796.755000	1672.852539	-76.135284
11960.947340	2796.755000	1671.826172	29.154158
11960.947340	2796.755000	1670.800781	73.838264
11960.947340	2796.755000	1669.774414	50.959358
11960.947340	2796.755000	1668.748047	63.016796
11960.947340	2796.755000	1667.721680	75.068848
11960.947340	2796.755000	1666.694336	-3.666701
11960.947340	2796.755000	1665.667969	89.846268
11960.947340	2796.755000	1664.640625	85.594933
11960.947340	2796.755000	1663.613281	88.324226
11960.947340	2796.755000	1662.585938	-15.938819
11960.947340	2796.755000	1661.557617	33.315586
11960.947340	2796.755000	1660.530273	147.654297
11960.947340	2796.755000	1659.501953	73.657784
11960.947340	2796.755000	1658.473633	232.100754
11960.947340	2796.755000	1657.444336	76.787926
11960.947340	2796.755000	1656.416016	46.992218
11960.947340	2796.755000	1655.386719	86.888809
11960.947340	2796.755000	1654.358398	189.476685
11960.947340	2796.755000	1653.328125	280.411377
11960.947340	2796.755000	1652.298828	43.997627
11960.947340	2796.755000	1651.269531	206.881500
11960.947340	2796.755000	1650.239258	56.433632
11960.947340	2796.755000	1649.208984	105.571327
11960.947340	2796.755000	1648.178711	13.196589
11960.947340	2796.755000	1647.148438	162.052277
11960.947340	2796.755000	1646.117188	123.034943
11960.947340	2796.755000	1645.086914	181.405701
11960.947340	2796.755000	1644.055664	195.715775
11960.947340	2796.755000	1643.024414	221.610489
11960.947340	2796.755000	1641.992188	231.277420
11960.947340	2796.755000	1640.960938	254.845795
11960.947340	2796.755000	1639.928711	181.133987
11960.947340	2796.755000	1638.896484	95.876640
11960.947340	2796.755000	1637.864258	214.386902
11960.947340	2796.755000	1636.832031	143.053116
11960.947340	2796.755000	1635.798828	166.631271
11960.947340	2796.755000	1634.766602	125.422905
11960.947340	2796.755000	1633.733398	197.584839
11960.947340	2796.755000	1632.699219	223.463943
11960.947340	2796.755000	1631.666016	161.469116
11960.947340	2796.755000	1630.632813	196.606384
11960.947340	2796.755000	1629.598633	349.620514
11960.947340	2796.755000	1628.564453	91.209969
11960.947340	2796.755000	1627.530273	276.546265
11960.947340	2796.755000	1626.495117	154.559769
11960.947340	2796.755000	1625.460938	205.859528
11960.947340	2796.755000	1624.425781	291.782166
11960.947340	2796.755000	1623.390625	345.354675
11960.947340	2796.755000	1622.355469	241.943451
11960.947340	2796.755000	1621.319336	302.439331
11960.947340	2796.755000	1620.284180	372.151978
11960.947340	2796.755000	1619.248047	338.025482
11960.947340	2796.755000	1618.211914	403.102966
11960.947340	2796.755000	1617.174805	343.628296
11960.947340	2796.755000	1616.138672	122.789963
11960.947340	2796.755000	1615.101563	335.427185
11960.947340	2796.755000	1614.065430	393.572174
11960.947340	2796.755000	1613.027344	297.306458
11960.947340	2796.755000	1611.990234	265.598114
11960.947340	2796.755000	1610.953125	342.173035
11960.947340	2796.755000	1609.915039	386.482239
11960.947340	2796.755000	1608.876953	407.758148
11960.947340	2796.755000	1607.838867	366.878357
11960.947340	2796.755000	1606.800781	360.548096
11960.947340	2796.755000	1605.761719	273.685760
11960.947340	2796.755000	1604.723633	235.185104
11960.947340	2796.755000	1603.684570	307.121429
11960.947340	2796.755000	1602.644531	494.030090
11960.947340	2796.755000	1601.605469	379.656403
11960.947340	2796.755000	1600.566406	387.182343
11960.947340	2796.755000	1599.526367	328.056641
11960.947340	2796.755000	1598.486328	478.088776
11960.947340	2796.755000	1597.446289	301.812073
11960.947340	2796.755000	1596.405273	330.060028
11960.947340	2796.755000	1595.365234	316.969879
11960.947340	2796.755000	1594.324219	225.821259
11960.947340	2796.755000	1593.283203	350.526062
11960.947340	2796.755000	1592.242188	367.312042
11960.947340	2796.755000	1591.200195	452.948242
11960.947340	2796.755000	1590.159180	336.652405
11960.947340	2796.755000	1589.117188	380.993225
11960.947340	2796.755000	1588.075195	278.540405
11960.947340	2796.755000	1587.032227	288.500977
11960.947340	2796.755000	1585.990234	355.789856
11960.947340	2796.755000	1584.947266	264.898743
11960.947340	2796.755000	1583.904297	327.605713
11960.947340	2796.755000	1582.861328	284.900635
11960.947340	2796.755000	1581.818359	228.479965
11960.947340	2796.755000	1580.775391	224.775009
11960.947340	2796.755000	1579.731445	294.362579
11960.947340	2796.755000	1578.687500	354.778534
11960.947340	2796.755000	1577.643555	284.706543
11960.947340	2796.755000	1576.598633	292.488159
11960.947340	2796.755000	1575.554688	215.620010
11960.947340	2796.755000	1574.509766	157.096512
11960.947340	2796.755000	1573.464844	338.776642
11960.947340	2796.755000	1572.419922	387.763062
11960.947340	2796.755000	1571.374023	354.432556
11960.947340	2796.755000	1570.329102	209.120926
11960.947340	2796.755000	1569.283203	258.147430
11960.947340	2796.755000	1568.237305	259.183990
11960.947340	2796.755000	1567.191406	127.728775
11960.947340	2796.755000	1566.144531	201.912521
11960.947340	2796.755000	1565.098633	285.220276
11960.947340	2796.755000	1564.051758	167.582352
11960.947340	2796.755000	1563.004883	246.328720
11960.947340	2796.755000	1561.957031	60.304066
11960.947340	2796.755000	1560.910156	412.903961
11960.947340	2796.755000	1559.862305	201.856644
11960.947340	2796.755000	1558.814453	118.646851
11960.947340	2796.755000	1557.766602	119.867493
11960.947340	2796.755000	1556.718750	278.433258
11960.947340	2796.755000	1555.669922	272.815338
11960.947340	2796.755000	1554.621094	71.203964
11960.947340	2796.755000	1553.573242	206.950409
11960.947340	2796.755000	1552.523438	151.277252
11960.947340	2796.755000	1551.474609	159.427017
11960.947340	2796.755000	1550.424805	44.607765
11960.947340	2796.755000	1549.375000	55.086746
11960.947340	2796.755000	1548.325195	72.409012
11960.947340	2796.755000	1547.275391	171.682114
11960.947340	2796.755000	1546.225586	84.332443
11960.947340	2796.755000	1545.174805	-5.241355
11960.947340	2796.755000	1544.124023	269.198090
11960.947340	2796.755000	1543.073242	127.352097
11960.947340	2796.755000	1542.022461	231.157272
11960.947340	2796.755000	1540.970703	41.669594
11960.947340	2796.755000	1539.919922	145.488953
11960.947340	2796.755000	1538.868164	26.579687
11960.947340	2796.755000	1537.815430	14.522036
11960.947340	2796.755000	1536.763672	166.046661
11960.947340	2796.755000	1535.710938	10.922690
11960.947340	2796.755000	1534.659180	32.997395
11960.947340	2796.755000	1533.606445	-17.566477
11960.947340	2796.755000	1532.552734	136.191696
11960.947340	2796.755000	1531.500000	28.934023
11960.947340	2796.755000	1530.446289	100.982536
11960.947340	2796.755000	1529.393555	300.058838
11960.947340	2796.755000	1528.338867	131.654358
11960.947340	2796.755000	1527.285156	94.858437
11960.947340	2796.755000	1526.231445	153.317551
11960.947340	2796.755000	1525.176758	-60.228497
11960.947340	2796.755000	1524.122070	-33.448471
11960.947340	2796.755000	1523.067383	63.582047
11960.947340	2796.755000	1522.012695	126.615593
11960.947340	2796.755000	1520.957031	119.433083
11960.947340	2796.755000	1519.901367	73.779221
11960.947340	2796.755000	1518.845703	-39.754086
11960.947340	2796.755000	1517.790039	-28.725838
11960.947340	2796.755000	1516.734375	-40.310741
11960.947340	2796.755000	1515.677734	4.696039
11960.947340	2796.755000	1514.621094	104.000534
11960.947340	2796.755000	1513.564453	-61.337593
11960.947340	2796.755000	1512.507813	-90.909081
11960.947340	2796.755000	1511.450195	8.421658
11960.947340	2796.755000	1510.393555	-43.710999
11960.947340	2796.755000	1509.335938	-141.000290
11960.947340	2796.755000	1508.278320	-107.176384
11960.947340	2796.755000	1507.219727	-111.748116
11960.947340	2796.755000	1506.162109	25.999260
11960.947340	2796.755000	1505.103516	41.773064
11960.947340	2796.755000	1504.044922	-3.394738
11960.947340	2796.755000	1502.986328	10.167805
11960.947340	2796.755000	1501.926758	107.250275
11960.947340	2796.755000	1500.868164	-77.728691
11960.947340	2796.755000	1499.808594	-111.463905
11960.947340	2796.755000	1498.749023	-9.833191
11960.947340	2796.755000	1497.688477	6.088864
11960.947340	2796.755000	1496.628906	-41.099117
11960.947340	2796.755000	1495.568359	-52.178680
11960.947340	2796.755000	1494.507813	-45.200603
11960.947340	2796.755000	1493.447266	-11.161883
11960.947340	2796.755000	1492.386719	-13.157190
11960.947340	2796.755000	1491.325195	-57.923096
11960.947340	2796.755000	1490.263672	18.956335
11960.947340	2796.755000	1489.202148	158.870316
11960.947340	2796.755000	1488.140625	-23.140560
11960.947340	2796.755000	1487.079102	-74.522057
11960.947340	2796.755000	1486.016602	-47.105347
11960.947340	2796.755000	1484.954102	-21.924335
11960.947340	2796.755000	1483.891602	-68.703094
11960.947340	2796.755000	1482.829102	145.417801
11960.947340	2796.755000	1481.765625	53.708324
11960.947340	2796.755000	1480.702148	74.449905
11960.947340	2796.755000	1479.638672	45.773453
11960.947340	2796.755000	1478.575195	-16.567581
11960.947340	2796.755000	1477.511719	-47.412022
11960.947340	2796.755000	1476.447266	-80.486847
11960.947340	2796.755000	1475.382813	39.218243
11960.947340	2796.755000	1474.318359	-115.020836
11960.947340	2796.755000	1473.253906	-107.534607
11960.947340	2796.755000	1472.189453	113.097855
11960.947340	2796.755000	1471.124023	-0.566642
11960.947340	2796.755000	1470.058594	-8.735187
11960.947340	2796.755000	1468.993164	-59.488811
11960.947340	2796.755000	1467.927734	-137.033539
11960.947340	2796.755000	1466.861328	47.593769
11960.947340	2796.755000	1465.794922	99.893448
11960.947340	2796.755000	1464.728516	62.744907
11960.947340	2796.755000	1463.662109	56.917694
11960.947340	2796.755000	1462.594727	122.984924
11960.947340	2796.755000	1461.528320	141.592926
11960.947340	2796.755000	1460.460938	153.994858
11960.947340	2796.755000	1459.393555	89.997040
11960.947340	2796.755000	1458.326172	-58.646126
11960.947340	2796.755000	1457.257813	14.064856
11960.947340	2796.755000	1456.189453	93.213074
11960.947340	2796.755000	1455.121094	-77.203911
11960.947340	2796.755000	1454.052734	-66.834038
11960.947340	2796.755000	1452.984375	-1.337953
11960.947340	2796.755000	1451.915039	-31.433819
11960.947340	2796.755000	1450.845703	-14.391215
11960.947340	2796.755000	1449.776367	89.172668
11960.947340	2796.755000	1448.707031	177.054214
11960.947340	2796.755000	1447.636719	71.907906
11960.947340	2796.755000	1446.567383	35.323704
11960.947340	2796.755000	1445.497070	103.420670
11960.947340	2796.755000	1444.425781	59.935669
11960.947340	2796.755000	1443.355469	103.978058
11960.947340	2796.755000	1442.285156	90.051476
11960.947340	2796.755000	1441.213867	-28.843271
11960.947340	2796.755000	1440.142578	57.866272
11960.947340	2796.755000	1439.070313	110.653122
11960.947340	2796.755000	1437.999023	70.007240
11960.947340	2796.755000	1436.926758	24.332224
11960.947340	2796.755000	1435.854492	-33.397236
11960.947340	2796.755000	1434.782227	59.120594
11960.947340	2796.755000	1433.709961	107.151794
11960.947340	2796.755000	1432.636719	31.018158
11960.947340	2796.755000	1431.563477	65.871513
11960.947340	2796.755000	1430.490234	-29.540607
11960.947340	2796.755000	1429.416992	80.651382
11960.947340	2796.755000	1428.343750	31.666199
11960.947340	2796.755000	1427.269531	21.603088
11960.947340	2796.755000	1426.195313	63.729473
11960.947340	2796.755000	1425.121094	27.252834
11960.947340	2796.755000	1424.046875	44.092068
11960.947340	2796.755000	1422.971680	18.999350
11960.947340	2796.755000	1421.896484	52.329395
11960.947340	2796.755000	1420.821289	52.982059
11960.947340	2796.755000	1419.746094	-115.309792
11960.947340	2796.755000	1418.669922	48.324741
11960.947340	2796.755000	1417.594727	-36.353848
11960.947340	2796.755000	1416.518555	-21.476221
11960.947340	2796.755000	1415.442383	98.692551
11960.947340	2796.755000	1414.365234	26.720739
11960.947340	2796.755000	1413.289063	63.002422
11960.947340	2796.755000	1412.211914	49.047249
11960.947340	2796.755000	1411.134766	-21.626245
11960.947340	2796.755000	1410.057617	69.699150
11960.947340	2796.755000	1408.979492	145.424820
11960.947340	2796.755000	1407.902344	49.600864
11960.947340	2796.755000	1406.824219	130.441727
11960.947340	2796.755000	1405.746094	52.470230
11960.947340	2796.755000	1404.666992	56.248955
11960.947340	2796.755000	1403.588867	74.776047
11960.947340	2796.755000	1402.509766	108.071320
11960.947340	2796.755000	1401.430664	225.896744
11960.947340	2796.755000	1400.351563	57.333767
11960.947340	2796.755000	1399.271484	120.750282
11960.947340	2796.755000	1398.192383	82.233536
11960.947340	2796.755000	1397.112305	161.328964
11960.947340	2796.755000	1396.031250	132.560486
11960.947340	2796.755000	1394.951172	51.627987
11960.947340	2796.755000	1393.871094	101.854965
11960.947340	2796.755000	1392.790039	95.650444
11960.947340	2796.755000	1391.708984	74.989044
11960.947340	2796.755000	1390.626953	107.839394
11960.947340	2796.755000	1389.545898	37.734680
11960.947340	2796.755000	1388.463867	19.116669
11960.947340	2796.755000	1387.381836	-62.659252
11960.947340	2796.755000	1386.299805	-39.258213
11960.947340	2796.755000	1385.217773	46.811371
11960.947340	2796.755000	1384.134766	103.586617
11960.947340	2796.755000	1383.051758	200.106903
11960.947340	2796.755000	1381.968750	43.382389
11960.947340	2796.755000	1380.885742	58.341660
11960.947340	2796.755000	1379.802734	255.732666
11960.947340	2796.755000	1378.718750	126.298645
11960.947340	2796.755000	1377.634766	106.459755
11960.947340	2796.755000	1376.550781	103.203171
11960.947340	2796.755000	1375.465820	206.935791
11960.947340	2796.755000	1374.381836	157.052948
11960.947340	2796.755000	1373.296875	18.730417
11960.947340	2796.755000	1372.211914	122.337898
11960.947340	2796.755000	1371.126953	151.772247
11960.947340	2796.755000	1370.041016	93.497574
11960.947340	2796.755000	1368.955078	27.281004
11960.947340	2796.755000	1367.869141	11.353366
11960.947340	2796.755000	1366.783203	115.804863
11960.947340	2796.755000	1365.697266	-11.198623
11960.947340	2796.755000	1364.610352	-2.445317
11960.947340	2796.755000	1363.523438	16.623291
11960.947340	2796.755000	1362.436523	102.688217
11960.947340	2796.755000	1361.349609	273.378235
11960.947340	2796.755000	1360.261719	179.033600
11960.947340	2796.755000	1359.174805	138.986588
11960.947340	2796.755000	1358.086914	63.466694
11960.947340	2796.755000	1356.998047	69.503624
11960.947340	2796.755000	1355.910156	-29.920086
11960.947340	2796.755000	1354.821289	148.392471
11960.947340	2796.755000	1353.732422	133.224701
11960.947340	2796.755000	1352.643555	87.563774
11960.947340	2796.755000	1351.554688	101.726440
11960.947340	2796.755000	1350.464844	148.629272
11960.947340	2796.755000	1349.375000	6.961391
11960.947340	2796.755000	1348.285156	153.210434
11960.947340	2796.755000	1347.195313	144.620865
11960.947340	2796.755000	1346.105469	100.517731
11960.947340	2796.755000	1345.014648	20.135088
11960.947340	2796.755000	1343.923828	111.373863
11960.947340	2796.755000	1342.833008	110.315918
11960.947340	2796.755000	1341.741211	71.922409
11960.947340	2796.755000	1340.650391	76.131905
11960.947340	2796.755000	1339.558594	119.775566
11960.947340	2796.755000	1338.466797	114.323555
11960.947340	2796.755000	1337.374023	-62.154503
11960.947340	2796.755000	1336.282227	66.651878
11960.947340	2796.755000	1335.189453	-11.629133
11960.947340	2796.755000	1334.096680	122.274811
11960.947340	2796.755000	1333.003906	105.637459
11960.947340	2796.755000	1331.910156	209.139832
11960.947340	2796.755000	1330.817383	134.075653
11960.947340	2796.755000	1329.723633	145.192886
11960.947340	2796.755000	1328.629883	162.900009
11960.947340	2796.755000	1327.535156	133.058746
11960.947340	2796.755000	1326.441406	123.952942
11960.947340	2796.755000	1325.346680	64.869247
11960.947340	2796.755000	1324.251953	94.480240
11960.947340	2796.755000	1323.156250	92.730713
11960.947340	2796.755000	1322.061523	81.366783
11960.947340	2796.755000	1320.965820	122.623451
11960.947340	2796.755000	1319.870117	13.512591
11960.947340	2796.755000	1318.774414	37.126305
11960.947340	2796.755000	1317.678711	229.837463
11960.947340	2796.755000	1316.582031	283.950287
11960.947340	2796.755000	1315.485352	112.632896
11960.947340	2796.755000	1314.388672	88.535934
11960.947340	2796.755000	1313.291016	89.574066
11960.947340	2796.755000	1312.194336	30.370577
11960.947340	2796.755000	1311.096680	189.821838
11960.947340	2796.755000	1309.999023	30.144690
11960.947340	2796.755000	1308.901367	-20.173285
11960.947340	2796.755000	1307.802734	17.595116
11960.947340	2796.755000	1306.705078	77.947578
11960.947340	2796.755000	1305.606445	116.915352
11960.947340	2796.755000	1304.506836	52.855709
11960.947340	2796.755000	1303.408203	-36.891949
11960.947340	2796.755000	1302.308594	15.910730
11960.947340	2796.755000	1301.208984	73.154297
11960.947340	2796.755000	1300.109375	209.568039
11960.947340	2796.755000	1299.009766	92.930099
11960.947340	2796.755000	1297.909180	120.157204
11960.947340	2796.755000	1296.808594	88.909882
11960.947340	2796.755000	1295.708008	97.156685
11960.947340	2796.755000	1294.607422	56.556587
11960.947340	2796.755000	1293.506836	5.242695
11960.947340	2796.755000	1292.405273	-4.910190
11960.947340	2796.755000	1291.303711	92.286713
11960.947340	2796.755000	1290.202148	45.622761
11960.947340	2796.755000	1289.099609	116.380974
11960.947340	2796.755000	1287.998047	-56.838791
11960.947340	2796.755000	1286.895508	28.316351
11960.947340	2796.755000	1285.792969	-14.452166
11960.947340	2796.755000	1284.689453	27.192921
11960.947340	2796.755000	1283.586914	16.956852
11960.947340	2796.755000	1282.483398	-97.511513
11960.947340	2796.755000	1281.379883	-11.796914
11960.947340	2796.755000	1280.276367	87.149269
11960.947340	2796.755000	1279.171875	-13.362021
11960.947340	2796.755000	1278.067383	-70.491730
11960.947340	2796.755000	1276.962891	-4.733228
11960.947340	2796.755000	1275.858398	40.776566
11960.947340	2796.755000	1274.753906	-11.270178
11960.947340	2796.755000	1273.648438	-111.608871
11960.947340	2796.755000	1272.542969	-15.442000
11960.947340	2796.755000	1271.437500	-30.546135
11960.947340	2796.755000	1270.331055	-60.793884
11960.947340	2796.755000	1269.225586	6.991971
11960.947340	2796.755000	1268.119141	-103.266579
11960.947340	2796.755000	1267.012695	-30.735920
11960.947340	2796.755000	1265.906250	9.557378
11960.947340	2796.755000	1264.798828	-111.212387
11960.947340	2796.755000	1263.691406	-44.274124
11960.947340	2796.755000	1262.583984	16.093159
11960.947340	2796.755000	1261.476563	-172.247467
11960.947340	2796.755000	1260.368164	-10.660258
11960.947340	2796.755000	1259.260742	-6.261556
11960.947340	2796.755000	1258.152344	-67.333374
11960.947340	2796.755000	1257.043945	-49.547520
11960.947340	2796.755000	1255.934570	-120.745277
11960.947340	2796.755000	1254.825195	-13.968585
11960.947340	2796.755000	1253.716797	-68.707619
11960.947340	2796.755000	1252.606445	-98.162086
11960.947340	2796.755000	1251.497070	-132.674194
11960.947340	2796.755000	1250.387695	28.317101
11960.947340	2796.755000	1249.277344	-8.085612
11960.947340	2796.755000	1248.166992	58.734409
11960.947340	2796.755000	1247.055664	-12.483050
11960.947340	2796.755000	1245.945313	-103.516029
11960.947340	2796.755000	1244.833984	40.582535
11960.947340	2796.755000	1243.722656	-51.042301
11960.947340	2796.755000	1242.611328	-29.162222
11960.947340	2796.755000	1241.499023	0.403484
11960.947340	2796.755000	1240.387695	-53.897655
11960.947340	2796.755000	1239.275391	-23.928614
11960.947340	2796.755000	1238.162109	30.136093
11960.947340	2796.755000	1237.049805	5.516936
11960.947340	2796.755000	1235.936523	57.203976
11960.947340	2796.755000	1234.823242	101.094704
11960.947340	2796.755000	1233.709961	39.035099
11960.947340	2796.755000	1232.596680	-25.598562
11960.947340	2796.755000	1231.482422	55.229416
11960.947340	2796.755000	1230.369141	94.437256
11960.947340	2796.755000	1229.253906	6.172520
11960.947340	2796.755000	1228.139648	45.988907
11960.947340	2796.755000	1227.025391	4.765874
11960.947340	2796.755000	1225.910156	25.445866
11960.947340	2796.755000	1224.794922	-67.829491
11960.947340	2796.755000	1223.679688	38.267254
11960.947340	2796.755000	1222.563477	-47.858089
11960.947340	2796.755000	1221.447266	23.787191
11960.947340	2796.755000	1220.331055	-66.813698
11960.947340	2796.755000	1219.214844	0.262385
11960.947340	2796.755000	1218.098633	62.147572
11960.947340	2796.755000	1216.981445	46.439083
11960.947340	2796.755000	1215.864258	59.438721
11960.947340	2796.755000	1214.747070	5.360162
11960.947340	2796.755000	1213.629883	-59.368073
11960.947340	2796.755000	1212.511719	-56.904633
11960.947340	2796.755000	1211.393555	39.020561
11960.947340	2796.755000	1210.275391	28.510839
11960.947340	2796.755000	1209.157227	-32.306549
11960.947340	2796.755000	1208.038086	55.928783
11960.947340	2796.755000	1206.918945	-45.223515
11960.947340	2796.755000	1205.799805	1.103065
11960.947340	2796.755000	1204.680664	8.219377
11960.947340	2796.755000	1203.560547	-81.336960
11960.947340	2796.755000	1202.441406	33.281116
11960.947340	2796.755000	1201.321289	52.155857
11960.947340	2796.755000	1200.200195	82.461388
11960.947340	2796.755000	1199.080078	-13.664676
11960.947340	2796.755000	1197.958984	3.898962
11960.947340	2796.755000	1196.837891	-74.521408
11960.947340	2796.755000	1195.716797	-14.060726
11960.947340	2796.755000	1194.594727	-6.784924
11960.947340	2796.755000	1193.473633	38.226395
11960.947340	2796.755000	1192.351563	-76.367447
11960.947340	2796.755000	1191.229492	-30.707401
11960.947340	2796.755000	1190.106445	-2.000539
11960.947340	2796.755000	1188.984375	-15.233635
11960.947340	2796.755000	1187.861328	-23.659519
11960.947340	2796.755000	1186.738281	-39.307793
11960.947340	2796.755000	1185.614258	12.110557
11960.947340	2796.755000	1184.491211	-10.084069
11960.947340	2796.755000	1183.367188	30.646471
11960.947340	2796.755000	1182.243164	88.397606
11960.947340	2796.755000	1181.119141	15.513905
11960.947340	2796.755000	1179.994141	-48.198078
11960.947340	2796.755000	1178.869141	34.041195
11960.947340	2796.755000	1177.744141	54.503540
11960.947340	2796.755000	1176.619141	72.783531
11960.947340	2796.755000	1175.493164	55.266308
11960.947340	2796.755000	1174.368164	41.258751
11960.947340	2796.755000	1173.242188	-39.949654
11960.947340	2796.755000	1172.115234	-0.365919
11960.947340	2796.755000	1170.989258	2.367179
11960.947340	2796.755000	1169.862305	-27.231918
11960.947340	2796.755000	1168.735352	98.526566
11960.947340	2796.755000	1167.608398	1.264551
11960.947340	2796.755000	1166.481445	-67.223175
11960.947340	2796.755000	1165.353516	-65.710228
11960.947340	2796.755000	1164.225586	20.050833
11960.947340	2796.755000	1163.097656	-104.911331
11960.947340	2796.755000	1161.968750	-90.218979
11960.947340	2796.755000	1160.840820	-18.761787
11960.947340	2796.755000	1159.711914	44.407249
11960.947340	2796.755000	1158.583008	63.713837
11960.947340	2796.755000	1157.453125	69.189484
11960.947340	2796.755000	1156.324219	5.884550
11960.947340	2796.755000	1155.194336	85.073112
11960.947340	2796.755000	1154.064453	-30.100332
11960.947340	2796.755000	1152.933594	-120.458305
11960.947340	2796.755000	1151.803711	106.396805
11960.947340	2796.755000	1150.672852	7.477761
11960.947340	2796.755000	1149.541992	-6.080641
11960.947340	2796.755000	1148.411133	-40.547565
11960.947340	2796.755000	1147.279297	-64.029274
11960.947340	2796.755000	1146.147461	-32.733723
11960.947340	2796.755000	1145.015625	39.374626
11960.947340	2796.755000	1143.883789	-40.777088
11960.947340	2796.755000	1142.750977	60.924545
11960.947340	2796.755000	1141.619141	-60.964924
11960.947340	2796.755000	1140.486328	-42.744926
11960.947340	2796.755000	1139.352539	74.711349
11960.947340	2796.755000	1138.219727	-6.103460
11960.947340	2796.755000	1137.085938	36.427650
11960.947340	2796.755000	1135.952148	-26.981276
11960.947340	2796.755000	1134.818359	28.656977
11960.947340	2796.755000	1133.683594	47.909355
11960.947340	2796.755000	1132.549805	119.008858
11960.947340	2796.755000	1131.415039	211.927841
11960.947340	2796.755000	1130.279297	243.172058
11960.947340	2796.755000	1129.144531	141.268005
11960.947340	2796.755000	1128.008789	207.053741
11960.947340	2796.755000	1126.873047	134.197495
11960.947340	2796.755000	1125.737305	122.817848
11960.947340	2796.755000	1124.601563	257.939636
11960.947340	2796.755000	1123.464844	173.300110
11960.947340	2796.755000	1122.328125	100.831261
11960.947340	2796.755000	1121.191406	116.207336
11960.947340	2796.755000	1120.054688	129.700729
11960.947340	2796.755000	1118.916992	84.199532
11960.947340	2796.755000	1117.779297	98.952194
11960.947340	2796.755000	1116.641602	92.133469
11960.947340	2796.755000	1115.503906	77.458122
11960.947340	2796.755000	1114.365234	134.855240
11960.947340	2796.755000	1113.226563	121.887772
11960.947340	2796.755000	1112.087891	79.589363
11960.947340	2796.755000	1110.949219	197.350571
11960.947340	2796.755000	1109.809570	105.180519
11960.947340	2796.755000	1108.669922	25.785778
11960.947340	2796.755000	1107.530273	21.271273
11960.947340	2796.755000	1106.390625	77.718498
11960.947340	2796.755000	1105.250000	101.945122
11960.947340	2796.755000	1104.109375	31.282764
11960.947340	2796.755000	1102.968750	127.385696
11960.947340	2796.755000	1101.828125	57.664997
11960.947340	2796.755000	1100.686523	30.315723
11960.947340	2796.755000	1099.544922	50.867332
11960.947340	2796.755000	1098.403320	151.370071
11960.947340	2796.755000	1097.261719	242.195023
11960.947340	2796.755000	1096.120117	116.906586
11960.947340	2796.755000	1094.977539	109.496147
11960.947340	2796.755000	1093.834961	131.342850
11960.947340	2796.755000	1092.691406	265.188049
11960.947340	2796.755000	1091.548828	113.046516
11960.947340	2796.755000	1090.405273	175.716873
11960.947340	2796.755000	1089.261719	140.619843
11960.947340	2796.755000	1088.118164	180.804230
11960.947340	2796.755000	1086.973633	159.972748
11960.947340	2796.755000	1085.829102	99.582802
11960.947340	2796.755000	1084.684570	152.546463
11960.947340	2796.755000	1083.540039	97.999481
11960.947340	2796.755000	1082.395508	107.242126
11960.947340	2796.755000	1081.250000	101.343277
11960.947340	2796.755000	1080.104492	0.031393
11960.947340	2796.755000	1078.958984	97.800117
11960.947340	2796.755000	1077.812500	-38.141094
11960.947340	2796.755000	1076.666016	29.942131
11960.947340	2796.755000	1075.519531	68.233383
11960.947340	2796.755000	1074.373047	96.449471
11960.947340	2796.755000	1073.226563	61.777893
11960.947340	2796.755000	1072.079102	183.049637
11960.947340	2796.755000	1070.931641	267.265747
11960.947340	2796.755000	1069.784180	139.829056
11960.947340	2796.755000	1068.635742	212.596893
11960.947340	2796.755000	1067.487305	113.728043
11960.947340	2796.755000	1066.338867	122.503799
11960.947340	2796.755000	1065.190430	146.216156
11960.947340	2796.755000	1064.041992	88.267990
11960.947340	2796.755000	1062.892578	111.953049
11960.947340	2796.755000	1061.743164	209.944397
11960.947340	2796.755000	1060.593750	84.293800
11960.947340	2796.755000	1059.443359	113.780365
11960.947340	2796.755000	1058.292969	146.647491
11960.947340	2796.755000	1057.142578	127.641319
11960.947340	2796.755000	1055.992188	93.489410
11960.947340	2796.755000	1054.841797	46.836334
11960.947340	2796.755000	1053.690430	166.704285
11960.947340	2796.755000	1052.539063	140.715652
11960.947340	2796.755000	1051.387695	41.749382
11960.947340	2796.755000	1050.235352	92.518555
11960.947340	2796.755000	1049.083984	118.932106
11960.947340	2796.755000	1047.931641	29.158794
11960.947340	2796.755000	1046.778320	109.455475
11960.947340	2796.755000	1045.625977	4.436244
11960.947340	2796.755000	1044.472656	40.258560
11960.947340	2796.755000	1043.319336	48.482933
11960.947340	2796.755000	1042.166016	26.692425
11960.947340	2796.755000	1041.012695	20.520395
11960.947340	2796.755000	1039.858398	123.053825
11960.947340	2796.755000	1038.704102	134.342560
11960.947340	2796.755000	1037.549805	129.907623
11960.947340	2796.755000	1036.394531	20.691963
11960.947340	2796.755000	1035.239258	63.730778
11960.947340	2796.755000	1034.083984	-60.921658
11960.947340	2796.755000	1032.928711	88.118027
11960.947340	2796.755000	1031.773438	68.076950
11960.947340	2796.755000	1030.617188	157.324234
11960.947340	2796.755000	1029.460938	90.295563
11960.947340	2796.755000	1028.304688	91.188774
11960.947340	2796.755000	1027.147461	53.629787
11960.947340	2796.755000	1025.991211	98.464142
11960.947340	2796.755000	1024.833984	51.362541
11960.947340	2796.755000	1023.675781	63.735188
11960.947340	2796.755000	1022.518555	36.558075
11960.947340	2796.755000	1021.360352	52.113163
11960.947340	2796.755000	1020.202148	16.075020
11960.947340	2796.755000	1019.043945	96.363167
11960.947340	2796.755000	1017.884766	125.588799
11960.947340	2796.755000	1016.726563	23.841307
11960.947340	2796.755000	1015.567383	54.381550
11960.947340	2796.755000	1014.407227	-99.171768
11960.947340	2796.755000	1013.248047	42.103844
11960.947340	2796.755000	1012.087891	8.769458
11960.947340	2796.755000	1010.927734	5.174070
11960.947340	2796.755000	1009.767578	21.255764
11960.947340	2796.755000	1008.606445	80.643715
11960.947340	2796.755000	1007.446289	-2.414770
11960.947340	2796.755000	1006.285156	68.168625
11960.947340	2796.755000	1005.123047	20.603443
11960.947340	2796.755000	1003.961914	-55.912739
11960.947340	2796.755000	1002.799805	25.977375
11960.947340	2796.755000	1001.637695	37.438789
11960.947340	2796.755000	1000.475586	77.311462
11960.947340	2796.755000	999.312500	207.506210
11960.947340	2796.755000	998.149414	19.269646
11960.947340	2796.755000	996.986328	-5.031441
11960.947340	2796.755000	995.823242	-49.618614
11960.947340	2796.755000	994.659180	75.158173
11960.947340	2796.755000	993.496094	67.630013
11960.947340	2796.755000	992.332031	-17.961716
11960.947340	2796.755000	991.166992	12.381116
11960.947340	2796.755000	990.002930	104.345131
11960.947340	2796.755000	988.837891	40.721455
11960.947340	2796.755000	987.672852	-126.346733
11960.947340	2796.755000	986.506836	138.171417
11960.947340	2796.755000	985.341797	-48.305466
11960.947340	2796.755000	984.175781	-68.547852
11960.947340	2796.755000	983.009766	-16.911049
11960.947340	2796.755000	981.843750	13.938066
11960.947340	2796.755000	980.676758	19.207539
11960.947340	2796.755000	979.509766	52.866795
11960.947340	2796.755000	978.342773	-47.357483
11960.947340	2796.755000	977.175781	-108.407066
11960.947340	2796.755000	976.007813	-77.603729
11960.947340	2796.755000	974.839844	88.722679
11960.947340	2796.755000	973.671875	-47.864735
11960.947340	2796.755000	972.503906	-132.608032
11960.947340	2796.755000	971.334961	-23.483307
11960.947340	2796.755000	970.166016	-4.767166
11960.947340	2796.755000	968.997070	-99.451180
11960.947340	2796.755000	967.828125	-27.640192
11960.947340	2796.755000	966.658203	10.967971
11960.947340	2796.755000	965.488281	-45.993088
11960.947340	2796.755000	964.318359	154.699905
11960.947340	2796.755000	963.148438	88.259476
11960.947340	2796.755000	961.977539	69.585922
11960.947340	2796.755000	960.806641	8.951072
11960.947340	2796.755000	959.635742	35.561096
11960.947340	2796.755000	958.463867	1.614126
11960.947340	2796.755000	957.292969	94.515068
11960.947340	2796.755000	956.121094	-43.614380
11960.947340	2796.755000	954.948242	93.902657
11960.947340	2796.755000	953.776367	159.232346
11960.947340	2796.755000	952.603516	46.221466
11960.947340	2796.755000	951.430664	27.383577
11960.947340	2796.755000	950.257813	43.016174
11960.947340	2796.755000	949.084961	13.580328
11960.947340	2796.755000	947.911133	-41.263008
11960.947340	2796.755000	946.737305	29.133560
11960.947340	2796.755000	945.563477	121.381973
11960.947340	2796.755000	944.388672	21.759878
11960.947340	2796.755000	943.213867	-50.791866
11960.947340	2796.755000	942.039063	44.060368
11960.947340	2796.755000	940.864258	48.479305
11960.947340	2796.755000	939.688477	111.710815
11960.947340	2796.755000	938.513672	-28.772110
11960.947340	2796.755000	937.337891	56.995281
11960.947340	2796.755000	936.161133	9.279217
11960.947340	2796.755000	934.985352	90.491669
11960.947340	2796.755000	933.808594	60.931847
11960.947340	2796.755000	932.631836	87.828743
11960.947340	2796.755000	931.454102	17.521465
11960.947340	2796.755000	930.277344	28.650049
11960.947340	2796.755000	929.099609	71.328598
11960.947340	2796.755000	927.921875	34.968746
11960.947340	2796.755000	926.743164	46.012112
11960.947340	2796.755000	925.565430	165.425430
11960.947340	2796.755000	924.386719	27.480494
11960.947340	2796.755000	923.208008	20.473701
11960.947340	2796.755000	922.028320	-24.896507
11960.947340	2796.755000	920.849609	-11.596954
11960.947340	2796.755000	919.669922	-10.931099
11960.947340	2796.755000	919.474609	33.379528
11960.947340	2796.755000	918.309570	-34.532768
11960.947340	2796.755000	917.143555	86.955276
11960.947340	2796.755000	915.977539	-186.065460
11960.947340	2796.755000	914.810547	-17.278913
11960.947340	2796.755000	913.644531	20.753416
11960.947340	2796.755000	912.477539	-38.097187
11960.947340	2796.755000	911.310547	-83.415131
11960.947340	2796.755000	910.143555	60.427624
11960.947340	2796.755000	908.975586	15.101128
11960.947340	2796.755000	907.807617	102.587875
11960.947340	2796.755000	906.639648	-152.020721
11960.947340	2796.755000	905.471680	-6.044872
11960.947340	2796.755000	904.303711	-24.342386
11960.947340	2796.755000	903.134766	58.569763
11960.947340	2796.755000	901.965820	20.023684
11960.947340	2796.755000	900.796875	21.955999
11960.947340	2796.755000	899.626953	35.122673
11960.947340	2796.755000	898.457031	37.045273
11960.947340	2796.755000	897.287109	29.977312
11960.947340	2796.755000	896.117188	29.648375
11960.947340	2796.755000	894.947266	-6.615764
11960.947340	2796.755000	893.776367	-40.621655
11960.947340	2796.755000	892.605469	48.851002
11960.947340	2796.755000	891.434570	-39.023384
11960.947340	2796.755000	890.262695	72.848030
11960.947340	2796.755000	889.091797	97.174828
11960.947340	2796.755000	887.919922	-40.008747
11960.947340	2796.755000	886.748047	6.752954
11960.947340	2796.755000	885.575195	-20.496052
11960.947340	2796.755000	884.403320	-7.386027
11960.947340	2796.755000	883.230469	41.576237
11960.947340	2796.755000	882.057617	-97.705849
11960.947340	2796.755000	880.883789	128.234573
11960.947340	2796.755000	879.710938	-17.731298
11960.947340	2796.755000	878.537109	-56.148842
11960.947340	2796.755000	877.362305	33.066486
11960.947340	2796.755000	876.188477	37.182377
11960.947340	2796.755000	875.013672	-153.410522
11960.947340	2796.755000	873.839844	58.830372
11960.947340	2796.755000	872.664063	29.378685
11960.947340	2796.755000	871.489258	49.143742
11960.947340	2796.755000	870.313477	19.703667
11960.947340	2796.755000	869.138672	17.103010
11960.947340	2796.755000	867.962891	41.326145
11960.947340	2796.755000	866.786133	-46.201096
11960.947340	2796.755000	865.610352	18.240641
11960.947340	2796.755000	864.433594	-42.440941
11960.947340	2796.755000	863.256836	37.606781
11960.947340	2796.755000	862.079102	17.137724
11960.947340	2796.755000	860.902344	170.811661
11960.947340	2796.755000	859.724609	-12.617016
11960.947340	2796.755000	858.546875	-93.317688
11960.947340	2796.755000	857.368164	75.901070
11960.947340	2796.755000	856.190430	-49.399113
11960.947340	2796.755000	855.011719	46.143051
11960.947340	2796.755000	853.833008	-9.977733
11960.947340	2796.755000	852.654297	-25.948936
11960.947340	2796.755000	851.474609	-86.490288
11960.947340	2796.755000	850.294922	-109.124680
11960.947340	2796.755000	849.115234	-71.595734
11960.947340	2796.755000	847.935547	-83.087021
11960.947340	2796.755000	846.754883	32.366295
11960.947340	2796.755000	845.575195	3.045062
11960.947340	2796.755000	844.393555	-50.750519
11960.947340	2796.755000	843.212891	-35.529594
11960.947340	2796.755000	842.032227	6.387007
11960.947340	2796.755000	840.850586	-107.444588
11960.947340	2796.755000	839.668945	-72.203033
11960.947340	2796.755000	838.486328	-121.481140
11960.947340	2796.755000	837.304688	9.352515
11960.947340	2796.755000	836.122070	-95.494614
11960.947340	2796.755000	834.939453	21.944803
11960.947340	2796.755000	833.756836	81.564308
11960.947340	2796.755000	832.573242	-56.556049
11960.947340	2796.755000	831.389648	-16.934315
11960.947340	2796.755000	830.206055	-28.403494
11960.947340	2796.755000	829.022461	-70.949928
11960.947340	2796.755000	827.838867	-13.592671
11960.947340	2796.755000	826.654297	-96.071030
11960.947340	2796.755000	825.469727	-49.826885
11960.947340	2796.755000	824.284180	34.110420
11960.947340	2796.755000	823.099609	24.861542
11960.947340	2796.755000	821.914063	33.356560
11960.947340	2796.755000	820.728516	19.677521
11960.947340	2796.755000	819.542969	39.251640
11960.947340	2796.755000	818.356445	-29.823978
11960.947340	2796.755000	817.169922	18.554186
11960.947340	2796.755000	815.983398	62.481316
11960.947340	2796.755000	814.796875	-59.709614
11960.947340	2796.755000	813.609375	-99.924446
11960.947340	2796.755000	812.422852	17.052197
11960.947340	2796.755000	811.235352	80.861305
11960.947340	2796.755000	810.046875	31.789446
11960.947340	2796.755000	808.859375	93.355713
11960.947340	2796.755000	807.670898	-35.329201
11960.947340	2796.755000	806.482422	70.453461
11960.947340	2796.755000	805.293945	101.017113
11960.947340	2796.755000	804.104492	-34.223297
11960.947340	2796.755000	802.915039	16.239044
11960.947340	2796.755000	801.725586	124.129677
11960.947340	2796.755000	800.536133	35.357704
11960.947340	2796.755000	799.345703	-46.751778
11960.947340	2796.755000	798.155273	21.333439
11960.947340	2796.755000	796.964844	7.700197
11960.947340	2796.755000	795.774414	117.682411
11960.947340	2796.755000	794.583008	92.997742
11960.947340	2796.755000	793.392578	72.734589
11960.947340	2796.755000	792.200195	43.654922
11960.947340	2796.755000	791.008789	-58.196732
11960.947340	2796.755000	789.816406	-111.495857
11960.947340	2796.755000	788.625000	97.572021
11960.947340	2796.755000	787.432617	108.179077
11960.947340	2796.755000	786.239258	19.613798
11960.947340	2796.755000	785.046875	-22.649178
11960.947340	2796.755000	783.853516	120.136520
11960.947340	2796.755000	782.660156	73.461594
11960.947340	2796.755000	781.465820	33.409851
11960.947340	2796.755000	780.272461	48.406635
11960.947340	2796.755000	779.078125	-44.451607
11960.947340	2796.755000	777.883789	67.372208
11960.947340	2796.755000	776.688477	-18.856485
11960.947340	2796.755000	775.494141	-1.671801
11960.947340	2796.755000	774.298828	110.064667
11960.947340	2796.755000	773.103516	149.196152
11960.947340	2796.755000	771.907227	113.569633
11960.947340	2796.755000	770.711914	159.271103
11960.947340	2796.755000	769.515625	70.915039
11960.947340	2796.755000	768.318359	-30.588045
11960.947340	2796.755000	767.122070	-6.859170
11960.947340	2796.755000	765.924805	36.619427
11960.947340	2796.755000	764.727539	123.985909
11960.947340	2796.755000	763.530273	-3.799395
11960.947340	2796.755000	762.333008	6.721409
11960.947340	2796.755000	761.134766	-74.918221
11960.947340	2796.755000	759.936523	16.769489
11960.947340	2796.755000	758.738281	101.835205
11960.947340	2796.755000	757.540039	-1.713882
11960.947340	2796.755000	756.340820	133.732819
11960.947340	2796.755000	755.141602	38.978531
11960.947340	2796.755000	753.942383	169.967941
11960.947340	2796.755000	752.742188	127.817001
11960.947340	2796.755000	751.541992	24.346504
11960.947340	2796.755000	750.341797	21.652517
11960.947340	2796.755000	749.141602	36.470257
11960.947340	2796.755000	747.941406	211.078888
11960.947340	2796.755000	746.740234	11.355556
11960.947340	2796.755000	745.539063	109.299301
11960.947340	2796.755000	744.337891	82.496902
11960.947340	2796.755000	743.135742	-5.543165
11960.947340	2796.755000	741.933594	177.609299
11960.947340	2796.755000	740.731445	157.350174
11960.947340	2796.755000	739.529297	99.932220
11960.947340	2796.755000	738.326172	186.769669
11960.947340	2796.755000	737.124023	135.911102
11960.947340	2796.755000	735.919922	296.964172
11960.947340	2796.755000	734.716797	307.242828
11960.947340	2796.755000	733.513672	300.041168
11960.947340	2796.755000	732.309570	205.509659
11960.947340	2796.755000	731.105469	202.682602
11960.947340	2796.755000	729.900391	258.769531
11960.947340	2796.755000	728.696289	146.827942
11960.947340	2796.755000	727.491211	183.254654
11960.947340	2796.755000	726.286133	165.136673
11960.947340	2796.755000	725.080078	90.327103
11960.947340	2796.755000	723.874023	226.995483
11960.947340	2796.755000	722.668945	204.494507
11960.947340	2796.755000	721.461914	314.915924
11960.947340	2796.755000	720.255859	146.423569
11960.947340	2796.755000	719.048828	91.255455
11960.947340	2796.755000	717.841797	38.278419
11960.947340	2796.755000	716.634766	118.123680
11960.947340	2796.755000	715.427734	54.260319
11960.947340	2796.755000	714.219727	-22.643675
11960.947340	2796.755000	713.011719	74.542244
11960.947340	2796.755000	711.803711	1.996642
11960.947340	2796.755000	710.594727	231.786896
11960.947340	2796.755000	709.385742	65.715927
11960.947340	2796.755000	708.176758	47.537514
11960.947340	2796.755000	706.967773	88.042030
11960.947340	2796.755000	705.758789	-56.195454
11960.947340	2796.755000	704.548828	84.233696
11960.947340	2796.755000	703.338867	37.784801
11960.947340	2796.755000	702.127930	36.949986
11960.947340	2796.755000	700.917969	-48.575729
11960.947340	2796.755000	699.707031	143.788712
11960.947340	2796.755000	698.496094	-39.413933
11960.947340	2796.755000	697.285156	59.537891
11960.947340	2796.755000	696.073242	-88.882294
11960.947340	2796.755000	694.861328	44.718399
11960.947340	2796.755000	693.649414	82.834480
11960.947340	2796.755000	692.436523	25.525864
11960.947340	2796.755000	691.224609	122.130806
11960.947340	2796.755000	690.011719	27.970943
11960.947340	2796.755000	688.798828	9.673107
11960.947340	2796.755000	687.584961	104.015450
11960.947340	2796.755000	686.372070	14.211308
11960.947340	2796.755000	685.158203	52.187714
11960.947340	2796.755000	683.943359	59.826347
11960.947340	2796.755000	682.729492	121.558884
11960.947340	2796.755000	681.514648	135.644318
11960.947340	2796.755000	680.299805	104.275978
11960.947340	2796.755000	679.084961	77.233055
11960.947340	2796.755000	677.869141	89.114418
11960.947340	2796.755000	676.653320	109.625656
11960.947340	2796.755000	675.437500	149.569382
11960.947340	2796.755000	674.221680	81.418655
11960.947340	2796.755000	673.004883	32.729347
11960.947340	2796.755000	671.789063	1.329333
11960.947340	2796.755000	670.571289	64.962601
11960.947340	2796.755000	669.354492	128.554901
11960.947340	2796.755000	668.136719	101.427521
11960.947340	2796.755000	666.919922	126.101791
11960.947340	2796.755000	665.701172	172.330856
11960.947340	2796.755000	664.483398	177.530350
11960.947340	2796.755000	663.264648	117.998055
11960.947340	2796.755000	662.045898	112.392822
11960.947340	2796.755000	660.827148	126.180389
11960.947340	2796.755000	659.608398	277.918335
11960.947340	2796.755000	658.388672	134.294220
11960.947340	2796.755000	657.168945	-13.594517
11960.947340	2796.755000	655.949219	94.940521
11960.947340	2796.755000	654.728516	48.327641
11960.947340	2796.755000	653.507813	21.100317
11960.947340	2796.755000	652.287109	64.919632
11960.947340	2796.755000	651.066406	50.583881
11960.947340	2796.755000	649.844727	36.238129
11960.947340	2796.755000	648.623047	123.012100
11960.947340	2796.755000	647.401367	3.213382
11960.947340	2796.755000	646.179688	143.694962
11960.947340	2796.755000	644.957031	195.936844
11960.947340	2796.755000	643.734375	183.643982
11960.947340	2796.755000	642.511719	167.041000
11960.947340	2796.755000	641.289063	-27.936090
11960.947340	2796.755000	640.065430	99.430443
11960.947340	2796.755000	638.841797	35.548782
11960.947340	2796.755000	637.618164	106.977516
11960.947340	2796.755000	636.393555	-42.798054
11960.947340	2796.755000	635.168945	-68.018143
11960.947340	2796.755000	633.944336	54.847046
11960.947340	2796.755000	632.719727	51.042145
11960.947340	2796.755000	631.494141	-23.574535
11960.947340	2796.755000	630.269531	114.168106
11960.947340	2796.755000	629.042969	37.391827
11960.947340	2796.755000	627.817383	-5.064149
11960.947340	2796.755000	626.590820	51.083149
11960.947340	2796.755000	625.365234	205.771057
11960.947340	2796.755000	624.137695	45.412693
11960.947340	2796.755000	622.911133	-35.633499
11960.947340	2796.755000	621.683594	56.815262
11960.947340	2796.755000	620.456055	57.134693
11960.947340	2796.755000	619.228516	36.029930
11960.947340	2796.755000	618.000977	68.426804
11960.947340	2796.755000	616.772461	-27.600163
11960.947340	2796.755000	615.543945	88.200790
11960.947340	2796.755000	614.314453	-7.822404
11960.947340	2796.755000	613.085938	-20.418154
11960.947340	2796.755000	611.856445	82.430641
11960.947340	2796.755000	610.626953	1.385463
11960.947340	2796.755000	609.397461	33.628044
11960.947340	2796.755000	608.166992	-8.943906
11960.947340	2796.755000	606.936523	-77.148346
11960.947340	2796.755000	605.706055	-8.648745
11960.947340	2796.755000	604.474609	-32.014217
11960.947340	2796.755000	603.244141	15.067592
11960.947340	2796.755000	602.012695	-48.877583
11960.947340	2796.755000	600.780273	136.864212
11960.947340	2796.755000	599.548828	0.350513
11960.947340	2796.755000	598.316406	2.528403
11960.947340	2796.755000	597.083984	30.282194
11960.947340	2796.755000	595.851563	4.705770
11960.947340	2796.755000	594.618164	-35.797382
11960.947340	2796.755000	593.384766	57.971069
11960.947340	2796.755000	592.151367	47.276405
11960.947340	2796.755000	590.917969	-14.556035
11960.947340	2796.755000	589.683594	-46.558823
11960.947340	2796.755000	588.449219	-35.973022
11960.947340	2796.755000	587.214844	-10.502579
11960.947340	2796.755000	585.979492	36.227631
11960.947340	2796.755000	584.745117	2.059153
11960.947340	2796.755000	583.509766	-0.195436
11960.947340	2796.755000	582.273438	-66.277695
11960.947340	2796.755000	581.038086	-43.021778
11960.947340	2796.755000	579.801758	-45.304626
11960.947340	2796.755000	578.565430	-7.208495
11960.947340	2796.755000	577.329102	115.873238
11960.947340	2796.755000	576.091797	45.522682
11960.947340	2796.755000	574.854492	68.665901
11960.947340	2796.755000	573.617188	-3.792123
11960.947340	2796.755000	572.378906	-42.255638
11960.947340	2796.755000	571.141602	67.903275
11960.947340	2796.755000	569.903320	-0.298394
11960.947340	2796.755000	568.664063	24.892467
11960.947340	2796.755000	567.425781	-5.102229
11960.947340	2796.755000	566.186523	-54.187401
11960.947340	2796.755000	564.947266	-50.241096
11960.947340	2796.755000	563.708008	30.026443
11960.947340	2796.755000	562.467773	91.168938
11960.947340	2796.755000	561.227539	101.408463
11960.947340	2796.755000	559.987305	-38.816296
11960.947340	2796.755000	558.747070	11.679936
11960.947340	2796.755000	557.505859	-54.351883
11960.947340	2796.755000	556.264648	-63.187695
11960.947340	2796.755000	555.023438	-48.739395
11960.947340	2796.755000	553.781250	-38.540707
11960.947340	2796.755000	552.539063	-125.704956
11960.947340	2796.755000	551.296875	2.976562
11960.947340	2796.755000	550.054688	46.979160
11960.947340	2796.755000	548.811523	-54.977009
11960.947340	2796.755000	547.569336	63.010654
11960.947340	2796.755000	546.325195	-47.378300
11960.947340	2796.755000	545.082031	21.928942
11960.947340	2796.755000	543.837891	15.125373
11960.947340	2796.755000	542.593750	61.135303
11960.947340	2796.755000	541.349609	45.863712
11960.947340	2796.755000	540.105469	-13.755125
11960.947340	2796.755000	538.860352	-31.129036
11960.947340	2796.755000	537.615234	14.824003
11960.947340	2796.755000	536.369141	18.541853
11960.947340	2796.755000	535.124023	-81.134354
11960.947340	2796.755000	533.877930	-58.423340
11960.947340	2796.755000	532.631836	-10.418858
11960.947340	2796.755000	531.384766	71.296410
11960.947340	2796.755000	530.138672	-85.248413
11960.947340	2796.755000	528.891602	-28.855104
11960.947340	2796.755000	527.643555	101.262123
11960.947340	2796.755000	526.396484	20.640202
11960.947340	2796.755000	525.148438	-11.507054
11960.947340	2796.755000	523.900391	-43.645008
11960.947340	2796.755000	522.652344	-14.715444
11960.947340	2796.755000	521.403320	62.610497
11960.947340	2796.755000	520.154297	148.317627
11960.947340	2796.755000	518.905273	-134.231659
11960.947340	2796.755000	517.656250	-126.361992
11960.947340	2796.755000	516.406250	-19.650827
11960.947340	2796.755000	515.156250	19.722567
11960.947340	2796.755000	513.906250	2.313893
11960.947340	2796.755000	512.655273	-10.888417
11960.947340	2796.755000	511.404297	-28.292189
11960.947340	2796.755000	510.153320	2.629435
11960.947340	2796.755000	508.902344	-44.184101
11960.947340	2796.755000	507.650391	-105.682419
11960.947340	2796.755000	506.398438	-68.478470
11960.947340	2796.755000	505.146484	29.580027
11960.947340	2796.755000	503.893555	89.814888
11960.947340	2796.755000	502.641602	-13.639911
11960.947340	2796.755000	501.388672	-87.687111
11960.947340	2796.755000	500.134766	-54.744804
11960.947340	2796.755000	498.881836	-67.951042
11960.947340	2796.755000	497.627930	-22.458136
11960.947340	2796.755000	496.374023	-29.388929
11960.947340	2796.755000	495.119141	68.452744
11960.947340	2796.755000	493.865234	38.449780
11960.947340	2796.755000	492.610352	-39.723587
11960.947340	2796.755000	491.355469	41.286766
11960.947340	2796.755000	490.099609	101.318024
11960.947340	2796.755000	488.843750	6.415662
11960.947340	2796.755000	487.587891	154.312744
11960.947340	2796.755000	486.332031	21.763754
11960.947340	2796.755000	485.075195	0.133101
11960.947340	2796.755000	483.818359	-50.776009
11960.947340	2796.755000	482.561523	142.974915
11960.947340	2796.755000	481.304688	37.684711
11960.947340	2796.755000	480.046875	13.942712
11960.947340	2796.755000	478.789063	98.862572
11960.947340	2796.755000	477.531250	93.899757
11960.947340	2796.755000	476.272461	151.588318
11960.947340	2796.755000	475.013672	169.562317
11960.947340	2796.755000	473.754883	78.948029
11960.947340	2796.755000	472.496094	90.641190
11960.947340	2796.755000	471.236328	10.488161
11960.947340	2796.755000	469.976563	9.641457
11960.947340	2796.755000	468.716797	58.844364
11960.947340	2796.755000	467.456055	14.155482
11960.947340	2796.755000	466.196289	96.663353
11960.947340	2796.755000	464.935547	139.505997
11960.947340	2796.755000	463.673828	-15.694601
11960.947340	2796.755000	462.413086	-31.233273
11960.947340	2796.755000	461.151367	90.711868
11960.947340	2796.755000	459.889648	110.518654
11960.947340	2796.755000	458.626953	159.445450
11960.947340	2796.755000	457.364258	145.864655
11960.947340	2796.755000	456.101563	309.194366
11960.947340	2796.755000	454.838867	27.069925
11960.947340	2796.755000	453.575195	132.035995
11960.947340	2796.755000	452.312500	141.237595
11960.947340	2796.755000	451.047852	4.816339
11960.947340	2796.755000	449.784180	101.302223
11960.947340	2796.755000	448.519531	129.105515
11960.947340	2796.755000	447.254883	40.468445
11960.947340	2796.755000	445.990234	107.675804
11960.947340	2796.755000	444.725586	93.789207
11960.947340	2796.755000	443.459961	138.020081
11960.947340	2796.755000	442.194336	234.100220
11960.947340	2796.755000	440.927734	215.900528
11960.947340	2796.755000	439.662109	95.950691
11960.947340	2796.755000	438.395508	21.653553
11960.947340	2796.755000	437.127930	109.166351
11960.947340	2796.755000	435.861328	117.759995
11960.947340	2796.755000	434.593750	53.700619
11960.947340	2796.755000	433.326172	45.589863
11960.947340	2796.755000	432.058594	24.979296
11960.947340	2796.755000	430.790039	12.597196
11960.947340	2796.755000	429.521484	209.432297
11960.947340	2796.755000	428.252930	201.013931
11960.947340	2796.755000	426.984375	124.172104
11960.947340	2796.755000	425.714844	45.209709
11960.947340	2796.755000	424.445313	171.159744
11960.947340	2796.755000	423.174805	75.489326
11960.947340	2796.755000	421.905273	68.758125
11960.947340	2796.755000	420.634766	186.071350
11960.947340	2796.755000	419.364258	288.756744
11960.947340	2796.755000	418.092773	155.532700
11960.947340	2796.755000	416.822266	90.496140
11960.947340	2796.755000	415.550781	277.570557
11960.947340	2796.755000	414.278320	61.435265
11960.947340	2796.755000	413.006836	99.431992
11960.947340	2796.755000	411.734375	201.327591
11960.947340	2796.755000	410.461914	162.606842
11960.947340	2796.755000	409.188477	127.897758
11960.947340	2796.755000	407.916016	210.747406
11960.947340	2796.755000	406.642578	122.101555
11960.947340	2796.755000	405.368164	159.223053
11960.947340	2796.755000	404.094727	132.224609
11960.947340	2796.755000	402.820313	65.885925
11960.947340	2796.755000	401.545898	88.091408
11960.947340	2796.755000	400.270508	122.485916
11960.947340	2796.755000	398.996094	171.126892
11960.947340	2796.755000	397.720703	69.117157
11960.947340	2796.755000	396.444336	69.985054
11960.947340	2796.755000	395.168945	-13.794594
11960.947340	2796.755000	393.892578	147.347488
11960.947340	2796.755000	392.616211	190.846344
11960.947340	2796.755000	391.339844	236.173950
11960.947340	2796.755000	390.062500	147.474213
11960.947340	2796.755000	388.785156	-31.953161
11960.947340	2796.755000	387.507813	134.095749
11960.947340	2796.755000	386.229492	205.210510
11960.947340	2796.755000	384.951172	202.016068
11960.947340	2796.755000	383.672852	239.687424
11960.947340	2796.755000	382.394531	205.136261
11960.947340	2796.755000	381.115234	151.826111
11960.947340	2796.755000	379.835938	90.041565
11960.947340	2796.755000	378.556641	147.139008
11960.947340	2796.755000	377.277344	123.818871
11960.947340	2796.755000	375.997070	192.594299
11960.947340	2796.755000	374.716797	121.430542
11960.947340	2796.755000	373.435547	127.956039
11960.947340	2796.755000	372.155273	107.477730
11960.947340	2796.755000	370.874023	55.883522
11960.947340	2796.755000	369.591797	180.339523
11960.947340	2796.755000	368.310547	97.273697
11960.947340	2796.755000	367.028320	15.909522
11960.947340	2796.755000	365.746094	-22.761196
11960.947340	2796.755000	364.463867	20.158970
11960.947340	2796.755000	363.180664	111.813881
11960.947340	2796.755000	361.897461	149.750137
11960.947340	2796.755000	360.614258	-5.268385
11960.947340	2796.755000	359.330078	15.409198
11960.947340	2796.755000	358.045898	56.091854
11960.947340	2796.755000	356.761719	145.405441
11960.947340	2796.755000	355.477539	107.336403
11960.947340	2796.755000	354.192383	154.695221
11960.947340	2796.755000	352.907227	207.659790
11960.947340	2796.755000	351.622070	135.344589
11960.947340	2796.755000	350.336914	74.789627
11960.947340	2796.755000	349.050781	-53.754017
11960.947340	2796.755000	347.764648	78.757133
11960.947340	2796.755000	346.477539	-65.196854
11960.947340	2796.755000	345.191406	15.015955
11960.947340	2796.755000	343.904297	31.258408
11960.947340	2796.755000	342.616211	-51.153957
11960.947340	2796.755000	341.329102	-5.560086
11960.947340	2796.755000	340.041016	14.844369
11960.947340	2796.755000	338.752930	32.520210
11960.947340	2796.755000	337.463867	118.829971
11960.947340	2796.755000	336.175781	-56.646637
11960.947340	2796.755000	334.886719	36.352619
11960.947340	2796.755000	333.596680	-65.126495
11960.947340	2796.755000	332.307617	-30.755985
11960.947340	2796.755000	331.017578	-97.059349
11960.947340	2796.755000	329.727539	-72.467201
11960.947340	2796.755000	328.436523	-67.070450
11960.947340	2796.755000	327.146484	-25.849371
11960.947340	2796.755000	325.855469	-89.372971
11960.947340	2796.755000	324.563477	78.255989
11960.947340	2796.755000	323.272461	-1.316558
11960.947340	2796.755000	321.980469	-79.782532
11960.947340	2796.755000	320.688477	-169.345917
11960.947340	2796.755000	319.395508	-103.286957
11960.947340	2796.755000	318.103516	41.060322
11960.947340	2796.755000	316.810547	-55.585548
11960.947340	2796.755000	315.516602	-0.848780
11960.947340	2796.755000	314.223633	182.855377
11960.947340	2796.755000	312.929688	40.306240
11960.947340	2796.755000	311.635742	-26.134678
11960.947340	2796.755000	310.340820	-47.035355
11960.947340	2796.755000	309.045898	85.175827
11960.947340	2796.755000	307.750977	285.124084
11960.947340	2796.755000	306.456055	106.301872
11960.947340	2796.755000	305.160156	147.389877
11960.947340	2796.755000	303.865234	317.013153
11960.947340	2796.755000	302.568359	109.989212
11960.947340	2796.755000	301.272461	345.752197
11960.947340	2796.755000	299.975586	468.493164
11960.947340	2796.755000	298.678711	374.937775
