#X		#Y		#Wave		#Intensity
11830.493617	1427.708333	1999.980469	-65.981522
11830.493617	1427.708333	1999.016602	-21.255802
11830.493617	1427.708333	1998.052734	-64.008484
11830.493617	1427.708333	1997.087891	-20.244307
11830.493617	1427.708333	1996.123047	248.741074
11830.493617	1427.708333	1995.158203	178.027924
11830.493617	1427.708333	1994.193359	-266.863251
11830.493617	1427.708333	1993.228516	40.996170
11830.493617	1427.708333	1992.262695	26.687401
11830.493617	1427.708333	1991.297852	9.713644
11830.493617	1427.708333	1990.332031	138.583908
11830.493617	1427.708333	1989.366211	225.162170
11830.493617	1427.708333	1988.399414	17.133789
11830.493617	1427.708333	1987.433594	-12.889738
11830.493617	1427.708333	1986.466797	41.026318
11830.493617	1427.708333	1985.500977	-51.116566
11830.493617	1427.708333	1984.534180	54.403500
11830.493617	1427.708333	1983.567383	16.386175
11830.493617	1427.708333	1982.599609	-162.609909
11830.493617	1427.708333	1981.632813	-64.941086
11830.493617	1427.708333	1980.665039	109.149986
11830.493617	1427.708333	1979.697266	28.663181
11830.493617	1427.708333	1978.729492	140.708450
11830.493617	1427.708333	1977.761719	104.468887
11830.493617	1427.708333	1976.792969	122.448875
11830.493617	1427.708333	1975.825195	263.727264
11830.493617	1427.708333	1974.856445	14.986035
11830.493617	1427.708333	1973.887695	94.376312
11830.493617	1427.708333	1972.918945	89.789520
11830.493617	1427.708333	1971.949219	72.796410
11830.493617	1427.708333	1970.980469	92.722153
11830.493617	1427.708333	1970.010742	-10.692146
11830.493617	1427.708333	1969.041016	142.209335
11830.493617	1427.708333	1968.071289	28.841860
11830.493617	1427.708333	1967.101563	-52.509346
11830.493617	1427.708333	1966.130859	137.097488
11830.493617	1427.708333	1965.161133	3.931917
11830.493617	1427.708333	1964.190430	67.773712
11830.493617	1427.708333	1963.219727	20.756910
11830.493617	1427.708333	1962.249023	111.569534
11830.493617	1427.708333	1961.277344	222.002213
11830.493617	1427.708333	1960.306641	78.909355
11830.493617	1427.708333	1959.334961	-76.459465
11830.493617	1427.708333	1958.363281	83.055840
11830.493617	1427.708333	1957.391602	340.863464
11830.493617	1427.708333	1956.419922	133.826660
11830.493617	1427.708333	1955.447266	302.988190
11830.493617	1427.708333	1954.474609	59.133884
11830.493617	1427.708333	1953.501953	-56.850899
11830.493617	1427.708333	1952.529297	279.294128
11830.493617	1427.708333	1951.556641	67.487366
11830.493617	1427.708333	1950.583984	49.789692
11830.493617	1427.708333	1949.610352	-120.157028
11830.493617	1427.708333	1948.636719	473.532104
11830.493617	1427.708333	1947.663086	232.383591
11830.493617	1427.708333	1946.689453	-62.668041
11830.493617	1427.708333	1945.715820	15.381041
11830.493617	1427.708333	1944.741211	-80.782776
11830.493617	1427.708333	1943.767578	245.002335
11830.493617	1427.708333	1942.792969	72.823990
11830.493617	1427.708333	1941.818359	101.787254
11830.493617	1427.708333	1940.842773	8.174929
11830.493617	1427.708333	1939.868164	32.265621
11830.493617	1427.708333	1938.892578	102.925102
11830.493617	1427.708333	1937.916992	379.392822
11830.493617	1427.708333	1936.941406	-49.748943
11830.493617	1427.708333	1935.965820	25.841730
11830.493617	1427.708333	1934.990234	5.920786
11830.493617	1427.708333	1934.013672	360.630066
11830.493617	1427.708333	1933.037109	321.114807
11830.493617	1427.708333	1932.060547	-7.161182
11830.493617	1427.708333	1931.083984	166.344864
11830.493617	1427.708333	1930.107422	-10.045042
11830.493617	1427.708333	1929.129883	183.016815
11830.493617	1427.708333	1928.153320	109.459084
11830.493617	1427.708333	1927.175781	214.453934
11830.493617	1427.708333	1926.198242	-17.934008
11830.493617	1427.708333	1925.219727	-47.332767
11830.493617	1427.708333	1924.242188	-91.355148
11830.493617	1427.708333	1923.263672	-8.278183
11830.493617	1427.708333	1922.285156	192.057114
11830.493617	1427.708333	1921.306641	-96.141975
11830.493617	1427.708333	1920.328125	-30.115526
11830.493617	1427.708333	1919.349609	-95.926888
11830.493617	1427.708333	1918.370117	45.808483
11830.493617	1427.708333	1917.391602	-176.132370
11830.493617	1427.708333	1916.412109	194.999939
11830.493617	1427.708333	1915.431641	-80.498657
11830.493617	1427.708333	1914.452148	-119.256706
11830.493617	1427.708333	1913.472656	-60.419132
11830.493617	1427.708333	1912.492188	203.247131
11830.493617	1427.708333	1911.511719	145.043808
11830.493617	1427.708333	1910.531250	142.951065
11830.493617	1427.708333	1909.550781	-46.758919
11830.493617	1427.708333	1908.569336	77.942757
11830.493617	1427.708333	1907.588867	-157.912979
11830.493617	1427.708333	1906.607422	88.599213
11830.493617	1427.708333	1905.625977	-98.411743
11830.493617	1427.708333	1904.644531	162.660095
11830.493617	1427.708333	1903.662109	80.431503
11830.493617	1427.708333	1902.680664	44.500328
11830.493617	1427.708333	1901.698242	88.909203
11830.493617	1427.708333	1900.715820	38.443493
11830.493617	1427.708333	1899.733398	-72.791008
11830.493617	1427.708333	1898.750000	-64.791832
11830.493617	1427.708333	1897.767578	-137.015244
11830.493617	1427.708333	1896.784180	-77.911697
11830.493617	1427.708333	1895.800781	56.540264
11830.493617	1427.708333	1894.817383	18.420872
11830.493617	1427.708333	1893.833984	194.149216
11830.493617	1427.708333	1892.850586	-23.709160
11830.493617	1427.708333	1891.866211	-49.592251
11830.493617	1427.708333	1890.881836	-85.161476
11830.493617	1427.708333	1889.897461	-86.711708
11830.493617	1427.708333	1888.913086	-144.077896
11830.493617	1427.708333	1887.927734	-140.733215
11830.493617	1427.708333	1886.943359	-69.434418
11830.493617	1427.708333	1885.958008	249.308594
11830.493617	1427.708333	1884.972656	-162.165787
11830.493617	1427.708333	1883.987305	74.040771
11830.493617	1427.708333	1883.001953	-85.060089
11830.493617	1427.708333	1882.015625	-18.635952
11830.493617	1427.708333	1881.029297	101.092834
11830.493617	1427.708333	1880.042969	206.242340
11830.493617	1427.708333	1879.056641	163.560440
11830.493617	1427.708333	1878.070313	-109.234276
11830.493617	1427.708333	1877.083984	119.426353
11830.493617	1427.708333	1876.096680	69.527031
11830.493617	1427.708333	1875.109375	101.962524
11830.493617	1427.708333	1874.122070	-117.360161
11830.493617	1427.708333	1873.134766	-67.965691
11830.493617	1427.708333	1872.146484	53.999725
11830.493617	1427.708333	1871.159180	96.077766
11830.493617	1427.708333	1870.170898	87.338516
11830.493617	1427.708333	1869.182617	-93.107491
11830.493617	1427.708333	1868.194336	-145.346466
11830.493617	1427.708333	1867.205078	-74.285469
11830.493617	1427.708333	1866.216797	120.002960
11830.493617	1427.708333	1865.227539	-7.193442
11830.493617	1427.708333	1864.238281	215.977066
11830.493617	1427.708333	1863.249023	93.611839
11830.493617	1427.708333	1862.259766	43.732018
11830.493617	1427.708333	1861.269531	17.999779
11830.493617	1427.708333	1860.279297	-24.641300
11830.493617	1427.708333	1859.290039	75.127441
11830.493617	1427.708333	1858.298828	107.263718
11830.493617	1427.708333	1857.308594	337.222198
11830.493617	1427.708333	1856.318359	219.675781
11830.493617	1427.708333	1855.327148	78.027649
11830.493617	1427.708333	1854.335938	225.791824
11830.493617	1427.708333	1853.344727	-70.170731
11830.493617	1427.708333	1852.353516	41.346684
11830.493617	1427.708333	1851.362305	-13.512727
11830.493617	1427.708333	1850.370117	73.791801
11830.493617	1427.708333	1849.377930	23.699223
11830.493617	1427.708333	1848.385742	31.402548
11830.493617	1427.708333	1847.393555	229.327225
11830.493617	1427.708333	1846.401367	152.635986
11830.493617	1427.708333	1845.408203	230.012985
11830.493617	1427.708333	1844.415039	283.249908
11830.493617	1427.708333	1843.421875	184.810287
11830.493617	1427.708333	1842.428711	57.490665
11830.493617	1427.708333	1841.435547	363.193054
11830.493617	1427.708333	1840.441406	-19.155380
11830.493617	1427.708333	1839.448242	-67.147202
11830.493617	1427.708333	1838.454102	122.858246
11830.493617	1427.708333	1837.459961	-136.780640
11830.493617	1427.708333	1836.464844	185.251785
11830.493617	1427.708333	1835.470703	21.713970
11830.493617	1427.708333	1834.475586	11.942491
11830.493617	1427.708333	1833.480469	-0.282155
11830.493617	1427.708333	1832.485352	124.332741
11830.493617	1427.708333	1831.490234	-10.481629
11830.493617	1427.708333	1830.495117	77.959061
11830.493617	1427.708333	1829.499023	137.504272
11830.493617	1427.708333	1828.502930	108.173119
11830.493617	1427.708333	1827.506836	136.373566
11830.493617	1427.708333	1826.510742	102.127876
11830.493617	1427.708333	1825.513672	161.369278
11830.493617	1427.708333	1824.517578	146.183792
11830.493617	1427.708333	1823.520508	73.395058
11830.493617	1427.708333	1822.523438	295.404449
11830.493617	1427.708333	1821.526367	366.273346
11830.493617	1427.708333	1820.529297	139.918564
11830.493617	1427.708333	1819.531250	102.838448
11830.493617	1427.708333	1818.533203	75.279404
11830.493617	1427.708333	1817.535156	296.714935
11830.493617	1427.708333	1816.537109	65.458450
11830.493617	1427.708333	1815.539063	133.450287
11830.493617	1427.708333	1814.540039	26.614225
11830.493617	1427.708333	1813.541992	-51.543095
11830.493617	1427.708333	1812.542969	171.708755
11830.493617	1427.708333	1811.543945	93.390213
11830.493617	1427.708333	1810.543945	55.675793
11830.493617	1427.708333	1809.544922	144.625519
11830.493617	1427.708333	1808.544922	73.276878
11830.493617	1427.708333	1807.544922	-91.352264
11830.493617	1427.708333	1806.544922	-28.970854
11830.493617	1427.708333	1805.544922	-193.692108
11830.493617	1427.708333	1804.544922	40.512348
11830.493617	1427.708333	1803.543945	300.809723
11830.493617	1427.708333	1802.542969	16.447884
11830.493617	1427.708333	1801.541992	66.362473
11830.493617	1427.708333	1800.541016	202.102448
11830.493617	1427.708333	1799.539063	163.468521
11830.493617	1427.708333	1798.538086	258.386017
11830.493617	1427.708333	1797.536133	353.170013
11830.493617	1427.708333	1796.534180	152.041626
11830.493617	1427.708333	1795.532227	141.683670
11830.493617	1427.708333	1794.529297	-14.221692
11830.493617	1427.708333	1793.527344	204.121017
11830.493617	1427.708333	1792.524414	21.847317
11830.493617	1427.708333	1791.521484	96.913231
11830.493617	1427.708333	1790.518555	107.520241
11830.493617	1427.708333	1789.514648	134.693832
11830.493617	1427.708333	1788.511719	180.812592
11830.493617	1427.708333	1787.507813	-77.994759
11830.493617	1427.708333	1786.503906	75.073151
11830.493617	1427.708333	1785.500000	94.677818
11830.493617	1427.708333	1784.496094	237.926086
11830.493617	1427.708333	1783.491211	83.579315
11830.493617	1427.708333	1782.486328	48.134605
11830.493617	1427.708333	1781.481445	-65.895874
11830.493617	1427.708333	1780.476563	76.844795
11830.493617	1427.708333	1779.471680	69.631508
11830.493617	1427.708333	1778.465820	-123.113678
11830.493617	1427.708333	1777.460938	21.608353
11830.493617	1427.708333	1776.455078	33.088406
11830.493617	1427.708333	1775.449219	20.696499
11830.493617	1427.708333	1774.442383	245.733261
11830.493617	1427.708333	1773.436523	-118.407761
11830.493617	1427.708333	1772.429688	146.713898
11830.493617	1427.708333	1771.422852	-143.903351
11830.493617	1427.708333	1770.416016	-80.857468
11830.493617	1427.708333	1769.409180	112.575836
11830.493617	1427.708333	1768.402344	149.224396
11830.493617	1427.708333	1767.394531	-25.389128
11830.493617	1427.708333	1766.386719	115.398392
11830.493617	1427.708333	1765.378906	182.505661
11830.493617	1427.708333	1764.371094	152.267426
11830.493617	1427.708333	1763.362305	-20.305735
11830.493617	1427.708333	1762.354492	129.396164
11830.493617	1427.708333	1761.345703	105.943260
11830.493617	1427.708333	1760.336914	-47.915627
11830.493617	1427.708333	1759.328125	18.451221
11830.493617	1427.708333	1758.318359	-7.688245
11830.493617	1427.708333	1757.308594	-22.094574
11830.493617	1427.708333	1756.299805	98.329559
11830.493617	1427.708333	1755.290039	33.972435
11830.493617	1427.708333	1754.279297	-75.444641
11830.493617	1427.708333	1753.269531	-248.810532
11830.493617	1427.708333	1752.258789	-88.700470
11830.493617	1427.708333	1751.249023	33.398525
11830.493617	1427.708333	1750.238281	-74.037422
11830.493617	1427.708333	1749.226563	-25.523218
11830.493617	1427.708333	1748.215820	-33.866486
11830.493617	1427.708333	1747.204102	82.921989
11830.493617	1427.708333	1746.193359	119.221588
11830.493617	1427.708333	1745.181641	51.440060
11830.493617	1427.708333	1744.168945	-101.466705
11830.493617	1427.708333	1743.157227	57.284691
11830.493617	1427.708333	1742.144531	-159.545074
11830.493617	1427.708333	1741.132813	-112.020760
11830.493617	1427.708333	1740.120117	-151.962158
11830.493617	1427.708333	1739.106445	-92.907448
11830.493617	1427.708333	1738.093750	91.052956
11830.493617	1427.708333	1737.080078	-60.120098
11830.493617	1427.708333	1736.067383	50.425819
11830.493617	1427.708333	1735.053711	78.283005
11830.493617	1427.708333	1734.040039	-44.858913
11830.493617	1427.708333	1733.025391	67.616348
11830.493617	1427.708333	1732.011719	236.496704
11830.493617	1427.708333	1730.997070	-30.673197
11830.493617	1427.708333	1729.982422	-76.431755
11830.493617	1427.708333	1728.967773	117.936295
11830.493617	1427.708333	1727.952148	27.192295
11830.493617	1427.708333	1726.937500	98.820618
11830.493617	1427.708333	1725.921875	-95.677063
11830.493617	1427.708333	1724.906250	267.525757
11830.493617	1427.708333	1723.890625	39.906097
11830.493617	1427.708333	1722.875000	92.200829
11830.493617	1427.708333	1721.858398	38.516479
11830.493617	1427.708333	1720.841797	130.536453
11830.493617	1427.708333	1719.825195	203.603088
11830.493617	1427.708333	1718.808594	-29.049610
11830.493617	1427.708333	1717.791992	-130.111496
11830.493617	1427.708333	1716.774414	38.963985
11830.493617	1427.708333	1715.756836	-123.379425
11830.493617	1427.708333	1714.739258	-130.746552
11830.493617	1427.708333	1713.721680	-119.430672
11830.493617	1427.708333	1712.704102	-138.747543
11830.493617	1427.708333	1711.685547	-242.682251
11830.493617	1427.708333	1710.667969	169.673920
11830.493617	1427.708333	1709.649414	-16.619743
11830.493617	1427.708333	1708.630859	52.781704
11830.493617	1427.708333	1707.611328	164.265884
11830.493617	1427.708333	1706.592773	174.770630
11830.493617	1427.708333	1705.573242	-114.972557
11830.493617	1427.708333	1704.553711	7.896312
11830.493617	1427.708333	1703.534180	69.676872
11830.493617	1427.708333	1702.513672	-35.061993
11830.493617	1427.708333	1701.494141	-6.295510
11830.493617	1427.708333	1700.473633	-31.529371
11830.493617	1427.708333	1699.453125	90.700470
11830.493617	1427.708333	1698.432617	88.681999
11830.493617	1427.708333	1697.412109	98.273529
11830.493617	1427.708333	1696.390625	-140.360794
11830.493617	1427.708333	1695.369141	145.223938
11830.493617	1427.708333	1694.347656	-51.399071
11830.493617	1427.708333	1693.326172	77.136360
11830.493617	1427.708333	1692.304688	100.278442
11830.493617	1427.708333	1691.282227	118.632378
11830.493617	1427.708333	1690.260742	-143.659805
11830.493617	1427.708333	1689.238281	-134.794952
11830.493617	1427.708333	1688.214844	51.589024
11830.493617	1427.708333	1687.192383	-23.880978
11830.493617	1427.708333	1686.168945	87.478630
11830.493617	1427.708333	1685.146484	-44.197113
11830.493617	1427.708333	1684.123047	181.386414
11830.493617	1427.708333	1683.099609	72.911591
11830.493617	1427.708333	1682.075195	-12.270862
11830.493617	1427.708333	1681.051758	-22.800669
11830.493617	1427.708333	1680.027344	241.938538
11830.493617	1427.708333	1679.002930	81.875557
11830.493617	1427.708333	1677.978516	164.390396
11830.493617	1427.708333	1676.953125	246.782730
11830.493617	1427.708333	1675.928711	378.048340
11830.493617	1427.708333	1674.903320	327.336151
11830.493617	1427.708333	1673.877930	374.466003
11830.493617	1427.708333	1672.852539	116.224205
11830.493617	1427.708333	1671.826172	284.375000
11830.493617	1427.708333	1670.800781	193.832809
11830.493617	1427.708333	1669.774414	298.882751
11830.493617	1427.708333	1668.748047	336.294189
11830.493617	1427.708333	1667.721680	82.609337
11830.493617	1427.708333	1666.694336	168.783646
11830.493617	1427.708333	1665.667969	515.527039
11830.493617	1427.708333	1664.640625	424.622223
11830.493617	1427.708333	1663.613281	261.575134
11830.493617	1427.708333	1662.585938	291.580444
11830.493617	1427.708333	1661.557617	423.819916
11830.493617	1427.708333	1660.530273	583.863403
11830.493617	1427.708333	1659.501953	453.206055
11830.493617	1427.708333	1658.473633	389.943939
11830.493617	1427.708333	1657.444336	491.614197
11830.493617	1427.708333	1656.416016	625.734375
11830.493617	1427.708333	1655.386719	676.115601
11830.493617	1427.708333	1654.358398	659.095947
11830.493617	1427.708333	1653.328125	658.256348
11830.493617	1427.708333	1652.298828	833.811523
11830.493617	1427.708333	1651.269531	967.474182
11830.493617	1427.708333	1650.239258	720.462830
11830.493617	1427.708333	1649.208984	654.465881
11830.493617	1427.708333	1648.178711	1040.777710
11830.493617	1427.708333	1647.148438	1023.364441
11830.493617	1427.708333	1646.117188	1186.760986
11830.493617	1427.708333	1645.086914	1227.204346
11830.493617	1427.708333	1644.055664	908.319519
11830.493617	1427.708333	1643.024414	1303.267700
11830.493617	1427.708333	1641.992188	1090.982300
11830.493617	1427.708333	1640.960938	1170.637939
11830.493617	1427.708333	1639.928711	1382.226563
11830.493617	1427.708333	1638.896484	1297.310059
11830.493617	1427.708333	1637.864258	1251.755005
11830.493617	1427.708333	1636.832031	1541.816772
11830.493617	1427.708333	1635.798828	1317.967407
11830.493617	1427.708333	1634.766602	1205.257080
11830.493617	1427.708333	1633.733398	1622.300659
11830.493617	1427.708333	1632.699219	1539.564209
11830.493617	1427.708333	1631.666016	1810.656616
11830.493617	1427.708333	1630.632813	1781.067505
11830.493617	1427.708333	1629.598633	1453.271118
11830.493617	1427.708333	1628.564453	1294.292236
11830.493617	1427.708333	1627.530273	1918.663452
11830.493617	1427.708333	1626.495117	1614.069824
11830.493617	1427.708333	1625.460938	1635.270752
11830.493617	1427.708333	1624.425781	1843.489990
11830.493617	1427.708333	1623.390625	2026.219604
11830.493617	1427.708333	1622.355469	1735.652222
11830.493617	1427.708333	1621.319336	1645.966919
11830.493617	1427.708333	1620.284180	1819.380127
11830.493617	1427.708333	1619.248047	1870.432373
11830.493617	1427.708333	1618.211914	1718.484375
11830.493617	1427.708333	1617.174805	1910.193848
11830.493617	1427.708333	1616.138672	2069.564209
11830.493617	1427.708333	1615.101563	1982.198608
11830.493617	1427.708333	1614.065430	2328.186279
11830.493617	1427.708333	1613.027344	2125.581299
11830.493617	1427.708333	1611.990234	1893.125366
11830.493617	1427.708333	1610.953125	2027.015381
11830.493617	1427.708333	1609.915039	2243.756592
11830.493617	1427.708333	1608.876953	2255.495117
11830.493617	1427.708333	1607.838867	2260.335693
11830.493617	1427.708333	1606.800781	2168.520264
11830.493617	1427.708333	1605.761719	2272.341064
11830.493617	1427.708333	1604.723633	2247.311279
11830.493617	1427.708333	1603.684570	2429.321289
11830.493617	1427.708333	1602.644531	2443.374268
11830.493617	1427.708333	1601.605469	2554.034180
11830.493617	1427.708333	1600.566406	2503.745850
11830.493617	1427.708333	1599.526367	2453.487305
11830.493617	1427.708333	1598.486328	2276.877197
11830.493617	1427.708333	1597.446289	2364.590576
11830.493617	1427.708333	1596.405273	2677.402832
11830.493617	1427.708333	1595.365234	2413.662354
11830.493617	1427.708333	1594.324219	2462.334229
11830.493617	1427.708333	1593.283203	2745.192871
11830.493617	1427.708333	1592.242188	2878.774658
11830.493617	1427.708333	1591.200195	2658.907959
11830.493617	1427.708333	1590.159180	2964.612549
11830.493617	1427.708333	1589.117188	2802.238770
11830.493617	1427.708333	1588.075195	2823.455078
11830.493617	1427.708333	1587.032227	2691.049316
11830.493617	1427.708333	1585.990234	2927.874268
11830.493617	1427.708333	1584.947266	2554.902100
11830.493617	1427.708333	1583.904297	2500.680176
11830.493617	1427.708333	1582.861328	2551.926514
11830.493617	1427.708333	1581.818359	2685.672119
11830.493617	1427.708333	1580.775391	2633.888672
11830.493617	1427.708333	1579.731445	2547.813232
11830.493617	1427.708333	1578.687500	2553.405029
11830.493617	1427.708333	1577.643555	2691.815918
11830.493617	1427.708333	1576.598633	2466.318115
11830.493617	1427.708333	1575.554688	2581.921875
11830.493617	1427.708333	1574.509766	2352.072510
11830.493617	1427.708333	1573.464844	2664.461914
11830.493617	1427.708333	1572.419922	2535.428955
11830.493617	1427.708333	1571.374023	2287.599854
11830.493617	1427.708333	1570.329102	2252.538818
11830.493617	1427.708333	1569.283203	2313.533936
11830.493617	1427.708333	1568.237305	2267.174561
11830.493617	1427.708333	1567.191406	2305.428711
11830.493617	1427.708333	1566.144531	2046.784180
11830.493617	1427.708333	1565.098633	2128.595703
11830.493617	1427.708333	1564.051758	2132.804199
11830.493617	1427.708333	1563.004883	2187.303223
11830.493617	1427.708333	1561.957031	2002.194336
11830.493617	1427.708333	1560.910156	1837.782593
11830.493617	1427.708333	1559.862305	1878.831787
11830.493617	1427.708333	1558.814453	1773.956055
11830.493617	1427.708333	1557.766602	1484.474976
11830.493617	1427.708333	1556.718750	1603.331299
11830.493617	1427.708333	1555.669922	1405.333496
11830.493617	1427.708333	1554.621094	1606.361084
11830.493617	1427.708333	1553.573242	1458.754150
11830.493617	1427.708333	1552.523438	1653.014771
11830.493617	1427.708333	1551.474609	1523.838501
11830.493617	1427.708333	1550.424805	1547.375122
11830.493617	1427.708333	1549.375000	1623.363159
11830.493617	1427.708333	1548.325195	1474.034058
11830.493617	1427.708333	1547.275391	1750.484741
11830.493617	1427.708333	1546.225586	1512.624634
11830.493617	1427.708333	1545.174805	1411.450439
11830.493617	1427.708333	1544.124023	1624.325195
11830.493617	1427.708333	1543.073242	1396.000000
11830.493617	1427.708333	1542.022461	1504.389893
11830.493617	1427.708333	1540.970703	1237.714966
11830.493617	1427.708333	1539.919922	1359.931152
11830.493617	1427.708333	1538.868164	1514.002686
11830.493617	1427.708333	1537.815430	1331.839111
11830.493617	1427.708333	1536.763672	1186.206543
11830.493617	1427.708333	1535.710938	1052.083252
11830.493617	1427.708333	1534.659180	1292.795410
11830.493617	1427.708333	1533.606445	1447.235962
11830.493617	1427.708333	1532.552734	1247.623047
11830.493617	1427.708333	1531.500000	1472.578979
11830.493617	1427.708333	1530.446289	1264.180786
11830.493617	1427.708333	1529.393555	1300.982056
11830.493617	1427.708333	1528.338867	1074.768677
11830.493617	1427.708333	1527.285156	1268.270386
11830.493617	1427.708333	1526.231445	890.491089
11830.493617	1427.708333	1525.176758	1041.101563
11830.493617	1427.708333	1524.122070	1203.101074
11830.493617	1427.708333	1523.067383	853.084473
11830.493617	1427.708333	1522.012695	913.351318
11830.493617	1427.708333	1520.957031	695.121521
11830.493617	1427.708333	1519.901367	812.235718
11830.493617	1427.708333	1518.845703	947.534729
11830.493617	1427.708333	1517.790039	698.099426
11830.493617	1427.708333	1516.734375	532.620056
11830.493617	1427.708333	1515.677734	813.061096
11830.493617	1427.708333	1514.621094	720.254944
11830.493617	1427.708333	1513.564453	781.407349
11830.493617	1427.708333	1512.507813	668.542603
11830.493617	1427.708333	1511.450195	393.057220
11830.493617	1427.708333	1510.393555	637.713257
11830.493617	1427.708333	1509.335938	602.156738
11830.493617	1427.708333	1508.278320	652.605774
11830.493617	1427.708333	1507.219727	556.316772
11830.493617	1427.708333	1506.162109	446.654358
11830.493617	1427.708333	1505.103516	422.968414
11830.493617	1427.708333	1504.044922	442.322418
11830.493617	1427.708333	1502.986328	583.695557
11830.493617	1427.708333	1501.926758	393.385712
11830.493617	1427.708333	1500.868164	334.162415
11830.493617	1427.708333	1499.808594	317.954987
11830.493617	1427.708333	1498.749023	387.599548
11830.493617	1427.708333	1497.688477	-52.292931
11830.493617	1427.708333	1496.628906	-18.403337
11830.493617	1427.708333	1495.568359	119.298286
11830.493617	1427.708333	1494.507813	266.096741
11830.493617	1427.708333	1493.447266	-6.126600
11830.493617	1427.708333	1492.386719	-118.150452
11830.493617	1427.708333	1491.325195	92.089951
11830.493617	1427.708333	1490.263672	65.937401
11830.493617	1427.708333	1489.202148	105.232246
11830.493617	1427.708333	1488.140625	115.390991
11830.493617	1427.708333	1487.079102	-61.107357
11830.493617	1427.708333	1486.016602	25.867029
11830.493617	1427.708333	1484.954102	355.914032
11830.493617	1427.708333	1483.891602	157.411026
11830.493617	1427.708333	1482.829102	-34.120068
11830.493617	1427.708333	1481.765625	165.769455
11830.493617	1427.708333	1480.702148	-178.233261
11830.493617	1427.708333	1479.638672	82.581177
11830.493617	1427.708333	1478.575195	37.869373
11830.493617	1427.708333	1477.511719	-44.864395
11830.493617	1427.708333	1476.447266	283.571381
11830.493617	1427.708333	1475.382813	468.265472
11830.493617	1427.708333	1474.318359	406.161499
11830.493617	1427.708333	1473.253906	348.753967
11830.493617	1427.708333	1472.189453	378.855652
11830.493617	1427.708333	1471.124023	342.004395
11830.493617	1427.708333	1470.058594	755.866333
11830.493617	1427.708333	1468.993164	652.101868
11830.493617	1427.708333	1467.927734	653.695557
11830.493617	1427.708333	1466.861328	478.697540
11830.493617	1427.708333	1465.794922	525.488159
11830.493617	1427.708333	1464.728516	887.958191
11830.493617	1427.708333	1463.662109	912.348145
11830.493617	1427.708333	1462.594727	809.810059
11830.493617	1427.708333	1461.528320	1179.136108
11830.493617	1427.708333	1460.460938	935.952637
11830.493617	1427.708333	1459.393555	998.490784
11830.493617	1427.708333	1458.326172	1160.512329
11830.493617	1427.708333	1457.257813	1065.052856
11830.493617	1427.708333	1456.189453	970.848694
11830.493617	1427.708333	1455.121094	893.089478
11830.493617	1427.708333	1454.052734	1176.890381
11830.493617	1427.708333	1452.984375	1047.859131
11830.493617	1427.708333	1451.915039	1248.668335
11830.493617	1427.708333	1450.845703	1095.348877
11830.493617	1427.708333	1449.776367	890.179749
11830.493617	1427.708333	1448.707031	794.299805
11830.493617	1427.708333	1447.636719	823.001709
11830.493617	1427.708333	1446.567383	706.280212
11830.493617	1427.708333	1445.497070	952.775452
11830.493617	1427.708333	1444.425781	788.726196
11830.493617	1427.708333	1443.355469	754.104858
11830.493617	1427.708333	1442.285156	680.272644
11830.493617	1427.708333	1441.213867	618.620728
11830.493617	1427.708333	1440.142578	723.074402
11830.493617	1427.708333	1439.070313	751.622803
11830.493617	1427.708333	1437.999023	823.057068
11830.493617	1427.708333	1436.926758	633.203247
11830.493617	1427.708333	1435.854492	574.439209
11830.493617	1427.708333	1434.782227	283.555756
11830.493617	1427.708333	1433.709961	467.093750
11830.493617	1427.708333	1432.636719	396.173859
11830.493617	1427.708333	1431.563477	537.927246
11830.493617	1427.708333	1430.490234	319.939636
11830.493617	1427.708333	1429.416992	656.083801
11830.493617	1427.708333	1428.343750	555.531433
11830.493617	1427.708333	1427.269531	459.005371
11830.493617	1427.708333	1426.195313	439.989532
11830.493617	1427.708333	1425.121094	249.885986
11830.493617	1427.708333	1424.046875	540.395569
11830.493617	1427.708333	1422.971680	333.358948
11830.493617	1427.708333	1421.896484	434.194855
11830.493617	1427.708333	1420.821289	467.412811
11830.493617	1427.708333	1419.746094	700.397156
11830.493617	1427.708333	1418.669922	656.131653
11830.493617	1427.708333	1417.594727	579.962341
11830.493617	1427.708333	1416.518555	287.857147
11830.493617	1427.708333	1415.442383	388.261261
11830.493617	1427.708333	1414.365234	525.131592
11830.493617	1427.708333	1413.289063	728.277954
11830.493617	1427.708333	1412.211914	740.612549
11830.493617	1427.708333	1411.134766	383.761719
11830.493617	1427.708333	1410.057617	744.863647
11830.493617	1427.708333	1408.979492	702.368042
11830.493617	1427.708333	1407.902344	630.630127
11830.493617	1427.708333	1406.824219	894.875977
11830.493617	1427.708333	1405.746094	1062.852295
11830.493617	1427.708333	1404.666992	977.196594
11830.493617	1427.708333	1403.588867	931.251465
11830.493617	1427.708333	1402.509766	929.148193
11830.493617	1427.708333	1401.430664	1080.734375
11830.493617	1427.708333	1400.351563	898.040833
11830.493617	1427.708333	1399.271484	947.516235
11830.493617	1427.708333	1398.192383	915.964600
11830.493617	1427.708333	1397.112305	895.260742
11830.493617	1427.708333	1396.031250	790.550964
11830.493617	1427.708333	1394.951172	938.784851
11830.493617	1427.708333	1393.871094	821.352783
11830.493617	1427.708333	1392.790039	739.251221
11830.493617	1427.708333	1391.708984	701.511963
11830.493617	1427.708333	1390.626953	771.987244
11830.493617	1427.708333	1389.545898	531.408386
11830.493617	1427.708333	1388.463867	657.039001
11830.493617	1427.708333	1387.381836	411.726807
11830.493617	1427.708333	1386.299805	692.150818
11830.493617	1427.708333	1385.217773	645.792664
11830.493617	1427.708333	1384.134766	705.155701
11830.493617	1427.708333	1383.051758	489.280334
11830.493617	1427.708333	1381.968750	561.699036
11830.493617	1427.708333	1380.885742	727.688477
11830.493617	1427.708333	1379.802734	675.630615
11830.493617	1427.708333	1378.718750	618.027405
11830.493617	1427.708333	1377.634766	718.858032
11830.493617	1427.708333	1376.550781	734.692017
11830.493617	1427.708333	1375.465820	684.760193
11830.493617	1427.708333	1374.381836	605.438599
11830.493617	1427.708333	1373.296875	616.076294
11830.493617	1427.708333	1372.211914	669.251465
11830.493617	1427.708333	1371.126953	547.717285
11830.493617	1427.708333	1370.041016	873.794800
11830.493617	1427.708333	1368.955078	737.809875
11830.493617	1427.708333	1367.869141	729.001953
11830.493617	1427.708333	1366.783203	754.372070
11830.493617	1427.708333	1365.697266	695.700562
11830.493617	1427.708333	1364.610352	872.291565
11830.493617	1427.708333	1363.523438	855.228149
11830.493617	1427.708333	1362.436523	1132.122559
11830.493617	1427.708333	1361.349609	919.538574
11830.493617	1427.708333	1360.261719	1081.579346
11830.493617	1427.708333	1359.174805	1043.088379
11830.493617	1427.708333	1358.086914	1217.740112
11830.493617	1427.708333	1356.998047	861.492920
11830.493617	1427.708333	1355.910156	1019.451294
11830.493617	1427.708333	1354.821289	936.718018
11830.493617	1427.708333	1353.732422	932.468872
11830.493617	1427.708333	1352.643555	906.302490
11830.493617	1427.708333	1351.554688	981.917114
11830.493617	1427.708333	1350.464844	1054.452026
11830.493617	1427.708333	1349.375000	1310.660767
11830.493617	1427.708333	1348.285156	1238.083252
11830.493617	1427.708333	1347.195313	975.615051
11830.493617	1427.708333	1346.105469	1255.071533
11830.493617	1427.708333	1345.014648	1198.580688
11830.493617	1427.708333	1343.923828	1060.991333
11830.493617	1427.708333	1342.833008	1164.122559
11830.493617	1427.708333	1341.741211	1117.264771
11830.493617	1427.708333	1340.650391	1210.545288
11830.493617	1427.708333	1339.558594	1017.873962
11830.493617	1427.708333	1338.466797	976.798279
11830.493617	1427.708333	1337.374023	992.462463
11830.493617	1427.708333	1336.282227	839.426392
11830.493617	1427.708333	1335.189453	751.263062
11830.493617	1427.708333	1334.096680	901.329834
11830.493617	1427.708333	1333.003906	991.362122
11830.493617	1427.708333	1331.910156	1117.344360
11830.493617	1427.708333	1330.817383	1252.501587
11830.493617	1427.708333	1329.723633	950.196655
11830.493617	1427.708333	1328.629883	859.306091
11830.493617	1427.708333	1327.535156	1126.517944
11830.493617	1427.708333	1326.441406	1200.013428
11830.493617	1427.708333	1325.346680	1180.185425
11830.493617	1427.708333	1324.251953	1043.933594
11830.493617	1427.708333	1323.156250	1143.110229
11830.493617	1427.708333	1322.061523	1087.249512
11830.493617	1427.708333	1320.965820	1137.526245
11830.493617	1427.708333	1319.870117	847.421509
11830.493617	1427.708333	1318.774414	840.631653
11830.493617	1427.708333	1317.678711	885.378052
11830.493617	1427.708333	1316.582031	845.744080
11830.493617	1427.708333	1315.485352	1048.710693
11830.493617	1427.708333	1314.388672	981.731750
11830.493617	1427.708333	1313.291016	811.631104
11830.493617	1427.708333	1312.194336	962.244202
11830.493617	1427.708333	1311.096680	964.659119
11830.493617	1427.708333	1309.999023	948.381897
11830.493617	1427.708333	1308.901367	1176.702393
11830.493617	1427.708333	1307.802734	989.917175
11830.493617	1427.708333	1306.705078	1123.158203
11830.493617	1427.708333	1305.606445	874.687805
11830.493617	1427.708333	1304.506836	887.770752
11830.493617	1427.708333	1303.408203	781.264954
11830.493617	1427.708333	1302.308594	705.816040
11830.493617	1427.708333	1301.208984	923.079956
11830.493617	1427.708333	1300.109375	704.700012
11830.493617	1427.708333	1299.009766	802.450500
11830.493617	1427.708333	1297.909180	949.333618
11830.493617	1427.708333	1296.808594	668.122192
11830.493617	1427.708333	1295.708008	758.936157
11830.493617	1427.708333	1294.607422	844.303650
11830.493617	1427.708333	1293.506836	893.940247
11830.493617	1427.708333	1292.405273	670.141418
11830.493617	1427.708333	1291.303711	788.199341
11830.493617	1427.708333	1290.202148	884.224060
11830.493617	1427.708333	1289.099609	741.909607
11830.493617	1427.708333	1287.998047	701.762939
11830.493617	1427.708333	1286.895508	565.630310
11830.493617	1427.708333	1285.792969	396.004761
11830.493617	1427.708333	1284.689453	431.447754
11830.493617	1427.708333	1283.586914	320.936401
11830.493617	1427.708333	1282.483398	445.040131
11830.493617	1427.708333	1281.379883	400.392365
11830.493617	1427.708333	1280.276367	351.898193
11830.493617	1427.708333	1279.171875	369.400482
11830.493617	1427.708333	1278.067383	404.063843
11830.493617	1427.708333	1276.962891	271.422211
11830.493617	1427.708333	1275.858398	313.038879
11830.493617	1427.708333	1274.753906	307.240814
11830.493617	1427.708333	1273.648438	393.622986
11830.493617	1427.708333	1272.542969	570.426025
11830.493617	1427.708333	1271.437500	225.179932
11830.493617	1427.708333	1270.331055	240.845108
11830.493617	1427.708333	1269.225586	257.968048
11830.493617	1427.708333	1268.119141	543.197205
11830.493617	1427.708333	1267.012695	345.064087
11830.493617	1427.708333	1265.906250	264.272522
11830.493617	1427.708333	1264.798828	315.249847
11830.493617	1427.708333	1263.691406	255.421921
11830.493617	1427.708333	1262.583984	158.605972
11830.493617	1427.708333	1261.476563	232.951218
11830.493617	1427.708333	1260.368164	36.398712
11830.493617	1427.708333	1259.260742	186.879318
11830.493617	1427.708333	1258.152344	-85.905342
11830.493617	1427.708333	1257.043945	49.429523
11830.493617	1427.708333	1255.934570	-71.112473
11830.493617	1427.708333	1254.825195	92.470604
11830.493617	1427.708333	1253.716797	-149.901413
11830.493617	1427.708333	1252.606445	-86.057045
11830.493617	1427.708333	1251.497070	117.802612
11830.493617	1427.708333	1250.387695	71.091400
11830.493617	1427.708333	1249.277344	221.262253
11830.493617	1427.708333	1248.166992	174.311172
11830.493617	1427.708333	1247.055664	12.140344
11830.493617	1427.708333	1245.945313	-7.079425
11830.493617	1427.708333	1244.833984	-53.425446
11830.493617	1427.708333	1243.722656	96.279900
11830.493617	1427.708333	1242.611328	86.937859
11830.493617	1427.708333	1241.499023	-20.154816
11830.493617	1427.708333	1240.387695	124.309372
11830.493617	1427.708333	1239.275391	33.012939
11830.493617	1427.708333	1238.162109	189.146225
11830.493617	1427.708333	1237.049805	352.364349
11830.493617	1427.708333	1235.936523	207.777618
11830.493617	1427.708333	1234.823242	262.743347
11830.493617	1427.708333	1233.709961	345.686218
11830.493617	1427.708333	1232.596680	278.271210
11830.493617	1427.708333	1231.482422	281.785370
11830.493617	1427.708333	1230.369141	42.897526
11830.493617	1427.708333	1229.253906	240.050980
11830.493617	1427.708333	1228.139648	163.970306
11830.493617	1427.708333	1227.025391	275.997223
11830.493617	1427.708333	1225.910156	290.143341
11830.493617	1427.708333	1224.794922	246.293457
11830.493617	1427.708333	1223.679688	338.594971
11830.493617	1427.708333	1222.563477	351.039917
11830.493617	1427.708333	1221.447266	393.688934
11830.493617	1427.708333	1220.331055	287.718719
11830.493617	1427.708333	1219.214844	157.593109
11830.493617	1427.708333	1218.098633	244.936172
11830.493617	1427.708333	1216.981445	229.454758
11830.493617	1427.708333	1215.864258	392.514221
11830.493617	1427.708333	1214.747070	140.912415
11830.493617	1427.708333	1213.629883	321.927704
11830.493617	1427.708333	1212.511719	277.395813
11830.493617	1427.708333	1211.393555	152.846252
11830.493617	1427.708333	1210.275391	171.412857
11830.493617	1427.708333	1209.157227	162.100555
11830.493617	1427.708333	1208.038086	72.430550
11830.493617	1427.708333	1206.918945	88.520378
11830.493617	1427.708333	1205.799805	-161.330093
11830.493617	1427.708333	1204.680664	258.626282
11830.493617	1427.708333	1203.560547	3.990711
11830.493617	1427.708333	1202.441406	35.929153
11830.493617	1427.708333	1201.321289	157.580475
11830.493617	1427.708333	1200.200195	85.930061
11830.493617	1427.708333	1199.080078	101.331528
11830.493617	1427.708333	1197.958984	122.720482
11830.493617	1427.708333	1196.837891	-7.511823
11830.493617	1427.708333	1195.716797	-101.484390
11830.493617	1427.708333	1194.594727	-113.007309
11830.493617	1427.708333	1193.473633	61.327106
11830.493617	1427.708333	1192.351563	4.013758
11830.493617	1427.708333	1191.229492	74.365967
11830.493617	1427.708333	1190.106445	166.830383
11830.493617	1427.708333	1188.984375	8.647014
11830.493617	1427.708333	1187.861328	-90.930687
11830.493617	1427.708333	1186.738281	-11.383165
11830.493617	1427.708333	1185.614258	75.387466
11830.493617	1427.708333	1184.491211	-10.318876
11830.493617	1427.708333	1183.367188	-84.020493
11830.493617	1427.708333	1182.243164	-52.220119
11830.493617	1427.708333	1181.119141	-17.123566
11830.493617	1427.708333	1179.994141	-18.827433
11830.493617	1427.708333	1178.869141	-46.798172
11830.493617	1427.708333	1177.744141	-22.538450
11830.493617	1427.708333	1176.619141	-180.589005
11830.493617	1427.708333	1175.493164	-0.616886
11830.493617	1427.708333	1174.368164	-115.605537
11830.493617	1427.708333	1173.242188	-192.454803
11830.493617	1427.708333	1172.115234	-88.565865
11830.493617	1427.708333	1170.989258	-136.657227
11830.493617	1427.708333	1169.862305	-263.823334
11830.493617	1427.708333	1168.735352	14.818513
11830.493617	1427.708333	1167.608398	-120.371025
11830.493617	1427.708333	1166.481445	-172.422836
11830.493617	1427.708333	1165.353516	-60.517014
11830.493617	1427.708333	1164.225586	-54.693516
11830.493617	1427.708333	1163.097656	30.730644
11830.493617	1427.708333	1161.968750	50.337955
11830.493617	1427.708333	1160.840820	13.678450
11830.493617	1427.708333	1159.711914	-33.314774
11830.493617	1427.708333	1158.583008	-28.945068
11830.493617	1427.708333	1157.453125	32.168709
11830.493617	1427.708333	1156.324219	-62.749134
11830.493617	1427.708333	1155.194336	10.450922
11830.493617	1427.708333	1154.064453	-83.909233
11830.493617	1427.708333	1152.933594	10.314064
11830.493617	1427.708333	1151.803711	54.499878
11830.493617	1427.708333	1150.672852	-8.476096
11830.493617	1427.708333	1149.541992	55.115505
11830.493617	1427.708333	1148.411133	35.764442
11830.493617	1427.708333	1147.279297	157.706924
11830.493617	1427.708333	1146.147461	7.032865
11830.493617	1427.708333	1145.015625	160.422485
11830.493617	1427.708333	1143.883789	181.152679
11830.493617	1427.708333	1142.750977	122.545418
11830.493617	1427.708333	1141.619141	42.063858
11830.493617	1427.708333	1140.486328	-9.582272
11830.493617	1427.708333	1139.352539	-62.261715
11830.493617	1427.708333	1138.219727	-98.020683
11830.493617	1427.708333	1137.085938	101.648064
11830.493617	1427.708333	1135.952148	46.071373
11830.493617	1427.708333	1134.818359	-161.914200
11830.493617	1427.708333	1133.683594	-38.435345
11830.493617	1427.708333	1132.549805	322.787567
11830.493617	1427.708333	1131.415039	330.700653
11830.493617	1427.708333	1130.279297	349.144287
11830.493617	1427.708333	1129.144531	308.643555
11830.493617	1427.708333	1128.008789	360.695068
11830.493617	1427.708333	1126.873047	207.216034
11830.493617	1427.708333	1125.737305	355.728699
11830.493617	1427.708333	1124.601563	281.944641
11830.493617	1427.708333	1123.464844	464.991608
11830.493617	1427.708333	1122.328125	347.490265
11830.493617	1427.708333	1121.191406	228.278229
11830.493617	1427.708333	1120.054688	90.043770
11830.493617	1427.708333	1118.916992	287.706360
11830.493617	1427.708333	1117.779297	229.324463
11830.493617	1427.708333	1116.641602	188.996506
11830.493617	1427.708333	1115.503906	64.725204
11830.493617	1427.708333	1114.365234	118.816559
11830.493617	1427.708333	1113.226563	164.220917
11830.493617	1427.708333	1112.087891	52.683208
11830.493617	1427.708333	1110.949219	105.708176
11830.493617	1427.708333	1109.809570	105.068367
11830.493617	1427.708333	1108.669922	64.984932
11830.493617	1427.708333	1107.530273	89.026108
11830.493617	1427.708333	1106.390625	280.140961
11830.493617	1427.708333	1105.250000	381.198547
11830.493617	1427.708333	1104.109375	237.179077
11830.493617	1427.708333	1102.968750	224.999451
11830.493617	1427.708333	1101.828125	306.428131
11830.493617	1427.708333	1100.686523	389.151276
11830.493617	1427.708333	1099.544922	316.455109
11830.493617	1427.708333	1098.403320	286.484070
11830.493617	1427.708333	1097.261719	410.869965
11830.493617	1427.708333	1096.120117	186.701599
11830.493617	1427.708333	1094.977539	221.537903
11830.493617	1427.708333	1093.834961	352.104919
11830.493617	1427.708333	1092.691406	224.196777
11830.493617	1427.708333	1091.548828	58.666477
11830.493617	1427.708333	1090.405273	64.794670
11830.493617	1427.708333	1089.261719	164.436600
11830.493617	1427.708333	1088.118164	260.319824
11830.493617	1427.708333	1086.973633	400.677673
11830.493617	1427.708333	1085.829102	140.625336
11830.493617	1427.708333	1084.684570	306.939270
11830.493617	1427.708333	1083.540039	184.952469
11830.493617	1427.708333	1082.395508	9.157225
11830.493617	1427.708333	1081.250000	311.010162
11830.493617	1427.708333	1080.104492	293.679657
11830.493617	1427.708333	1078.958984	258.602295
11830.493617	1427.708333	1077.812500	370.345856
11830.493617	1427.708333	1076.666016	107.589684
11830.493617	1427.708333	1075.519531	224.197128
11830.493617	1427.708333	1074.373047	282.317749
11830.493617	1427.708333	1073.226563	305.414490
11830.493617	1427.708333	1072.079102	223.018814
11830.493617	1427.708333	1070.931641	145.806427
11830.493617	1427.708333	1069.784180	370.956207
11830.493617	1427.708333	1068.635742	295.108734
11830.493617	1427.708333	1067.487305	113.801315
11830.493617	1427.708333	1066.338867	316.896423
11830.493617	1427.708333	1065.190430	273.494781
11830.493617	1427.708333	1064.041992	279.410065
11830.493617	1427.708333	1062.892578	153.783554
11830.493617	1427.708333	1061.743164	327.665588
11830.493617	1427.708333	1060.593750	101.457764
11830.493617	1427.708333	1059.443359	163.448608
11830.493617	1427.708333	1058.292969	312.750244
11830.493617	1427.708333	1057.142578	195.467346
11830.493617	1427.708333	1055.992188	300.779846
11830.493617	1427.708333	1054.841797	201.653809
11830.493617	1427.708333	1053.690430	375.160675
11830.493617	1427.708333	1052.539063	438.743958
11830.493617	1427.708333	1051.387695	404.949799
11830.493617	1427.708333	1050.235352	453.147400
11830.493617	1427.708333	1049.083984	287.720154
11830.493617	1427.708333	1047.931641	363.590698
11830.493617	1427.708333	1046.778320	229.938797
11830.493617	1427.708333	1045.625977	171.653168
11830.493617	1427.708333	1044.472656	207.311310
11830.493617	1427.708333	1043.319336	328.992065
11830.493617	1427.708333	1042.166016	94.695724
11830.493617	1427.708333	1041.012695	393.096405
11830.493617	1427.708333	1039.858398	467.677948
11830.493617	1427.708333	1038.704102	276.407227
11830.493617	1427.708333	1037.549805	396.804962
11830.493617	1427.708333	1036.394531	158.891068
11830.493617	1427.708333	1035.239258	388.915710
11830.493617	1427.708333	1034.083984	383.214142
11830.493617	1427.708333	1032.928711	588.098267
11830.493617	1427.708333	1031.773438	423.831085
11830.493617	1427.708333	1030.617188	469.588409
11830.493617	1427.708333	1029.460938	438.669586
11830.493617	1427.708333	1028.304688	273.535889
11830.493617	1427.708333	1027.147461	344.873718
11830.493617	1427.708333	1025.991211	435.883514
11830.493617	1427.708333	1024.833984	445.594940
11830.493617	1427.708333	1023.675781	320.704407
11830.493617	1427.708333	1022.518555	340.979187
11830.493617	1427.708333	1021.360352	280.360687
11830.493617	1427.708333	1020.202148	364.593994
11830.493617	1427.708333	1019.043945	328.374817
11830.493617	1427.708333	1017.884766	114.734863
11830.493617	1427.708333	1016.726563	626.980957
11830.493617	1427.708333	1015.567383	217.806885
11830.493617	1427.708333	1014.407227	307.182587
11830.493617	1427.708333	1013.248047	58.319565
11830.493617	1427.708333	1012.087891	285.008942
11830.493617	1427.708333	1010.927734	29.729713
11830.493617	1427.708333	1009.767578	235.418808
11830.493617	1427.708333	1008.606445	254.829178
11830.493617	1427.708333	1007.446289	310.583954
11830.493617	1427.708333	1006.285156	138.246246
11830.493617	1427.708333	1005.123047	262.222504
11830.493617	1427.708333	1003.961914	170.224152
11830.493617	1427.708333	1002.799805	246.693771
11830.493617	1427.708333	1001.637695	143.030777
11830.493617	1427.708333	1000.475586	259.686737
11830.493617	1427.708333	999.312500	167.793076
11830.493617	1427.708333	998.149414	374.118500
11830.493617	1427.708333	996.986328	170.494446
11830.493617	1427.708333	995.823242	74.305130
11830.493617	1427.708333	994.659180	24.813627
11830.493617	1427.708333	993.496094	280.551575
11830.493617	1427.708333	992.332031	120.323044
11830.493617	1427.708333	991.166992	171.246414
11830.493617	1427.708333	990.002930	221.341934
11830.493617	1427.708333	988.837891	-45.438225
11830.493617	1427.708333	987.672852	-48.718487
11830.493617	1427.708333	986.506836	53.842026
11830.493617	1427.708333	985.341797	16.227789
11830.493617	1427.708333	984.175781	-176.683624
11830.493617	1427.708333	983.009766	70.416168
11830.493617	1427.708333	981.843750	-36.325935
11830.493617	1427.708333	980.676758	-70.520477
11830.493617	1427.708333	979.509766	187.112762
11830.493617	1427.708333	978.342773	89.426704
11830.493617	1427.708333	977.175781	43.089733
11830.493617	1427.708333	976.007813	107.384689
11830.493617	1427.708333	974.839844	109.897614
11830.493617	1427.708333	973.671875	-184.842773
11830.493617	1427.708333	972.503906	15.497915
11830.493617	1427.708333	971.334961	-115.606262
11830.493617	1427.708333	970.166016	34.448494
11830.493617	1427.708333	968.997070	-20.328644
11830.493617	1427.708333	967.828125	130.468002
11830.493617	1427.708333	966.658203	140.449020
11830.493617	1427.708333	965.488281	159.423462
11830.493617	1427.708333	964.318359	-41.194233
11830.493617	1427.708333	963.148438	-26.856806
11830.493617	1427.708333	961.977539	-47.065147
11830.493617	1427.708333	960.806641	-62.535465
11830.493617	1427.708333	959.635742	-76.545708
11830.493617	1427.708333	958.463867	-48.320515
11830.493617	1427.708333	957.292969	-71.308929
11830.493617	1427.708333	956.121094	23.217054
11830.493617	1427.708333	954.948242	18.274296
11830.493617	1427.708333	953.776367	168.547760
11830.493617	1427.708333	952.603516	9.229104
11830.493617	1427.708333	951.430664	114.539902
11830.493617	1427.708333	950.257813	80.377960
11830.493617	1427.708333	949.084961	176.556137
11830.493617	1427.708333	947.911133	107.228302
11830.493617	1427.708333	946.737305	379.922821
11830.493617	1427.708333	945.563477	236.026749
11830.493617	1427.708333	944.388672	157.758316
11830.493617	1427.708333	943.213867	325.141083
11830.493617	1427.708333	942.039063	461.260315
11830.493617	1427.708333	940.864258	297.877106
11830.493617	1427.708333	939.688477	505.387207
11830.493617	1427.708333	938.513672	419.719727
11830.493617	1427.708333	937.337891	343.012482
11830.493617	1427.708333	936.161133	266.452271
11830.493617	1427.708333	934.985352	415.596191
11830.493617	1427.708333	933.808594	332.270447
11830.493617	1427.708333	932.631836	123.667824
11830.493617	1427.708333	931.454102	371.056885
11830.493617	1427.708333	930.277344	421.639587
11830.493617	1427.708333	929.099609	552.648010
11830.493617	1427.708333	927.921875	156.361069
11830.493617	1427.708333	926.743164	21.495367
11830.493617	1427.708333	925.565430	181.437683
11830.493617	1427.708333	924.386719	225.175705
11830.493617	1427.708333	923.208008	45.617302
11830.493617	1427.708333	922.028320	2.241672
11830.493617	1427.708333	920.849609	52.576427
11830.493617	1427.708333	919.669922	56.602154
11830.493617	1427.708333	919.474609	293.172577
11830.493617	1427.708333	918.309570	198.315002
11830.493617	1427.708333	917.143555	134.685791
11830.493617	1427.708333	915.977539	-31.521889
11830.493617	1427.708333	914.810547	-37.184547
11830.493617	1427.708333	913.644531	1.693541
11830.493617	1427.708333	912.477539	73.949959
11830.493617	1427.708333	911.310547	83.759422
11830.493617	1427.708333	910.143555	55.661148
11830.493617	1427.708333	908.975586	-137.259628
11830.493617	1427.708333	907.807617	-129.743149
11830.493617	1427.708333	906.639648	0.174582
11830.493617	1427.708333	905.471680	-7.989690
11830.493617	1427.708333	904.303711	48.347172
11830.493617	1427.708333	903.134766	-100.050087
11830.493617	1427.708333	901.965820	-52.681377
11830.493617	1427.708333	900.796875	-12.036823
11830.493617	1427.708333	899.626953	-4.792218
11830.493617	1427.708333	898.457031	-79.835098
11830.493617	1427.708333	897.287109	-85.982750
11830.493617	1427.708333	896.117188	-81.052475
11830.493617	1427.708333	894.947266	90.463615
11830.493617	1427.708333	893.776367	-137.931747
11830.493617	1427.708333	892.605469	17.916025
11830.493617	1427.708333	891.434570	-123.848503
11830.493617	1427.708333	890.262695	-105.760773
11830.493617	1427.708333	889.091797	-109.910896
11830.493617	1427.708333	887.919922	1.292225
11830.493617	1427.708333	886.748047	19.241558
11830.493617	1427.708333	885.575195	-226.788925
11830.493617	1427.708333	884.403320	32.843277
11830.493617	1427.708333	883.230469	-69.046364
11830.493617	1427.708333	882.057617	-117.729843
11830.493617	1427.708333	880.883789	-40.102291
11830.493617	1427.708333	879.710938	79.556160
11830.493617	1427.708333	878.537109	-111.005684
11830.493617	1427.708333	877.362305	121.510880
11830.493617	1427.708333	876.188477	94.813164
11830.493617	1427.708333	875.013672	30.459354
11830.493617	1427.708333	873.839844	320.248657
11830.493617	1427.708333	872.664063	-58.440380
11830.493617	1427.708333	871.489258	-52.025490
11830.493617	1427.708333	870.313477	31.777805
11830.493617	1427.708333	869.138672	197.341187
11830.493617	1427.708333	867.962891	-8.677964
11830.493617	1427.708333	866.786133	-26.731964
11830.493617	1427.708333	865.610352	59.068592
11830.493617	1427.708333	864.433594	1.160199
11830.493617	1427.708333	863.256836	51.500694
11830.493617	1427.708333	862.079102	196.770554
11830.493617	1427.708333	860.902344	-181.466766
11830.493617	1427.708333	859.724609	-84.856102
11830.493617	1427.708333	858.546875	58.037033
11830.493617	1427.708333	857.368164	22.060951
11830.493617	1427.708333	856.190430	27.987303
11830.493617	1427.708333	855.011719	-45.546768
11830.493617	1427.708333	853.833008	-55.120358
11830.493617	1427.708333	852.654297	25.690184
11830.493617	1427.708333	851.474609	-78.774841
11830.493617	1427.708333	850.294922	81.293243
11830.493617	1427.708333	849.115234	60.533882
11830.493617	1427.708333	847.935547	-41.784573
11830.493617	1427.708333	846.754883	91.628227
11830.493617	1427.708333	845.575195	9.092276
11830.493617	1427.708333	844.393555	-80.051338
11830.493617	1427.708333	843.212891	-41.501583
11830.493617	1427.708333	842.032227	-159.294342
11830.493617	1427.708333	840.850586	-1.978310
11830.493617	1427.708333	839.668945	3.409685
11830.493617	1427.708333	838.486328	65.953674
11830.493617	1427.708333	837.304688	-62.919498
11830.493617	1427.708333	836.122070	-187.380447
11830.493617	1427.708333	834.939453	114.680626
11830.493617	1427.708333	833.756836	-60.403564
11830.493617	1427.708333	832.573242	186.484985
11830.493617	1427.708333	831.389648	-25.976475
11830.493617	1427.708333	830.206055	-36.295078
11830.493617	1427.708333	829.022461	-73.008232
11830.493617	1427.708333	827.838867	138.377884
11830.493617	1427.708333	826.654297	-133.343140
11830.493617	1427.708333	825.469727	-14.304461
11830.493617	1427.708333	824.284180	1.504222
11830.493617	1427.708333	823.099609	67.722435
11830.493617	1427.708333	821.914063	144.836868
11830.493617	1427.708333	820.728516	0.372683
11830.493617	1427.708333	819.542969	-1.556190
11830.493617	1427.708333	818.356445	81.966583
11830.493617	1427.708333	817.169922	-29.656778
11830.493617	1427.708333	815.983398	62.508919
11830.493617	1427.708333	814.796875	288.229919
11830.493617	1427.708333	813.609375	194.016113
11830.493617	1427.708333	812.422852	31.905157
11830.493617	1427.708333	811.235352	-195.870895
11830.493617	1427.708333	810.046875	171.812469
11830.493617	1427.708333	808.859375	51.243073
11830.493617	1427.708333	807.670898	191.060959
11830.493617	1427.708333	806.482422	245.451874
11830.493617	1427.708333	805.293945	194.783554
11830.493617	1427.708333	804.104492	69.736519
11830.493617	1427.708333	802.915039	139.270020
11830.493617	1427.708333	801.725586	232.768433
11830.493617	1427.708333	800.536133	81.411041
11830.493617	1427.708333	799.345703	207.551971
11830.493617	1427.708333	798.155273	104.215126
11830.493617	1427.708333	796.964844	-34.076477
11830.493617	1427.708333	795.774414	56.912106
11830.493617	1427.708333	794.583008	119.427399
11830.493617	1427.708333	793.392578	491.804199
11830.493617	1427.708333	792.200195	189.659668
11830.493617	1427.708333	791.008789	173.398285
11830.493617	1427.708333	789.816406	311.962494
11830.493617	1427.708333	788.625000	94.929565
11830.493617	1427.708333	787.432617	6.573849
11830.493617	1427.708333	786.239258	179.794189
11830.493617	1427.708333	785.046875	204.676956
11830.493617	1427.708333	783.853516	214.236420
11830.493617	1427.708333	782.660156	27.658167
11830.493617	1427.708333	781.465820	124.258514
11830.493617	1427.708333	780.272461	246.892776
11830.493617	1427.708333	779.078125	134.270157
11830.493617	1427.708333	777.883789	147.887955
11830.493617	1427.708333	776.688477	111.382599
11830.493617	1427.708333	775.494141	259.782654
11830.493617	1427.708333	774.298828	179.635818
11830.493617	1427.708333	773.103516	184.284302
11830.493617	1427.708333	771.907227	241.056747
11830.493617	1427.708333	770.711914	236.867859
11830.493617	1427.708333	769.515625	176.099869
11830.493617	1427.708333	768.318359	60.963188
11830.493617	1427.708333	767.122070	186.984161
11830.493617	1427.708333	765.924805	82.622849
11830.493617	1427.708333	764.727539	104.206238
11830.493617	1427.708333	763.530273	260.340393
11830.493617	1427.708333	762.333008	103.729034
11830.493617	1427.708333	761.134766	42.614418
11830.493617	1427.708333	759.936523	224.501495
11830.493617	1427.708333	758.738281	128.539307
11830.493617	1427.708333	757.540039	195.232376
11830.493617	1427.708333	756.340820	164.237823
11830.493617	1427.708333	755.141602	300.139893
11830.493617	1427.708333	753.942383	173.615051
11830.493617	1427.708333	752.742188	354.830933
11830.493617	1427.708333	751.541992	137.196259
11830.493617	1427.708333	750.341797	472.019287
11830.493617	1427.708333	749.141602	178.499893
11830.493617	1427.708333	747.941406	238.011810
11830.493617	1427.708333	746.740234	80.917770
11830.493617	1427.708333	745.539063	-110.816574
11830.493617	1427.708333	744.337891	11.259660
11830.493617	1427.708333	743.135742	111.573540
11830.493617	1427.708333	741.933594	12.752019
11830.493617	1427.708333	740.731445	-101.242264
11830.493617	1427.708333	739.529297	-14.162497
11830.493617	1427.708333	738.326172	85.775620
11830.493617	1427.708333	737.124023	109.949005
11830.493617	1427.708333	735.919922	103.778259
11830.493617	1427.708333	734.716797	45.684151
11830.493617	1427.708333	733.513672	203.549591
11830.493617	1427.708333	732.309570	324.557037
11830.493617	1427.708333	731.105469	123.717903
11830.493617	1427.708333	729.900391	9.233090
11830.493617	1427.708333	728.696289	78.178688
11830.493617	1427.708333	727.491211	254.906906
11830.493617	1427.708333	726.286133	71.200867
11830.493617	1427.708333	725.080078	66.518166
11830.493617	1427.708333	723.874023	-123.697769
11830.493617	1427.708333	722.668945	-72.431961
11830.493617	1427.708333	721.461914	-148.450409
11830.493617	1427.708333	720.255859	152.636749
11830.493617	1427.708333	719.048828	-1.121752
11830.493617	1427.708333	717.841797	10.983505
11830.493617	1427.708333	716.634766	14.389995
11830.493617	1427.708333	715.427734	50.017624
11830.493617	1427.708333	714.219727	8.046219
11830.493617	1427.708333	713.011719	13.366165
11830.493617	1427.708333	711.803711	113.293900
11830.493617	1427.708333	710.594727	-21.418619
11830.493617	1427.708333	709.385742	41.746174
11830.493617	1427.708333	708.176758	74.698517
11830.493617	1427.708333	706.967773	-27.902319
11830.493617	1427.708333	705.758789	-76.794495
11830.493617	1427.708333	704.548828	13.954391
11830.493617	1427.708333	703.338867	-131.783218
11830.493617	1427.708333	702.127930	76.939636
11830.493617	1427.708333	700.917969	23.456047
11830.493617	1427.708333	699.707031	-42.972080
11830.493617	1427.708333	698.496094	-30.009096
11830.493617	1427.708333	697.285156	-212.466293
11830.493617	1427.708333	696.073242	-191.047287
11830.493617	1427.708333	694.861328	-171.860550
11830.493617	1427.708333	693.649414	113.249504
11830.493617	1427.708333	692.436523	185.826187
11830.493617	1427.708333	691.224609	-194.146896
11830.493617	1427.708333	690.011719	90.555244
11830.493617	1427.708333	688.798828	308.616547
11830.493617	1427.708333	687.584961	132.203186
11830.493617	1427.708333	686.372070	-104.196724
11830.493617	1427.708333	685.158203	-141.364471
11830.493617	1427.708333	683.943359	86.962929
11830.493617	1427.708333	682.729492	186.656769
11830.493617	1427.708333	681.514648	-86.251022
11830.493617	1427.708333	680.299805	223.031464
11830.493617	1427.708333	679.084961	108.431549
11830.493617	1427.708333	677.869141	15.196222
11830.493617	1427.708333	676.653320	-18.181200
11830.493617	1427.708333	675.437500	196.445404
11830.493617	1427.708333	674.221680	167.180206
11830.493617	1427.708333	673.004883	30.974174
11830.493617	1427.708333	671.789063	31.537659
11830.493617	1427.708333	670.571289	111.077652
11830.493617	1427.708333	669.354492	-93.591866
11830.493617	1427.708333	668.136719	222.875565
11830.493617	1427.708333	666.919922	216.719131
11830.493617	1427.708333	665.701172	251.051544
11830.493617	1427.708333	664.483398	193.531265
11830.493617	1427.708333	663.264648	167.975128
11830.493617	1427.708333	662.045898	308.780701
11830.493617	1427.708333	660.827148	308.683258
11830.493617	1427.708333	659.608398	-0.701024
11830.493617	1427.708333	658.388672	150.522873
11830.493617	1427.708333	657.168945	438.052612
11830.493617	1427.708333	655.949219	94.553223
11830.493617	1427.708333	654.728516	49.448051
11830.493617	1427.708333	653.507813	306.814789
11830.493617	1427.708333	652.287109	-21.703827
11830.493617	1427.708333	651.066406	241.848343
11830.493617	1427.708333	649.844727	192.267639
11830.493617	1427.708333	648.623047	95.828308
11830.493617	1427.708333	647.401367	214.316727
11830.493617	1427.708333	646.179688	71.005577
11830.493617	1427.708333	644.957031	95.747765
11830.493617	1427.708333	643.734375	273.559052
11830.493617	1427.708333	642.511719	293.903595
11830.493617	1427.708333	641.289063	263.175323
11830.493617	1427.708333	640.065430	209.029846
11830.493617	1427.708333	638.841797	367.360107
11830.493617	1427.708333	637.618164	-122.387207
11830.493617	1427.708333	636.393555	16.743341
11830.493617	1427.708333	635.168945	206.744476
11830.493617	1427.708333	633.944336	-51.355000
11830.493617	1427.708333	632.719727	140.632950
11830.493617	1427.708333	631.494141	-19.795219
11830.493617	1427.708333	630.269531	93.533318
11830.493617	1427.708333	629.042969	79.487625
11830.493617	1427.708333	627.817383	247.824890
11830.493617	1427.708333	626.590820	49.218086
11830.493617	1427.708333	625.365234	105.078606
11830.493617	1427.708333	624.137695	80.334007
11830.493617	1427.708333	622.911133	117.039612
11830.493617	1427.708333	621.683594	-15.790782
11830.493617	1427.708333	620.456055	-95.626785
11830.493617	1427.708333	619.228516	13.033374
11830.493617	1427.708333	618.000977	115.281357
11830.493617	1427.708333	616.772461	10.014120
11830.493617	1427.708333	615.543945	-57.124519
11830.493617	1427.708333	614.314453	78.880608
11830.493617	1427.708333	613.085938	-22.108480
11830.493617	1427.708333	611.856445	-44.811310
11830.493617	1427.708333	610.626953	-59.048809
11830.493617	1427.708333	609.397461	-229.729172
11830.493617	1427.708333	608.166992	-106.538261
11830.493617	1427.708333	606.936523	-163.024490
11830.493617	1427.708333	605.706055	-111.729782
11830.493617	1427.708333	604.474609	30.374935
11830.493617	1427.708333	603.244141	56.279713
11830.493617	1427.708333	602.012695	44.171520
11830.493617	1427.708333	600.780273	-79.810768
11830.493617	1427.708333	599.548828	-104.520866
11830.493617	1427.708333	598.316406	-97.559753
11830.493617	1427.708333	597.083984	-82.142723
11830.493617	1427.708333	595.851563	7.112264
11830.493617	1427.708333	594.618164	140.629089
11830.493617	1427.708333	593.384766	10.575251
11830.493617	1427.708333	592.151367	-98.315590
11830.493617	1427.708333	590.917969	41.545727
11830.493617	1427.708333	589.683594	-218.951920
11830.493617	1427.708333	588.449219	-64.317818
11830.493617	1427.708333	587.214844	-29.757723
11830.493617	1427.708333	585.979492	-14.131618
11830.493617	1427.708333	584.745117	18.379200
11830.493617	1427.708333	583.509766	-117.465073
11830.493617	1427.708333	582.273438	-30.158089
11830.493617	1427.708333	581.038086	17.195797
11830.493617	1427.708333	579.801758	64.573853
11830.493617	1427.708333	578.565430	2.632573
11830.493617	1427.708333	577.329102	-2.458699
11830.493617	1427.708333	576.091797	213.218781
11830.493617	1427.708333	574.854492	96.813560
11830.493617	1427.708333	573.617188	150.714737
11830.493617	1427.708333	572.378906	160.537491
11830.493617	1427.708333	571.141602	113.723602
11830.493617	1427.708333	569.903320	205.581253
11830.493617	1427.708333	568.664063	226.088547
11830.493617	1427.708333	567.425781	595.087280
11830.493617	1427.708333	566.186523	99.436836
11830.493617	1427.708333	564.947266	220.891693
11830.493617	1427.708333	563.708008	399.011810
11830.493617	1427.708333	562.467773	201.752762
11830.493617	1427.708333	561.227539	208.041687
11830.493617	1427.708333	559.987305	97.030319
11830.493617	1427.708333	558.747070	235.554947
11830.493617	1427.708333	557.505859	256.771545
11830.493617	1427.708333	556.264648	185.900894
11830.493617	1427.708333	555.023438	391.624939
11830.493617	1427.708333	553.781250	124.118408
11830.493617	1427.708333	552.539063	122.709213
11830.493617	1427.708333	551.296875	117.219864
11830.493617	1427.708333	550.054688	76.266769
11830.493617	1427.708333	548.811523	284.406769
11830.493617	1427.708333	547.569336	304.319794
11830.493617	1427.708333	546.325195	175.848022
11830.493617	1427.708333	545.082031	271.273529
11830.493617	1427.708333	543.837891	366.772644
11830.493617	1427.708333	542.593750	61.083443
11830.493617	1427.708333	541.349609	-102.265724
11830.493617	1427.708333	540.105469	177.459457
11830.493617	1427.708333	538.860352	-19.013739
11830.493617	1427.708333	537.615234	-64.925285
11830.493617	1427.708333	536.369141	-185.847595
11830.493617	1427.708333	535.124023	12.769943
11830.493617	1427.708333	533.877930	-47.331566
11830.493617	1427.708333	532.631836	166.043823
11830.493617	1427.708333	531.384766	133.324890
11830.493617	1427.708333	530.138672	146.643219
11830.493617	1427.708333	528.891602	57.928070
11830.493617	1427.708333	527.643555	-36.861794
11830.493617	1427.708333	526.396484	239.510773
11830.493617	1427.708333	525.148438	3.322211
11830.493617	1427.708333	523.900391	-101.373383
11830.493617	1427.708333	522.652344	-93.404945
11830.493617	1427.708333	521.403320	14.659644
11830.493617	1427.708333	520.154297	31.225487
11830.493617	1427.708333	518.905273	114.543472
11830.493617	1427.708333	517.656250	-80.876801
11830.493617	1427.708333	516.406250	81.794434
11830.493617	1427.708333	515.156250	161.346191
11830.493617	1427.708333	513.906250	43.450916
11830.493617	1427.708333	512.655273	214.771439
11830.493617	1427.708333	511.404297	-100.256393
11830.493617	1427.708333	510.153320	79.647934
11830.493617	1427.708333	508.902344	-56.204887
11830.493617	1427.708333	507.650391	67.834404
11830.493617	1427.708333	506.398438	144.206573
11830.493617	1427.708333	505.146484	150.101852
11830.493617	1427.708333	503.893555	286.943939
11830.493617	1427.708333	502.641602	550.498779
11830.493617	1427.708333	501.388672	293.222260
11830.493617	1427.708333	500.134766	216.713715
11830.493617	1427.708333	498.881836	115.502556
11830.493617	1427.708333	497.627930	391.929871
11830.493617	1427.708333	496.374023	425.802551
11830.493617	1427.708333	495.119141	538.585205
11830.493617	1427.708333	493.865234	597.585022
11830.493617	1427.708333	492.610352	347.970581
11830.493617	1427.708333	491.355469	396.923676
11830.493617	1427.708333	490.099609	317.590363
11830.493617	1427.708333	488.843750	646.367737
11830.493617	1427.708333	487.587891	627.338440
11830.493617	1427.708333	486.332031	749.205200
11830.493617	1427.708333	485.075195	691.120605
11830.493617	1427.708333	483.818359	686.987427
11830.493617	1427.708333	482.561523	682.988098
11830.493617	1427.708333	481.304688	693.594177
11830.493617	1427.708333	480.046875	846.988159
11830.493617	1427.708333	478.789063	866.070496
11830.493617	1427.708333	477.531250	608.323792
11830.493617	1427.708333	476.272461	933.491638
11830.493617	1427.708333	475.013672	1010.729553
11830.493617	1427.708333	473.754883	877.370850
11830.493617	1427.708333	472.496094	692.547607
11830.493617	1427.708333	471.236328	924.928589
11830.493617	1427.708333	469.976563	810.540039
11830.493617	1427.708333	468.716797	1135.832642
11830.493617	1427.708333	467.456055	1025.741089
11830.493617	1427.708333	466.196289	1089.036499
11830.493617	1427.708333	464.935547	1199.806885
11830.493617	1427.708333	463.673828	1127.089844
11830.493617	1427.708333	462.413086	1124.543701
11830.493617	1427.708333	461.151367	1119.987427
11830.493617	1427.708333	459.889648	1220.556763
11830.493617	1427.708333	458.626953	1230.475830
11830.493617	1427.708333	457.364258	1534.936646
11830.493617	1427.708333	456.101563	1528.349487
11830.493617	1427.708333	454.838867	1453.836792
11830.493617	1427.708333	453.575195	1319.666260
11830.493617	1427.708333	452.312500	1236.985962
11830.493617	1427.708333	451.047852	1378.578369
11830.493617	1427.708333	449.784180	1489.222290
11830.493617	1427.708333	448.519531	1593.610352
11830.493617	1427.708333	447.254883	1578.651123
11830.493617	1427.708333	445.990234	1674.636230
11830.493617	1427.708333	444.725586	1807.497559
11830.493617	1427.708333	443.459961	1558.041626
11830.493617	1427.708333	442.194336	1538.673950
11830.493617	1427.708333	440.927734	1595.192139
11830.493617	1427.708333	439.662109	1532.465820
11830.493617	1427.708333	438.395508	1687.237305
11830.493617	1427.708333	437.127930	1886.945190
11830.493617	1427.708333	435.861328	1312.780762
11830.493617	1427.708333	434.593750	1782.943115
11830.493617	1427.708333	433.326172	1520.443481
11830.493617	1427.708333	432.058594	1704.896118
11830.493617	1427.708333	430.790039	1729.118286
11830.493617	1427.708333	429.521484	1900.669434
11830.493617	1427.708333	428.252930	1862.846436
11830.493617	1427.708333	426.984375	1974.326904
11830.493617	1427.708333	425.714844	1944.109985
11830.493617	1427.708333	424.445313	2056.949951
11830.493617	1427.708333	423.174805	2099.779541
11830.493617	1427.708333	421.905273	2099.242432
11830.493617	1427.708333	420.634766	2184.281250
11830.493617	1427.708333	419.364258	1816.658447
11830.493617	1427.708333	418.092773	1767.915161
11830.493617	1427.708333	416.822266	2013.278687
11830.493617	1427.708333	415.550781	1902.247314
11830.493617	1427.708333	414.278320	1682.406006
11830.493617	1427.708333	413.006836	1903.657959
11830.493617	1427.708333	411.734375	2181.485840
11830.493617	1427.708333	410.461914	1947.833740
11830.493617	1427.708333	409.188477	2224.358887
11830.493617	1427.708333	407.916016	1930.349731
11830.493617	1427.708333	406.642578	2138.101318
11830.493617	1427.708333	405.368164	1895.972290
11830.493617	1427.708333	404.094727	1906.319214
11830.493617	1427.708333	402.820313	2011.818115
11830.493617	1427.708333	401.545898	1863.530762
11830.493617	1427.708333	400.270508	2053.073975
11830.493617	1427.708333	398.996094	1668.700073
11830.493617	1427.708333	397.720703	2052.214111
11830.493617	1427.708333	396.444336	1835.393066
11830.493617	1427.708333	395.168945	1994.739258
11830.493617	1427.708333	393.892578	2183.592041
11830.493617	1427.708333	392.616211	1994.513916
11830.493617	1427.708333	391.339844	2032.560425
11830.493617	1427.708333	390.062500	2112.247803
11830.493617	1427.708333	388.785156	2076.778809
11830.493617	1427.708333	387.507813	1938.401611
11830.493617	1427.708333	386.229492	1806.998047
11830.493617	1427.708333	384.951172	2048.712402
11830.493617	1427.708333	383.672852	1920.901123
11830.493617	1427.708333	382.394531	2023.616943
11830.493617	1427.708333	381.115234	2025.271118
11830.493617	1427.708333	379.835938	2212.490234
11830.493617	1427.708333	378.556641	2136.011719
11830.493617	1427.708333	377.277344	1954.431152
11830.493617	1427.708333	375.997070	2307.571289
11830.493617	1427.708333	374.716797	2005.027344
11830.493617	1427.708333	373.435547	2050.127686
11830.493617	1427.708333	372.155273	1795.118286
11830.493617	1427.708333	370.874023	1836.738647
11830.493617	1427.708333	369.591797	1943.427490
11830.493617	1427.708333	368.310547	1818.982544
11830.493617	1427.708333	367.028320	2057.670654
11830.493617	1427.708333	365.746094	2136.088623
11830.493617	1427.708333	364.463867	1924.537354
11830.493617	1427.708333	363.180664	1956.154175
11830.493617	1427.708333	361.897461	1776.850952
11830.493617	1427.708333	360.614258	1984.343262
11830.493617	1427.708333	359.330078	1828.850952
11830.493617	1427.708333	358.045898	1855.316284
11830.493617	1427.708333	356.761719	1865.142456
11830.493617	1427.708333	355.477539	1931.143433
11830.493617	1427.708333	354.192383	1917.570923
11830.493617	1427.708333	352.907227	1626.175903
11830.493617	1427.708333	351.622070	1649.750488
11830.493617	1427.708333	350.336914	1660.390259
11830.493617	1427.708333	349.050781	1635.727539
11830.493617	1427.708333	347.764648	1602.042969
11830.493617	1427.708333	346.477539	1617.808838
11830.493617	1427.708333	345.191406	1588.072632
11830.493617	1427.708333	343.904297	1468.204102
11830.493617	1427.708333	342.616211	1639.901611
11830.493617	1427.708333	341.329102	1519.456665
11830.493617	1427.708333	340.041016	1619.612183
11830.493617	1427.708333	338.752930	1550.659790
11830.493617	1427.708333	337.463867	1322.621094
11830.493617	1427.708333	336.175781	1551.020996
11830.493617	1427.708333	334.886719	1333.657959
11830.493617	1427.708333	333.596680	1061.950073
11830.493617	1427.708333	332.307617	1131.193848
11830.493617	1427.708333	331.017578	1028.875854
11830.493617	1427.708333	329.727539	958.644958
11830.493617	1427.708333	328.436523	857.811401
11830.493617	1427.708333	327.146484	837.294922
11830.493617	1427.708333	325.855469	741.639282
11830.493617	1427.708333	324.563477	600.982361
11830.493617	1427.708333	323.272461	606.715637
11830.493617	1427.708333	321.980469	720.156921
11830.493617	1427.708333	320.688477	416.036652
11830.493617	1427.708333	319.395508	267.747650
11830.493617	1427.708333	318.103516	365.837585
11830.493617	1427.708333	316.810547	510.677856
11830.493617	1427.708333	315.516602	30.597448
11830.493617	1427.708333	314.223633	5.558222
11830.493617	1427.708333	312.929688	16.847866
11830.493617	1427.708333	311.635742	156.877167
11830.493617	1427.708333	310.340820	-4.603292
11830.493617	1427.708333	309.045898	217.452057
11830.493617	1427.708333	307.750977	-38.716846
11830.493617	1427.708333	306.456055	-38.219971
11830.493617	1427.708333	305.160156	-251.180679
11830.493617	1427.708333	303.865234	25.040113
11830.493617	1427.708333	302.568359	79.259148
11830.493617	1427.708333	301.272461	-17.772305
11830.493617	1427.708333	299.975586	86.426163
11830.493617	1427.708333	298.678711	89.034409
