#X		#Y		#Wave		#Intensity
11423.378723	2918.281667	1999.980469	13.666034
11423.378723	2918.281667	1999.016602	60.994900
11423.378723	2918.281667	1998.052734	230.915466
11423.378723	2918.281667	1997.087891	78.717201
11423.378723	2918.281667	1996.123047	-157.562378
11423.378723	2918.281667	1995.158203	0.222854
11423.378723	2918.281667	1994.193359	-89.626183
11423.378723	2918.281667	1993.228516	-142.201584
11423.378723	2918.281667	1992.262695	213.844940
11423.378723	2918.281667	1991.297852	32.699505
11423.378723	2918.281667	1990.332031	131.373047
11423.378723	2918.281667	1989.366211	14.821097
11423.378723	2918.281667	1988.399414	54.255714
11423.378723	2918.281667	1987.433594	14.610981
11423.378723	2918.281667	1986.466797	7.209718
11423.378723	2918.281667	1985.500977	180.395889
11423.378723	2918.281667	1984.534180	19.851135
11423.378723	2918.281667	1983.567383	-73.820908
11423.378723	2918.281667	1982.599609	62.438713
11423.378723	2918.281667	1981.632813	82.596992
11423.378723	2918.281667	1980.665039	149.752823
11423.378723	2918.281667	1979.697266	105.808983
11423.378723	2918.281667	1978.729492	19.969807
11423.378723	2918.281667	1977.761719	-41.081337
11423.378723	2918.281667	1976.792969	-35.399143
11423.378723	2918.281667	1975.825195	69.068665
11423.378723	2918.281667	1974.856445	50.177841
11423.378723	2918.281667	1973.887695	-47.593864
11423.378723	2918.281667	1972.918945	61.928768
11423.378723	2918.281667	1971.949219	-55.424721
11423.378723	2918.281667	1970.980469	145.404297
11423.378723	2918.281667	1970.010742	30.654196
11423.378723	2918.281667	1969.041016	-106.183800
11423.378723	2918.281667	1968.071289	-18.661871
11423.378723	2918.281667	1967.101563	-86.348763
11423.378723	2918.281667	1966.130859	-1.229391
11423.378723	2918.281667	1965.161133	-4.759770
11423.378723	2918.281667	1964.190430	137.045334
11423.378723	2918.281667	1963.219727	72.028084
11423.378723	2918.281667	1962.249023	19.386942
11423.378723	2918.281667	1961.277344	252.300919
11423.378723	2918.281667	1960.306641	234.180359
11423.378723	2918.281667	1959.334961	61.109222
11423.378723	2918.281667	1958.363281	-52.823376
11423.378723	2918.281667	1957.391602	-75.680092
11423.378723	2918.281667	1956.419922	-5.053329
11423.378723	2918.281667	1955.447266	99.998993
11423.378723	2918.281667	1954.474609	-18.627436
11423.378723	2918.281667	1953.501953	0.445248
11423.378723	2918.281667	1952.529297	130.110550
11423.378723	2918.281667	1951.556641	14.100402
11423.378723	2918.281667	1950.583984	28.340078
11423.378723	2918.281667	1949.610352	3.312040
11423.378723	2918.281667	1948.636719	93.718521
11423.378723	2918.281667	1947.663086	36.833511
11423.378723	2918.281667	1946.689453	-42.091938
11423.378723	2918.281667	1945.715820	104.793343
11423.378723	2918.281667	1944.741211	136.338745
11423.378723	2918.281667	1943.767578	-6.260076
11423.378723	2918.281667	1942.792969	76.845505
11423.378723	2918.281667	1941.818359	-117.135017
11423.378723	2918.281667	1940.842773	137.614700
11423.378723	2918.281667	1939.868164	-134.696121
11423.378723	2918.281667	1938.892578	-34.386101
11423.378723	2918.281667	1937.916992	119.810875
11423.378723	2918.281667	1936.941406	85.340363
11423.378723	2918.281667	1935.965820	119.481445
11423.378723	2918.281667	1934.990234	60.572788
11423.378723	2918.281667	1934.013672	77.602386
11423.378723	2918.281667	1933.037109	67.715218
11423.378723	2918.281667	1932.060547	45.610828
11423.378723	2918.281667	1931.083984	57.788586
11423.378723	2918.281667	1930.107422	72.423172
11423.378723	2918.281667	1929.129883	-113.513382
11423.378723	2918.281667	1928.153320	-54.802376
11423.378723	2918.281667	1927.175781	60.138599
11423.378723	2918.281667	1926.198242	118.820717
11423.378723	2918.281667	1925.219727	-115.820015
11423.378723	2918.281667	1924.242188	-240.388672
11423.378723	2918.281667	1923.263672	-91.244606
11423.378723	2918.281667	1922.285156	26.096514
11423.378723	2918.281667	1921.306641	-32.451752
11423.378723	2918.281667	1920.328125	-5.498777
11423.378723	2918.281667	1919.349609	-44.467892
11423.378723	2918.281667	1918.370117	121.636154
11423.378723	2918.281667	1917.391602	7.015827
11423.378723	2918.281667	1916.412109	-109.995110
11423.378723	2918.281667	1915.431641	-90.331619
11423.378723	2918.281667	1914.452148	56.174057
11423.378723	2918.281667	1913.472656	95.324371
11423.378723	2918.281667	1912.492188	-84.985397
11423.378723	2918.281667	1911.511719	15.135319
11423.378723	2918.281667	1910.531250	-48.083878
11423.378723	2918.281667	1909.550781	71.498734
11423.378723	2918.281667	1908.569336	-52.611168
11423.378723	2918.281667	1907.588867	66.937271
11423.378723	2918.281667	1906.607422	106.069366
11423.378723	2918.281667	1905.625977	191.458435
11423.378723	2918.281667	1904.644531	50.391750
11423.378723	2918.281667	1903.662109	-46.803658
11423.378723	2918.281667	1902.680664	123.758705
11423.378723	2918.281667	1901.698242	-39.108540
11423.378723	2918.281667	1900.715820	0.016466
11423.378723	2918.281667	1899.733398	-94.654648
11423.378723	2918.281667	1898.750000	-109.034042
11423.378723	2918.281667	1897.767578	44.369278
11423.378723	2918.281667	1896.784180	17.816713
11423.378723	2918.281667	1895.800781	78.776550
11423.378723	2918.281667	1894.817383	54.659176
11423.378723	2918.281667	1893.833984	28.121586
11423.378723	2918.281667	1892.850586	-51.849640
11423.378723	2918.281667	1891.866211	-61.356064
11423.378723	2918.281667	1890.881836	55.413883
11423.378723	2918.281667	1889.897461	2.188012
11423.378723	2918.281667	1888.913086	65.498337
11423.378723	2918.281667	1887.927734	-9.554517
11423.378723	2918.281667	1886.943359	46.452614
11423.378723	2918.281667	1885.958008	70.897934
11423.378723	2918.281667	1884.972656	-81.737534
11423.378723	2918.281667	1883.987305	-16.052588
11423.378723	2918.281667	1883.001953	-35.258835
11423.378723	2918.281667	1882.015625	83.721901
11423.378723	2918.281667	1881.029297	16.023033
11423.378723	2918.281667	1880.042969	-63.769180
11423.378723	2918.281667	1879.056641	-90.230087
11423.378723	2918.281667	1878.070313	57.731483
11423.378723	2918.281667	1877.083984	14.298480
11423.378723	2918.281667	1876.096680	21.730261
11423.378723	2918.281667	1875.109375	-108.845108
11423.378723	2918.281667	1874.122070	-9.416035
11423.378723	2918.281667	1873.134766	-67.337631
11423.378723	2918.281667	1872.146484	48.977104
11423.378723	2918.281667	1871.159180	-45.229683
11423.378723	2918.281667	1870.170898	112.150208
11423.378723	2918.281667	1869.182617	-102.959213
11423.378723	2918.281667	1868.194336	117.230026
11423.378723	2918.281667	1867.205078	-37.371834
11423.378723	2918.281667	1866.216797	-78.320442
11423.378723	2918.281667	1865.227539	76.481163
11423.378723	2918.281667	1864.238281	-32.133324
11423.378723	2918.281667	1863.249023	13.889729
11423.378723	2918.281667	1862.259766	-77.774475
11423.378723	2918.281667	1861.269531	84.136353
11423.378723	2918.281667	1860.279297	-26.830677
11423.378723	2918.281667	1859.290039	-19.482435
11423.378723	2918.281667	1858.298828	98.870934
11423.378723	2918.281667	1857.308594	26.556025
11423.378723	2918.281667	1856.318359	50.761898
11423.378723	2918.281667	1855.327148	-113.183731
11423.378723	2918.281667	1854.335938	46.075371
11423.378723	2918.281667	1853.344727	60.603104
11423.378723	2918.281667	1852.353516	10.033198
11423.378723	2918.281667	1851.362305	-50.163692
11423.378723	2918.281667	1850.370117	-146.490433
11423.378723	2918.281667	1849.377930	63.193413
11423.378723	2918.281667	1848.385742	133.080673
11423.378723	2918.281667	1847.393555	7.857351
11423.378723	2918.281667	1846.401367	183.666931
11423.378723	2918.281667	1845.408203	193.287811
11423.378723	2918.281667	1844.415039	51.256935
11423.378723	2918.281667	1843.421875	51.261772
11423.378723	2918.281667	1842.428711	188.409698
11423.378723	2918.281667	1841.435547	-4.076156
11423.378723	2918.281667	1840.441406	142.639191
11423.378723	2918.281667	1839.448242	72.865608
11423.378723	2918.281667	1838.454102	39.176468
11423.378723	2918.281667	1837.459961	82.417358
11423.378723	2918.281667	1836.464844	67.953545
11423.378723	2918.281667	1835.470703	226.503143
11423.378723	2918.281667	1834.475586	154.345535
11423.378723	2918.281667	1833.480469	207.115906
11423.378723	2918.281667	1832.485352	24.504148
11423.378723	2918.281667	1831.490234	214.132324
11423.378723	2918.281667	1830.495117	151.610291
11423.378723	2918.281667	1829.499023	12.297406
11423.378723	2918.281667	1828.502930	125.008568
11423.378723	2918.281667	1827.506836	9.733996
11423.378723	2918.281667	1826.510742	57.621136
11423.378723	2918.281667	1825.513672	131.865768
11423.378723	2918.281667	1824.517578	50.208607
11423.378723	2918.281667	1823.520508	-5.052526
11423.378723	2918.281667	1822.523438	100.305023
11423.378723	2918.281667	1821.526367	196.030258
11423.378723	2918.281667	1820.529297	-84.485222
11423.378723	2918.281667	1819.531250	-5.544689
11423.378723	2918.281667	1818.533203	11.082832
11423.378723	2918.281667	1817.535156	6.144892
11423.378723	2918.281667	1816.537109	-123.304810
11423.378723	2918.281667	1815.539063	89.617027
11423.378723	2918.281667	1814.540039	122.942070
11423.378723	2918.281667	1813.541992	-54.334938
11423.378723	2918.281667	1812.542969	69.908913
11423.378723	2918.281667	1811.543945	-14.012840
11423.378723	2918.281667	1810.543945	26.455379
11423.378723	2918.281667	1809.544922	19.078865
11423.378723	2918.281667	1808.544922	-136.528793
11423.378723	2918.281667	1807.544922	-53.054020
11423.378723	2918.281667	1806.544922	114.026604
11423.378723	2918.281667	1805.544922	-5.688776
11423.378723	2918.281667	1804.544922	15.582069
11423.378723	2918.281667	1803.543945	101.326813
11423.378723	2918.281667	1802.542969	175.092438
11423.378723	2918.281667	1801.541992	33.940948
11423.378723	2918.281667	1800.541016	224.647751
11423.378723	2918.281667	1799.539063	136.033493
11423.378723	2918.281667	1798.538086	56.992504
11423.378723	2918.281667	1797.536133	164.064529
11423.378723	2918.281667	1796.534180	-17.534943
11423.378723	2918.281667	1795.532227	-44.055431
11423.378723	2918.281667	1794.529297	82.029755
11423.378723	2918.281667	1793.527344	26.880123
11423.378723	2918.281667	1792.524414	79.002182
11423.378723	2918.281667	1791.521484	73.904396
11423.378723	2918.281667	1790.518555	-5.059219
11423.378723	2918.281667	1789.514648	58.929985
11423.378723	2918.281667	1788.511719	82.399742
11423.378723	2918.281667	1787.507813	139.191467
11423.378723	2918.281667	1786.503906	81.675949
11423.378723	2918.281667	1785.500000	-118.645813
11423.378723	2918.281667	1784.496094	-14.269926
11423.378723	2918.281667	1783.491211	-143.127747
11423.378723	2918.281667	1782.486328	44.464523
11423.378723	2918.281667	1781.481445	-146.210876
11423.378723	2918.281667	1780.476563	-115.656853
11423.378723	2918.281667	1779.471680	-73.232803
11423.378723	2918.281667	1778.465820	-18.946283
11423.378723	2918.281667	1777.460938	82.849205
11423.378723	2918.281667	1776.455078	99.052086
11423.378723	2918.281667	1775.449219	77.228539
11423.378723	2918.281667	1774.442383	-56.237919
11423.378723	2918.281667	1773.436523	-94.661186
11423.378723	2918.281667	1772.429688	83.001640
11423.378723	2918.281667	1771.422852	-59.905399
11423.378723	2918.281667	1770.416016	-1.009256
11423.378723	2918.281667	1769.409180	-29.947615
11423.378723	2918.281667	1768.402344	-61.254650
11423.378723	2918.281667	1767.394531	166.016602
11423.378723	2918.281667	1766.386719	13.709231
11423.378723	2918.281667	1765.378906	167.355957
11423.378723	2918.281667	1764.371094	-34.695572
11423.378723	2918.281667	1763.362305	123.628563
11423.378723	2918.281667	1762.354492	163.388107
11423.378723	2918.281667	1761.345703	-33.828751
11423.378723	2918.281667	1760.336914	-107.784340
11423.378723	2918.281667	1759.328125	-212.510406
11423.378723	2918.281667	1758.318359	47.495644
11423.378723	2918.281667	1757.308594	125.081329
11423.378723	2918.281667	1756.299805	145.817337
11423.378723	2918.281667	1755.290039	119.201012
11423.378723	2918.281667	1754.279297	54.725498
11423.378723	2918.281667	1753.269531	68.345169
11423.378723	2918.281667	1752.258789	-26.860147
11423.378723	2918.281667	1751.249023	246.910126
11423.378723	2918.281667	1750.238281	163.517044
11423.378723	2918.281667	1749.226563	-92.432961
11423.378723	2918.281667	1748.215820	150.445709
11423.378723	2918.281667	1747.204102	-117.233505
11423.378723	2918.281667	1746.193359	156.260696
11423.378723	2918.281667	1745.181641	-33.373260
11423.378723	2918.281667	1744.168945	-97.762840
11423.378723	2918.281667	1743.157227	114.153870
11423.378723	2918.281667	1742.144531	-11.637174
11423.378723	2918.281667	1741.132813	70.340996
11423.378723	2918.281667	1740.120117	74.398064
11423.378723	2918.281667	1739.106445	7.656589
11423.378723	2918.281667	1738.093750	99.001266
11423.378723	2918.281667	1737.080078	18.115786
11423.378723	2918.281667	1736.067383	-10.860743
11423.378723	2918.281667	1735.053711	54.478485
11423.378723	2918.281667	1734.040039	-104.163406
11423.378723	2918.281667	1733.025391	36.576385
11423.378723	2918.281667	1732.011719	78.286247
11423.378723	2918.281667	1730.997070	18.663965
11423.378723	2918.281667	1729.982422	-50.364674
11423.378723	2918.281667	1728.967773	29.000154
11423.378723	2918.281667	1727.952148	4.721347
11423.378723	2918.281667	1726.937500	55.782837
11423.378723	2918.281667	1725.921875	-218.003876
11423.378723	2918.281667	1724.906250	-77.506897
11423.378723	2918.281667	1723.890625	-71.183746
11423.378723	2918.281667	1722.875000	177.430450
11423.378723	2918.281667	1721.858398	0.236070
11423.378723	2918.281667	1720.841797	105.285408
11423.378723	2918.281667	1719.825195	59.820183
11423.378723	2918.281667	1718.808594	94.287209
11423.378723	2918.281667	1717.791992	-73.378929
11423.378723	2918.281667	1716.774414	29.228958
11423.378723	2918.281667	1715.756836	-16.211800
11423.378723	2918.281667	1714.739258	15.870115
11423.378723	2918.281667	1713.721680	104.294067
11423.378723	2918.281667	1712.704102	28.324724
11423.378723	2918.281667	1711.685547	-10.063357
11423.378723	2918.281667	1710.667969	-15.582866
11423.378723	2918.281667	1709.649414	161.925217
11423.378723	2918.281667	1708.630859	-24.289459
11423.378723	2918.281667	1707.611328	3.016176
11423.378723	2918.281667	1706.592773	79.557213
11423.378723	2918.281667	1705.573242	83.373512
11423.378723	2918.281667	1704.553711	42.640980
11423.378723	2918.281667	1703.534180	-47.302933
11423.378723	2918.281667	1702.513672	19.789717
11423.378723	2918.281667	1701.494141	-25.610075
11423.378723	2918.281667	1700.473633	128.115143
11423.378723	2918.281667	1699.453125	-57.824509
11423.378723	2918.281667	1698.432617	-84.468048
11423.378723	2918.281667	1697.412109	-15.118181
11423.378723	2918.281667	1696.390625	161.870987
11423.378723	2918.281667	1695.369141	-9.913462
11423.378723	2918.281667	1694.347656	42.985558
11423.378723	2918.281667	1693.326172	65.447479
11423.378723	2918.281667	1692.304688	-96.879707
11423.378723	2918.281667	1691.282227	-79.088425
11423.378723	2918.281667	1690.260742	-140.800354
11423.378723	2918.281667	1689.238281	-41.202801
11423.378723	2918.281667	1688.214844	63.024082
11423.378723	2918.281667	1687.192383	-43.092930
11423.378723	2918.281667	1686.168945	16.696335
11423.378723	2918.281667	1685.146484	-59.015907
11423.378723	2918.281667	1684.123047	-36.621593
11423.378723	2918.281667	1683.099609	44.131470
11423.378723	2918.281667	1682.075195	101.502403
11423.378723	2918.281667	1681.051758	-142.234894
11423.378723	2918.281667	1680.027344	1.481227
11423.378723	2918.281667	1679.002930	33.149559
11423.378723	2918.281667	1677.978516	46.140266
11423.378723	2918.281667	1676.953125	24.136789
11423.378723	2918.281667	1675.928711	74.422813
11423.378723	2918.281667	1674.903320	141.002350
11423.378723	2918.281667	1673.877930	0.107606
11423.378723	2918.281667	1672.852539	138.909058
11423.378723	2918.281667	1671.826172	-90.478249
11423.378723	2918.281667	1670.800781	71.573669
11423.378723	2918.281667	1669.774414	-52.914124
11423.378723	2918.281667	1668.748047	-5.042407
11423.378723	2918.281667	1667.721680	210.433029
11423.378723	2918.281667	1666.694336	120.891388
11423.378723	2918.281667	1665.667969	70.946510
11423.378723	2918.281667	1664.640625	246.713196
11423.378723	2918.281667	1663.613281	261.890503
11423.378723	2918.281667	1662.585938	88.662079
11423.378723	2918.281667	1661.557617	182.920807
11423.378723	2918.281667	1660.530273	93.466080
11423.378723	2918.281667	1659.501953	217.899033
11423.378723	2918.281667	1658.473633	91.279083
11423.378723	2918.281667	1657.444336	-7.414489
11423.378723	2918.281667	1656.416016	144.835037
11423.378723	2918.281667	1655.386719	-21.196913
11423.378723	2918.281667	1654.358398	52.031773
11423.378723	2918.281667	1653.328125	43.960300
11423.378723	2918.281667	1652.298828	79.997269
11423.378723	2918.281667	1651.269531	211.177170
11423.378723	2918.281667	1650.239258	121.852806
11423.378723	2918.281667	1649.208984	201.925430
11423.378723	2918.281667	1648.178711	230.932236
11423.378723	2918.281667	1647.148438	269.201416
11423.378723	2918.281667	1646.117188	22.251814
11423.378723	2918.281667	1645.086914	199.637802
11423.378723	2918.281667	1644.055664	270.331543
11423.378723	2918.281667	1643.024414	174.146408
11423.378723	2918.281667	1641.992188	228.593414
11423.378723	2918.281667	1640.960938	178.777725
11423.378723	2918.281667	1639.928711	214.670517
11423.378723	2918.281667	1638.896484	269.071503
11423.378723	2918.281667	1637.864258	142.871399
11423.378723	2918.281667	1636.832031	229.666962
11423.378723	2918.281667	1635.798828	172.944809
11423.378723	2918.281667	1634.766602	287.463440
11423.378723	2918.281667	1633.733398	314.028046
11423.378723	2918.281667	1632.699219	282.757843
11423.378723	2918.281667	1631.666016	212.188660
11423.378723	2918.281667	1630.632813	361.283691
11423.378723	2918.281667	1629.598633	336.953400
11423.378723	2918.281667	1628.564453	280.276764
11423.378723	2918.281667	1627.530273	496.274414
11423.378723	2918.281667	1626.495117	400.311890
11423.378723	2918.281667	1625.460938	500.715057
11423.378723	2918.281667	1624.425781	243.138702
11423.378723	2918.281667	1623.390625	181.911850
11423.378723	2918.281667	1622.355469	312.305115
11423.378723	2918.281667	1621.319336	320.324677
11423.378723	2918.281667	1620.284180	374.491699
11423.378723	2918.281667	1619.248047	287.908234
11423.378723	2918.281667	1618.211914	478.147491
11423.378723	2918.281667	1617.174805	426.167786
11423.378723	2918.281667	1616.138672	401.877960
11423.378723	2918.281667	1615.101563	407.564697
11423.378723	2918.281667	1614.065430	404.032379
11423.378723	2918.281667	1613.027344	299.106934
11423.378723	2918.281667	1611.990234	247.214615
11423.378723	2918.281667	1610.953125	285.178009
11423.378723	2918.281667	1609.915039	334.641022
11423.378723	2918.281667	1608.876953	356.455109
11423.378723	2918.281667	1607.838867	210.208252
11423.378723	2918.281667	1606.800781	275.771698
11423.378723	2918.281667	1605.761719	322.899719
11423.378723	2918.281667	1604.723633	291.787231
11423.378723	2918.281667	1603.684570	299.792297
11423.378723	2918.281667	1602.644531	484.883759
11423.378723	2918.281667	1601.605469	426.168701
11423.378723	2918.281667	1600.566406	378.973694
11423.378723	2918.281667	1599.526367	237.557831
11423.378723	2918.281667	1598.486328	392.650513
11423.378723	2918.281667	1597.446289	292.649353
11423.378723	2918.281667	1596.405273	330.518616
11423.378723	2918.281667	1595.365234	301.772491
11423.378723	2918.281667	1594.324219	369.481995
11423.378723	2918.281667	1593.283203	313.193878
11423.378723	2918.281667	1592.242188	233.976624
11423.378723	2918.281667	1591.200195	294.782776
11423.378723	2918.281667	1590.159180	408.343353
11423.378723	2918.281667	1589.117188	313.104401
11423.378723	2918.281667	1588.075195	516.071594
11423.378723	2918.281667	1587.032227	579.081299
11423.378723	2918.281667	1585.990234	504.511017
11423.378723	2918.281667	1584.947266	528.537231
11423.378723	2918.281667	1583.904297	488.389343
11423.378723	2918.281667	1582.861328	434.512726
11423.378723	2918.281667	1581.818359	495.207367
11423.378723	2918.281667	1580.775391	468.844452
11423.378723	2918.281667	1579.731445	605.085632
11423.378723	2918.281667	1578.687500	564.983398
11423.378723	2918.281667	1577.643555	394.423737
11423.378723	2918.281667	1576.598633	388.716614
11423.378723	2918.281667	1575.554688	401.323425
11423.378723	2918.281667	1574.509766	306.406158
11423.378723	2918.281667	1573.464844	316.747772
11423.378723	2918.281667	1572.419922	384.261536
11423.378723	2918.281667	1571.374023	451.753632
11423.378723	2918.281667	1570.329102	139.758575
11423.378723	2918.281667	1569.283203	202.712845
11423.378723	2918.281667	1568.237305	517.005859
11423.378723	2918.281667	1567.191406	360.552795
11423.378723	2918.281667	1566.144531	396.034882
11423.378723	2918.281667	1565.098633	337.880157
11423.378723	2918.281667	1564.051758	325.418671
11423.378723	2918.281667	1563.004883	285.575012
11423.378723	2918.281667	1561.957031	503.661255
11423.378723	2918.281667	1560.910156	406.764587
11423.378723	2918.281667	1559.862305	380.638947
11423.378723	2918.281667	1558.814453	425.243042
11423.378723	2918.281667	1557.766602	510.886597
11423.378723	2918.281667	1556.718750	430.056091
11423.378723	2918.281667	1555.669922	262.636902
11423.378723	2918.281667	1554.621094	241.161942
11423.378723	2918.281667	1553.573242	322.250946
11423.378723	2918.281667	1552.523438	282.561859
11423.378723	2918.281667	1551.474609	495.744629
11423.378723	2918.281667	1550.424805	358.124725
11423.378723	2918.281667	1549.375000	268.385376
11423.378723	2918.281667	1548.325195	335.772766
11423.378723	2918.281667	1547.275391	175.533173
11423.378723	2918.281667	1546.225586	340.782959
11423.378723	2918.281667	1545.174805	405.868561
11423.378723	2918.281667	1544.124023	455.014191
11423.378723	2918.281667	1543.073242	467.761932
11423.378723	2918.281667	1542.022461	266.774139
11423.378723	2918.281667	1540.970703	436.438232
11423.378723	2918.281667	1539.919922	387.843964
11423.378723	2918.281667	1538.868164	359.730072
11423.378723	2918.281667	1537.815430	508.858429
11423.378723	2918.281667	1536.763672	401.248413
11423.378723	2918.281667	1535.710938	434.502075
11423.378723	2918.281667	1534.659180	258.850616
11423.378723	2918.281667	1533.606445	333.007507
11423.378723	2918.281667	1532.552734	234.638962
11423.378723	2918.281667	1531.500000	274.754425
11423.378723	2918.281667	1530.446289	228.646500
11423.378723	2918.281667	1529.393555	271.039459
11423.378723	2918.281667	1528.338867	202.293167
11423.378723	2918.281667	1527.285156	203.882034
11423.378723	2918.281667	1526.231445	216.818695
11423.378723	2918.281667	1525.176758	125.495728
11423.378723	2918.281667	1524.122070	310.701538
11423.378723	2918.281667	1523.067383	135.586670
11423.378723	2918.281667	1522.012695	193.884674
11423.378723	2918.281667	1520.957031	-101.150490
11423.378723	2918.281667	1519.901367	36.453121
11423.378723	2918.281667	1518.845703	54.024761
11423.378723	2918.281667	1517.790039	48.966919
11423.378723	2918.281667	1516.734375	150.291458
11423.378723	2918.281667	1515.677734	52.476055
11423.378723	2918.281667	1514.621094	-15.877545
11423.378723	2918.281667	1513.564453	51.514988
11423.378723	2918.281667	1512.507813	-73.314949
11423.378723	2918.281667	1511.450195	70.960953
11423.378723	2918.281667	1510.393555	-33.449219
11423.378723	2918.281667	1509.335938	-8.986635
11423.378723	2918.281667	1508.278320	207.541199
11423.378723	2918.281667	1507.219727	-147.547134
11423.378723	2918.281667	1506.162109	-77.857109
11423.378723	2918.281667	1505.103516	21.177027
11423.378723	2918.281667	1504.044922	-26.564785
11423.378723	2918.281667	1502.986328	70.194939
11423.378723	2918.281667	1501.926758	56.346157
11423.378723	2918.281667	1500.868164	44.777351
11423.378723	2918.281667	1499.808594	-59.264877
11423.378723	2918.281667	1498.749023	118.687202
11423.378723	2918.281667	1497.688477	163.537292
11423.378723	2918.281667	1496.628906	46.056545
11423.378723	2918.281667	1495.568359	43.600090
11423.378723	2918.281667	1494.507813	131.310394
11423.378723	2918.281667	1493.447266	77.048943
11423.378723	2918.281667	1492.386719	-22.229080
11423.378723	2918.281667	1491.325195	-4.328852
11423.378723	2918.281667	1490.263672	-58.479065
11423.378723	2918.281667	1489.202148	-114.839737
11423.378723	2918.281667	1488.140625	-20.343367
11423.378723	2918.281667	1487.079102	-38.394115
11423.378723	2918.281667	1486.016602	-110.422089
11423.378723	2918.281667	1484.954102	-204.899231
11423.378723	2918.281667	1483.891602	-128.379120
11423.378723	2918.281667	1482.829102	-67.612633
11423.378723	2918.281667	1481.765625	-49.570789
11423.378723	2918.281667	1480.702148	-130.417038
11423.378723	2918.281667	1479.638672	4.526491
11423.378723	2918.281667	1478.575195	-132.421738
11423.378723	2918.281667	1477.511719	87.829239
11423.378723	2918.281667	1476.447266	-181.549957
11423.378723	2918.281667	1475.382813	-51.125183
11423.378723	2918.281667	1474.318359	-115.961769
11423.378723	2918.281667	1473.253906	-151.677750
11423.378723	2918.281667	1472.189453	-169.338440
11423.378723	2918.281667	1471.124023	61.978844
11423.378723	2918.281667	1470.058594	15.124141
11423.378723	2918.281667	1468.993164	78.060455
11423.378723	2918.281667	1467.927734	103.023247
11423.378723	2918.281667	1466.861328	194.996811
11423.378723	2918.281667	1465.794922	175.139679
11423.378723	2918.281667	1464.728516	135.101379
11423.378723	2918.281667	1463.662109	99.924019
11423.378723	2918.281667	1462.594727	64.463051
11423.378723	2918.281667	1461.528320	121.008865
11423.378723	2918.281667	1460.460938	248.836746
11423.378723	2918.281667	1459.393555	204.584595
11423.378723	2918.281667	1458.326172	71.422455
11423.378723	2918.281667	1457.257813	112.134567
11423.378723	2918.281667	1456.189453	233.057037
11423.378723	2918.281667	1455.121094	-7.104001
11423.378723	2918.281667	1454.052734	90.589058
11423.378723	2918.281667	1452.984375	190.379471
11423.378723	2918.281667	1451.915039	65.238113
11423.378723	2918.281667	1450.845703	148.265625
11423.378723	2918.281667	1449.776367	222.429840
11423.378723	2918.281667	1448.707031	209.323654
11423.378723	2918.281667	1447.636719	254.472702
11423.378723	2918.281667	1446.567383	196.837662
11423.378723	2918.281667	1445.497070	209.878967
11423.378723	2918.281667	1444.425781	55.592842
11423.378723	2918.281667	1443.355469	167.719162
11423.378723	2918.281667	1442.285156	129.448624
11423.378723	2918.281667	1441.213867	150.078506
11423.378723	2918.281667	1440.142578	326.180878
11423.378723	2918.281667	1439.070313	180.631149
11423.378723	2918.281667	1437.999023	216.147491
11423.378723	2918.281667	1436.926758	276.215057
11423.378723	2918.281667	1435.854492	315.876495
11423.378723	2918.281667	1434.782227	327.126068
11423.378723	2918.281667	1433.709961	214.509720
11423.378723	2918.281667	1432.636719	184.938141
11423.378723	2918.281667	1431.563477	108.390450
11423.378723	2918.281667	1430.490234	178.539566
11423.378723	2918.281667	1429.416992	202.052521
11423.378723	2918.281667	1428.343750	185.211609
11423.378723	2918.281667	1427.269531	163.620987
11423.378723	2918.281667	1426.195313	161.759644
11423.378723	2918.281667	1425.121094	119.984100
11423.378723	2918.281667	1424.046875	287.203552
11423.378723	2918.281667	1422.971680	198.799622
11423.378723	2918.281667	1421.896484	348.283417
11423.378723	2918.281667	1420.821289	152.116867
11423.378723	2918.281667	1419.746094	163.936768
11423.378723	2918.281667	1418.669922	140.833771
11423.378723	2918.281667	1417.594727	322.452850
11423.378723	2918.281667	1416.518555	80.653076
11423.378723	2918.281667	1415.442383	228.311600
11423.378723	2918.281667	1414.365234	147.251587
11423.378723	2918.281667	1413.289063	93.045593
11423.378723	2918.281667	1412.211914	150.017654
11423.378723	2918.281667	1411.134766	76.087837
11423.378723	2918.281667	1410.057617	207.438766
11423.378723	2918.281667	1408.979492	234.562668
11423.378723	2918.281667	1407.902344	200.042587
11423.378723	2918.281667	1406.824219	250.858047
11423.378723	2918.281667	1405.746094	145.456345
11423.378723	2918.281667	1404.666992	343.281921
11423.378723	2918.281667	1403.588867	135.075821
11423.378723	2918.281667	1402.509766	259.549225
11423.378723	2918.281667	1401.430664	331.600433
11423.378723	2918.281667	1400.351563	275.172882
11423.378723	2918.281667	1399.271484	263.583130
11423.378723	2918.281667	1398.192383	237.305435
11423.378723	2918.281667	1397.112305	122.841187
11423.378723	2918.281667	1396.031250	151.141647
11423.378723	2918.281667	1394.951172	259.233582
11423.378723	2918.281667	1393.871094	212.339935
11423.378723	2918.281667	1392.790039	172.240341
11423.378723	2918.281667	1391.708984	121.603409
11423.378723	2918.281667	1390.626953	136.749863
11423.378723	2918.281667	1389.545898	234.811691
11423.378723	2918.281667	1388.463867	148.040695
11423.378723	2918.281667	1387.381836	221.894470
11423.378723	2918.281667	1386.299805	217.571228
11423.378723	2918.281667	1385.217773	244.848267
11423.378723	2918.281667	1384.134766	-8.940841
11423.378723	2918.281667	1383.051758	73.038307
11423.378723	2918.281667	1381.968750	61.283737
11423.378723	2918.281667	1380.885742	30.813963
11423.378723	2918.281667	1379.802734	248.204147
11423.378723	2918.281667	1378.718750	53.707867
11423.378723	2918.281667	1377.634766	7.689676
11423.378723	2918.281667	1376.550781	115.082161
11423.378723	2918.281667	1375.465820	186.450470
11423.378723	2918.281667	1374.381836	126.203247
11423.378723	2918.281667	1373.296875	169.366379
11423.378723	2918.281667	1372.211914	173.288681
11423.378723	2918.281667	1371.126953	247.295288
11423.378723	2918.281667	1370.041016	209.060837
11423.378723	2918.281667	1368.955078	246.663574
11423.378723	2918.281667	1367.869141	168.661041
11423.378723	2918.281667	1366.783203	329.081482
11423.378723	2918.281667	1365.697266	225.801849
11423.378723	2918.281667	1364.610352	219.076889
11423.378723	2918.281667	1363.523438	182.688843
11423.378723	2918.281667	1362.436523	254.626907
11423.378723	2918.281667	1361.349609	143.904663
11423.378723	2918.281667	1360.261719	15.929358
11423.378723	2918.281667	1359.174805	91.952721
11423.378723	2918.281667	1358.086914	51.451435
11423.378723	2918.281667	1356.998047	183.940140
11423.378723	2918.281667	1355.910156	61.164539
11423.378723	2918.281667	1354.821289	128.641510
11423.378723	2918.281667	1353.732422	89.407906
11423.378723	2918.281667	1352.643555	-3.354718
11423.378723	2918.281667	1351.554688	244.848663
11423.378723	2918.281667	1350.464844	-23.962215
11423.378723	2918.281667	1349.375000	79.479881
11423.378723	2918.281667	1348.285156	232.276413
11423.378723	2918.281667	1347.195313	104.379433
11423.378723	2918.281667	1346.105469	154.423615
11423.378723	2918.281667	1345.014648	198.980530
11423.378723	2918.281667	1343.923828	210.847565
11423.378723	2918.281667	1342.833008	152.202377
11423.378723	2918.281667	1341.741211	142.111694
11423.378723	2918.281667	1340.650391	189.767868
11423.378723	2918.281667	1339.558594	210.641479
11423.378723	2918.281667	1338.466797	86.163559
11423.378723	2918.281667	1337.374023	66.471275
11423.378723	2918.281667	1336.282227	189.045853
11423.378723	2918.281667	1335.189453	103.935158
11423.378723	2918.281667	1334.096680	108.757668
11423.378723	2918.281667	1333.003906	219.901917
11423.378723	2918.281667	1331.910156	102.355736
11423.378723	2918.281667	1330.817383	219.926315
11423.378723	2918.281667	1329.723633	179.135345
11423.378723	2918.281667	1328.629883	250.313095
11423.378723	2918.281667	1327.535156	135.943573
11423.378723	2918.281667	1326.441406	132.109161
11423.378723	2918.281667	1325.346680	210.214539
11423.378723	2918.281667	1324.251953	230.339890
11423.378723	2918.281667	1323.156250	298.588409
11423.378723	2918.281667	1322.061523	116.776703
11423.378723	2918.281667	1320.965820	15.910186
11423.378723	2918.281667	1319.870117	95.804298
11423.378723	2918.281667	1318.774414	94.685455
11423.378723	2918.281667	1317.678711	173.907013
11423.378723	2918.281667	1316.582031	103.115242
11423.378723	2918.281667	1315.485352	75.076691
11423.378723	2918.281667	1314.388672	-6.995910
11423.378723	2918.281667	1313.291016	87.797661
11423.378723	2918.281667	1312.194336	36.721916
11423.378723	2918.281667	1311.096680	6.880219
11423.378723	2918.281667	1309.999023	-149.215393
11423.378723	2918.281667	1308.901367	113.347527
11423.378723	2918.281667	1307.802734	179.579132
11423.378723	2918.281667	1306.705078	31.768652
11423.378723	2918.281667	1305.606445	99.677826
11423.378723	2918.281667	1304.506836	78.545776
11423.378723	2918.281667	1303.408203	-33.132797
11423.378723	2918.281667	1302.308594	-41.865120
11423.378723	2918.281667	1301.208984	24.891953
11423.378723	2918.281667	1300.109375	32.075253
11423.378723	2918.281667	1299.009766	-25.493633
11423.378723	2918.281667	1297.909180	-63.013378
11423.378723	2918.281667	1296.808594	69.338379
11423.378723	2918.281667	1295.708008	35.837326
11423.378723	2918.281667	1294.607422	-130.489380
11423.378723	2918.281667	1293.506836	-71.203453
11423.378723	2918.281667	1292.405273	-137.270599
11423.378723	2918.281667	1291.303711	-153.991104
11423.378723	2918.281667	1290.202148	-233.940826
11423.378723	2918.281667	1289.099609	-147.265137
11423.378723	2918.281667	1287.998047	-112.922447
11423.378723	2918.281667	1286.895508	-81.730591
11423.378723	2918.281667	1285.792969	-142.433777
11423.378723	2918.281667	1284.689453	-46.800343
11423.378723	2918.281667	1283.586914	-72.627708
11423.378723	2918.281667	1282.483398	-158.572952
11423.378723	2918.281667	1281.379883	-114.450653
11423.378723	2918.281667	1280.276367	38.311241
11423.378723	2918.281667	1279.171875	-8.975964
11423.378723	2918.281667	1278.067383	-80.688423
11423.378723	2918.281667	1276.962891	84.852844
11423.378723	2918.281667	1275.858398	1.429364
11423.378723	2918.281667	1274.753906	-81.720314
11423.378723	2918.281667	1273.648438	-96.209618
11423.378723	2918.281667	1272.542969	-121.763916
11423.378723	2918.281667	1271.437500	-169.569443
11423.378723	2918.281667	1270.331055	47.710560
11423.378723	2918.281667	1269.225586	-126.247520
11423.378723	2918.281667	1268.119141	-71.746948
11423.378723	2918.281667	1267.012695	-112.882278
11423.378723	2918.281667	1265.906250	-59.223553
11423.378723	2918.281667	1264.798828	15.292133
11423.378723	2918.281667	1263.691406	-174.255981
11423.378723	2918.281667	1262.583984	-24.153299
11423.378723	2918.281667	1261.476563	42.578972
11423.378723	2918.281667	1260.368164	2.337756
11423.378723	2918.281667	1259.260742	13.681536
11423.378723	2918.281667	1258.152344	89.276970
11423.378723	2918.281667	1257.043945	87.271088
11423.378723	2918.281667	1255.934570	205.706863
11423.378723	2918.281667	1254.825195	124.160011
11423.378723	2918.281667	1253.716797	116.182304
11423.378723	2918.281667	1252.606445	57.498352
11423.378723	2918.281667	1251.497070	122.535904
11423.378723	2918.281667	1250.387695	157.288116
11423.378723	2918.281667	1249.277344	236.497711
11423.378723	2918.281667	1248.166992	70.749634
11423.378723	2918.281667	1247.055664	85.241676
11423.378723	2918.281667	1245.945313	85.103416
11423.378723	2918.281667	1244.833984	107.709686
11423.378723	2918.281667	1243.722656	37.062897
11423.378723	2918.281667	1242.611328	15.793166
11423.378723	2918.281667	1241.499023	83.651550
11423.378723	2918.281667	1240.387695	81.178192
11423.378723	2918.281667	1239.275391	118.262634
11423.378723	2918.281667	1238.162109	76.805542
11423.378723	2918.281667	1237.049805	128.150726
11423.378723	2918.281667	1235.936523	80.223892
11423.378723	2918.281667	1234.823242	215.827209
11423.378723	2918.281667	1233.709961	215.630341
11423.378723	2918.281667	1232.596680	387.950409
11423.378723	2918.281667	1231.482422	356.615204
11423.378723	2918.281667	1230.369141	275.237000
11423.378723	2918.281667	1229.253906	626.627686
11423.378723	2918.281667	1228.139648	697.653564
11423.378723	2918.281667	1227.025391	872.170776
11423.378723	2918.281667	1225.910156	780.989502
11423.378723	2918.281667	1224.794922	614.650513
11423.378723	2918.281667	1223.679688	767.190796
11423.378723	2918.281667	1222.563477	512.878479
11423.378723	2918.281667	1221.447266	427.762238
11423.378723	2918.281667	1220.331055	352.048920
11423.378723	2918.281667	1219.214844	245.381760
11423.378723	2918.281667	1218.098633	236.775681
11423.378723	2918.281667	1216.981445	25.952974
11423.378723	2918.281667	1215.864258	31.307047
11423.378723	2918.281667	1214.747070	-32.118412
11423.378723	2918.281667	1213.629883	89.781326
11423.378723	2918.281667	1212.511719	-4.447201
11423.378723	2918.281667	1211.393555	36.674843
11423.378723	2918.281667	1210.275391	-176.702896
11423.378723	2918.281667	1209.157227	-9.583584
11423.378723	2918.281667	1208.038086	24.307819
11423.378723	2918.281667	1206.918945	5.847613
11423.378723	2918.281667	1205.799805	82.123924
11423.378723	2918.281667	1204.680664	-7.834690
11423.378723	2918.281667	1203.560547	-8.434325
11423.378723	2918.281667	1202.441406	-71.920181
11423.378723	2918.281667	1201.321289	-80.304405
11423.378723	2918.281667	1200.200195	43.178383
11423.378723	2918.281667	1199.080078	83.335236
11423.378723	2918.281667	1197.958984	82.873734
11423.378723	2918.281667	1196.837891	35.281498
11423.378723	2918.281667	1195.716797	45.045113
11423.378723	2918.281667	1194.594727	76.028473
11423.378723	2918.281667	1193.473633	56.049900
11423.378723	2918.281667	1192.351563	14.034717
11423.378723	2918.281667	1191.229492	16.900261
11423.378723	2918.281667	1190.106445	-148.877274
11423.378723	2918.281667	1188.984375	-72.064980
11423.378723	2918.281667	1187.861328	-1.166274
11423.378723	2918.281667	1186.738281	-15.177871
11423.378723	2918.281667	1185.614258	-1.992233
11423.378723	2918.281667	1184.491211	7.642612
11423.378723	2918.281667	1183.367188	39.659744
11423.378723	2918.281667	1182.243164	1.240207
11423.378723	2918.281667	1181.119141	279.442352
11423.378723	2918.281667	1179.994141	210.923508
11423.378723	2918.281667	1178.869141	495.813934
11423.378723	2918.281667	1177.744141	381.030426
11423.378723	2918.281667	1176.619141	379.596130
11423.378723	2918.281667	1175.493164	450.363190
11423.378723	2918.281667	1174.368164	326.015320
11423.378723	2918.281667	1173.242188	405.190613
11423.378723	2918.281667	1172.115234	205.583130
11423.378723	2918.281667	1170.989258	255.644211
11423.378723	2918.281667	1169.862305	199.005035
11423.378723	2918.281667	1168.735352	182.407303
11423.378723	2918.281667	1167.608398	165.229660
11423.378723	2918.281667	1166.481445	159.349838
11423.378723	2918.281667	1165.353516	86.786880
11423.378723	2918.281667	1164.225586	206.577896
11423.378723	2918.281667	1163.097656	193.031281
11423.378723	2918.281667	1161.968750	-23.422342
11423.378723	2918.281667	1160.840820	36.542076
11423.378723	2918.281667	1159.711914	-78.453697
11423.378723	2918.281667	1158.583008	-83.673752
11423.378723	2918.281667	1157.453125	-25.826645
11423.378723	2918.281667	1156.324219	-2.932464
11423.378723	2918.281667	1155.194336	31.428827
11423.378723	2918.281667	1154.064453	-57.756828
11423.378723	2918.281667	1152.933594	-149.519791
11423.378723	2918.281667	1151.803711	-141.087082
11423.378723	2918.281667	1150.672852	-146.153030
11423.378723	2918.281667	1149.541992	-15.453778
11423.378723	2918.281667	1148.411133	-153.750290
11423.378723	2918.281667	1147.279297	-87.970436
11423.378723	2918.281667	1146.147461	-98.654549
11423.378723	2918.281667	1145.015625	-106.550385
11423.378723	2918.281667	1143.883789	-98.592224
11423.378723	2918.281667	1142.750977	33.257851
11423.378723	2918.281667	1141.619141	-117.310486
11423.378723	2918.281667	1140.486328	-120.896019
11423.378723	2918.281667	1139.352539	-35.411575
11423.378723	2918.281667	1138.219727	50.309654
11423.378723	2918.281667	1137.085938	5.456907
11423.378723	2918.281667	1135.952148	120.375214
11423.378723	2918.281667	1134.818359	147.040955
11423.378723	2918.281667	1133.683594	19.189716
11423.378723	2918.281667	1132.549805	59.278965
11423.378723	2918.281667	1131.415039	166.665298
11423.378723	2918.281667	1130.279297	158.856796
11423.378723	2918.281667	1129.144531	255.983368
11423.378723	2918.281667	1128.008789	287.170105
11423.378723	2918.281667	1126.873047	173.360809
11423.378723	2918.281667	1125.737305	64.747169
11423.378723	2918.281667	1124.601563	69.781677
11423.378723	2918.281667	1123.464844	144.835052
11423.378723	2918.281667	1122.328125	33.664639
11423.378723	2918.281667	1121.191406	61.825432
11423.378723	2918.281667	1120.054688	207.033600
11423.378723	2918.281667	1118.916992	-47.431999
11423.378723	2918.281667	1117.779297	2.195328
11423.378723	2918.281667	1116.641602	132.491592
11423.378723	2918.281667	1115.503906	92.003525
11423.378723	2918.281667	1114.365234	58.507500
11423.378723	2918.281667	1113.226563	102.648201
11423.378723	2918.281667	1112.087891	63.015324
11423.378723	2918.281667	1110.949219	91.437340
11423.378723	2918.281667	1109.809570	236.230621
11423.378723	2918.281667	1108.669922	214.085800
11423.378723	2918.281667	1107.530273	184.609695
11423.378723	2918.281667	1106.390625	248.038498
11423.378723	2918.281667	1105.250000	193.571793
11423.378723	2918.281667	1104.109375	148.268509
11423.378723	2918.281667	1102.968750	230.620667
11423.378723	2918.281667	1101.828125	275.540771
11423.378723	2918.281667	1100.686523	231.366531
11423.378723	2918.281667	1099.544922	261.832703
11423.378723	2918.281667	1098.403320	374.431854
11423.378723	2918.281667	1097.261719	293.125763
11423.378723	2918.281667	1096.120117	482.561310
11423.378723	2918.281667	1094.977539	233.140610
11423.378723	2918.281667	1093.834961	403.854370
11423.378723	2918.281667	1092.691406	405.454224
11423.378723	2918.281667	1091.548828	496.559601
11423.378723	2918.281667	1090.405273	308.387268
11423.378723	2918.281667	1089.261719	353.804535
11423.378723	2918.281667	1088.118164	279.924072
11423.378723	2918.281667	1086.973633	234.401291
11423.378723	2918.281667	1085.829102	242.514160
11423.378723	2918.281667	1084.684570	297.891998
11423.378723	2918.281667	1083.540039	239.522980
11423.378723	2918.281667	1082.395508	202.466599
11423.378723	2918.281667	1081.250000	168.696091
11423.378723	2918.281667	1080.104492	165.321518
11423.378723	2918.281667	1078.958984	200.213409
11423.378723	2918.281667	1077.812500	108.948959
11423.378723	2918.281667	1076.666016	316.714966
11423.378723	2918.281667	1075.519531	288.544586
11423.378723	2918.281667	1074.373047	314.561737
11423.378723	2918.281667	1073.226563	405.125763
11423.378723	2918.281667	1072.079102	315.649689
11423.378723	2918.281667	1070.931641	344.080170
11423.378723	2918.281667	1069.784180	649.312256
11423.378723	2918.281667	1068.635742	633.454102
11423.378723	2918.281667	1067.487305	613.586365
11423.378723	2918.281667	1066.338867	713.715271
11423.378723	2918.281667	1065.190430	681.196838
11423.378723	2918.281667	1064.041992	597.577759
11423.378723	2918.281667	1062.892578	429.241730
11423.378723	2918.281667	1061.743164	467.357758
11423.378723	2918.281667	1060.593750	478.002472
11423.378723	2918.281667	1059.443359	282.773743
11423.378723	2918.281667	1058.292969	342.155609
11423.378723	2918.281667	1057.142578	209.700836
11423.378723	2918.281667	1055.992188	388.978699
11423.378723	2918.281667	1054.841797	349.755768
11423.378723	2918.281667	1053.690430	280.301270
11423.378723	2918.281667	1052.539063	466.914795
11423.378723	2918.281667	1051.387695	1066.906860
11423.378723	2918.281667	1050.235352	1100.808716
11423.378723	2918.281667	1049.083984	1011.290771
11423.378723	2918.281667	1047.931641	806.495605
11423.378723	2918.281667	1046.778320	929.818726
11423.378723	2918.281667	1045.625977	693.876709
11423.378723	2918.281667	1044.472656	549.013367
11423.378723	2918.281667	1043.319336	353.411316
11423.378723	2918.281667	1042.166016	387.814697
11423.378723	2918.281667	1041.012695	378.369995
11423.378723	2918.281667	1039.858398	372.850616
11423.378723	2918.281667	1038.704102	261.737549
11423.378723	2918.281667	1037.549805	108.639206
11423.378723	2918.281667	1036.394531	222.541336
11423.378723	2918.281667	1035.239258	153.384491
11423.378723	2918.281667	1034.083984	178.976791
11423.378723	2918.281667	1032.928711	329.665924
11423.378723	2918.281667	1031.773438	244.809860
11423.378723	2918.281667	1030.617188	205.018723
11423.378723	2918.281667	1029.460938	95.784462
11423.378723	2918.281667	1028.304688	214.661316
11423.378723	2918.281667	1027.147461	186.233521
11423.378723	2918.281667	1025.991211	155.573456
11423.378723	2918.281667	1024.833984	50.611706
11423.378723	2918.281667	1023.675781	-24.184908
11423.378723	2918.281667	1022.518555	95.660889
11423.378723	2918.281667	1021.360352	16.382818
11423.378723	2918.281667	1020.202148	171.150726
11423.378723	2918.281667	1019.043945	258.334290
11423.378723	2918.281667	1017.884766	166.409241
11423.378723	2918.281667	1016.726563	225.048340
11423.378723	2918.281667	1015.567383	182.957825
11423.378723	2918.281667	1014.407227	261.342285
11423.378723	2918.281667	1013.248047	48.863888
11423.378723	2918.281667	1012.087891	77.579834
11423.378723	2918.281667	1010.927734	232.547806
11423.378723	2918.281667	1009.767578	182.055496
11423.378723	2918.281667	1008.606445	93.991554
11423.378723	2918.281667	1007.446289	212.389954
11423.378723	2918.281667	1006.285156	87.474663
11423.378723	2918.281667	1005.123047	-32.613159
11423.378723	2918.281667	1003.961914	141.154221
11423.378723	2918.281667	1002.799805	101.280479
11423.378723	2918.281667	1001.637695	202.519287
11423.378723	2918.281667	1000.475586	265.345825
11423.378723	2918.281667	999.312500	21.413290
11423.378723	2918.281667	998.149414	277.328918
11423.378723	2918.281667	996.986328	401.047424
11423.378723	2918.281667	995.823242	278.180237
11423.378723	2918.281667	994.659180	381.712006
11423.378723	2918.281667	993.496094	434.428131
11423.378723	2918.281667	992.332031	517.115173
11423.378723	2918.281667	991.166992	637.829407
11423.378723	2918.281667	990.002930	722.426086
11423.378723	2918.281667	988.837891	1117.425659
11423.378723	2918.281667	987.672852	1048.173218
11423.378723	2918.281667	986.506836	976.061646
11423.378723	2918.281667	985.341797	851.549377
11423.378723	2918.281667	984.175781	718.713379
11423.378723	2918.281667	983.009766	506.725952
11423.378723	2918.281667	981.843750	477.564880
11423.378723	2918.281667	980.676758	209.140366
11423.378723	2918.281667	979.509766	374.783142
11423.378723	2918.281667	978.342773	342.612976
11423.378723	2918.281667	977.175781	311.619263
11423.378723	2918.281667	976.007813	148.753189
11423.378723	2918.281667	974.839844	195.735703
11423.378723	2918.281667	973.671875	230.347702
11423.378723	2918.281667	972.503906	180.071762
11423.378723	2918.281667	971.334961	285.015289
11423.378723	2918.281667	970.166016	193.925140
11423.378723	2918.281667	968.997070	275.616425
11423.378723	2918.281667	967.828125	305.458923
11423.378723	2918.281667	966.658203	325.998932
11423.378723	2918.281667	965.488281	169.288589
11423.378723	2918.281667	964.318359	298.109283
11423.378723	2918.281667	963.148438	177.226318
11423.378723	2918.281667	961.977539	259.124939
11423.378723	2918.281667	960.806641	130.261108
11423.378723	2918.281667	959.635742	248.349838
11423.378723	2918.281667	958.463867	87.263039
11423.378723	2918.281667	957.292969	290.257874
11423.378723	2918.281667	956.121094	183.723480
11423.378723	2918.281667	954.948242	155.188324
11423.378723	2918.281667	953.776367	230.644989
11423.378723	2918.281667	952.603516	97.291122
11423.378723	2918.281667	951.430664	58.077972
11423.378723	2918.281667	950.257813	-114.527008
11423.378723	2918.281667	949.084961	31.772253
11423.378723	2918.281667	947.911133	-97.135841
11423.378723	2918.281667	946.737305	66.565704
11423.378723	2918.281667	945.563477	138.761856
11423.378723	2918.281667	944.388672	114.740852
11423.378723	2918.281667	943.213867	75.312927
11423.378723	2918.281667	942.039063	110.779037
11423.378723	2918.281667	940.864258	73.319534
11423.378723	2918.281667	939.688477	53.981926
11423.378723	2918.281667	938.513672	34.835320
11423.378723	2918.281667	937.337891	184.981842
11423.378723	2918.281667	936.161133	213.790802
11423.378723	2918.281667	934.985352	160.142883
11423.378723	2918.281667	933.808594	113.380875
11423.378723	2918.281667	932.631836	286.089539
11423.378723	2918.281667	931.454102	241.565292
11423.378723	2918.281667	930.277344	167.279297
11423.378723	2918.281667	929.099609	175.365250
11423.378723	2918.281667	927.921875	192.605682
11423.378723	2918.281667	926.743164	152.637863
11423.378723	2918.281667	925.565430	146.960297
11423.378723	2918.281667	924.386719	-23.261106
11423.378723	2918.281667	923.208008	-3.802873
11423.378723	2918.281667	922.028320	129.857941
11423.378723	2918.281667	920.849609	48.769768
11423.378723	2918.281667	919.669922	49.094009
11423.378723	2918.281667	919.474609	-50.512962
11423.378723	2918.281667	918.309570	41.947475
11423.378723	2918.281667	917.143555	102.403976
11423.378723	2918.281667	915.977539	-106.459961
11423.378723	2918.281667	914.810547	6.458144
11423.378723	2918.281667	913.644531	-113.357628
11423.378723	2918.281667	912.477539	-43.837788
11423.378723	2918.281667	911.310547	-10.839812
11423.378723	2918.281667	910.143555	-112.370834
11423.378723	2918.281667	908.975586	2.662769
11423.378723	2918.281667	907.807617	24.207762
11423.378723	2918.281667	906.639648	98.136887
11423.378723	2918.281667	905.471680	74.077271
11423.378723	2918.281667	904.303711	27.243452
11423.378723	2918.281667	903.134766	46.452663
11423.378723	2918.281667	901.965820	72.474937
11423.378723	2918.281667	900.796875	59.785057
11423.378723	2918.281667	899.626953	135.839890
11423.378723	2918.281667	898.457031	9.369918
11423.378723	2918.281667	897.287109	-132.979156
11423.378723	2918.281667	896.117188	127.253784
11423.378723	2918.281667	894.947266	-21.897890
11423.378723	2918.281667	893.776367	-48.240047
11423.378723	2918.281667	892.605469	45.879711
11423.378723	2918.281667	891.434570	103.596336
11423.378723	2918.281667	890.262695	143.107834
11423.378723	2918.281667	889.091797	-28.644884
11423.378723	2918.281667	887.919922	99.430809
11423.378723	2918.281667	886.748047	-106.313431
11423.378723	2918.281667	885.575195	51.223206
11423.378723	2918.281667	884.403320	86.133041
11423.378723	2918.281667	883.230469	48.411976
11423.378723	2918.281667	882.057617	-114.074165
11423.378723	2918.281667	880.883789	-192.577118
11423.378723	2918.281667	879.710938	-60.157864
11423.378723	2918.281667	878.537109	-72.901100
11423.378723	2918.281667	877.362305	-110.578651
11423.378723	2918.281667	876.188477	-59.859863
11423.378723	2918.281667	875.013672	-86.205452
11423.378723	2918.281667	873.839844	55.093182
11423.378723	2918.281667	872.664063	19.666151
11423.378723	2918.281667	871.489258	-29.338028
11423.378723	2918.281667	870.313477	62.041290
11423.378723	2918.281667	869.138672	-82.027809
11423.378723	2918.281667	867.962891	-130.993393
11423.378723	2918.281667	866.786133	-107.539391
11423.378723	2918.281667	865.610352	-13.972328
11423.378723	2918.281667	864.433594	-67.456100
11423.378723	2918.281667	863.256836	-80.219574
11423.378723	2918.281667	862.079102	-199.236252
11423.378723	2918.281667	860.902344	-4.027946
11423.378723	2918.281667	859.724609	-52.963192
11423.378723	2918.281667	858.546875	54.014309
11423.378723	2918.281667	857.368164	18.635151
11423.378723	2918.281667	856.190430	-28.023859
11423.378723	2918.281667	855.011719	35.973427
11423.378723	2918.281667	853.833008	-46.795216
11423.378723	2918.281667	852.654297	53.288017
11423.378723	2918.281667	851.474609	-72.329498
11423.378723	2918.281667	850.294922	-19.664722
11423.378723	2918.281667	849.115234	21.698490
11423.378723	2918.281667	847.935547	11.173828
11423.378723	2918.281667	846.754883	-132.377289
11423.378723	2918.281667	845.575195	-257.836029
11423.378723	2918.281667	844.393555	-6.861563
11423.378723	2918.281667	843.212891	65.995529
11423.378723	2918.281667	842.032227	10.408181
11423.378723	2918.281667	840.850586	186.840332
11423.378723	2918.281667	839.668945	-42.150742
11423.378723	2918.281667	838.486328	-90.930222
11423.378723	2918.281667	837.304688	-60.904682
11423.378723	2918.281667	836.122070	-64.650749
11423.378723	2918.281667	834.939453	23.858072
11423.378723	2918.281667	833.756836	2.097941
11423.378723	2918.281667	832.573242	-78.131760
11423.378723	2918.281667	831.389648	10.323868
11423.378723	2918.281667	830.206055	17.806213
11423.378723	2918.281667	829.022461	110.701096
11423.378723	2918.281667	827.838867	-54.883484
11423.378723	2918.281667	826.654297	67.196556
11423.378723	2918.281667	825.469727	-28.672449
11423.378723	2918.281667	824.284180	64.155060
11423.378723	2918.281667	823.099609	26.707989
11423.378723	2918.281667	821.914063	11.727098
11423.378723	2918.281667	820.728516	-14.470641
11423.378723	2918.281667	819.542969	-13.727942
11423.378723	2918.281667	818.356445	-69.075035
11423.378723	2918.281667	817.169922	194.126816
11423.378723	2918.281667	815.983398	-101.205833
11423.378723	2918.281667	814.796875	-156.499191
11423.378723	2918.281667	813.609375	-95.198059
11423.378723	2918.281667	812.422852	57.971554
11423.378723	2918.281667	811.235352	-21.967384
11423.378723	2918.281667	810.046875	-36.901550
11423.378723	2918.281667	808.859375	138.562180
11423.378723	2918.281667	807.670898	20.588352
11423.378723	2918.281667	806.482422	-48.078835
11423.378723	2918.281667	805.293945	-15.983314
11423.378723	2918.281667	804.104492	31.766052
11423.378723	2918.281667	802.915039	-48.045559
11423.378723	2918.281667	801.725586	-65.184242
11423.378723	2918.281667	800.536133	228.581451
11423.378723	2918.281667	799.345703	99.585052
11423.378723	2918.281667	798.155273	69.015511
11423.378723	2918.281667	796.964844	116.693634
11423.378723	2918.281667	795.774414	233.632614
11423.378723	2918.281667	794.583008	594.067810
11423.378723	2918.281667	793.392578	681.820984
11423.378723	2918.281667	792.200195	479.193878
11423.378723	2918.281667	791.008789	399.464294
11423.378723	2918.281667	789.816406	330.931122
11423.378723	2918.281667	788.625000	220.018570
11423.378723	2918.281667	787.432617	189.489868
11423.378723	2918.281667	786.239258	147.819092
11423.378723	2918.281667	785.046875	72.706406
11423.378723	2918.281667	783.853516	249.636642
11423.378723	2918.281667	782.660156	201.292404
11423.378723	2918.281667	781.465820	-11.995781
11423.378723	2918.281667	780.272461	37.802776
11423.378723	2918.281667	779.078125	87.581627
11423.378723	2918.281667	777.883789	92.783096
11423.378723	2918.281667	776.688477	187.079025
11423.378723	2918.281667	775.494141	56.415119
11423.378723	2918.281667	774.298828	54.942253
11423.378723	2918.281667	773.103516	-100.125298
11423.378723	2918.281667	771.907227	274.554718
11423.378723	2918.281667	770.711914	123.956779
11423.378723	2918.281667	769.515625	302.667816
11423.378723	2918.281667	768.318359	287.801483
11423.378723	2918.281667	767.122070	384.126770
11423.378723	2918.281667	765.924805	458.180206
11423.378723	2918.281667	764.727539	325.483185
11423.378723	2918.281667	763.530273	337.292480
11423.378723	2918.281667	762.333008	186.901474
11423.378723	2918.281667	761.134766	240.940445
11423.378723	2918.281667	759.936523	177.247192
11423.378723	2918.281667	758.738281	213.501282
11423.378723	2918.281667	757.540039	120.979507
11423.378723	2918.281667	756.340820	50.690571
11423.378723	2918.281667	755.141602	364.332092
11423.378723	2918.281667	753.942383	336.173981
11423.378723	2918.281667	752.742188	312.463257
11423.378723	2918.281667	751.541992	361.944885
11423.378723	2918.281667	750.341797	123.164627
11423.378723	2918.281667	749.141602	75.124832
11423.378723	2918.281667	747.941406	237.653015
11423.378723	2918.281667	746.740234	198.469788
11423.378723	2918.281667	745.539063	59.609169
11423.378723	2918.281667	744.337891	153.371338
11423.378723	2918.281667	743.135742	30.075024
11423.378723	2918.281667	741.933594	86.162468
11423.378723	2918.281667	740.731445	2.771219
11423.378723	2918.281667	739.529297	222.603790
11423.378723	2918.281667	738.326172	152.489639
11423.378723	2918.281667	737.124023	53.644417
11423.378723	2918.281667	735.919922	91.962555
11423.378723	2918.281667	734.716797	167.852066
11423.378723	2918.281667	733.513672	190.648758
11423.378723	2918.281667	732.309570	111.759232
11423.378723	2918.281667	731.105469	94.774139
11423.378723	2918.281667	729.900391	382.687469
11423.378723	2918.281667	728.696289	67.441925
11423.378723	2918.281667	727.491211	191.807373
11423.378723	2918.281667	726.286133	249.876434
11423.378723	2918.281667	725.080078	424.916504
11423.378723	2918.281667	723.874023	262.197449
11423.378723	2918.281667	722.668945	262.830933
11423.378723	2918.281667	721.461914	298.757660
11423.378723	2918.281667	720.255859	74.394028
11423.378723	2918.281667	719.048828	-8.746533
11423.378723	2918.281667	717.841797	-19.100683
11423.378723	2918.281667	716.634766	-141.875137
11423.378723	2918.281667	715.427734	24.099350
11423.378723	2918.281667	714.219727	-127.287773
11423.378723	2918.281667	713.011719	-190.500534
11423.378723	2918.281667	711.803711	19.410606
11423.378723	2918.281667	710.594727	55.270603
11423.378723	2918.281667	709.385742	-151.058868
11423.378723	2918.281667	708.176758	-117.392426
11423.378723	2918.281667	706.967773	30.684275
11423.378723	2918.281667	705.758789	-50.122887
11423.378723	2918.281667	704.548828	-20.919153
11423.378723	2918.281667	703.338867	54.448673
11423.378723	2918.281667	702.127930	28.633635
11423.378723	2918.281667	700.917969	24.805153
11423.378723	2918.281667	699.707031	-42.767128
11423.378723	2918.281667	698.496094	-22.424131
11423.378723	2918.281667	697.285156	-8.688991
11423.378723	2918.281667	696.073242	117.050774
11423.378723	2918.281667	694.861328	179.045074
11423.378723	2918.281667	693.649414	69.753685
11423.378723	2918.281667	692.436523	76.836914
11423.378723	2918.281667	691.224609	-14.849192
11423.378723	2918.281667	690.011719	44.889217
11423.378723	2918.281667	688.798828	108.980309
11423.378723	2918.281667	687.584961	83.112206
11423.378723	2918.281667	686.372070	-17.308699
11423.378723	2918.281667	685.158203	-23.429440
11423.378723	2918.281667	683.943359	141.405533
11423.378723	2918.281667	682.729492	54.151493
11423.378723	2918.281667	681.514648	17.314682
11423.378723	2918.281667	680.299805	74.671478
11423.378723	2918.281667	679.084961	134.183105
11423.378723	2918.281667	677.869141	64.475128
11423.378723	2918.281667	676.653320	211.502655
11423.378723	2918.281667	675.437500	56.428089
11423.378723	2918.281667	674.221680	155.232208
11423.378723	2918.281667	673.004883	157.723633
11423.378723	2918.281667	671.789063	92.397827
11423.378723	2918.281667	670.571289	107.996445
11423.378723	2918.281667	669.354492	208.841934
11423.378723	2918.281667	668.136719	163.179596
11423.378723	2918.281667	666.919922	169.973267
11423.378723	2918.281667	665.701172	266.331177
11423.378723	2918.281667	664.483398	225.014343
11423.378723	2918.281667	663.264648	257.956512
11423.378723	2918.281667	662.045898	308.338989
11423.378723	2918.281667	660.827148	312.841309
11423.378723	2918.281667	659.608398	312.962311
11423.378723	2918.281667	658.388672	140.677505
11423.378723	2918.281667	657.168945	199.710739
11423.378723	2918.281667	655.949219	197.629715
11423.378723	2918.281667	654.728516	212.979767
11423.378723	2918.281667	653.507813	278.455444
11423.378723	2918.281667	652.287109	237.075195
11423.378723	2918.281667	651.066406	241.463821
11423.378723	2918.281667	649.844727	117.277466
11423.378723	2918.281667	648.623047	27.983711
11423.378723	2918.281667	647.401367	71.569725
11423.378723	2918.281667	646.179688	276.259979
11423.378723	2918.281667	644.957031	424.242767
11423.378723	2918.281667	643.734375	184.705948
11423.378723	2918.281667	642.511719	-0.342287
11423.378723	2918.281667	641.289063	-28.677456
11423.378723	2918.281667	640.065430	145.279816
11423.378723	2918.281667	638.841797	140.813644
11423.378723	2918.281667	637.618164	36.313084
11423.378723	2918.281667	636.393555	216.615784
11423.378723	2918.281667	635.168945	229.471725
11423.378723	2918.281667	633.944336	194.500458
11423.378723	2918.281667	632.719727	248.597870
11423.378723	2918.281667	631.494141	172.332016
11423.378723	2918.281667	630.269531	241.576736
11423.378723	2918.281667	629.042969	236.954865
11423.378723	2918.281667	627.817383	208.440536
11423.378723	2918.281667	626.590820	110.473190
11423.378723	2918.281667	625.365234	71.112785
11423.378723	2918.281667	624.137695	-50.683006
11423.378723	2918.281667	622.911133	107.331131
11423.378723	2918.281667	621.683594	137.326477
11423.378723	2918.281667	620.456055	71.903336
11423.378723	2918.281667	619.228516	97.521614
11423.378723	2918.281667	618.000977	29.930296
11423.378723	2918.281667	616.772461	66.340424
11423.378723	2918.281667	615.543945	96.218582
11423.378723	2918.281667	614.314453	-23.361404
11423.378723	2918.281667	613.085938	-173.220108
11423.378723	2918.281667	611.856445	-48.122482
11423.378723	2918.281667	610.626953	178.620804
11423.378723	2918.281667	609.397461	123.961426
11423.378723	2918.281667	608.166992	-45.348656
11423.378723	2918.281667	606.936523	94.678314
11423.378723	2918.281667	605.706055	122.183929
11423.378723	2918.281667	604.474609	138.848404
11423.378723	2918.281667	603.244141	231.138519
11423.378723	2918.281667	602.012695	189.387817
11423.378723	2918.281667	600.780273	281.587952
11423.378723	2918.281667	599.548828	324.049133
11423.378723	2918.281667	598.316406	293.045715
11423.378723	2918.281667	597.083984	352.720825
11423.378723	2918.281667	595.851563	69.119492
11423.378723	2918.281667	594.618164	59.714794
11423.378723	2918.281667	593.384766	17.928768
11423.378723	2918.281667	592.151367	79.693138
11423.378723	2918.281667	590.917969	-35.449539
11423.378723	2918.281667	589.683594	9.010438
11423.378723	2918.281667	588.449219	57.745182
11423.378723	2918.281667	587.214844	-18.577234
11423.378723	2918.281667	585.979492	49.499638
11423.378723	2918.281667	584.745117	-22.515369
11423.378723	2918.281667	583.509766	73.500961
11423.378723	2918.281667	582.273438	-123.438080
11423.378723	2918.281667	581.038086	-94.225433
11423.378723	2918.281667	579.801758	-43.517216
11423.378723	2918.281667	578.565430	-81.090370
11423.378723	2918.281667	577.329102	-144.486725
11423.378723	2918.281667	576.091797	-59.432026
11423.378723	2918.281667	574.854492	120.208969
11423.378723	2918.281667	573.617188	-87.320885
11423.378723	2918.281667	572.378906	1.915750
11423.378723	2918.281667	571.141602	2.969562
11423.378723	2918.281667	569.903320	-26.081839
11423.378723	2918.281667	568.664063	155.423828
11423.378723	2918.281667	567.425781	18.913336
11423.378723	2918.281667	566.186523	-10.171513
11423.378723	2918.281667	564.947266	46.628891
11423.378723	2918.281667	563.708008	-83.378090
11423.378723	2918.281667	562.467773	-48.080841
11423.378723	2918.281667	561.227539	109.499336
11423.378723	2918.281667	559.987305	138.274323
11423.378723	2918.281667	558.747070	-34.599377
11423.378723	2918.281667	557.505859	-61.591217
11423.378723	2918.281667	556.264648	-215.081802
11423.378723	2918.281667	555.023438	-64.136284
11423.378723	2918.281667	553.781250	118.875969
11423.378723	2918.281667	552.539063	-64.592590
11423.378723	2918.281667	551.296875	-113.038246
11423.378723	2918.281667	550.054688	31.278074
11423.378723	2918.281667	548.811523	64.174492
11423.378723	2918.281667	547.569336	67.075264
11423.378723	2918.281667	546.325195	-94.846146
11423.378723	2918.281667	545.082031	-32.019882
11423.378723	2918.281667	543.837891	-123.271446
11423.378723	2918.281667	542.593750	97.794098
11423.378723	2918.281667	541.349609	-68.314590
11423.378723	2918.281667	540.105469	-31.247078
11423.378723	2918.281667	538.860352	3.656054
11423.378723	2918.281667	537.615234	-4.207760
11423.378723	2918.281667	536.369141	37.065033
11423.378723	2918.281667	535.124023	37.725048
11423.378723	2918.281667	533.877930	-72.684151
11423.378723	2918.281667	532.631836	71.046928
11423.378723	2918.281667	531.384766	-199.451614
11423.378723	2918.281667	530.138672	-17.349983
11423.378723	2918.281667	528.891602	98.513992
11423.378723	2918.281667	527.643555	-28.895435
11423.378723	2918.281667	526.396484	-230.909592
11423.378723	2918.281667	525.148438	34.185448
11423.378723	2918.281667	523.900391	-9.992564
11423.378723	2918.281667	522.652344	-2.996945
11423.378723	2918.281667	521.403320	-170.766434
11423.378723	2918.281667	520.154297	40.800602
11423.378723	2918.281667	518.905273	-41.703144
11423.378723	2918.281667	517.656250	-73.059013
11423.378723	2918.281667	516.406250	-198.096863
11423.378723	2918.281667	515.156250	43.086231
11423.378723	2918.281667	513.906250	88.348083
11423.378723	2918.281667	512.655273	-91.978554
11423.378723	2918.281667	511.404297	49.027294
11423.378723	2918.281667	510.153320	151.684387
11423.378723	2918.281667	508.902344	130.954071
11423.378723	2918.281667	507.650391	10.302358
11423.378723	2918.281667	506.398438	174.545746
11423.378723	2918.281667	505.146484	257.960999
11423.378723	2918.281667	503.893555	324.341278
11423.378723	2918.281667	502.641602	288.728851
11423.378723	2918.281667	501.388672	480.386383
11423.378723	2918.281667	500.134766	519.076538
11423.378723	2918.281667	498.881836	627.811646
11423.378723	2918.281667	497.627930	483.924805
11423.378723	2918.281667	496.374023	490.768066
11423.378723	2918.281667	495.119141	444.571136
11423.378723	2918.281667	493.865234	252.042648
11423.378723	2918.281667	492.610352	184.718765
11423.378723	2918.281667	491.355469	185.276260
11423.378723	2918.281667	490.099609	31.094671
11423.378723	2918.281667	488.843750	107.988419
11423.378723	2918.281667	487.587891	136.121857
11423.378723	2918.281667	486.332031	276.523560
11423.378723	2918.281667	485.075195	173.307495
11423.378723	2918.281667	483.818359	260.715240
11423.378723	2918.281667	482.561523	121.571701
11423.378723	2918.281667	481.304688	60.807804
11423.378723	2918.281667	480.046875	-48.594875
11423.378723	2918.281667	478.789063	117.091965
11423.378723	2918.281667	477.531250	136.766464
11423.378723	2918.281667	476.272461	241.028824
11423.378723	2918.281667	475.013672	97.883156
11423.378723	2918.281667	473.754883	293.019043
11423.378723	2918.281667	472.496094	253.495682
11423.378723	2918.281667	471.236328	285.835083
11423.378723	2918.281667	469.976563	49.886990
11423.378723	2918.281667	468.716797	151.969284
11423.378723	2918.281667	467.456055	118.875458
11423.378723	2918.281667	466.196289	-0.748500
11423.378723	2918.281667	464.935547	162.511444
11423.378723	2918.281667	463.673828	215.978516
11423.378723	2918.281667	462.413086	12.046127
11423.378723	2918.281667	461.151367	36.009148
11423.378723	2918.281667	459.889648	45.208714
11423.378723	2918.281667	458.626953	18.568535
11423.378723	2918.281667	457.364258	29.890125
11423.378723	2918.281667	456.101563	20.140043
11423.378723	2918.281667	454.838867	12.507956
11423.378723	2918.281667	453.575195	25.950666
11423.378723	2918.281667	452.312500	18.334379
11423.378723	2918.281667	451.047852	84.422150
11423.378723	2918.281667	449.784180	243.115646
11423.378723	2918.281667	448.519531	405.954163
11423.378723	2918.281667	447.254883	499.286652
11423.378723	2918.281667	445.990234	567.337280
11423.378723	2918.281667	444.725586	639.568726
11423.378723	2918.281667	443.459961	488.864838
11423.378723	2918.281667	442.194336	407.608582
11423.378723	2918.281667	440.927734	341.101593
11423.378723	2918.281667	439.662109	316.656311
11423.378723	2918.281667	438.395508	239.694031
11423.378723	2918.281667	437.127930	66.133804
11423.378723	2918.281667	435.861328	293.780090
11423.378723	2918.281667	434.593750	109.780609
11423.378723	2918.281667	433.326172	133.683456
11423.378723	2918.281667	432.058594	-20.826910
11423.378723	2918.281667	430.790039	74.425194
11423.378723	2918.281667	429.521484	-2.398009
11423.378723	2918.281667	428.252930	96.987816
11423.378723	2918.281667	426.984375	-25.959223
11423.378723	2918.281667	425.714844	73.365967
11423.378723	2918.281667	424.445313	0.757664
11423.378723	2918.281667	423.174805	37.136726
11423.378723	2918.281667	421.905273	10.630258
11423.378723	2918.281667	420.634766	-15.883959
11423.378723	2918.281667	419.364258	137.699615
11423.378723	2918.281667	418.092773	-31.252234
11423.378723	2918.281667	416.822266	23.835135
11423.378723	2918.281667	415.550781	89.336128
11423.378723	2918.281667	414.278320	12.493669
11423.378723	2918.281667	413.006836	-28.780834
11423.378723	2918.281667	411.734375	-38.697830
11423.378723	2918.281667	410.461914	-46.555103
11423.378723	2918.281667	409.188477	68.899078
11423.378723	2918.281667	407.916016	-83.277069
11423.378723	2918.281667	406.642578	13.244446
11423.378723	2918.281667	405.368164	-92.981659
11423.378723	2918.281667	404.094727	132.911774
11423.378723	2918.281667	402.820313	-29.780470
11423.378723	2918.281667	401.545898	60.179432
11423.378723	2918.281667	400.270508	89.504120
11423.378723	2918.281667	398.996094	229.366791
11423.378723	2918.281667	397.720703	168.793365
11423.378723	2918.281667	396.444336	20.559843
11423.378723	2918.281667	395.168945	47.513676
11423.378723	2918.281667	393.892578	36.843662
11423.378723	2918.281667	392.616211	-32.274918
11423.378723	2918.281667	391.339844	142.412109
11423.378723	2918.281667	390.062500	4.358105
11423.378723	2918.281667	388.785156	170.442703
11423.378723	2918.281667	387.507813	128.064697
11423.378723	2918.281667	386.229492	227.207535
11423.378723	2918.281667	384.951172	-2.758643
11423.378723	2918.281667	383.672852	-64.132294
11423.378723	2918.281667	382.394531	140.785049
11423.378723	2918.281667	381.115234	54.194637
11423.378723	2918.281667	379.835938	229.618149
11423.378723	2918.281667	378.556641	45.033363
11423.378723	2918.281667	377.277344	18.414440
11423.378723	2918.281667	375.997070	139.255493
11423.378723	2918.281667	374.716797	-8.222878
11423.378723	2918.281667	373.435547	101.864922
11423.378723	2918.281667	372.155273	-79.107040
11423.378723	2918.281667	370.874023	-31.703064
11423.378723	2918.281667	369.591797	32.109108
11423.378723	2918.281667	368.310547	-82.838249
11423.378723	2918.281667	367.028320	-69.242172
11423.378723	2918.281667	365.746094	64.508560
11423.378723	2918.281667	364.463867	-165.095703
11423.378723	2918.281667	363.180664	9.670634
11423.378723	2918.281667	361.897461	-203.680984
11423.378723	2918.281667	360.614258	-29.445532
11423.378723	2918.281667	359.330078	18.013494
11423.378723	2918.281667	358.045898	34.110668
11423.378723	2918.281667	356.761719	14.712922
11423.378723	2918.281667	355.477539	-29.808172
11423.378723	2918.281667	354.192383	31.032238
11423.378723	2918.281667	352.907227	-22.335365
11423.378723	2918.281667	351.622070	-57.349724
11423.378723	2918.281667	350.336914	-169.244263
11423.378723	2918.281667	349.050781	64.162140
11423.378723	2918.281667	347.764648	48.863777
11423.378723	2918.281667	346.477539	151.119812
11423.378723	2918.281667	345.191406	48.249191
11423.378723	2918.281667	343.904297	11.207251
11423.378723	2918.281667	342.616211	68.878174
11423.378723	2918.281667	341.329102	171.603668
11423.378723	2918.281667	340.041016	-11.267529
11423.378723	2918.281667	338.752930	158.764038
11423.378723	2918.281667	337.463867	94.898697
11423.378723	2918.281667	336.175781	9.974021
11423.378723	2918.281667	334.886719	69.122520
11423.378723	2918.281667	333.596680	32.815838
11423.378723	2918.281667	332.307617	18.742727
11423.378723	2918.281667	331.017578	-59.796547
11423.378723	2918.281667	329.727539	108.687241
11423.378723	2918.281667	328.436523	53.835232
11423.378723	2918.281667	327.146484	-100.497093
11423.378723	2918.281667	325.855469	-71.894440
11423.378723	2918.281667	324.563477	-120.156456
11423.378723	2918.281667	323.272461	109.156784
11423.378723	2918.281667	321.980469	22.568110
11423.378723	2918.281667	320.688477	-21.377338
11423.378723	2918.281667	319.395508	-140.103378
11423.378723	2918.281667	318.103516	-18.592216
11423.378723	2918.281667	316.810547	-130.414886
11423.378723	2918.281667	315.516602	125.393456
11423.378723	2918.281667	314.223633	-115.418556
11423.378723	2918.281667	312.929688	15.367497
11423.378723	2918.281667	311.635742	-47.977627
11423.378723	2918.281667	310.340820	-7.270893
11423.378723	2918.281667	309.045898	-10.572878
11423.378723	2918.281667	307.750977	53.089897
11423.378723	2918.281667	306.456055	140.506363
11423.378723	2918.281667	305.160156	109.884377
11423.378723	2918.281667	303.865234	224.183197
11423.378723	2918.281667	302.568359	136.231522
11423.378723	2918.281667	301.272461	254.693024
11423.378723	2918.281667	299.975586	228.423721
11423.378723	2918.281667	298.678711	172.415573
