#X		#Y		#Wave		#Intensity
11252.261170	3011.318333	1999.980469	176.908966
11252.261170	3011.318333	1999.016602	14.190598
11252.261170	3011.318333	1998.052734	133.892853
11252.261170	3011.318333	1997.087891	13.050702
11252.261170	3011.318333	1996.123047	28.409504
11252.261170	3011.318333	1995.158203	73.375542
11252.261170	3011.318333	1994.193359	256.914581
11252.261170	3011.318333	1993.228516	-154.030136
11252.261170	3011.318333	1992.262695	-49.950958
11252.261170	3011.318333	1991.297852	39.138905
11252.261170	3011.318333	1990.332031	-114.440559
11252.261170	3011.318333	1989.366211	-13.184978
11252.261170	3011.318333	1988.399414	112.684143
11252.261170	3011.318333	1987.433594	-147.449478
11252.261170	3011.318333	1986.466797	126.615936
11252.261170	3011.318333	1985.500977	-42.097031
11252.261170	3011.318333	1984.534180	-99.575539
11252.261170	3011.318333	1983.567383	-129.917648
11252.261170	3011.318333	1982.599609	-14.514719
11252.261170	3011.318333	1981.632813	-200.656342
11252.261170	3011.318333	1980.665039	-194.107880
11252.261170	3011.318333	1979.697266	-59.190014
11252.261170	3011.318333	1978.729492	-220.710602
11252.261170	3011.318333	1977.761719	188.101517
11252.261170	3011.318333	1976.792969	-69.786346
11252.261170	3011.318333	1975.825195	35.172436
11252.261170	3011.318333	1974.856445	127.704613
11252.261170	3011.318333	1973.887695	262.097839
11252.261170	3011.318333	1972.918945	275.530212
11252.261170	3011.318333	1971.949219	59.558327
11252.261170	3011.318333	1970.980469	58.147919
11252.261170	3011.318333	1970.010742	-118.335365
11252.261170	3011.318333	1969.041016	-11.334400
11252.261170	3011.318333	1968.071289	144.880356
11252.261170	3011.318333	1967.101563	-19.302401
11252.261170	3011.318333	1966.130859	126.939957
11252.261170	3011.318333	1965.161133	127.785149
11252.261170	3011.318333	1964.190430	121.214310
11252.261170	3011.318333	1963.219727	301.739502
11252.261170	3011.318333	1962.249023	-175.078033
11252.261170	3011.318333	1961.277344	-88.133797
11252.261170	3011.318333	1960.306641	-1.240346
11252.261170	3011.318333	1959.334961	-101.377960
11252.261170	3011.318333	1958.363281	-41.607979
11252.261170	3011.318333	1957.391602	42.718487
11252.261170	3011.318333	1956.419922	31.102814
11252.261170	3011.318333	1955.447266	100.605156
11252.261170	3011.318333	1954.474609	243.809555
11252.261170	3011.318333	1953.501953	84.678169
11252.261170	3011.318333	1952.529297	55.819614
11252.261170	3011.318333	1951.556641	139.968430
11252.261170	3011.318333	1950.583984	-53.464127
11252.261170	3011.318333	1949.610352	33.114975
11252.261170	3011.318333	1948.636719	-54.662594
11252.261170	3011.318333	1947.663086	73.607445
11252.261170	3011.318333	1946.689453	61.931885
11252.261170	3011.318333	1945.715820	28.174871
11252.261170	3011.318333	1944.741211	-93.894981
11252.261170	3011.318333	1943.767578	19.564537
11252.261170	3011.318333	1942.792969	142.789917
11252.261170	3011.318333	1941.818359	28.125437
11252.261170	3011.318333	1940.842773	58.145218
11252.261170	3011.318333	1939.868164	48.941299
11252.261170	3011.318333	1938.892578	137.768600
11252.261170	3011.318333	1937.916992	37.900909
11252.261170	3011.318333	1936.941406	89.959862
11252.261170	3011.318333	1935.965820	132.206696
11252.261170	3011.318333	1934.990234	52.001240
11252.261170	3011.318333	1934.013672	228.908615
11252.261170	3011.318333	1933.037109	65.496353
11252.261170	3011.318333	1932.060547	-39.109200
11252.261170	3011.318333	1931.083984	-58.023937
11252.261170	3011.318333	1930.107422	-67.138191
11252.261170	3011.318333	1929.129883	14.262450
11252.261170	3011.318333	1928.153320	-70.662193
11252.261170	3011.318333	1927.175781	-101.754120
11252.261170	3011.318333	1926.198242	-98.600365
11252.261170	3011.318333	1925.219727	100.099342
11252.261170	3011.318333	1924.242188	-133.818604
11252.261170	3011.318333	1923.263672	-62.223610
11252.261170	3011.318333	1922.285156	9.352824
11252.261170	3011.318333	1921.306641	-65.635185
11252.261170	3011.318333	1920.328125	162.219589
11252.261170	3011.318333	1919.349609	-17.738150
11252.261170	3011.318333	1918.370117	0.105205
11252.261170	3011.318333	1917.391602	-13.776583
11252.261170	3011.318333	1916.412109	-164.294937
11252.261170	3011.318333	1915.431641	58.524643
11252.261170	3011.318333	1914.452148	83.690956
11252.261170	3011.318333	1913.472656	57.640747
11252.261170	3011.318333	1912.492188	-92.749756
11252.261170	3011.318333	1911.511719	261.567627
11252.261170	3011.318333	1910.531250	-159.345825
11252.261170	3011.318333	1909.550781	41.335793
11252.261170	3011.318333	1908.569336	-62.617794
11252.261170	3011.318333	1907.588867	-88.572098
11252.261170	3011.318333	1906.607422	-58.491318
11252.261170	3011.318333	1905.625977	-8.935858
11252.261170	3011.318333	1904.644531	40.606617
11252.261170	3011.318333	1903.662109	56.054207
11252.261170	3011.318333	1902.680664	-16.114038
11252.261170	3011.318333	1901.698242	26.113232
11252.261170	3011.318333	1900.715820	-36.284462
11252.261170	3011.318333	1899.733398	49.721729
11252.261170	3011.318333	1898.750000	-126.956024
11252.261170	3011.318333	1897.767578	-240.344666
11252.261170	3011.318333	1896.784180	-1.185796
11252.261170	3011.318333	1895.800781	138.230453
11252.261170	3011.318333	1894.817383	44.299080
11252.261170	3011.318333	1893.833984	91.326164
11252.261170	3011.318333	1892.850586	-141.027710
11252.261170	3011.318333	1891.866211	-62.411983
11252.261170	3011.318333	1890.881836	-107.672508
11252.261170	3011.318333	1889.897461	-245.178055
11252.261170	3011.318333	1888.913086	-37.939964
11252.261170	3011.318333	1887.927734	4.182302
11252.261170	3011.318333	1886.943359	36.579613
11252.261170	3011.318333	1885.958008	-98.439980
11252.261170	3011.318333	1884.972656	-19.960686
11252.261170	3011.318333	1883.987305	-152.505615
11252.261170	3011.318333	1883.001953	-6.165305
11252.261170	3011.318333	1882.015625	-95.042450
11252.261170	3011.318333	1881.029297	-50.584553
11252.261170	3011.318333	1880.042969	39.891270
11252.261170	3011.318333	1879.056641	137.592316
11252.261170	3011.318333	1878.070313	-164.455750
11252.261170	3011.318333	1877.083984	-42.554451
11252.261170	3011.318333	1876.096680	-49.053661
11252.261170	3011.318333	1875.109375	-55.562019
11252.261170	3011.318333	1874.122070	192.084763
11252.261170	3011.318333	1873.134766	13.674026
11252.261170	3011.318333	1872.146484	-217.919586
11252.261170	3011.318333	1871.159180	61.024017
11252.261170	3011.318333	1870.170898	56.844715
11252.261170	3011.318333	1869.182617	-63.431335
11252.261170	3011.318333	1868.194336	94.378677
11252.261170	3011.318333	1867.205078	-37.984478
11252.261170	3011.318333	1866.216797	213.986526
11252.261170	3011.318333	1865.227539	253.185074
11252.261170	3011.318333	1864.238281	-9.663380
11252.261170	3011.318333	1863.249023	-57.442444
11252.261170	3011.318333	1862.259766	66.250397
11252.261170	3011.318333	1861.269531	228.507324
11252.261170	3011.318333	1860.279297	156.495255
11252.261170	3011.318333	1859.290039	77.244461
11252.261170	3011.318333	1858.298828	364.825897
11252.261170	3011.318333	1857.308594	251.730499
11252.261170	3011.318333	1856.318359	-196.682068
11252.261170	3011.318333	1855.327148	105.178276
11252.261170	3011.318333	1854.335938	78.923882
11252.261170	3011.318333	1853.344727	43.005119
11252.261170	3011.318333	1852.353516	101.084259
11252.261170	3011.318333	1851.362305	96.444664
11252.261170	3011.318333	1850.370117	65.265129
11252.261170	3011.318333	1849.377930	2.743104
11252.261170	3011.318333	1848.385742	17.291851
11252.261170	3011.318333	1847.393555	130.545319
11252.261170	3011.318333	1846.401367	-25.968964
11252.261170	3011.318333	1845.408203	-57.274532
11252.261170	3011.318333	1844.415039	395.206116
11252.261170	3011.318333	1843.421875	-54.986782
11252.261170	3011.318333	1842.428711	-209.096237
11252.261170	3011.318333	1841.435547	-36.017555
11252.261170	3011.318333	1840.441406	204.298798
11252.261170	3011.318333	1839.448242	64.532570
11252.261170	3011.318333	1838.454102	170.014084
11252.261170	3011.318333	1837.459961	265.796692
11252.261170	3011.318333	1836.464844	89.911263
11252.261170	3011.318333	1835.470703	123.107201
11252.261170	3011.318333	1834.475586	74.557289
11252.261170	3011.318333	1833.480469	16.369762
11252.261170	3011.318333	1832.485352	272.766510
11252.261170	3011.318333	1831.490234	70.400108
11252.261170	3011.318333	1830.495117	-57.517311
11252.261170	3011.318333	1829.499023	325.810425
11252.261170	3011.318333	1828.502930	281.781860
11252.261170	3011.318333	1827.506836	91.359138
11252.261170	3011.318333	1826.510742	212.811066
11252.261170	3011.318333	1825.513672	298.184601
11252.261170	3011.318333	1824.517578	88.524239
11252.261170	3011.318333	1823.520508	85.072044
11252.261170	3011.318333	1822.523438	115.125328
11252.261170	3011.318333	1821.526367	-13.065643
11252.261170	3011.318333	1820.529297	-52.607021
11252.261170	3011.318333	1819.531250	32.383839
11252.261170	3011.318333	1818.533203	105.307968
11252.261170	3011.318333	1817.535156	63.194984
11252.261170	3011.318333	1816.537109	147.938736
11252.261170	3011.318333	1815.539063	218.227066
11252.261170	3011.318333	1814.540039	202.260712
11252.261170	3011.318333	1813.541992	-69.810112
11252.261170	3011.318333	1812.542969	7.469445
11252.261170	3011.318333	1811.543945	319.081909
11252.261170	3011.318333	1810.543945	312.420258
11252.261170	3011.318333	1809.544922	238.747467
11252.261170	3011.318333	1808.544922	298.915405
11252.261170	3011.318333	1807.544922	153.430344
11252.261170	3011.318333	1806.544922	263.646179
11252.261170	3011.318333	1805.544922	84.637535
11252.261170	3011.318333	1804.544922	149.301315
11252.261170	3011.318333	1803.543945	326.126740
11252.261170	3011.318333	1802.542969	-98.968422
11252.261170	3011.318333	1801.541992	22.784794
11252.261170	3011.318333	1800.541016	185.004044
11252.261170	3011.318333	1799.539063	287.419525
11252.261170	3011.318333	1798.538086	69.975479
11252.261170	3011.318333	1797.536133	-54.417019
11252.261170	3011.318333	1796.534180	188.504959
11252.261170	3011.318333	1795.532227	235.703812
11252.261170	3011.318333	1794.529297	-170.234070
11252.261170	3011.318333	1793.527344	398.957520
11252.261170	3011.318333	1792.524414	57.350204
11252.261170	3011.318333	1791.521484	-29.214600
11252.261170	3011.318333	1790.518555	108.144516
11252.261170	3011.318333	1789.514648	81.001923
11252.261170	3011.318333	1788.511719	232.427307
11252.261170	3011.318333	1787.507813	219.405701
11252.261170	3011.318333	1786.503906	-131.762085
11252.261170	3011.318333	1785.500000	40.804436
11252.261170	3011.318333	1784.496094	20.455486
11252.261170	3011.318333	1783.491211	278.426208
11252.261170	3011.318333	1782.486328	-20.465689
11252.261170	3011.318333	1781.481445	275.314667
11252.261170	3011.318333	1780.476563	183.272766
11252.261170	3011.318333	1779.471680	-53.850437
11252.261170	3011.318333	1778.465820	-5.704924
11252.261170	3011.318333	1777.460938	-7.564975
11252.261170	3011.318333	1776.455078	-42.778107
11252.261170	3011.318333	1775.449219	204.666412
11252.261170	3011.318333	1774.442383	-103.913864
11252.261170	3011.318333	1773.436523	250.157623
11252.261170	3011.318333	1772.429688	345.187103
11252.261170	3011.318333	1771.422852	107.731529
11252.261170	3011.318333	1770.416016	216.827835
11252.261170	3011.318333	1769.409180	-4.066195
11252.261170	3011.318333	1768.402344	195.007278
11252.261170	3011.318333	1767.394531	45.195457
11252.261170	3011.318333	1766.386719	85.099678
11252.261170	3011.318333	1765.378906	212.645584
11252.261170	3011.318333	1764.371094	245.222687
11252.261170	3011.318333	1763.362305	133.100952
11252.261170	3011.318333	1762.354492	-52.525608
11252.261170	3011.318333	1761.345703	34.323441
11252.261170	3011.318333	1760.336914	49.982407
11252.261170	3011.318333	1759.328125	214.774460
11252.261170	3011.318333	1758.318359	-321.570801
11252.261170	3011.318333	1757.308594	49.044899
11252.261170	3011.318333	1756.299805	52.514053
11252.261170	3011.318333	1755.290039	-171.327301
11252.261170	3011.318333	1754.279297	-59.150330
11252.261170	3011.318333	1753.269531	-100.878639
11252.261170	3011.318333	1752.258789	134.077255
11252.261170	3011.318333	1751.249023	108.712997
11252.261170	3011.318333	1750.238281	-86.985710
11252.261170	3011.318333	1749.226563	204.308075
11252.261170	3011.318333	1748.215820	-36.414349
11252.261170	3011.318333	1747.204102	-135.345474
11252.261170	3011.318333	1746.193359	157.905716
11252.261170	3011.318333	1745.181641	191.095688
11252.261170	3011.318333	1744.168945	-59.247375
11252.261170	3011.318333	1743.157227	153.269043
11252.261170	3011.318333	1742.144531	122.429260
11252.261170	3011.318333	1741.132813	-24.139486
11252.261170	3011.318333	1740.120117	327.228668
11252.261170	3011.318333	1739.106445	-76.711426
11252.261170	3011.318333	1738.093750	78.551712
11252.261170	3011.318333	1737.080078	-134.299850
11252.261170	3011.318333	1736.067383	-156.124390
11252.261170	3011.318333	1735.053711	36.527428
11252.261170	3011.318333	1734.040039	-98.654213
11252.261170	3011.318333	1733.025391	-200.879837
11252.261170	3011.318333	1732.011719	-159.396713
11252.261170	3011.318333	1730.997070	-59.121292
11252.261170	3011.318333	1729.982422	-90.880630
11252.261170	3011.318333	1728.967773	25.662468
11252.261170	3011.318333	1727.952148	-166.395233
11252.261170	3011.318333	1726.937500	-66.527702
11252.261170	3011.318333	1725.921875	-140.970459
11252.261170	3011.318333	1724.906250	118.704742
11252.261170	3011.318333	1723.890625	-0.614043
11252.261170	3011.318333	1722.875000	143.503204
11252.261170	3011.318333	1721.858398	-79.434990
11252.261170	3011.318333	1720.841797	-133.058640
11252.261170	3011.318333	1719.825195	-29.221846
11252.261170	3011.318333	1718.808594	-235.786514
11252.261170	3011.318333	1717.791992	-14.621398
11252.261170	3011.318333	1716.774414	-249.477066
11252.261170	3011.318333	1715.756836	-164.820999
11252.261170	3011.318333	1714.739258	-70.881271
11252.261170	3011.318333	1713.721680	13.549599
11252.261170	3011.318333	1712.704102	-162.748627
11252.261170	3011.318333	1711.685547	-170.050293
11252.261170	3011.318333	1710.667969	113.614548
11252.261170	3011.318333	1709.649414	-109.775948
11252.261170	3011.318333	1708.630859	93.835747
11252.261170	3011.318333	1707.611328	55.678986
11252.261170	3011.318333	1706.592773	-3.635104
11252.261170	3011.318333	1705.573242	-109.908142
11252.261170	3011.318333	1704.553711	36.971424
11252.261170	3011.318333	1703.534180	-3.789803
11252.261170	3011.318333	1702.513672	-128.983261
11252.261170	3011.318333	1701.494141	-153.442413
11252.261170	3011.318333	1700.473633	274.131104
11252.261170	3011.318333	1699.453125	57.397060
11252.261170	3011.318333	1698.432617	-2.435933
11252.261170	3011.318333	1697.412109	40.695240
11252.261170	3011.318333	1696.390625	287.369904
11252.261170	3011.318333	1695.369141	143.053818
11252.261170	3011.318333	1694.347656	73.598206
11252.261170	3011.318333	1693.326172	-0.577361
11252.261170	3011.318333	1692.304688	-102.859901
11252.261170	3011.318333	1691.282227	80.110924
11252.261170	3011.318333	1690.260742	33.831230
11252.261170	3011.318333	1689.238281	176.833496
11252.261170	3011.318333	1688.214844	198.172913
11252.261170	3011.318333	1687.192383	224.124329
11252.261170	3011.318333	1686.168945	-313.040863
11252.261170	3011.318333	1685.146484	81.924057
11252.261170	3011.318333	1684.123047	72.650673
11252.261170	3011.318333	1683.099609	156.713928
11252.261170	3011.318333	1682.075195	137.955200
11252.261170	3011.318333	1681.051758	116.821854
11252.261170	3011.318333	1680.027344	137.626724
11252.261170	3011.318333	1679.002930	261.021179
11252.261170	3011.318333	1677.978516	92.729607
11252.261170	3011.318333	1676.953125	243.940842
11252.261170	3011.318333	1675.928711	33.632126
11252.261170	3011.318333	1674.903320	49.469315
11252.261170	3011.318333	1673.877930	435.847229
11252.261170	3011.318333	1672.852539	435.177856
11252.261170	3011.318333	1671.826172	527.638062
11252.261170	3011.318333	1670.800781	438.323730
11252.261170	3011.318333	1669.774414	297.739197
11252.261170	3011.318333	1668.748047	392.344055
11252.261170	3011.318333	1667.721680	382.096130
11252.261170	3011.318333	1666.694336	248.421204
11252.261170	3011.318333	1665.667969	466.175385
11252.261170	3011.318333	1664.640625	271.941742
11252.261170	3011.318333	1663.613281	561.614624
11252.261170	3011.318333	1662.585938	469.683167
11252.261170	3011.318333	1661.557617	370.750763
11252.261170	3011.318333	1660.530273	299.725647
11252.261170	3011.318333	1659.501953	616.870300
11252.261170	3011.318333	1658.473633	455.084045
11252.261170	3011.318333	1657.444336	799.860840
11252.261170	3011.318333	1656.416016	772.764526
11252.261170	3011.318333	1655.386719	466.894165
11252.261170	3011.318333	1654.358398	446.760071
11252.261170	3011.318333	1653.328125	291.900238
11252.261170	3011.318333	1652.298828	415.644806
11252.261170	3011.318333	1651.269531	801.572449
11252.261170	3011.318333	1650.239258	600.213074
11252.261170	3011.318333	1649.208984	605.382385
11252.261170	3011.318333	1648.178711	508.452515
11252.261170	3011.318333	1647.148438	587.783813
11252.261170	3011.318333	1646.117188	639.213684
11252.261170	3011.318333	1645.086914	718.425720
11252.261170	3011.318333	1644.055664	806.833923
11252.261170	3011.318333	1643.024414	758.454468
11252.261170	3011.318333	1641.992188	872.236938
11252.261170	3011.318333	1640.960938	772.845703
11252.261170	3011.318333	1639.928711	803.151611
11252.261170	3011.318333	1638.896484	1011.716858
11252.261170	3011.318333	1637.864258	1016.448730
11252.261170	3011.318333	1636.832031	1069.762207
11252.261170	3011.318333	1635.798828	1085.993652
11252.261170	3011.318333	1634.766602	1046.678589
11252.261170	3011.318333	1633.733398	1028.166382
11252.261170	3011.318333	1632.699219	933.303650
11252.261170	3011.318333	1631.666016	907.844910
11252.261170	3011.318333	1630.632813	1201.432983
11252.261170	3011.318333	1629.598633	1097.292847
11252.261170	3011.318333	1628.564453	1286.685913
11252.261170	3011.318333	1627.530273	1097.049072
11252.261170	3011.318333	1626.495117	1154.647827
11252.261170	3011.318333	1625.460938	1071.332886
11252.261170	3011.318333	1624.425781	1295.160034
11252.261170	3011.318333	1623.390625	1336.492554
11252.261170	3011.318333	1622.355469	1410.118774
11252.261170	3011.318333	1621.319336	1400.607056
11252.261170	3011.318333	1620.284180	1425.720093
11252.261170	3011.318333	1619.248047	1319.302979
11252.261170	3011.318333	1618.211914	1505.859497
11252.261170	3011.318333	1617.174805	1178.057861
11252.261170	3011.318333	1616.138672	1272.336426
11252.261170	3011.318333	1615.101563	1373.477783
11252.261170	3011.318333	1614.065430	1490.728760
11252.261170	3011.318333	1613.027344	1566.427979
11252.261170	3011.318333	1611.990234	1637.506592
11252.261170	3011.318333	1610.953125	1660.187622
11252.261170	3011.318333	1609.915039	1823.332642
11252.261170	3011.318333	1608.876953	1670.970825
11252.261170	3011.318333	1607.838867	1555.509644
11252.261170	3011.318333	1606.800781	2031.623901
11252.261170	3011.318333	1605.761719	1842.501465
11252.261170	3011.318333	1604.723633	1814.527832
11252.261170	3011.318333	1603.684570	1982.089233
11252.261170	3011.318333	1602.644531	2165.681152
11252.261170	3011.318333	1601.605469	2245.754883
11252.261170	3011.318333	1600.566406	2256.844482
11252.261170	3011.318333	1599.526367	2336.883789
11252.261170	3011.318333	1598.486328	2439.892090
11252.261170	3011.318333	1597.446289	2186.745605
11252.261170	3011.318333	1596.405273	2301.249512
11252.261170	3011.318333	1595.365234	1912.761353
11252.261170	3011.318333	1594.324219	1875.760010
11252.261170	3011.318333	1593.283203	1882.416626
11252.261170	3011.318333	1592.242188	1987.795166
11252.261170	3011.318333	1591.200195	2150.515137
11252.261170	3011.318333	1590.159180	1813.016235
11252.261170	3011.318333	1589.117188	1787.648193
11252.261170	3011.318333	1588.075195	2081.125488
11252.261170	3011.318333	1587.032227	1913.583740
11252.261170	3011.318333	1585.990234	2083.176758
11252.261170	3011.318333	1584.947266	1824.071289
11252.261170	3011.318333	1583.904297	1860.739258
11252.261170	3011.318333	1582.861328	1787.441650
11252.261170	3011.318333	1581.818359	1691.298584
11252.261170	3011.318333	1580.775391	1796.787842
11252.261170	3011.318333	1579.731445	1897.677856
11252.261170	3011.318333	1578.687500	1691.766724
11252.261170	3011.318333	1577.643555	1714.885742
11252.261170	3011.318333	1576.598633	1861.606201
11252.261170	3011.318333	1575.554688	1701.708374
11252.261170	3011.318333	1574.509766	1674.588135
11252.261170	3011.318333	1573.464844	1638.373291
11252.261170	3011.318333	1572.419922	1796.600220
11252.261170	3011.318333	1571.374023	1685.000610
11252.261170	3011.318333	1570.329102	1664.942017
11252.261170	3011.318333	1569.283203	1752.344482
11252.261170	3011.318333	1568.237305	1812.341187
11252.261170	3011.318333	1567.191406	1600.493896
11252.261170	3011.318333	1566.144531	1546.374634
11252.261170	3011.318333	1565.098633	1592.824829
11252.261170	3011.318333	1564.051758	1317.356689
11252.261170	3011.318333	1563.004883	1694.935425
11252.261170	3011.318333	1561.957031	1307.814941
11252.261170	3011.318333	1560.910156	1406.965210
11252.261170	3011.318333	1559.862305	1469.615601
11252.261170	3011.318333	1558.814453	1482.115845
11252.261170	3011.318333	1557.766602	1211.881104
11252.261170	3011.318333	1556.718750	1452.560791
11252.261170	3011.318333	1555.669922	1358.080811
11252.261170	3011.318333	1554.621094	1179.369019
11252.261170	3011.318333	1553.573242	1472.512695
11252.261170	3011.318333	1552.523438	1448.890137
11252.261170	3011.318333	1551.474609	1473.189453
11252.261170	3011.318333	1550.424805	1406.438110
11252.261170	3011.318333	1549.375000	1401.258667
11252.261170	3011.318333	1548.325195	1334.681396
11252.261170	3011.318333	1547.275391	1473.049072
11252.261170	3011.318333	1546.225586	1470.342896
11252.261170	3011.318333	1545.174805	1392.614868
11252.261170	3011.318333	1544.124023	1371.860107
11252.261170	3011.318333	1543.073242	1182.888062
11252.261170	3011.318333	1542.022461	1196.436035
11252.261170	3011.318333	1540.970703	1253.239746
11252.261170	3011.318333	1539.919922	1414.662598
11252.261170	3011.318333	1538.868164	1294.298218
11252.261170	3011.318333	1537.815430	1235.391846
11252.261170	3011.318333	1536.763672	1321.984253
11252.261170	3011.318333	1535.710938	1104.274902
11252.261170	3011.318333	1534.659180	1304.554443
11252.261170	3011.318333	1533.606445	1584.285889
11252.261170	3011.318333	1532.552734	1407.745972
11252.261170	3011.318333	1531.500000	1562.699341
11252.261170	3011.318333	1530.446289	1558.840210
11252.261170	3011.318333	1529.393555	1684.380127
11252.261170	3011.318333	1528.338867	1578.598999
11252.261170	3011.318333	1527.285156	1518.310425
11252.261170	3011.318333	1526.231445	1576.024414
11252.261170	3011.318333	1525.176758	1690.459839
11252.261170	3011.318333	1524.122070	1369.825317
11252.261170	3011.318333	1523.067383	1307.707642
11252.261170	3011.318333	1522.012695	1315.931641
11252.261170	3011.318333	1520.957031	1079.627197
11252.261170	3011.318333	1519.901367	1101.656494
11252.261170	3011.318333	1518.845703	915.485229
11252.261170	3011.318333	1517.790039	896.983276
11252.261170	3011.318333	1516.734375	941.954224
11252.261170	3011.318333	1515.677734	1063.924438
11252.261170	3011.318333	1514.621094	939.363464
11252.261170	3011.318333	1513.564453	771.976929
11252.261170	3011.318333	1512.507813	871.591858
11252.261170	3011.318333	1511.450195	666.041687
11252.261170	3011.318333	1510.393555	734.194885
11252.261170	3011.318333	1509.335938	558.336975
11252.261170	3011.318333	1508.278320	545.337097
11252.261170	3011.318333	1507.219727	403.669708
11252.261170	3011.318333	1506.162109	463.188721
11252.261170	3011.318333	1505.103516	184.055511
11252.261170	3011.318333	1504.044922	347.652344
11252.261170	3011.318333	1502.986328	260.733826
11252.261170	3011.318333	1501.926758	63.364796
11252.261170	3011.318333	1500.868164	222.696884
11252.261170	3011.318333	1499.808594	-17.232557
11252.261170	3011.318333	1498.749023	79.110565
11252.261170	3011.318333	1497.688477	-137.931168
11252.261170	3011.318333	1496.628906	12.728551
11252.261170	3011.318333	1495.568359	188.227509
11252.261170	3011.318333	1494.507813	0.925483
11252.261170	3011.318333	1493.447266	-152.389816
11252.261170	3011.318333	1492.386719	90.961868
11252.261170	3011.318333	1491.325195	-86.865730
11252.261170	3011.318333	1490.263672	-46.073833
11252.261170	3011.318333	1489.202148	96.134995
11252.261170	3011.318333	1488.140625	74.077682
11252.261170	3011.318333	1487.079102	252.448135
11252.261170	3011.318333	1486.016602	84.340042
11252.261170	3011.318333	1484.954102	51.397293
11252.261170	3011.318333	1483.891602	47.825470
11252.261170	3011.318333	1482.829102	280.500061
11252.261170	3011.318333	1481.765625	-215.248474
11252.261170	3011.318333	1480.702148	148.006439
11252.261170	3011.318333	1479.638672	55.015301
11252.261170	3011.318333	1478.575195	110.491432
11252.261170	3011.318333	1477.511719	343.513428
11252.261170	3011.318333	1476.447266	84.806747
11252.261170	3011.318333	1475.382813	196.729050
11252.261170	3011.318333	1474.318359	144.925293
11252.261170	3011.318333	1473.253906	140.339218
11252.261170	3011.318333	1472.189453	306.424377
11252.261170	3011.318333	1471.124023	313.420441
11252.261170	3011.318333	1470.058594	537.825073
11252.261170	3011.318333	1468.993164	425.996033
11252.261170	3011.318333	1467.927734	337.175873
11252.261170	3011.318333	1466.861328	456.661407
11252.261170	3011.318333	1465.794922	452.826691
11252.261170	3011.318333	1464.728516	567.935669
11252.261170	3011.318333	1463.662109	504.396942
11252.261170	3011.318333	1462.594727	635.054565
11252.261170	3011.318333	1461.528320	575.895264
11252.261170	3011.318333	1460.460938	507.669434
11252.261170	3011.318333	1459.393555	419.656677
11252.261170	3011.318333	1458.326172	399.761536
11252.261170	3011.318333	1457.257813	258.805267
11252.261170	3011.318333	1456.189453	319.274017
11252.261170	3011.318333	1455.121094	497.265686
11252.261170	3011.318333	1454.052734	372.048065
11252.261170	3011.318333	1452.984375	216.179993
11252.261170	3011.318333	1451.915039	439.698090
11252.261170	3011.318333	1450.845703	213.101547
11252.261170	3011.318333	1449.776367	455.622955
11252.261170	3011.318333	1448.707031	638.850403
11252.261170	3011.318333	1447.636719	214.653015
11252.261170	3011.318333	1446.567383	372.509949
11252.261170	3011.318333	1445.497070	165.467957
11252.261170	3011.318333	1444.425781	503.008057
11252.261170	3011.318333	1443.355469	161.380142
11252.261170	3011.318333	1442.285156	197.910522
11252.261170	3011.318333	1441.213867	310.322540
11252.261170	3011.318333	1440.142578	556.672607
11252.261170	3011.318333	1439.070313	260.756592
11252.261170	3011.318333	1437.999023	419.694122
11252.261170	3011.318333	1436.926758	183.764374
11252.261170	3011.318333	1435.854492	291.732208
11252.261170	3011.318333	1434.782227	359.914093
11252.261170	3011.318333	1433.709961	138.126450
11252.261170	3011.318333	1432.636719	76.937294
11252.261170	3011.318333	1431.563477	144.862900
11252.261170	3011.318333	1430.490234	187.764603
11252.261170	3011.318333	1429.416992	363.783020
11252.261170	3011.318333	1428.343750	314.879059
11252.261170	3011.318333	1427.269531	101.859612
11252.261170	3011.318333	1426.195313	-33.109356
11252.261170	3011.318333	1425.121094	-176.514206
11252.261170	3011.318333	1424.046875	-103.915558
11252.261170	3011.318333	1422.971680	-257.152557
11252.261170	3011.318333	1421.896484	89.709770
11252.261170	3011.318333	1420.821289	-93.465385
11252.261170	3011.318333	1419.746094	-174.830460
11252.261170	3011.318333	1418.669922	-185.579636
11252.261170	3011.318333	1417.594727	-136.846237
11252.261170	3011.318333	1416.518555	-162.545761
11252.261170	3011.318333	1415.442383	-109.831924
11252.261170	3011.318333	1414.365234	-63.984367
11252.261170	3011.318333	1413.289063	-93.729286
11252.261170	3011.318333	1412.211914	-192.363998
11252.261170	3011.318333	1411.134766	-59.665829
11252.261170	3011.318333	1410.057617	-220.265808
11252.261170	3011.318333	1408.979492	-318.183258
11252.261170	3011.318333	1407.902344	-279.628082
11252.261170	3011.318333	1406.824219	-54.759689
11252.261170	3011.318333	1405.746094	31.032610
11252.261170	3011.318333	1404.666992	-71.623550
11252.261170	3011.318333	1403.588867	415.918304
11252.261170	3011.318333	1402.509766	352.144257
11252.261170	3011.318333	1401.430664	149.445709
11252.261170	3011.318333	1400.351563	271.416107
11252.261170	3011.318333	1399.271484	381.021576
11252.261170	3011.318333	1398.192383	249.307724
11252.261170	3011.318333	1397.112305	262.585968
11252.261170	3011.318333	1396.031250	267.065399
11252.261170	3011.318333	1394.951172	142.128708
11252.261170	3011.318333	1393.871094	294.708984
11252.261170	3011.318333	1392.790039	80.603096
11252.261170	3011.318333	1391.708984	-78.382759
11252.261170	3011.318333	1390.626953	41.374657
11252.261170	3011.318333	1389.545898	-22.327168
11252.261170	3011.318333	1388.463867	159.815338
11252.261170	3011.318333	1387.381836	-58.989784
11252.261170	3011.318333	1386.299805	-220.180420
11252.261170	3011.318333	1385.217773	33.785973
11252.261170	3011.318333	1384.134766	169.857529
11252.261170	3011.318333	1383.051758	-29.963310
11252.261170	3011.318333	1381.968750	51.578888
11252.261170	3011.318333	1380.885742	-18.102259
11252.261170	3011.318333	1379.802734	258.256470
11252.261170	3011.318333	1378.718750	231.400604
11252.261170	3011.318333	1377.634766	212.624924
11252.261170	3011.318333	1376.550781	183.628174
11252.261170	3011.318333	1375.465820	325.724579
11252.261170	3011.318333	1374.381836	362.399567
11252.261170	3011.318333	1373.296875	509.928680
11252.261170	3011.318333	1372.211914	570.822815
11252.261170	3011.318333	1371.126953	528.901794
11252.261170	3011.318333	1370.041016	451.279205
11252.261170	3011.318333	1368.955078	511.100342
11252.261170	3011.318333	1367.869141	381.763184
11252.261170	3011.318333	1366.783203	697.267090
11252.261170	3011.318333	1365.697266	631.244324
11252.261170	3011.318333	1364.610352	597.143005
11252.261170	3011.318333	1363.523438	611.258240
11252.261170	3011.318333	1362.436523	647.872681
11252.261170	3011.318333	1361.349609	455.192688
11252.261170	3011.318333	1360.261719	667.045654
11252.261170	3011.318333	1359.174805	823.363098
11252.261170	3011.318333	1358.086914	820.845276
11252.261170	3011.318333	1356.998047	463.685303
11252.261170	3011.318333	1355.910156	647.989685
11252.261170	3011.318333	1354.821289	542.158691
11252.261170	3011.318333	1353.732422	542.937500
11252.261170	3011.318333	1352.643555	477.735657
11252.261170	3011.318333	1351.554688	541.591553
11252.261170	3011.318333	1350.464844	679.222107
11252.261170	3011.318333	1349.375000	482.436615
11252.261170	3011.318333	1348.285156	545.539063
11252.261170	3011.318333	1347.195313	438.327545
11252.261170	3011.318333	1346.105469	417.207672
11252.261170	3011.318333	1345.014648	665.578430
11252.261170	3011.318333	1343.923828	567.834534
11252.261170	3011.318333	1342.833008	805.561096
11252.261170	3011.318333	1341.741211	610.806030
11252.261170	3011.318333	1340.650391	395.912964
11252.261170	3011.318333	1339.558594	466.505676
11252.261170	3011.318333	1338.466797	630.126648
11252.261170	3011.318333	1337.374023	793.704956
11252.261170	3011.318333	1336.282227	491.247589
11252.261170	3011.318333	1335.189453	366.744171
11252.261170	3011.318333	1334.096680	550.154907
11252.261170	3011.318333	1333.003906	624.564819
11252.261170	3011.318333	1331.910156	722.544067
11252.261170	3011.318333	1330.817383	372.147522
11252.261170	3011.318333	1329.723633	504.203583
11252.261170	3011.318333	1328.629883	607.710999
11252.261170	3011.318333	1327.535156	447.597504
11252.261170	3011.318333	1326.441406	662.093079
11252.261170	3011.318333	1325.346680	702.997559
11252.261170	3011.318333	1324.251953	500.748688
11252.261170	3011.318333	1323.156250	378.575378
11252.261170	3011.318333	1322.061523	514.105286
11252.261170	3011.318333	1320.965820	331.443573
11252.261170	3011.318333	1319.870117	363.328430
11252.261170	3011.318333	1318.774414	394.483612
11252.261170	3011.318333	1317.678711	490.798889
11252.261170	3011.318333	1316.582031	596.175476
11252.261170	3011.318333	1315.485352	501.042603
11252.261170	3011.318333	1314.388672	415.610321
11252.261170	3011.318333	1313.291016	494.928558
11252.261170	3011.318333	1312.194336	780.541382
11252.261170	3011.318333	1311.096680	477.905060
11252.261170	3011.318333	1309.999023	417.499115
11252.261170	3011.318333	1308.901367	390.639099
11252.261170	3011.318333	1307.802734	350.414307
11252.261170	3011.318333	1306.705078	445.678589
11252.261170	3011.318333	1305.606445	405.568604
11252.261170	3011.318333	1304.506836	260.400116
11252.261170	3011.318333	1303.408203	611.383850
11252.261170	3011.318333	1302.308594	334.772247
11252.261170	3011.318333	1301.208984	383.874207
11252.261170	3011.318333	1300.109375	464.253265
11252.261170	3011.318333	1299.009766	155.744446
11252.261170	3011.318333	1297.909180	355.336121
11252.261170	3011.318333	1296.808594	439.075287
11252.261170	3011.318333	1295.708008	517.662109
11252.261170	3011.318333	1294.607422	495.011749
11252.261170	3011.318333	1293.506836	284.906342
11252.261170	3011.318333	1292.405273	311.264343
11252.261170	3011.318333	1291.303711	314.579620
11252.261170	3011.318333	1290.202148	602.159790
11252.261170	3011.318333	1289.099609	413.734039
11252.261170	3011.318333	1287.998047	527.641968
11252.261170	3011.318333	1286.895508	527.069458
11252.261170	3011.318333	1285.792969	524.427979
11252.261170	3011.318333	1284.689453	615.771118
11252.261170	3011.318333	1283.586914	341.078766
11252.261170	3011.318333	1282.483398	544.441406
11252.261170	3011.318333	1281.379883	625.869995
11252.261170	3011.318333	1280.276367	597.820557
11252.261170	3011.318333	1279.171875	438.106659
11252.261170	3011.318333	1278.067383	373.157013
11252.261170	3011.318333	1276.962891	572.359253
11252.261170	3011.318333	1275.858398	487.097137
11252.261170	3011.318333	1274.753906	388.734955
11252.261170	3011.318333	1273.648438	597.871704
11252.261170	3011.318333	1272.542969	420.609558
11252.261170	3011.318333	1271.437500	312.738586
11252.261170	3011.318333	1270.331055	431.258270
11252.261170	3011.318333	1269.225586	492.055298
11252.261170	3011.318333	1268.119141	377.442261
11252.261170	3011.318333	1267.012695	649.341431
11252.261170	3011.318333	1265.906250	422.568207
11252.261170	3011.318333	1264.798828	450.376282
11252.261170	3011.318333	1263.691406	778.572510
11252.261170	3011.318333	1262.583984	710.362976
11252.261170	3011.318333	1261.476563	666.729004
11252.261170	3011.318333	1260.368164	542.635437
11252.261170	3011.318333	1259.260742	503.020813
11252.261170	3011.318333	1258.152344	668.858643
11252.261170	3011.318333	1257.043945	754.543518
11252.261170	3011.318333	1255.934570	646.536499
11252.261170	3011.318333	1254.825195	695.550232
11252.261170	3011.318333	1253.716797	613.600281
11252.261170	3011.318333	1252.606445	462.368713
11252.261170	3011.318333	1251.497070	589.774902
11252.261170	3011.318333	1250.387695	385.504486
11252.261170	3011.318333	1249.277344	339.073456
11252.261170	3011.318333	1248.166992	427.614258
11252.261170	3011.318333	1247.055664	474.195648
11252.261170	3011.318333	1245.945313	547.731873
11252.261170	3011.318333	1244.833984	366.633850
11252.261170	3011.318333	1243.722656	378.795715
11252.261170	3011.318333	1242.611328	165.340439
11252.261170	3011.318333	1241.499023	337.718719
11252.261170	3011.318333	1240.387695	299.510620
11252.261170	3011.318333	1239.275391	529.705383
11252.261170	3011.318333	1238.162109	150.682938
11252.261170	3011.318333	1237.049805	407.601349
11252.261170	3011.318333	1235.936523	423.237122
11252.261170	3011.318333	1234.823242	300.032043
11252.261170	3011.318333	1233.709961	321.069092
11252.261170	3011.318333	1232.596680	465.456665
11252.261170	3011.318333	1231.482422	442.354614
11252.261170	3011.318333	1230.369141	593.350464
11252.261170	3011.318333	1229.253906	393.784088
11252.261170	3011.318333	1228.139648	707.583130
11252.261170	3011.318333	1227.025391	501.630157
11252.261170	3011.318333	1225.910156	578.773560
11252.261170	3011.318333	1224.794922	532.711731
11252.261170	3011.318333	1223.679688	547.359802
11252.261170	3011.318333	1222.563477	654.459717
11252.261170	3011.318333	1221.447266	484.445374
11252.261170	3011.318333	1220.331055	485.593994
11252.261170	3011.318333	1219.214844	368.204498
11252.261170	3011.318333	1218.098633	410.819824
11252.261170	3011.318333	1216.981445	215.682068
11252.261170	3011.318333	1215.864258	159.416367
11252.261170	3011.318333	1214.747070	68.749313
11252.261170	3011.318333	1213.629883	130.572540
11252.261170	3011.318333	1212.511719	65.676956
11252.261170	3011.318333	1211.393555	99.302963
11252.261170	3011.318333	1210.275391	72.074615
11252.261170	3011.318333	1209.157227	-14.069570
11252.261170	3011.318333	1208.038086	-142.059372
11252.261170	3011.318333	1206.918945	123.669823
11252.261170	3011.318333	1205.799805	-0.607501
11252.261170	3011.318333	1204.680664	9.990536
11252.261170	3011.318333	1203.560547	104.160126
11252.261170	3011.318333	1202.441406	78.964134
11252.261170	3011.318333	1201.321289	40.862278
11252.261170	3011.318333	1200.200195	-166.637589
11252.261170	3011.318333	1199.080078	-67.806541
11252.261170	3011.318333	1197.958984	-167.590149
11252.261170	3011.318333	1196.837891	166.329193
11252.261170	3011.318333	1195.716797	-88.648010
11252.261170	3011.318333	1194.594727	-54.041431
11252.261170	3011.318333	1193.473633	43.633827
11252.261170	3011.318333	1192.351563	-38.227074
11252.261170	3011.318333	1191.229492	-0.898225
11252.261170	3011.318333	1190.106445	9.929788
11252.261170	3011.318333	1188.984375	56.985134
11252.261170	3011.318333	1187.861328	47.664852
11252.261170	3011.318333	1186.738281	25.857021
11252.261170	3011.318333	1185.614258	59.493088
11252.261170	3011.318333	1184.491211	36.189060
11252.261170	3011.318333	1183.367188	220.705139
11252.261170	3011.318333	1182.243164	34.017406
11252.261170	3011.318333	1181.119141	207.083023
11252.261170	3011.318333	1179.994141	36.087269
11252.261170	3011.318333	1178.869141	153.989685
11252.261170	3011.318333	1177.744141	379.616608
11252.261170	3011.318333	1176.619141	182.497498
11252.261170	3011.318333	1175.493164	199.022659
11252.261170	3011.318333	1174.368164	43.727451
11252.261170	3011.318333	1173.242188	112.531914
11252.261170	3011.318333	1172.115234	286.623688
11252.261170	3011.318333	1170.989258	80.996277
11252.261170	3011.318333	1169.862305	-17.569057
11252.261170	3011.318333	1168.735352	119.581795
11252.261170	3011.318333	1167.608398	-106.200348
11252.261170	3011.318333	1166.481445	110.720467
11252.261170	3011.318333	1165.353516	-271.891602
11252.261170	3011.318333	1164.225586	-64.763199
11252.261170	3011.318333	1163.097656	-137.607910
11252.261170	3011.318333	1161.968750	-79.309166
11252.261170	3011.318333	1160.840820	28.242392
11252.261170	3011.318333	1159.711914	-125.332626
11252.261170	3011.318333	1158.583008	-346.271393
11252.261170	3011.318333	1157.453125	-271.943726
11252.261170	3011.318333	1156.324219	-238.112106
11252.261170	3011.318333	1155.194336	-150.870956
11252.261170	3011.318333	1154.064453	-282.744415
11252.261170	3011.318333	1152.933594	-176.974518
11252.261170	3011.318333	1151.803711	-263.875122
11252.261170	3011.318333	1150.672852	-79.094704
11252.261170	3011.318333	1149.541992	-111.319290
11252.261170	3011.318333	1148.411133	-99.899139
11252.261170	3011.318333	1147.279297	-58.698502
11252.261170	3011.318333	1146.147461	-257.113251
11252.261170	3011.318333	1145.015625	-179.284653
11252.261170	3011.318333	1143.883789	-129.247482
11252.261170	3011.318333	1142.750977	-173.245026
11252.261170	3011.318333	1141.619141	-354.563110
11252.261170	3011.318333	1140.486328	-170.201324
11252.261170	3011.318333	1139.352539	-98.786407
11252.261170	3011.318333	1138.219727	-171.684937
11252.261170	3011.318333	1137.085938	-151.987595
11252.261170	3011.318333	1135.952148	-196.810562
11252.261170	3011.318333	1134.818359	-119.275475
11252.261170	3011.318333	1133.683594	71.426842
11252.261170	3011.318333	1132.549805	47.253490
11252.261170	3011.318333	1131.415039	216.862411
11252.261170	3011.318333	1130.279297	171.952179
11252.261170	3011.318333	1129.144531	78.425491
11252.261170	3011.318333	1128.008789	93.083595
11252.261170	3011.318333	1126.873047	247.267776
11252.261170	3011.318333	1125.737305	197.564453
11252.261170	3011.318333	1124.601563	2.062000
11252.261170	3011.318333	1123.464844	218.879791
11252.261170	3011.318333	1122.328125	234.379837
11252.261170	3011.318333	1121.191406	206.007965
11252.261170	3011.318333	1120.054688	146.445358
11252.261170	3011.318333	1118.916992	123.682312
11252.261170	3011.318333	1117.779297	131.322281
11252.261170	3011.318333	1116.641602	-41.522877
11252.261170	3011.318333	1115.503906	8.927681
11252.261170	3011.318333	1114.365234	-44.192371
11252.261170	3011.318333	1113.226563	14.279242
11252.261170	3011.318333	1112.087891	-83.852219
11252.261170	3011.318333	1110.949219	128.618912
11252.261170	3011.318333	1109.809570	-117.226593
11252.261170	3011.318333	1108.669922	152.105804
11252.261170	3011.318333	1107.530273	-36.149883
11252.261170	3011.318333	1106.390625	173.984497
11252.261170	3011.318333	1105.250000	177.491867
11252.261170	3011.318333	1104.109375	186.072113
11252.261170	3011.318333	1102.968750	154.078400
11252.261170	3011.318333	1101.828125	-71.925140
11252.261170	3011.318333	1100.686523	67.757118
11252.261170	3011.318333	1099.544922	129.959091
11252.261170	3011.318333	1098.403320	19.015432
11252.261170	3011.318333	1097.261719	-60.002861
11252.261170	3011.318333	1096.120117	-52.829468
11252.261170	3011.318333	1094.977539	265.475128
11252.261170	3011.318333	1093.834961	271.210022
11252.261170	3011.318333	1092.691406	61.815582
11252.261170	3011.318333	1091.548828	314.312531
11252.261170	3011.318333	1090.405273	16.809462
11252.261170	3011.318333	1089.261719	-54.674603
11252.261170	3011.318333	1088.118164	48.985123
11252.261170	3011.318333	1086.973633	48.064732
11252.261170	3011.318333	1085.829102	-15.809100
11252.261170	3011.318333	1084.684570	-90.358253
11252.261170	3011.318333	1083.540039	78.748131
11252.261170	3011.318333	1082.395508	-103.623924
11252.261170	3011.318333	1081.250000	41.177395
11252.261170	3011.318333	1080.104492	48.228321
11252.261170	3011.318333	1078.958984	98.879272
11252.261170	3011.318333	1077.812500	5.774103
11252.261170	3011.318333	1076.666016	169.419907
11252.261170	3011.318333	1075.519531	11.597789
11252.261170	3011.318333	1074.373047	93.859383
11252.261170	3011.318333	1073.226563	48.255344
11252.261170	3011.318333	1072.079102	379.799377
11252.261170	3011.318333	1070.931641	206.473511
11252.261170	3011.318333	1069.784180	134.100922
11252.261170	3011.318333	1068.635742	103.172661
11252.261170	3011.318333	1067.487305	236.984467
11252.261170	3011.318333	1066.338867	404.439575
11252.261170	3011.318333	1065.190430	173.513535
11252.261170	3011.318333	1064.041992	333.186707
11252.261170	3011.318333	1062.892578	184.795654
11252.261170	3011.318333	1061.743164	235.502640
11252.261170	3011.318333	1060.593750	344.589844
11252.261170	3011.318333	1059.443359	233.815491
11252.261170	3011.318333	1058.292969	234.201462
11252.261170	3011.318333	1057.142578	-47.827446
11252.261170	3011.318333	1055.992188	67.493393
11252.261170	3011.318333	1054.841797	129.941315
11252.261170	3011.318333	1053.690430	-79.815536
11252.261170	3011.318333	1052.539063	11.335842
11252.261170	3011.318333	1051.387695	47.811497
11252.261170	3011.318333	1050.235352	-87.804596
11252.261170	3011.318333	1049.083984	-76.142273
11252.261170	3011.318333	1047.931641	-105.949677
11252.261170	3011.318333	1046.778320	25.950800
11252.261170	3011.318333	1045.625977	72.326195
11252.261170	3011.318333	1044.472656	-169.748749
11252.261170	3011.318333	1043.319336	-27.188759
11252.261170	3011.318333	1042.166016	126.110725
11252.261170	3011.318333	1041.012695	133.981812
11252.261170	3011.318333	1039.858398	33.222847
11252.261170	3011.318333	1038.704102	260.702545
11252.261170	3011.318333	1037.549805	-18.283075
11252.261170	3011.318333	1036.394531	210.587585
11252.261170	3011.318333	1035.239258	122.320168
11252.261170	3011.318333	1034.083984	144.541763
11252.261170	3011.318333	1032.928711	279.864807
11252.261170	3011.318333	1031.773438	238.481812
11252.261170	3011.318333	1030.617188	183.889893
11252.261170	3011.318333	1029.460938	305.297211
11252.261170	3011.318333	1028.304688	263.182404
11252.261170	3011.318333	1027.147461	523.426208
11252.261170	3011.318333	1025.991211	457.423889
11252.261170	3011.318333	1024.833984	84.198372
11252.261170	3011.318333	1023.675781	223.641296
11252.261170	3011.318333	1022.518555	126.118927
11252.261170	3011.318333	1021.360352	103.946892
11252.261170	3011.318333	1020.202148	-52.437630
11252.261170	3011.318333	1019.043945	-142.676041
11252.261170	3011.318333	1017.884766	31.849297
11252.261170	3011.318333	1016.726563	57.011120
11252.261170	3011.318333	1015.567383	180.962402
11252.261170	3011.318333	1014.407227	80.706108
11252.261170	3011.318333	1013.248047	23.306778
11252.261170	3011.318333	1012.087891	20.307655
11252.261170	3011.318333	1010.927734	23.324169
11252.261170	3011.318333	1009.767578	246.429810
11252.261170	3011.318333	1008.606445	214.945877
11252.261170	3011.318333	1007.446289	219.423828
11252.261170	3011.318333	1006.285156	-141.343628
11252.261170	3011.318333	1005.123047	202.919983
11252.261170	3011.318333	1003.961914	214.032059
11252.261170	3011.318333	1002.799805	-69.287247
11252.261170	3011.318333	1001.637695	12.795743
11252.261170	3011.318333	1000.475586	152.581116
11252.261170	3011.318333	999.312500	127.300911
11252.261170	3011.318333	998.149414	207.061462
11252.261170	3011.318333	996.986328	138.548615
11252.261170	3011.318333	995.823242	146.181625
11252.261170	3011.318333	994.659180	159.014572
11252.261170	3011.318333	993.496094	230.281952
11252.261170	3011.318333	992.332031	100.108192
11252.261170	3011.318333	991.166992	26.095020
11252.261170	3011.318333	990.002930	50.114944
11252.261170	3011.318333	988.837891	85.250107
11252.261170	3011.318333	987.672852	136.813416
11252.261170	3011.318333	986.506836	0.433816
11252.261170	3011.318333	985.341797	6.370979
11252.261170	3011.318333	984.175781	-73.212311
11252.261170	3011.318333	983.009766	46.207043
11252.261170	3011.318333	981.843750	116.567863
11252.261170	3011.318333	980.676758	-70.226723
11252.261170	3011.318333	979.509766	107.692253
11252.261170	3011.318333	978.342773	-60.291073
11252.261170	3011.318333	977.175781	-157.351135
11252.261170	3011.318333	976.007813	195.724548
11252.261170	3011.318333	974.839844	234.225113
11252.261170	3011.318333	973.671875	269.885284
11252.261170	3011.318333	972.503906	-119.330727
11252.261170	3011.318333	971.334961	362.545288
11252.261170	3011.318333	970.166016	100.182518
11252.261170	3011.318333	968.997070	62.161415
11252.261170	3011.318333	967.828125	34.841732
11252.261170	3011.318333	966.658203	42.404343
11252.261170	3011.318333	965.488281	-68.510643
11252.261170	3011.318333	964.318359	-30.309099
11252.261170	3011.318333	963.148438	-223.993561
11252.261170	3011.318333	961.977539	-32.022987
11252.261170	3011.318333	960.806641	232.120850
11252.261170	3011.318333	959.635742	-1.998165
11252.261170	3011.318333	958.463867	-101.705345
11252.261170	3011.318333	957.292969	34.037750
11252.261170	3011.318333	956.121094	-10.456031
11252.261170	3011.318333	954.948242	-196.175690
11252.261170	3011.318333	953.776367	-42.029774
11252.261170	3011.318333	952.603516	142.891937
11252.261170	3011.318333	951.430664	166.359039
11252.261170	3011.318333	950.257813	88.288910
11252.261170	3011.318333	949.084961	-154.767273
11252.261170	3011.318333	947.911133	-3.874434
11252.261170	3011.318333	946.737305	-148.492325
11252.261170	3011.318333	945.563477	-134.902786
11252.261170	3011.318333	944.388672	33.489296
11252.261170	3011.318333	943.213867	62.327816
11252.261170	3011.318333	942.039063	-0.684678
11252.261170	3011.318333	940.864258	-138.080017
11252.261170	3011.318333	939.688477	30.819740
11252.261170	3011.318333	938.513672	-231.190720
11252.261170	3011.318333	937.337891	-65.188568
11252.261170	3011.318333	936.161133	281.623322
11252.261170	3011.318333	934.985352	139.368042
11252.261170	3011.318333	933.808594	114.204483
11252.261170	3011.318333	932.631836	134.828659
11252.261170	3011.318333	931.454102	259.843018
11252.261170	3011.318333	930.277344	407.642456
11252.261170	3011.318333	929.099609	277.885498
11252.261170	3011.318333	927.921875	499.365051
11252.261170	3011.318333	926.743164	382.293762
11252.261170	3011.318333	925.565430	300.806030
11252.261170	3011.318333	924.386719	300.710510
11252.261170	3011.318333	923.208008	287.881256
11252.261170	3011.318333	922.028320	160.579636
11252.261170	3011.318333	920.849609	307.931519
11252.261170	3011.318333	919.669922	312.848785
11252.261170	3011.318333	919.474609	110.208023
11252.261170	3011.318333	918.309570	163.319061
11252.261170	3011.318333	917.143555	-30.162960
11252.261170	3011.318333	915.977539	266.822723
11252.261170	3011.318333	914.810547	149.542068
11252.261170	3011.318333	913.644531	-0.754602
11252.261170	3011.318333	912.477539	158.798279
11252.261170	3011.318333	911.310547	-52.447392
11252.261170	3011.318333	910.143555	101.899353
11252.261170	3011.318333	908.975586	-48.408375
11252.261170	3011.318333	907.807617	75.353493
11252.261170	3011.318333	906.639648	-115.552017
11252.261170	3011.318333	905.471680	-281.052307
11252.261170	3011.318333	904.303711	-88.957619
11252.261170	3011.318333	903.134766	80.208664
11252.261170	3011.318333	901.965820	56.618958
11252.261170	3011.318333	900.796875	83.691559
11252.261170	3011.318333	899.626953	-145.196655
11252.261170	3011.318333	898.457031	-70.026505
11252.261170	3011.318333	897.287109	-141.825012
11252.261170	3011.318333	896.117188	39.601494
11252.261170	3011.318333	894.947266	-49.980099
11252.261170	3011.318333	893.776367	161.665314
11252.261170	3011.318333	892.605469	-44.382378
11252.261170	3011.318333	891.434570	151.927887
11252.261170	3011.318333	890.262695	353.187561
11252.261170	3011.318333	889.091797	167.362000
11252.261170	3011.318333	887.919922	123.190445
11252.261170	3011.318333	886.748047	-17.066429
11252.261170	3011.318333	885.575195	47.445389
11252.261170	3011.318333	884.403320	-19.514589
11252.261170	3011.318333	883.230469	75.228180
11252.261170	3011.318333	882.057617	238.106323
11252.261170	3011.318333	880.883789	27.102659
11252.261170	3011.318333	879.710938	-62.644218
11252.261170	3011.318333	878.537109	140.465790
11252.261170	3011.318333	877.362305	161.734604
11252.261170	3011.318333	876.188477	127.444527
11252.261170	3011.318333	875.013672	-98.606277
11252.261170	3011.318333	873.839844	89.090187
11252.261170	3011.318333	872.664063	-23.427843
11252.261170	3011.318333	871.489258	-65.331009
11252.261170	3011.318333	870.313477	-172.788162
11252.261170	3011.318333	869.138672	-237.384872
11252.261170	3011.318333	867.962891	-17.232515
11252.261170	3011.318333	866.786133	-293.515533
11252.261170	3011.318333	865.610352	4.585899
11252.261170	3011.318333	864.433594	-188.538757
11252.261170	3011.318333	863.256836	46.419407
11252.261170	3011.318333	862.079102	-86.273079
11252.261170	3011.318333	860.902344	65.458633
11252.261170	3011.318333	859.724609	-19.429783
11252.261170	3011.318333	858.546875	-18.773869
11252.261170	3011.318333	857.368164	7.009171
11252.261170	3011.318333	856.190430	145.915268
11252.261170	3011.318333	855.011719	-37.080608
11252.261170	3011.318333	853.833008	-101.885201
11252.261170	3011.318333	852.654297	-257.165375
11252.261170	3011.318333	851.474609	-289.284821
11252.261170	3011.318333	850.294922	-82.761520
11252.261170	3011.318333	849.115234	-57.189159
11252.261170	3011.318333	847.935547	-152.188736
11252.261170	3011.318333	846.754883	-201.982407
11252.261170	3011.318333	845.575195	-91.138351
11252.261170	3011.318333	844.393555	52.263657
11252.261170	3011.318333	843.212891	-108.020699
11252.261170	3011.318333	842.032227	-180.465576
11252.261170	3011.318333	840.850586	-119.978798
11252.261170	3011.318333	839.668945	-104.678871
11252.261170	3011.318333	838.486328	249.036087
11252.261170	3011.318333	837.304688	-437.616669
11252.261170	3011.318333	836.122070	-111.597580
11252.261170	3011.318333	834.939453	6.307974
11252.261170	3011.318333	833.756836	-123.851181
11252.261170	3011.318333	832.573242	51.559887
11252.261170	3011.318333	831.389648	124.210876
11252.261170	3011.318333	830.206055	-141.153091
11252.261170	3011.318333	829.022461	-103.584778
11252.261170	3011.318333	827.838867	74.072037
11252.261170	3011.318333	826.654297	-136.154312
11252.261170	3011.318333	825.469727	-171.227814
11252.261170	3011.318333	824.284180	-6.246186
11252.261170	3011.318333	823.099609	123.634254
11252.261170	3011.318333	821.914063	115.947601
11252.261170	3011.318333	820.728516	128.230896
11252.261170	3011.318333	819.542969	83.010437
11252.261170	3011.318333	818.356445	45.279186
11252.261170	3011.318333	817.169922	-199.776352
11252.261170	3011.318333	815.983398	-145.092789
11252.261170	3011.318333	814.796875	-185.334305
11252.261170	3011.318333	813.609375	46.498810
11252.261170	3011.318333	812.422852	-91.151794
11252.261170	3011.318333	811.235352	-213.800323
11252.261170	3011.318333	810.046875	-89.456741
11252.261170	3011.318333	808.859375	-25.054272
11252.261170	3011.318333	807.670898	-13.070173
11252.261170	3011.318333	806.482422	101.097229
11252.261170	3011.318333	805.293945	-350.625458
11252.261170	3011.318333	804.104492	37.634270
11252.261170	3011.318333	802.915039	-5.333394
11252.261170	3011.318333	801.725586	-55.784477
11252.261170	3011.318333	800.536133	234.953690
11252.261170	3011.318333	799.345703	-119.363716
11252.261170	3011.318333	798.155273	34.287975
11252.261170	3011.318333	796.964844	130.599960
11252.261170	3011.318333	795.774414	60.115959
11252.261170	3011.318333	794.583008	-97.446053
11252.261170	3011.318333	793.392578	-135.580292
11252.261170	3011.318333	792.200195	-94.145233
11252.261170	3011.318333	791.008789	-17.951807
11252.261170	3011.318333	789.816406	13.434007
11252.261170	3011.318333	788.625000	14.949830
11252.261170	3011.318333	787.432617	-30.779034
11252.261170	3011.318333	786.239258	-44.223621
11252.261170	3011.318333	785.046875	-159.533096
11252.261170	3011.318333	783.853516	8.268268
11252.261170	3011.318333	782.660156	183.415329
11252.261170	3011.318333	781.465820	-142.960266
11252.261170	3011.318333	780.272461	-15.075824
11252.261170	3011.318333	779.078125	63.096859
11252.261170	3011.318333	777.883789	175.932373
11252.261170	3011.318333	776.688477	-142.867432
11252.261170	3011.318333	775.494141	9.568206
11252.261170	3011.318333	774.298828	60.259434
11252.261170	3011.318333	773.103516	130.723511
11252.261170	3011.318333	771.907227	-73.952103
11252.261170	3011.318333	770.711914	-194.340775
11252.261170	3011.318333	769.515625	22.172112
11252.261170	3011.318333	768.318359	60.242382
11252.261170	3011.318333	767.122070	-159.254913
11252.261170	3011.318333	765.924805	104.037819
11252.261170	3011.318333	764.727539	124.626289
11252.261170	3011.318333	763.530273	38.762100
11252.261170	3011.318333	762.333008	123.602112
11252.261170	3011.318333	761.134766	178.684601
11252.261170	3011.318333	759.936523	199.082809
11252.261170	3011.318333	758.738281	224.375427
11252.261170	3011.318333	757.540039	338.608002
11252.261170	3011.318333	756.340820	64.733681
11252.261170	3011.318333	755.141602	181.339493
11252.261170	3011.318333	753.942383	166.921127
11252.261170	3011.318333	752.742188	135.177750
11252.261170	3011.318333	751.541992	110.811661
11252.261170	3011.318333	750.341797	24.690647
11252.261170	3011.318333	749.141602	232.295746
11252.261170	3011.318333	747.941406	291.698792
11252.261170	3011.318333	746.740234	151.178864
11252.261170	3011.318333	745.539063	208.016541
11252.261170	3011.318333	744.337891	35.419430
11252.261170	3011.318333	743.135742	82.302193
11252.261170	3011.318333	741.933594	25.576403
11252.261170	3011.318333	740.731445	124.107841
11252.261170	3011.318333	739.529297	335.904877
11252.261170	3011.318333	738.326172	357.857574
11252.261170	3011.318333	737.124023	251.665924
11252.261170	3011.318333	735.919922	372.037048
11252.261170	3011.318333	734.716797	551.400635
11252.261170	3011.318333	733.513672	533.705261
11252.261170	3011.318333	732.309570	501.199341
11252.261170	3011.318333	731.105469	402.219482
11252.261170	3011.318333	729.900391	532.019775
11252.261170	3011.318333	728.696289	462.485291
11252.261170	3011.318333	727.491211	186.362808
11252.261170	3011.318333	726.286133	124.200119
11252.261170	3011.318333	725.080078	204.576324
11252.261170	3011.318333	723.874023	282.407471
11252.261170	3011.318333	722.668945	185.702560
11252.261170	3011.318333	721.461914	241.286362
11252.261170	3011.318333	720.255859	-128.098419
11252.261170	3011.318333	719.048828	-116.782730
11252.261170	3011.318333	717.841797	108.055931
11252.261170	3011.318333	716.634766	-42.791840
11252.261170	3011.318333	715.427734	-102.836243
11252.261170	3011.318333	714.219727	16.186956
11252.261170	3011.318333	713.011719	110.572144
11252.261170	3011.318333	711.803711	-109.050262
11252.261170	3011.318333	710.594727	-191.334106
11252.261170	3011.318333	709.385742	-104.498550
11252.261170	3011.318333	708.176758	43.512623
11252.261170	3011.318333	706.967773	22.326933
11252.261170	3011.318333	705.758789	3.538683
11252.261170	3011.318333	704.548828	-3.058945
11252.261170	3011.318333	703.338867	-80.730751
11252.261170	3011.318333	702.127930	-97.226624
11252.261170	3011.318333	700.917969	-167.629105
11252.261170	3011.318333	699.707031	-3.128040
11252.261170	3011.318333	698.496094	-90.776100
11252.261170	3011.318333	697.285156	142.006409
11252.261170	3011.318333	696.073242	-33.812862
11252.261170	3011.318333	694.861328	-65.355759
11252.261170	3011.318333	693.649414	103.515030
11252.261170	3011.318333	692.436523	-55.274963
11252.261170	3011.318333	691.224609	84.065598
11252.261170	3011.318333	690.011719	113.337318
11252.261170	3011.318333	688.798828	47.265308
11252.261170	3011.318333	687.584961	144.773926
11252.261170	3011.318333	686.372070	19.988941
11252.261170	3011.318333	685.158203	107.561142
11252.261170	3011.318333	683.943359	24.184370
11252.261170	3011.318333	682.729492	4.217155
11252.261170	3011.318333	681.514648	89.088303
11252.261170	3011.318333	680.299805	247.025284
11252.261170	3011.318333	679.084961	351.177246
11252.261170	3011.318333	677.869141	177.276703
11252.261170	3011.318333	676.653320	322.692963
11252.261170	3011.318333	675.437500	160.914047
11252.261170	3011.318333	674.221680	257.398621
11252.261170	3011.318333	673.004883	222.225754
11252.261170	3011.318333	671.789063	243.013855
11252.261170	3011.318333	670.571289	336.763153
11252.261170	3011.318333	669.354492	367.106720
11252.261170	3011.318333	668.136719	251.326691
11252.261170	3011.318333	666.919922	74.689400
11252.261170	3011.318333	665.701172	-60.594589
11252.261170	3011.318333	664.483398	3.562585
11252.261170	3011.318333	663.264648	169.754196
11252.261170	3011.318333	662.045898	126.704773
11252.261170	3011.318333	660.827148	8.242282
11252.261170	3011.318333	659.608398	380.681030
11252.261170	3011.318333	658.388672	79.824081
11252.261170	3011.318333	657.168945	257.592560
11252.261170	3011.318333	655.949219	384.205109
11252.261170	3011.318333	654.728516	32.314281
11252.261170	3011.318333	653.507813	226.742752
11252.261170	3011.318333	652.287109	59.352737
11252.261170	3011.318333	651.066406	88.522095
11252.261170	3011.318333	649.844727	35.108269
11252.261170	3011.318333	648.623047	165.993805
11252.261170	3011.318333	647.401367	102.731400
11252.261170	3011.318333	646.179688	262.489960
11252.261170	3011.318333	644.957031	266.953888
11252.261170	3011.318333	643.734375	2.311706
11252.261170	3011.318333	642.511719	57.560474
11252.261170	3011.318333	641.289063	-68.989243
11252.261170	3011.318333	640.065430	141.108521
11252.261170	3011.318333	638.841797	123.408760
11252.261170	3011.318333	637.618164	54.797260
11252.261170	3011.318333	636.393555	70.852661
11252.261170	3011.318333	635.168945	132.805969
11252.261170	3011.318333	633.944336	-20.684536
11252.261170	3011.318333	632.719727	29.012146
11252.261170	3011.318333	631.494141	107.629738
11252.261170	3011.318333	630.269531	285.280243
11252.261170	3011.318333	629.042969	109.812889
11252.261170	3011.318333	627.817383	105.954956
11252.261170	3011.318333	626.590820	39.189175
11252.261170	3011.318333	625.365234	13.451317
11252.261170	3011.318333	624.137695	171.212997
11252.261170	3011.318333	622.911133	266.048981
11252.261170	3011.318333	621.683594	49.300941
11252.261170	3011.318333	620.456055	73.962471
11252.261170	3011.318333	619.228516	18.895187
11252.261170	3011.318333	618.000977	98.898224
11252.261170	3011.318333	616.772461	183.612045
11252.261170	3011.318333	615.543945	287.510986
11252.261170	3011.318333	614.314453	48.872124
11252.261170	3011.318333	613.085938	-20.974861
11252.261170	3011.318333	611.856445	-66.767189
11252.261170	3011.318333	610.626953	106.680717
11252.261170	3011.318333	609.397461	92.055801
11252.261170	3011.318333	608.166992	43.634956
11252.261170	3011.318333	606.936523	12.020974
11252.261170	3011.318333	605.706055	-31.689976
11252.261170	3011.318333	604.474609	-304.150787
11252.261170	3011.318333	603.244141	-189.071838
11252.261170	3011.318333	602.012695	-153.525040
11252.261170	3011.318333	600.780273	38.303455
11252.261170	3011.318333	599.548828	148.209518
11252.261170	3011.318333	598.316406	-107.522621
11252.261170	3011.318333	597.083984	-55.476112
11252.261170	3011.318333	595.851563	-222.255844
11252.261170	3011.318333	594.618164	125.241867
11252.261170	3011.318333	593.384766	-101.711494
11252.261170	3011.318333	592.151367	-11.550804
11252.261170	3011.318333	590.917969	121.736313
11252.261170	3011.318333	589.683594	-45.246605
11252.261170	3011.318333	588.449219	-96.993408
11252.261170	3011.318333	587.214844	-206.383270
11252.261170	3011.318333	585.979492	-32.643799
11252.261170	3011.318333	584.745117	-26.970926
11252.261170	3011.318333	583.509766	122.546555
11252.261170	3011.318333	582.273438	-20.630741
11252.261170	3011.318333	581.038086	150.279099
11252.261170	3011.318333	579.801758	31.007393
11252.261170	3011.318333	578.565430	453.344971
11252.261170	3011.318333	577.329102	250.082672
11252.261170	3011.318333	576.091797	166.619644
11252.261170	3011.318333	574.854492	-62.960152
11252.261170	3011.318333	573.617188	112.172287
11252.261170	3011.318333	572.378906	390.108368
11252.261170	3011.318333	571.141602	227.482376
11252.261170	3011.318333	569.903320	-28.458324
11252.261170	3011.318333	568.664063	-64.245148
11252.261170	3011.318333	567.425781	122.390221
11252.261170	3011.318333	566.186523	182.142242
11252.261170	3011.318333	564.947266	246.602127
11252.261170	3011.318333	563.708008	-21.278934
11252.261170	3011.318333	562.467773	-2.313044
11252.261170	3011.318333	561.227539	243.588226
11252.261170	3011.318333	559.987305	209.842896
11252.261170	3011.318333	558.747070	238.164871
11252.261170	3011.318333	557.505859	96.886520
11252.261170	3011.318333	556.264648	-118.380135
11252.261170	3011.318333	555.023438	-1.828364
11252.261170	3011.318333	553.781250	190.988388
11252.261170	3011.318333	552.539063	147.488907
11252.261170	3011.318333	551.296875	-58.229057
11252.261170	3011.318333	550.054688	-27.804062
11252.261170	3011.318333	548.811523	90.783623
11252.261170	3011.318333	547.569336	-67.223915
11252.261170	3011.318333	546.325195	67.927559
11252.261170	3011.318333	545.082031	188.698898
11252.261170	3011.318333	543.837891	44.952606
11252.261170	3011.318333	542.593750	32.230762
11252.261170	3011.318333	541.349609	181.408493
11252.261170	3011.318333	540.105469	-248.017975
11252.261170	3011.318333	538.860352	27.241474
11252.261170	3011.318333	537.615234	-52.215355
11252.261170	3011.318333	536.369141	49.145760
11252.261170	3011.318333	535.124023	-137.370193
11252.261170	3011.318333	533.877930	-157.367767
11252.261170	3011.318333	532.631836	-279.616302
11252.261170	3011.318333	531.384766	-21.500553
11252.261170	3011.318333	530.138672	-174.662735
11252.261170	3011.318333	528.891602	45.264160
11252.261170	3011.318333	527.643555	-236.181732
11252.261170	3011.318333	526.396484	-82.872986
11252.261170	3011.318333	525.148438	-46.008152
11252.261170	3011.318333	523.900391	57.300724
11252.261170	3011.318333	522.652344	-0.850592
11252.261170	3011.318333	521.403320	-284.437836
11252.261170	3011.318333	520.154297	-0.875853
11252.261170	3011.318333	518.905273	-92.228058
11252.261170	3011.318333	517.656250	-209.637024
11252.261170	3011.318333	516.406250	-357.836426
11252.261170	3011.318333	515.156250	-351.895355
11252.261170	3011.318333	513.906250	-9.423297
11252.261170	3011.318333	512.655273	-259.485931
11252.261170	3011.318333	511.404297	-196.739426
11252.261170	3011.318333	510.153320	-84.286385
11252.261170	3011.318333	508.902344	-298.664093
11252.261170	3011.318333	507.650391	-449.037964
11252.261170	3011.318333	506.398438	-409.993927
11252.261170	3011.318333	505.146484	-257.377899
11252.261170	3011.318333	503.893555	-128.494080
11252.261170	3011.318333	502.641602	-155.775925
11252.261170	3011.318333	501.388672	-8.049350
11252.261170	3011.318333	500.134766	-51.908478
11252.261170	3011.318333	498.881836	81.552940
11252.261170	3011.318333	497.627930	-283.721588
11252.261170	3011.318333	496.374023	-15.584869
11252.261170	3011.318333	495.119141	-186.967316
11252.261170	3011.318333	493.865234	-223.638657
11252.261170	3011.318333	492.610352	-17.077412
11252.261170	3011.318333	491.355469	-96.262573
11252.261170	3011.318333	490.099609	32.293278
11252.261170	3011.318333	488.843750	151.360031
11252.261170	3011.318333	487.587891	-62.282871
11252.261170	3011.318333	486.332031	35.534588
11252.261170	3011.318333	485.075195	114.442223
11252.261170	3011.318333	483.818359	-188.641907
11252.261170	3011.318333	482.561523	142.521347
11252.261170	3011.318333	481.304688	259.079315
11252.261170	3011.318333	480.046875	95.188889
11252.261170	3011.318333	478.789063	204.642853
11252.261170	3011.318333	477.531250	97.370506
11252.261170	3011.318333	476.272461	72.557884
11252.261170	3011.318333	475.013672	54.820732
11252.261170	3011.318333	473.754883	143.012924
11252.261170	3011.318333	472.496094	97.036102
11252.261170	3011.318333	471.236328	34.604332
11252.261170	3011.318333	469.976563	223.884735
11252.261170	3011.318333	468.716797	-45.496712
11252.261170	3011.318333	467.456055	-86.705116
11252.261170	3011.318333	466.196289	-50.318771
11252.261170	3011.318333	464.935547	68.296799
11252.261170	3011.318333	463.673828	121.058197
11252.261170	3011.318333	462.413086	68.085075
11252.261170	3011.318333	461.151367	174.827972
11252.261170	3011.318333	459.889648	138.277420
11252.261170	3011.318333	458.626953	94.681557
11252.261170	3011.318333	457.364258	229.472076
11252.261170	3011.318333	456.101563	30.968220
11252.261170	3011.318333	454.838867	196.180496
11252.261170	3011.318333	453.575195	145.497162
11252.261170	3011.318333	452.312500	132.343613
11252.261170	3011.318333	451.047852	238.728775
11252.261170	3011.318333	449.784180	70.788811
11252.261170	3011.318333	448.519531	282.544098
11252.261170	3011.318333	447.254883	-75.193840
11252.261170	3011.318333	445.990234	98.948776
11252.261170	3011.318333	444.725586	155.872910
11252.261170	3011.318333	443.459961	90.959633
11252.261170	3011.318333	442.194336	199.264038
11252.261170	3011.318333	440.927734	54.684334
11252.261170	3011.318333	439.662109	120.722984
11252.261170	3011.318333	438.395508	235.795074
11252.261170	3011.318333	437.127930	236.132431
11252.261170	3011.318333	435.861328	-60.582134
11252.261170	3011.318333	434.593750	203.873260
11252.261170	3011.318333	433.326172	161.921860
11252.261170	3011.318333	432.058594	269.472565
11252.261170	3011.318333	430.790039	351.177551
11252.261170	3011.318333	429.521484	243.538681
11252.261170	3011.318333	428.252930	362.386139
11252.261170	3011.318333	426.984375	147.174835
11252.261170	3011.318333	425.714844	36.986435
11252.261170	3011.318333	424.445313	246.479416
11252.261170	3011.318333	423.174805	227.066772
11252.261170	3011.318333	421.905273	-16.425009
11252.261170	3011.318333	420.634766	117.895714
11252.261170	3011.318333	419.364258	105.097946
11252.261170	3011.318333	418.092773	346.266083
11252.261170	3011.318333	416.822266	179.262573
11252.261170	3011.318333	415.550781	-11.153715
11252.261170	3011.318333	414.278320	257.314941
11252.261170	3011.318333	413.006836	406.687225
11252.261170	3011.318333	411.734375	48.083538
11252.261170	3011.318333	410.461914	143.465378
11252.261170	3011.318333	409.188477	-52.410084
11252.261170	3011.318333	407.916016	240.333252
11252.261170	3011.318333	406.642578	97.572136
11252.261170	3011.318333	405.368164	115.132355
11252.261170	3011.318333	404.094727	-28.050350
11252.261170	3011.318333	402.820313	58.757092
11252.261170	3011.318333	401.545898	89.444733
11252.261170	3011.318333	400.270508	29.161591
11252.261170	3011.318333	398.996094	103.390579
11252.261170	3011.318333	397.720703	47.145802
11252.261170	3011.318333	396.444336	334.358795
11252.261170	3011.318333	395.168945	268.114380
11252.261170	3011.318333	393.892578	152.763824
11252.261170	3011.318333	392.616211	171.722580
11252.261170	3011.318333	391.339844	-55.727081
11252.261170	3011.318333	390.062500	-28.263641
11252.261170	3011.318333	388.785156	54.439045
11252.261170	3011.318333	387.507813	92.599510
11252.261170	3011.318333	386.229492	185.922729
11252.261170	3011.318333	384.951172	72.402435
11252.261170	3011.318333	383.672852	102.143532
11252.261170	3011.318333	382.394531	91.968224
11252.261170	3011.318333	381.115234	368.536163
11252.261170	3011.318333	379.835938	146.433426
11252.261170	3011.318333	378.556641	90.597992
11252.261170	3011.318333	377.277344	138.388229
11252.261170	3011.318333	375.997070	-8.909074
11252.261170	3011.318333	374.716797	181.113113
11252.261170	3011.318333	373.435547	139.007141
11252.261170	3011.318333	372.155273	-3.204626
11252.261170	3011.318333	370.874023	-16.553244
11252.261170	3011.318333	369.591797	-5.200738
11252.261170	3011.318333	368.310547	93.272247
11252.261170	3011.318333	367.028320	-61.012100
11252.261170	3011.318333	365.746094	197.602844
11252.261170	3011.318333	364.463867	97.199432
11252.261170	3011.318333	363.180664	206.159760
11252.261170	3011.318333	361.897461	-126.863548
11252.261170	3011.318333	360.614258	169.644592
11252.261170	3011.318333	359.330078	-47.356640
11252.261170	3011.318333	358.045898	200.941635
11252.261170	3011.318333	356.761719	-209.414246
11252.261170	3011.318333	355.477539	59.878231
11252.261170	3011.318333	354.192383	-59.467693
11252.261170	3011.318333	352.907227	-154.478928
11252.261170	3011.318333	351.622070	-33.868736
11252.261170	3011.318333	350.336914	168.515137
11252.261170	3011.318333	349.050781	-162.674057
11252.261170	3011.318333	347.764648	-114.819344
11252.261170	3011.318333	346.477539	95.259422
11252.261170	3011.318333	345.191406	-170.363449
11252.261170	3011.318333	343.904297	34.724846
11252.261170	3011.318333	342.616211	5.852537
11252.261170	3011.318333	341.329102	-107.212120
11252.261170	3011.318333	340.041016	24.468349
11252.261170	3011.318333	338.752930	28.099827
11252.261170	3011.318333	337.463867	69.262413
11252.261170	3011.318333	336.175781	-42.864037
11252.261170	3011.318333	334.886719	-181.875931
11252.261170	3011.318333	333.596680	-361.594269
11252.261170	3011.318333	332.307617	-234.996841
11252.261170	3011.318333	331.017578	-165.376694
11252.261170	3011.318333	329.727539	-453.564270
11252.261170	3011.318333	328.436523	-229.169662
11252.261170	3011.318333	327.146484	-25.076975
11252.261170	3011.318333	325.855469	-293.575409
11252.261170	3011.318333	324.563477	-121.128174
11252.261170	3011.318333	323.272461	-375.167480
11252.261170	3011.318333	321.980469	-144.987656
11252.261170	3011.318333	320.688477	-130.324661
11252.261170	3011.318333	319.395508	1.284291
11252.261170	3011.318333	318.103516	-304.879517
11252.261170	3011.318333	316.810547	211.710190
11252.261170	3011.318333	315.516602	109.302528
11252.261170	3011.318333	314.223633	96.192581
11252.261170	3011.318333	312.929688	59.904278
11252.261170	3011.318333	311.635742	167.607758
11252.261170	3011.318333	310.340820	-15.874184
11252.261170	3011.318333	309.045898	292.379852
11252.261170	3011.318333	307.750977	160.696121
11252.261170	3011.318333	306.456055	335.077454
11252.261170	3011.318333	305.160156	293.696564
11252.261170	3011.318333	303.865234	281.461273
11252.261170	3011.318333	302.568359	501.496277
11252.261170	3011.318333	301.272461	638.409729
11252.261170	3011.318333	299.975586	961.651733
11252.261170	3011.318333	298.678711	1071.296631
