#X		#Y		#Wave		#Intensity
11821.161170	2637.613333	1999.980469	-56.622334
11821.161170	2637.613333	1999.016602	46.558117
11821.161170	2637.613333	1998.052734	-97.375168
11821.161170	2637.613333	1997.087891	11.524562
11821.161170	2637.613333	1996.123047	-72.865486
11821.161170	2637.613333	1995.158203	73.163574
11821.161170	2637.613333	1994.193359	1.190783
11821.161170	2637.613333	1993.228516	-58.368855
11821.161170	2637.613333	1992.262695	82.641541
11821.161170	2637.613333	1991.297852	40.422882
11821.161170	2637.613333	1990.332031	119.496010
11821.161170	2637.613333	1989.366211	59.970730
11821.161170	2637.613333	1988.399414	-31.692261
11821.161170	2637.613333	1987.433594	-143.111282
11821.161170	2637.613333	1986.466797	-34.384533
11821.161170	2637.613333	1985.500977	-39.442776
11821.161170	2637.613333	1984.534180	118.662735
11821.161170	2637.613333	1983.567383	22.121038
11821.161170	2637.613333	1982.599609	4.692784
11821.161170	2637.613333	1981.632813	9.501024
11821.161170	2637.613333	1980.665039	177.344177
11821.161170	2637.613333	1979.697266	68.494392
11821.161170	2637.613333	1978.729492	26.352425
11821.161170	2637.613333	1977.761719	65.694023
11821.161170	2637.613333	1976.792969	-25.815786
11821.161170	2637.613333	1975.825195	191.202133
11821.161170	2637.613333	1974.856445	87.347000
11821.161170	2637.613333	1973.887695	183.356979
11821.161170	2637.613333	1972.918945	37.588978
11821.161170	2637.613333	1971.949219	143.418030
11821.161170	2637.613333	1970.980469	37.141441
11821.161170	2637.613333	1970.010742	194.678726
11821.161170	2637.613333	1969.041016	34.183235
11821.161170	2637.613333	1968.071289	-178.016357
11821.161170	2637.613333	1967.101563	65.672310
11821.161170	2637.613333	1966.130859	-55.331734
11821.161170	2637.613333	1965.161133	79.845215
11821.161170	2637.613333	1964.190430	3.180258
11821.161170	2637.613333	1963.219727	157.965561
11821.161170	2637.613333	1962.249023	2.514299
11821.161170	2637.613333	1961.277344	7.082380
11821.161170	2637.613333	1960.306641	-8.053914
11821.161170	2637.613333	1959.334961	26.006266
11821.161170	2637.613333	1958.363281	1.002508
11821.161170	2637.613333	1957.391602	162.901352
11821.161170	2637.613333	1956.419922	-24.437092
11821.161170	2637.613333	1955.447266	262.753815
11821.161170	2637.613333	1954.474609	139.340759
11821.161170	2637.613333	1953.501953	121.629173
11821.161170	2637.613333	1952.529297	221.845428
11821.161170	2637.613333	1951.556641	-2.263589
11821.161170	2637.613333	1950.583984	-7.711723
11821.161170	2637.613333	1949.610352	23.661192
11821.161170	2637.613333	1948.636719	-72.667664
11821.161170	2637.613333	1947.663086	-114.973831
11821.161170	2637.613333	1946.689453	61.150768
11821.161170	2637.613333	1945.715820	33.521435
11821.161170	2637.613333	1944.741211	155.541458
11821.161170	2637.613333	1943.767578	181.831650
11821.161170	2637.613333	1942.792969	200.735794
11821.161170	2637.613333	1941.818359	40.617008
11821.161170	2637.613333	1940.842773	-92.492561
11821.161170	2637.613333	1939.868164	4.830824
11821.161170	2637.613333	1938.892578	-3.279135
11821.161170	2637.613333	1937.916992	74.352310
11821.161170	2637.613333	1936.941406	56.395020
11821.161170	2637.613333	1935.965820	89.859703
11821.161170	2637.613333	1934.990234	-4.045675
11821.161170	2637.613333	1934.013672	78.346687
11821.161170	2637.613333	1933.037109	-54.727783
11821.161170	2637.613333	1932.060547	49.631275
11821.161170	2637.613333	1931.083984	281.175812
11821.161170	2637.613333	1930.107422	86.915565
11821.161170	2637.613333	1929.129883	154.440155
11821.161170	2637.613333	1928.153320	4.256872
11821.161170	2637.613333	1927.175781	98.628899
11821.161170	2637.613333	1926.198242	192.946136
11821.161170	2637.613333	1925.219727	-10.991923
11821.161170	2637.613333	1924.242188	-48.695389
11821.161170	2637.613333	1923.263672	-27.763506
11821.161170	2637.613333	1922.285156	112.843117
11821.161170	2637.613333	1921.306641	14.018071
11821.161170	2637.613333	1920.328125	-60.370449
11821.161170	2637.613333	1919.349609	197.298691
11821.161170	2637.613333	1918.370117	-148.095032
11821.161170	2637.613333	1917.391602	187.553802
11821.161170	2637.613333	1916.412109	17.944502
11821.161170	2637.613333	1915.431641	-122.344795
11821.161170	2637.613333	1914.452148	22.790457
11821.161170	2637.613333	1913.472656	-15.057396
11821.161170	2637.613333	1912.492188	122.651184
11821.161170	2637.613333	1911.511719	-44.447479
11821.161170	2637.613333	1910.531250	144.361511
11821.161170	2637.613333	1909.550781	130.811630
11821.161170	2637.613333	1908.569336	22.223597
11821.161170	2637.613333	1907.588867	79.309654
11821.161170	2637.613333	1906.607422	-21.960709
11821.161170	2637.613333	1905.625977	239.627075
11821.161170	2637.613333	1904.644531	128.588715
11821.161170	2637.613333	1903.662109	27.309277
11821.161170	2637.613333	1902.680664	210.802979
11821.161170	2637.613333	1901.698242	-65.692322
11821.161170	2637.613333	1900.715820	309.910095
11821.161170	2637.613333	1899.733398	133.191406
11821.161170	2637.613333	1898.750000	22.184025
11821.161170	2637.613333	1897.767578	15.754901
11821.161170	2637.613333	1896.784180	130.862411
11821.161170	2637.613333	1895.800781	121.946907
11821.161170	2637.613333	1894.817383	244.245773
11821.161170	2637.613333	1893.833984	28.750284
11821.161170	2637.613333	1892.850586	19.804281
11821.161170	2637.613333	1891.866211	90.992828
11821.161170	2637.613333	1890.881836	101.428238
11821.161170	2637.613333	1889.897461	106.986572
11821.161170	2637.613333	1888.913086	17.853447
11821.161170	2637.613333	1887.927734	-219.308990
11821.161170	2637.613333	1886.943359	36.182987
11821.161170	2637.613333	1885.958008	116.885025
11821.161170	2637.613333	1884.972656	-8.639283
11821.161170	2637.613333	1883.987305	33.202908
11821.161170	2637.613333	1883.001953	-99.567825
11821.161170	2637.613333	1882.015625	170.118759
11821.161170	2637.613333	1881.029297	97.931801
11821.161170	2637.613333	1880.042969	161.461197
11821.161170	2637.613333	1879.056641	6.888660
11821.161170	2637.613333	1878.070313	302.931061
11821.161170	2637.613333	1877.083984	22.411707
11821.161170	2637.613333	1876.096680	-76.403954
11821.161170	2637.613333	1875.109375	-104.990257
11821.161170	2637.613333	1874.122070	152.051300
11821.161170	2637.613333	1873.134766	-106.516518
11821.161170	2637.613333	1872.146484	17.308960
11821.161170	2637.613333	1871.159180	3.174885
11821.161170	2637.613333	1870.170898	-117.399788
11821.161170	2637.613333	1869.182617	8.725932
11821.161170	2637.613333	1868.194336	11.473978
11821.161170	2637.613333	1867.205078	-169.521225
11821.161170	2637.613333	1866.216797	-21.754942
11821.161170	2637.613333	1865.227539	-50.468163
11821.161170	2637.613333	1864.238281	2.958696
11821.161170	2637.613333	1863.249023	-20.950878
11821.161170	2637.613333	1862.259766	-23.131409
11821.161170	2637.613333	1861.269531	61.601234
11821.161170	2637.613333	1860.279297	32.814930
11821.161170	2637.613333	1859.290039	-135.979019
11821.161170	2637.613333	1858.298828	23.491318
11821.161170	2637.613333	1857.308594	16.394520
11821.161170	2637.613333	1856.318359	23.758425
11821.161170	2637.613333	1855.327148	-239.042511
11821.161170	2637.613333	1854.335938	-62.857304
11821.161170	2637.613333	1853.344727	60.199810
11821.161170	2637.613333	1852.353516	33.734333
11821.161170	2637.613333	1851.362305	144.642776
11821.161170	2637.613333	1850.370117	91.630569
11821.161170	2637.613333	1849.377930	50.668087
11821.161170	2637.613333	1848.385742	190.367661
11821.161170	2637.613333	1847.393555	-60.160343
11821.161170	2637.613333	1846.401367	113.185669
11821.161170	2637.613333	1845.408203	180.520218
11821.161170	2637.613333	1844.415039	-16.960682
11821.161170	2637.613333	1843.421875	122.536949
11821.161170	2637.613333	1842.428711	-118.200745
11821.161170	2637.613333	1841.435547	158.353577
11821.161170	2637.613333	1840.441406	223.127853
11821.161170	2637.613333	1839.448242	-19.946638
11821.161170	2637.613333	1838.454102	15.951727
11821.161170	2637.613333	1837.459961	27.782745
11821.161170	2637.613333	1836.464844	118.903954
11821.161170	2637.613333	1835.470703	-59.155586
11821.161170	2637.613333	1834.475586	103.989105
11821.161170	2637.613333	1833.480469	163.768570
11821.161170	2637.613333	1832.485352	-81.493942
11821.161170	2637.613333	1831.490234	67.106834
11821.161170	2637.613333	1830.495117	110.004494
11821.161170	2637.613333	1829.499023	-101.556839
11821.161170	2637.613333	1828.502930	87.709908
11821.161170	2637.613333	1827.506836	-119.001907
11821.161170	2637.613333	1826.510742	79.758873
11821.161170	2637.613333	1825.513672	76.958969
11821.161170	2637.613333	1824.517578	-24.173002
11821.161170	2637.613333	1823.520508	-36.575680
11821.161170	2637.613333	1822.523438	82.848648
11821.161170	2637.613333	1821.526367	-1.501612
11821.161170	2637.613333	1820.529297	-52.290527
11821.161170	2637.613333	1819.531250	-103.078835
11821.161170	2637.613333	1818.533203	6.618939
11821.161170	2637.613333	1817.535156	-22.641577
11821.161170	2637.613333	1816.537109	60.626904
11821.161170	2637.613333	1815.539063	160.605011
11821.161170	2637.613333	1814.540039	100.165550
11821.161170	2637.613333	1813.541992	-44.023098
11821.161170	2637.613333	1812.542969	-47.014175
11821.161170	2637.613333	1811.543945	57.623188
11821.161170	2637.613333	1810.543945	243.518539
11821.161170	2637.613333	1809.544922	144.775970
11821.161170	2637.613333	1808.544922	46.051056
11821.161170	2637.613333	1807.544922	23.836266
11821.161170	2637.613333	1806.544922	44.629612
11821.161170	2637.613333	1805.544922	53.450592
11821.161170	2637.613333	1804.544922	90.918312
11821.161170	2637.613333	1803.543945	99.690529
11821.161170	2637.613333	1802.542969	24.861332
11821.161170	2637.613333	1801.541992	76.584015
11821.161170	2637.613333	1800.541016	82.915169
11821.161170	2637.613333	1799.539063	39.103317
11821.161170	2637.613333	1798.538086	176.645447
11821.161170	2637.613333	1797.536133	94.625504
11821.161170	2637.613333	1796.534180	-13.621110
11821.161170	2637.613333	1795.532227	57.021782
11821.161170	2637.613333	1794.529297	-103.670052
11821.161170	2637.613333	1793.527344	-35.457272
11821.161170	2637.613333	1792.524414	77.996841
11821.161170	2637.613333	1791.521484	169.942795
11821.161170	2637.613333	1790.518555	302.340515
11821.161170	2637.613333	1789.514648	270.297760
11821.161170	2637.613333	1788.511719	231.106689
11821.161170	2637.613333	1787.507813	118.090233
11821.161170	2637.613333	1786.503906	-71.086952
11821.161170	2637.613333	1785.500000	80.179581
11821.161170	2637.613333	1784.496094	-113.715683
11821.161170	2637.613333	1783.491211	101.708916
11821.161170	2637.613333	1782.486328	60.100502
11821.161170	2637.613333	1781.481445	18.489326
11821.161170	2637.613333	1780.476563	226.575531
11821.161170	2637.613333	1779.471680	49.385460
11821.161170	2637.613333	1778.465820	67.171165
11821.161170	2637.613333	1777.460938	42.152012
11821.161170	2637.613333	1776.455078	105.045052
11821.161170	2637.613333	1775.449219	51.479000
11821.161170	2637.613333	1774.442383	-2.088097
11821.161170	2637.613333	1773.436523	143.842560
11821.161170	2637.613333	1772.429688	52.248642
11821.161170	2637.613333	1771.422852	281.165161
11821.161170	2637.613333	1770.416016	113.586243
11821.161170	2637.613333	1769.409180	-101.411995
11821.161170	2637.613333	1768.402344	32.438984
11821.161170	2637.613333	1767.394531	102.166435
11821.161170	2637.613333	1766.386719	-17.895670
11821.161170	2637.613333	1765.378906	58.890320
11821.161170	2637.613333	1764.371094	135.626907
11821.161170	2637.613333	1763.362305	39.271008
11821.161170	2637.613333	1762.354492	6.924330
11821.161170	2637.613333	1761.345703	5.371778
11821.161170	2637.613333	1760.336914	-34.105320
11821.161170	2637.613333	1759.328125	-30.952303
11821.161170	2637.613333	1758.318359	71.642136
11821.161170	2637.613333	1757.308594	98.410545
11821.161170	2637.613333	1756.299805	-23.988659
11821.161170	2637.613333	1755.290039	78.486053
11821.161170	2637.613333	1754.279297	-155.126343
11821.161170	2637.613333	1753.269531	-0.655405
11821.161170	2637.613333	1752.258789	160.831863
11821.161170	2637.613333	1751.249023	26.610474
11821.161170	2637.613333	1750.238281	-55.561443
11821.161170	2637.613333	1749.226563	160.155899
11821.161170	2637.613333	1748.215820	196.133286
11821.161170	2637.613333	1747.204102	-11.337029
11821.161170	2637.613333	1746.193359	232.543549
11821.161170	2637.613333	1745.181641	86.525169
11821.161170	2637.613333	1744.168945	25.566782
11821.161170	2637.613333	1743.157227	7.119444
11821.161170	2637.613333	1742.144531	-23.147837
11821.161170	2637.613333	1741.132813	45.720966
11821.161170	2637.613333	1740.120117	93.299088
11821.161170	2637.613333	1739.106445	41.732956
11821.161170	2637.613333	1738.093750	-101.839645
11821.161170	2637.613333	1737.080078	51.818485
11821.161170	2637.613333	1736.067383	12.022932
11821.161170	2637.613333	1735.053711	-115.020432
11821.161170	2637.613333	1734.040039	-81.734840
11821.161170	2637.613333	1733.025391	-234.680496
11821.161170	2637.613333	1732.011719	50.717121
11821.161170	2637.613333	1730.997070	-222.393860
11821.161170	2637.613333	1729.982422	-285.774475
11821.161170	2637.613333	1728.967773	6.471762
11821.161170	2637.613333	1727.952148	53.697662
11821.161170	2637.613333	1726.937500	42.031662
11821.161170	2637.613333	1725.921875	-146.184921
11821.161170	2637.613333	1724.906250	-37.831223
11821.161170	2637.613333	1723.890625	-14.243124
11821.161170	2637.613333	1722.875000	138.699524
11821.161170	2637.613333	1721.858398	-0.084176
11821.161170	2637.613333	1720.841797	-25.962502
11821.161170	2637.613333	1719.825195	223.224747
11821.161170	2637.613333	1718.808594	-101.254822
11821.161170	2637.613333	1717.791992	-4.949971
11821.161170	2637.613333	1716.774414	-160.124283
11821.161170	2637.613333	1715.756836	-2.807086
11821.161170	2637.613333	1714.739258	123.895233
11821.161170	2637.613333	1713.721680	48.569649
11821.161170	2637.613333	1712.704102	-57.270111
11821.161170	2637.613333	1711.685547	221.893555
11821.161170	2637.613333	1710.667969	-41.229256
11821.161170	2637.613333	1709.649414	-100.121986
11821.161170	2637.613333	1708.630859	66.216469
11821.161170	2637.613333	1707.611328	2.591720
11821.161170	2637.613333	1706.592773	25.748198
11821.161170	2637.613333	1705.573242	65.287308
11821.161170	2637.613333	1704.553711	76.659424
11821.161170	2637.613333	1703.534180	52.849998
11821.161170	2637.613333	1702.513672	71.209503
11821.161170	2637.613333	1701.494141	49.713985
11821.161170	2637.613333	1700.473633	304.622894
11821.161170	2637.613333	1699.453125	81.631844
11821.161170	2637.613333	1698.432617	-35.919239
11821.161170	2637.613333	1697.412109	-90.232391
11821.161170	2637.613333	1696.390625	133.998840
11821.161170	2637.613333	1695.369141	138.140045
11821.161170	2637.613333	1694.347656	100.144470
11821.161170	2637.613333	1693.326172	122.968277
11821.161170	2637.613333	1692.304688	239.321548
11821.161170	2637.613333	1691.282227	219.977448
11821.161170	2637.613333	1690.260742	284.795258
11821.161170	2637.613333	1689.238281	429.043854
11821.161170	2637.613333	1688.214844	260.039703
11821.161170	2637.613333	1687.192383	511.689056
11821.161170	2637.613333	1686.168945	489.881836
11821.161170	2637.613333	1685.146484	358.286987
11821.161170	2637.613333	1684.123047	439.236755
11821.161170	2637.613333	1683.099609	279.644867
11821.161170	2637.613333	1682.075195	332.527496
11821.161170	2637.613333	1681.051758	334.028381
11821.161170	2637.613333	1680.027344	456.851746
11821.161170	2637.613333	1679.002930	287.976776
11821.161170	2637.613333	1677.978516	541.355713
11821.161170	2637.613333	1676.953125	505.425720
11821.161170	2637.613333	1675.928711	420.530823
11821.161170	2637.613333	1674.903320	519.820435
11821.161170	2637.613333	1673.877930	390.634155
11821.161170	2637.613333	1672.852539	492.189941
11821.161170	2637.613333	1671.826172	281.475586
11821.161170	2637.613333	1670.800781	240.882202
11821.161170	2637.613333	1669.774414	430.861816
11821.161170	2637.613333	1668.748047	313.378113
11821.161170	2637.613333	1667.721680	438.051392
11821.161170	2637.613333	1666.694336	474.205383
11821.161170	2637.613333	1665.667969	454.481354
11821.161170	2637.613333	1664.640625	516.183655
11821.161170	2637.613333	1663.613281	480.142395
11821.161170	2637.613333	1662.585938	579.002197
11821.161170	2637.613333	1661.557617	505.722595
11821.161170	2637.613333	1660.530273	564.986816
11821.161170	2637.613333	1659.501953	489.387390
11821.161170	2637.613333	1658.473633	615.999451
11821.161170	2637.613333	1657.444336	542.712097
11821.161170	2637.613333	1656.416016	745.905090
11821.161170	2637.613333	1655.386719	700.468567
11821.161170	2637.613333	1654.358398	624.850708
11821.161170	2637.613333	1653.328125	481.909668
11821.161170	2637.613333	1652.298828	415.620728
11821.161170	2637.613333	1651.269531	416.653290
11821.161170	2637.613333	1650.239258	775.028137
11821.161170	2637.613333	1649.208984	641.400696
11821.161170	2637.613333	1648.178711	635.393311
11821.161170	2637.613333	1647.148438	694.312866
11821.161170	2637.613333	1646.117188	836.668396
11821.161170	2637.613333	1645.086914	860.730591
11821.161170	2637.613333	1644.055664	1007.614014
11821.161170	2637.613333	1643.024414	897.203735
11821.161170	2637.613333	1641.992188	798.407166
11821.161170	2637.613333	1640.960938	843.263672
11821.161170	2637.613333	1639.928711	649.541016
11821.161170	2637.613333	1638.896484	784.694641
11821.161170	2637.613333	1637.864258	769.303833
11821.161170	2637.613333	1636.832031	1031.671631
11821.161170	2637.613333	1635.798828	872.736877
11821.161170	2637.613333	1634.766602	811.038757
11821.161170	2637.613333	1633.733398	996.878357
11821.161170	2637.613333	1632.699219	1066.991455
11821.161170	2637.613333	1631.666016	1005.265869
11821.161170	2637.613333	1630.632813	1163.195068
11821.161170	2637.613333	1629.598633	981.258972
11821.161170	2637.613333	1628.564453	1085.959717
11821.161170	2637.613333	1627.530273	1114.364014
11821.161170	2637.613333	1626.495117	990.275818
11821.161170	2637.613333	1625.460938	1004.817627
11821.161170	2637.613333	1624.425781	1157.902832
11821.161170	2637.613333	1623.390625	1045.407593
11821.161170	2637.613333	1622.355469	1076.071533
11821.161170	2637.613333	1621.319336	894.386108
11821.161170	2637.613333	1620.284180	1155.808838
11821.161170	2637.613333	1619.248047	1004.162231
11821.161170	2637.613333	1618.211914	854.879150
11821.161170	2637.613333	1617.174805	952.403320
11821.161170	2637.613333	1616.138672	925.384521
11821.161170	2637.613333	1615.101563	1013.631653
11821.161170	2637.613333	1614.065430	968.169434
11821.161170	2637.613333	1613.027344	846.671997
11821.161170	2637.613333	1611.990234	923.359497
11821.161170	2637.613333	1610.953125	891.753723
11821.161170	2637.613333	1609.915039	834.823730
11821.161170	2637.613333	1608.876953	1065.734863
11821.161170	2637.613333	1607.838867	909.803040
11821.161170	2637.613333	1606.800781	931.159363
11821.161170	2637.613333	1605.761719	743.095154
11821.161170	2637.613333	1604.723633	861.109863
11821.161170	2637.613333	1603.684570	1006.679443
11821.161170	2637.613333	1602.644531	1000.400879
11821.161170	2637.613333	1601.605469	867.663208
11821.161170	2637.613333	1600.566406	854.525391
11821.161170	2637.613333	1599.526367	924.139160
11821.161170	2637.613333	1598.486328	832.864197
11821.161170	2637.613333	1597.446289	842.723450
11821.161170	2637.613333	1596.405273	919.197693
11821.161170	2637.613333	1595.365234	890.001099
11821.161170	2637.613333	1594.324219	787.336304
11821.161170	2637.613333	1593.283203	941.849121
11821.161170	2637.613333	1592.242188	976.948120
11821.161170	2637.613333	1591.200195	1037.279175
11821.161170	2637.613333	1590.159180	1033.351563
11821.161170	2637.613333	1589.117188	999.605957
11821.161170	2637.613333	1588.075195	1103.495850
11821.161170	2637.613333	1587.032227	1010.140015
11821.161170	2637.613333	1585.990234	1279.075684
11821.161170	2637.613333	1584.947266	1302.642334
11821.161170	2637.613333	1583.904297	1090.153564
11821.161170	2637.613333	1582.861328	1166.466431
11821.161170	2637.613333	1581.818359	1100.723755
11821.161170	2637.613333	1580.775391	1302.997192
11821.161170	2637.613333	1579.731445	1358.639038
11821.161170	2637.613333	1578.687500	1338.715698
11821.161170	2637.613333	1577.643555	1277.606689
11821.161170	2637.613333	1576.598633	1401.910156
11821.161170	2637.613333	1575.554688	1146.339966
11821.161170	2637.613333	1574.509766	1158.544312
11821.161170	2637.613333	1573.464844	1452.094849
11821.161170	2637.613333	1572.419922	1363.639282
11821.161170	2637.613333	1571.374023	1208.922485
11821.161170	2637.613333	1570.329102	1376.602539
11821.161170	2637.613333	1569.283203	1281.396240
11821.161170	2637.613333	1568.237305	1490.153198
11821.161170	2637.613333	1567.191406	1573.190308
11821.161170	2637.613333	1566.144531	1359.266113
11821.161170	2637.613333	1565.098633	1287.034668
11821.161170	2637.613333	1564.051758	1559.618042
11821.161170	2637.613333	1563.004883	1432.618042
11821.161170	2637.613333	1561.957031	1426.647705
11821.161170	2637.613333	1560.910156	1489.157715
11821.161170	2637.613333	1559.862305	1353.169922
11821.161170	2637.613333	1558.814453	1258.312256
11821.161170	2637.613333	1557.766602	1097.374023
11821.161170	2637.613333	1556.718750	1185.052124
11821.161170	2637.613333	1555.669922	1208.881592
11821.161170	2637.613333	1554.621094	1250.955078
11821.161170	2637.613333	1553.573242	853.231323
11821.161170	2637.613333	1552.523438	1052.601318
11821.161170	2637.613333	1551.474609	750.782349
11821.161170	2637.613333	1550.424805	624.464539
11821.161170	2637.613333	1549.375000	696.315613
11821.161170	2637.613333	1548.325195	665.716980
11821.161170	2637.613333	1547.275391	808.136658
11821.161170	2637.613333	1546.225586	829.914917
11821.161170	2637.613333	1545.174805	608.259094
11821.161170	2637.613333	1544.124023	516.375732
11821.161170	2637.613333	1543.073242	558.736084
11821.161170	2637.613333	1542.022461	758.001587
11821.161170	2637.613333	1540.970703	625.293701
11821.161170	2637.613333	1539.919922	390.384460
11821.161170	2637.613333	1538.868164	757.805420
11821.161170	2637.613333	1537.815430	498.017914
11821.161170	2637.613333	1536.763672	510.955078
11821.161170	2637.613333	1535.710938	617.030334
11821.161170	2637.613333	1534.659180	745.801758
11821.161170	2637.613333	1533.606445	686.115417
11821.161170	2637.613333	1532.552734	458.512848
11821.161170	2637.613333	1531.500000	664.481567
11821.161170	2637.613333	1530.446289	337.199921
11821.161170	2637.613333	1529.393555	717.843811
11821.161170	2637.613333	1528.338867	703.725769
11821.161170	2637.613333	1527.285156	385.791809
11821.161170	2637.613333	1526.231445	446.625519
11821.161170	2637.613333	1525.176758	548.264832
11821.161170	2637.613333	1524.122070	393.812256
11821.161170	2637.613333	1523.067383	280.237061
11821.161170	2637.613333	1522.012695	468.029785
11821.161170	2637.613333	1520.957031	429.289917
11821.161170	2637.613333	1519.901367	497.028198
11821.161170	2637.613333	1518.845703	374.599487
11821.161170	2637.613333	1517.790039	508.033478
11821.161170	2637.613333	1516.734375	372.141052
11821.161170	2637.613333	1515.677734	510.116608
11821.161170	2637.613333	1514.621094	338.152344
11821.161170	2637.613333	1513.564453	548.527893
11821.161170	2637.613333	1512.507813	421.922424
11821.161170	2637.613333	1511.450195	394.879944
11821.161170	2637.613333	1510.393555	381.451080
11821.161170	2637.613333	1509.335938	257.324341
11821.161170	2637.613333	1508.278320	176.216110
11821.161170	2637.613333	1507.219727	133.580780
11821.161170	2637.613333	1506.162109	307.830963
11821.161170	2637.613333	1505.103516	351.075378
11821.161170	2637.613333	1504.044922	376.280182
11821.161170	2637.613333	1502.986328	245.764160
11821.161170	2637.613333	1501.926758	311.682068
11821.161170	2637.613333	1500.868164	404.694153
11821.161170	2637.613333	1499.808594	281.138977
11821.161170	2637.613333	1498.749023	514.040222
11821.161170	2637.613333	1497.688477	390.594788
11821.161170	2637.613333	1496.628906	332.625702
11821.161170	2637.613333	1495.568359	371.648560
11821.161170	2637.613333	1494.507813	363.371460
11821.161170	2637.613333	1493.447266	517.374756
11821.161170	2637.613333	1492.386719	385.255493
11821.161170	2637.613333	1491.325195	442.429596
11821.161170	2637.613333	1490.263672	549.167419
11821.161170	2637.613333	1489.202148	442.020020
11821.161170	2637.613333	1488.140625	555.558105
11821.161170	2637.613333	1487.079102	489.053406
11821.161170	2637.613333	1486.016602	456.371307
11821.161170	2637.613333	1484.954102	369.756561
11821.161170	2637.613333	1483.891602	388.936005
11821.161170	2637.613333	1482.829102	585.806458
11821.161170	2637.613333	1481.765625	373.451141
11821.161170	2637.613333	1480.702148	471.433075
11821.161170	2637.613333	1479.638672	439.071808
11821.161170	2637.613333	1478.575195	231.534637
11821.161170	2637.613333	1477.511719	363.304321
11821.161170	2637.613333	1476.447266	178.464294
11821.161170	2637.613333	1475.382813	81.264778
11821.161170	2637.613333	1474.318359	94.180641
11821.161170	2637.613333	1473.253906	145.264908
11821.161170	2637.613333	1472.189453	79.757095
11821.161170	2637.613333	1471.124023	-8.048140
11821.161170	2637.613333	1470.058594	153.068863
11821.161170	2637.613333	1468.993164	-64.724648
11821.161170	2637.613333	1467.927734	-134.344421
11821.161170	2637.613333	1466.861328	-0.072787
11821.161170	2637.613333	1465.794922	-29.285007
11821.161170	2637.613333	1464.728516	-149.965210
11821.161170	2637.613333	1463.662109	6.678834
11821.161170	2637.613333	1462.594727	21.874767
11821.161170	2637.613333	1461.528320	-122.927605
11821.161170	2637.613333	1460.460938	189.998260
11821.161170	2637.613333	1459.393555	-1.686113
11821.161170	2637.613333	1458.326172	-75.294952
11821.161170	2637.613333	1457.257813	264.594910
11821.161170	2637.613333	1456.189453	59.177067
11821.161170	2637.613333	1455.121094	255.938065
11821.161170	2637.613333	1454.052734	87.686691
11821.161170	2637.613333	1452.984375	125.684898
11821.161170	2637.613333	1451.915039	93.084602
11821.161170	2637.613333	1450.845703	49.344742
11821.161170	2637.613333	1449.776367	154.930359
11821.161170	2637.613333	1448.707031	223.250809
11821.161170	2637.613333	1447.636719	-107.190193
11821.161170	2637.613333	1446.567383	123.223625
11821.161170	2637.613333	1445.497070	95.952621
11821.161170	2637.613333	1444.425781	138.333069
11821.161170	2637.613333	1443.355469	129.075653
11821.161170	2637.613333	1442.285156	247.833557
11821.161170	2637.613333	1441.213867	53.696709
11821.161170	2637.613333	1440.142578	85.442802
11821.161170	2637.613333	1439.070313	153.089584
11821.161170	2637.613333	1437.999023	157.064987
11821.161170	2637.613333	1436.926758	-21.567308
11821.161170	2637.613333	1435.854492	114.987762
11821.161170	2637.613333	1434.782227	197.317245
11821.161170	2637.613333	1433.709961	272.686920
11821.161170	2637.613333	1432.636719	426.918518
11821.161170	2637.613333	1431.563477	181.160370
11821.161170	2637.613333	1430.490234	185.196808
11821.161170	2637.613333	1429.416992	172.102142
11821.161170	2637.613333	1428.343750	328.255402
11821.161170	2637.613333	1427.269531	436.812592
11821.161170	2637.613333	1426.195313	121.430504
11821.161170	2637.613333	1425.121094	260.932526
11821.161170	2637.613333	1424.046875	235.861679
11821.161170	2637.613333	1422.971680	274.589996
11821.161170	2637.613333	1421.896484	373.788727
11821.161170	2637.613333	1420.821289	491.649353
11821.161170	2637.613333	1419.746094	96.882889
11821.161170	2637.613333	1418.669922	253.551971
11821.161170	2637.613333	1417.594727	249.013016
11821.161170	2637.613333	1416.518555	-44.879196
11821.161170	2637.613333	1415.442383	213.375290
11821.161170	2637.613333	1414.365234	315.249512
11821.161170	2637.613333	1413.289063	353.970490
11821.161170	2637.613333	1412.211914	307.202972
11821.161170	2637.613333	1411.134766	473.929169
11821.161170	2637.613333	1410.057617	258.641235
11821.161170	2637.613333	1408.979492	440.754883
11821.161170	2637.613333	1407.902344	150.318802
11821.161170	2637.613333	1406.824219	194.735596
11821.161170	2637.613333	1405.746094	391.553528
11821.161170	2637.613333	1404.666992	200.099609
11821.161170	2637.613333	1403.588867	278.700378
11821.161170	2637.613333	1402.509766	374.455170
11821.161170	2637.613333	1401.430664	189.743073
11821.161170	2637.613333	1400.351563	190.105072
11821.161170	2637.613333	1399.271484	274.869415
11821.161170	2637.613333	1398.192383	101.344460
11821.161170	2637.613333	1397.112305	103.792221
11821.161170	2637.613333	1396.031250	202.275330
11821.161170	2637.613333	1394.951172	176.579376
11821.161170	2637.613333	1393.871094	-42.182175
11821.161170	2637.613333	1392.790039	141.079956
11821.161170	2637.613333	1391.708984	193.290161
11821.161170	2637.613333	1390.626953	170.403091
11821.161170	2637.613333	1389.545898	172.250595
11821.161170	2637.613333	1388.463867	228.388489
11821.161170	2637.613333	1387.381836	98.176483
11821.161170	2637.613333	1386.299805	154.862564
11821.161170	2637.613333	1385.217773	242.857758
11821.161170	2637.613333	1384.134766	277.423676
11821.161170	2637.613333	1383.051758	621.066223
11821.161170	2637.613333	1381.968750	326.875153
11821.161170	2637.613333	1380.885742	561.183411
11821.161170	2637.613333	1379.802734	434.799438
11821.161170	2637.613333	1378.718750	311.827881
11821.161170	2637.613333	1377.634766	310.546783
11821.161170	2637.613333	1376.550781	277.094757
11821.161170	2637.613333	1375.465820	495.892944
11821.161170	2637.613333	1374.381836	147.618210
11821.161170	2637.613333	1373.296875	298.318146
11821.161170	2637.613333	1372.211914	315.359406
11821.161170	2637.613333	1371.126953	458.888336
11821.161170	2637.613333	1370.041016	161.695480
11821.161170	2637.613333	1368.955078	464.804535
11821.161170	2637.613333	1367.869141	460.717346
11821.161170	2637.613333	1366.783203	273.372162
11821.161170	2637.613333	1365.697266	299.376282
11821.161170	2637.613333	1364.610352	171.823227
11821.161170	2637.613333	1363.523438	178.324280
11821.161170	2637.613333	1362.436523	75.331429
11821.161170	2637.613333	1361.349609	5.739994
11821.161170	2637.613333	1360.261719	136.464966
11821.161170	2637.613333	1359.174805	98.327202
11821.161170	2637.613333	1358.086914	56.110039
11821.161170	2637.613333	1356.998047	-61.898468
11821.161170	2637.613333	1355.910156	26.221788
11821.161170	2637.613333	1354.821289	-160.742599
11821.161170	2637.613333	1353.732422	-131.970871
11821.161170	2637.613333	1352.643555	-15.534539
11821.161170	2637.613333	1351.554688	-22.354744
11821.161170	2637.613333	1350.464844	-114.012138
11821.161170	2637.613333	1349.375000	-86.026047
11821.161170	2637.613333	1348.285156	-71.045151
11821.161170	2637.613333	1347.195313	12.909789
11821.161170	2637.613333	1346.105469	-64.385109
11821.161170	2637.613333	1345.014648	-40.890156
11821.161170	2637.613333	1343.923828	-60.625931
11821.161170	2637.613333	1342.833008	-172.305588
11821.161170	2637.613333	1341.741211	14.928061
11821.161170	2637.613333	1340.650391	71.888168
11821.161170	2637.613333	1339.558594	55.944733
11821.161170	2637.613333	1338.466797	-37.849857
11821.161170	2637.613333	1337.374023	-60.908726
11821.161170	2637.613333	1336.282227	-124.828331
11821.161170	2637.613333	1335.189453	-80.958015
11821.161170	2637.613333	1334.096680	5.151841
11821.161170	2637.613333	1333.003906	167.016571
11821.161170	2637.613333	1331.910156	178.233994
11821.161170	2637.613333	1330.817383	-75.796730
11821.161170	2637.613333	1329.723633	35.335243
11821.161170	2637.613333	1328.629883	82.583214
11821.161170	2637.613333	1327.535156	10.574475
11821.161170	2637.613333	1326.441406	106.321053
11821.161170	2637.613333	1325.346680	28.732222
11821.161170	2637.613333	1324.251953	209.308914
11821.161170	2637.613333	1323.156250	118.742065
11821.161170	2637.613333	1322.061523	181.231796
11821.161170	2637.613333	1320.965820	152.174072
11821.161170	2637.613333	1319.870117	195.244400
11821.161170	2637.613333	1318.774414	-39.109318
11821.161170	2637.613333	1317.678711	120.511948
11821.161170	2637.613333	1316.582031	66.717369
11821.161170	2637.613333	1315.485352	-83.197601
11821.161170	2637.613333	1314.388672	152.558640
11821.161170	2637.613333	1313.291016	47.391289
11821.161170	2637.613333	1312.194336	107.391212
11821.161170	2637.613333	1311.096680	135.452194
11821.161170	2637.613333	1309.999023	113.525688
11821.161170	2637.613333	1308.901367	69.582024
11821.161170	2637.613333	1307.802734	172.046082
11821.161170	2637.613333	1306.705078	121.716324
11821.161170	2637.613333	1305.606445	54.976177
11821.161170	2637.613333	1304.506836	78.035309
11821.161170	2637.613333	1303.408203	-124.338348
11821.161170	2637.613333	1302.308594	-42.100979
11821.161170	2637.613333	1301.208984	-17.804403
11821.161170	2637.613333	1300.109375	-49.481274
11821.161170	2637.613333	1299.009766	-10.549009
11821.161170	2637.613333	1297.909180	23.067015
11821.161170	2637.613333	1296.808594	10.084347
11821.161170	2637.613333	1295.708008	50.091415
11821.161170	2637.613333	1294.607422	-26.436636
11821.161170	2637.613333	1293.506836	-113.091072
11821.161170	2637.613333	1292.405273	26.758560
11821.161170	2637.613333	1291.303711	-36.244606
11821.161170	2637.613333	1290.202148	27.635298
11821.161170	2637.613333	1289.099609	82.699722
11821.161170	2637.613333	1287.998047	35.275093
11821.161170	2637.613333	1286.895508	97.050728
11821.161170	2637.613333	1285.792969	233.523087
11821.161170	2637.613333	1284.689453	377.080658
11821.161170	2637.613333	1283.586914	318.281006
11821.161170	2637.613333	1282.483398	331.144775
11821.161170	2637.613333	1281.379883	280.626312
11821.161170	2637.613333	1280.276367	274.187012
11821.161170	2637.613333	1279.171875	229.300476
11821.161170	2637.613333	1278.067383	201.202164
11821.161170	2637.613333	1276.962891	320.939453
11821.161170	2637.613333	1275.858398	205.630981
11821.161170	2637.613333	1274.753906	113.157120
11821.161170	2637.613333	1273.648438	146.653702
11821.161170	2637.613333	1272.542969	253.122620
11821.161170	2637.613333	1271.437500	215.132721
11821.161170	2637.613333	1270.331055	138.441010
11821.161170	2637.613333	1269.225586	104.426529
11821.161170	2637.613333	1268.119141	69.702431
11821.161170	2637.613333	1267.012695	134.482391
11821.161170	2637.613333	1265.906250	64.585243
11821.161170	2637.613333	1264.798828	61.246605
11821.161170	2637.613333	1263.691406	-42.603130
11821.161170	2637.613333	1262.583984	74.760117
11821.161170	2637.613333	1261.476563	44.278229
11821.161170	2637.613333	1260.368164	-12.424416
11821.161170	2637.613333	1259.260742	2.180185
11821.161170	2637.613333	1258.152344	-87.080521
11821.161170	2637.613333	1257.043945	36.920967
11821.161170	2637.613333	1255.934570	-74.274872
11821.161170	2637.613333	1254.825195	-28.800356
11821.161170	2637.613333	1253.716797	42.140816
11821.161170	2637.613333	1252.606445	-49.536716
11821.161170	2637.613333	1251.497070	61.155640
11821.161170	2637.613333	1250.387695	169.723251
11821.161170	2637.613333	1249.277344	338.139343
11821.161170	2637.613333	1248.166992	494.711884
11821.161170	2637.613333	1247.055664	574.468811
11821.161170	2637.613333	1245.945313	619.251160
11821.161170	2637.613333	1244.833984	859.015625
11821.161170	2637.613333	1243.722656	1180.486206
11821.161170	2637.613333	1242.611328	1216.216064
11821.161170	2637.613333	1241.499023	1346.574951
11821.161170	2637.613333	1240.387695	1183.689819
11821.161170	2637.613333	1239.275391	1039.244263
11821.161170	2637.613333	1238.162109	857.361755
11821.161170	2637.613333	1237.049805	731.058838
11821.161170	2637.613333	1235.936523	458.379425
11821.161170	2637.613333	1234.823242	388.178192
11821.161170	2637.613333	1233.709961	240.672318
11821.161170	2637.613333	1232.596680	160.713852
11821.161170	2637.613333	1231.482422	168.149261
11821.161170	2637.613333	1230.369141	68.382561
11821.161170	2637.613333	1229.253906	100.773689
11821.161170	2637.613333	1228.139648	97.133499
11821.161170	2637.613333	1227.025391	72.286026
11821.161170	2637.613333	1225.910156	52.394211
11821.161170	2637.613333	1224.794922	60.625092
11821.161170	2637.613333	1223.679688	131.206635
11821.161170	2637.613333	1222.563477	-20.406210
11821.161170	2637.613333	1221.447266	47.580528
11821.161170	2637.613333	1220.331055	82.462204
11821.161170	2637.613333	1219.214844	-65.675804
11821.161170	2637.613333	1218.098633	55.070267
11821.161170	2637.613333	1216.981445	-42.296757
11821.161170	2637.613333	1215.864258	49.230927
11821.161170	2637.613333	1214.747070	71.991646
11821.161170	2637.613333	1213.629883	70.346176
11821.161170	2637.613333	1212.511719	111.662613
11821.161170	2637.613333	1211.393555	114.536621
11821.161170	2637.613333	1210.275391	188.898331
11821.161170	2637.613333	1209.157227	54.420044
11821.161170	2637.613333	1208.038086	257.877075
11821.161170	2637.613333	1206.918945	218.533096
11821.161170	2637.613333	1205.799805	243.639496
11821.161170	2637.613333	1204.680664	258.785583
11821.161170	2637.613333	1203.560547	330.668549
11821.161170	2637.613333	1202.441406	342.131653
11821.161170	2637.613333	1201.321289	361.247559
11821.161170	2637.613333	1200.200195	350.507904
11821.161170	2637.613333	1199.080078	369.288208
11821.161170	2637.613333	1197.958984	494.708984
11821.161170	2637.613333	1196.837891	411.858063
11821.161170	2637.613333	1195.716797	244.008392
11821.161170	2637.613333	1194.594727	212.111053
11821.161170	2637.613333	1193.473633	223.286682
11821.161170	2637.613333	1192.351563	240.408707
11821.161170	2637.613333	1191.229492	137.750565
11821.161170	2637.613333	1190.106445	95.072906
11821.161170	2637.613333	1188.984375	64.691734
11821.161170	2637.613333	1187.861328	-117.188515
11821.161170	2637.613333	1186.738281	-144.392029
11821.161170	2637.613333	1185.614258	-72.905251
11821.161170	2637.613333	1184.491211	-17.859369
11821.161170	2637.613333	1183.367188	-58.675014
11821.161170	2637.613333	1182.243164	-158.467346
11821.161170	2637.613333	1181.119141	-29.550331
11821.161170	2637.613333	1179.994141	-48.283516
11821.161170	2637.613333	1178.869141	-78.798622
11821.161170	2637.613333	1177.744141	27.890188
11821.161170	2637.613333	1176.619141	68.285347
11821.161170	2637.613333	1175.493164	17.631773
11821.161170	2637.613333	1174.368164	-28.740566
11821.161170	2637.613333	1173.242188	-37.705608
11821.161170	2637.613333	1172.115234	-137.432816
11821.161170	2637.613333	1170.989258	29.920546
11821.161170	2637.613333	1169.862305	-84.204094
11821.161170	2637.613333	1168.735352	-122.785980
11821.161170	2637.613333	1167.608398	-79.206444
11821.161170	2637.613333	1166.481445	-73.651512
11821.161170	2637.613333	1165.353516	-27.403704
11821.161170	2637.613333	1164.225586	-174.771790
11821.161170	2637.613333	1163.097656	-152.856812
11821.161170	2637.613333	1161.968750	-130.513626
11821.161170	2637.613333	1160.840820	48.291279
11821.161170	2637.613333	1159.711914	131.996597
11821.161170	2637.613333	1158.583008	143.349838
11821.161170	2637.613333	1157.453125	-47.924820
11821.161170	2637.613333	1156.324219	48.550030
11821.161170	2637.613333	1155.194336	-18.265059
11821.161170	2637.613333	1154.064453	2.794477
11821.161170	2637.613333	1152.933594	-40.837261
11821.161170	2637.613333	1151.803711	-31.502932
11821.161170	2637.613333	1150.672852	-116.609795
11821.161170	2637.613333	1149.541992	43.583469
11821.161170	2637.613333	1148.411133	-141.991928
11821.161170	2637.613333	1147.279297	163.646378
11821.161170	2637.613333	1146.147461	-58.003387
11821.161170	2637.613333	1145.015625	9.062264
11821.161170	2637.613333	1143.883789	141.230148
11821.161170	2637.613333	1142.750977	166.069443
11821.161170	2637.613333	1141.619141	1.626110
11821.161170	2637.613333	1140.486328	38.984222
11821.161170	2637.613333	1139.352539	202.465576
11821.161170	2637.613333	1138.219727	293.254974
11821.161170	2637.613333	1137.085938	306.153625
11821.161170	2637.613333	1135.952148	379.616516
11821.161170	2637.613333	1134.818359	287.922638
11821.161170	2637.613333	1133.683594	265.255707
11821.161170	2637.613333	1132.549805	343.394531
11821.161170	2637.613333	1131.415039	255.739243
11821.161170	2637.613333	1130.279297	162.972000
11821.161170	2637.613333	1129.144531	66.997787
11821.161170	2637.613333	1128.008789	209.121811
11821.161170	2637.613333	1126.873047	205.899918
11821.161170	2637.613333	1125.737305	152.545654
11821.161170	2637.613333	1124.601563	383.711029
11821.161170	2637.613333	1123.464844	346.134247
11821.161170	2637.613333	1122.328125	452.795166
11821.161170	2637.613333	1121.191406	291.414154
11821.161170	2637.613333	1120.054688	415.870758
11821.161170	2637.613333	1118.916992	412.324982
11821.161170	2637.613333	1117.779297	436.489258
11821.161170	2637.613333	1116.641602	374.036041
11821.161170	2637.613333	1115.503906	312.682892
11821.161170	2637.613333	1114.365234	313.583344
11821.161170	2637.613333	1113.226563	350.834167
11821.161170	2637.613333	1112.087891	253.586945
11821.161170	2637.613333	1110.949219	105.163658
11821.161170	2637.613333	1109.809570	169.581055
11821.161170	2637.613333	1108.669922	15.031261
11821.161170	2637.613333	1107.530273	89.215195
11821.161170	2637.613333	1106.390625	30.991486
11821.161170	2637.613333	1105.250000	81.995415
11821.161170	2637.613333	1104.109375	-36.221359
11821.161170	2637.613333	1102.968750	75.627052
11821.161170	2637.613333	1101.828125	12.988164
11821.161170	2637.613333	1100.686523	-47.728432
11821.161170	2637.613333	1099.544922	90.621353
11821.161170	2637.613333	1098.403320	43.977726
11821.161170	2637.613333	1097.261719	-48.387066
11821.161170	2637.613333	1096.120117	-89.382896
11821.161170	2637.613333	1094.977539	55.060310
11821.161170	2637.613333	1093.834961	13.133720
11821.161170	2637.613333	1092.691406	-39.127800
11821.161170	2637.613333	1091.548828	-13.190104
11821.161170	2637.613333	1090.405273	-16.343153
11821.161170	2637.613333	1089.261719	119.888069
11821.161170	2637.613333	1088.118164	111.577599
11821.161170	2637.613333	1086.973633	177.859283
11821.161170	2637.613333	1085.829102	-25.118404
11821.161170	2637.613333	1084.684570	70.590668
11821.161170	2637.613333	1083.540039	43.255383
11821.161170	2637.613333	1082.395508	89.111435
11821.161170	2637.613333	1081.250000	146.723663
11821.161170	2637.613333	1080.104492	-4.516564
11821.161170	2637.613333	1078.958984	43.681129
11821.161170	2637.613333	1077.812500	151.386383
11821.161170	2637.613333	1076.666016	171.562927
11821.161170	2637.613333	1075.519531	168.367889
11821.161170	2637.613333	1074.373047	123.542366
11821.161170	2637.613333	1073.226563	77.205879
11821.161170	2637.613333	1072.079102	-32.068691
11821.161170	2637.613333	1070.931641	137.032227
11821.161170	2637.613333	1069.784180	228.013443
11821.161170	2637.613333	1068.635742	143.769989
11821.161170	2637.613333	1067.487305	78.217133
11821.161170	2637.613333	1066.338867	151.291321
11821.161170	2637.613333	1065.190430	336.306458
11821.161170	2637.613333	1064.041992	383.162872
11821.161170	2637.613333	1062.892578	589.511780
11821.161170	2637.613333	1061.743164	611.516785
11821.161170	2637.613333	1060.593750	724.871094
11821.161170	2637.613333	1059.443359	741.794739
11821.161170	2637.613333	1058.292969	878.682312
11821.161170	2637.613333	1057.142578	799.755493
11821.161170	2637.613333	1055.992188	883.626587
11821.161170	2637.613333	1054.841797	995.328674
11821.161170	2637.613333	1053.690430	954.030945
11821.161170	2637.613333	1052.539063	673.563599
11821.161170	2637.613333	1051.387695	628.391174
11821.161170	2637.613333	1050.235352	622.653687
11821.161170	2637.613333	1049.083984	564.427734
11821.161170	2637.613333	1047.931641	529.966370
11821.161170	2637.613333	1046.778320	654.910461
11821.161170	2637.613333	1045.625977	645.749084
11821.161170	2637.613333	1044.472656	845.121155
11821.161170	2637.613333	1043.319336	778.490662
11821.161170	2637.613333	1042.166016	722.027527
11821.161170	2637.613333	1041.012695	578.372986
11821.161170	2637.613333	1039.858398	570.840698
11821.161170	2637.613333	1038.704102	643.710693
11821.161170	2637.613333	1037.549805	358.818085
11821.161170	2637.613333	1036.394531	293.428558
11821.161170	2637.613333	1035.239258	218.126526
11821.161170	2637.613333	1034.083984	258.860352
11821.161170	2637.613333	1032.928711	346.074402
11821.161170	2637.613333	1031.773438	219.610611
11821.161170	2637.613333	1030.617188	144.035278
11821.161170	2637.613333	1029.460938	178.310501
11821.161170	2637.613333	1028.304688	243.192734
11821.161170	2637.613333	1027.147461	260.165222
11821.161170	2637.613333	1025.991211	319.613800
11821.161170	2637.613333	1024.833984	296.157166
11821.161170	2637.613333	1023.675781	450.357849
11821.161170	2637.613333	1022.518555	413.784515
11821.161170	2637.613333	1021.360352	541.004883
11821.161170	2637.613333	1020.202148	485.052704
11821.161170	2637.613333	1019.043945	462.492523
11821.161170	2637.613333	1017.884766	433.166687
11821.161170	2637.613333	1016.726563	370.640442
11821.161170	2637.613333	1015.567383	566.677368
11821.161170	2637.613333	1014.407227	486.186249
11821.161170	2637.613333	1013.248047	442.769623
11821.161170	2637.613333	1012.087891	180.529266
11821.161170	2637.613333	1010.927734	304.713135
11821.161170	2637.613333	1009.767578	151.317474
11821.161170	2637.613333	1008.606445	259.843079
11821.161170	2637.613333	1007.446289	183.232239
11821.161170	2637.613333	1006.285156	180.906235
11821.161170	2637.613333	1005.123047	175.483322
11821.161170	2637.613333	1003.961914	274.209747
11821.161170	2637.613333	1002.799805	179.044632
11821.161170	2637.613333	1001.637695	89.433517
11821.161170	2637.613333	1000.475586	287.044586
11821.161170	2637.613333	999.312500	263.275787
11821.161170	2637.613333	998.149414	308.358948
11821.161170	2637.613333	996.986328	38.794727
11821.161170	2637.613333	995.823242	99.492531
11821.161170	2637.613333	994.659180	73.232574
11821.161170	2637.613333	993.496094	-32.362782
11821.161170	2637.613333	992.332031	-72.064926
11821.161170	2637.613333	991.166992	-58.831718
11821.161170	2637.613333	990.002930	17.290955
11821.161170	2637.613333	988.837891	-139.759003
11821.161170	2637.613333	987.672852	63.423340
11821.161170	2637.613333	986.506836	-25.391283
11821.161170	2637.613333	985.341797	-59.945751
11821.161170	2637.613333	984.175781	99.122887
11821.161170	2637.613333	983.009766	-26.386734
11821.161170	2637.613333	981.843750	-43.556870
11821.161170	2637.613333	980.676758	32.098392
11821.161170	2637.613333	979.509766	137.449570
11821.161170	2637.613333	978.342773	117.579460
11821.161170	2637.613333	977.175781	11.949764
11821.161170	2637.613333	976.007813	89.141983
11821.161170	2637.613333	974.839844	66.788979
11821.161170	2637.613333	973.671875	80.837326
11821.161170	2637.613333	972.503906	148.836624
11821.161170	2637.613333	971.334961	-8.590218
11821.161170	2637.613333	970.166016	6.242033
11821.161170	2637.613333	968.997070	9.850273
11821.161170	2637.613333	967.828125	50.127377
11821.161170	2637.613333	966.658203	-58.273582
11821.161170	2637.613333	965.488281	48.721428
11821.161170	2637.613333	964.318359	53.565838
11821.161170	2637.613333	963.148438	212.623718
11821.161170	2637.613333	961.977539	136.085159
11821.161170	2637.613333	960.806641	231.859268
11821.161170	2637.613333	959.635742	180.485413
11821.161170	2637.613333	958.463867	140.564255
11821.161170	2637.613333	957.292969	145.006729
11821.161170	2637.613333	956.121094	279.994293
11821.161170	2637.613333	954.948242	294.935822
11821.161170	2637.613333	953.776367	375.830383
11821.161170	2637.613333	952.603516	267.245941
11821.161170	2637.613333	951.430664	347.867706
11821.161170	2637.613333	950.257813	177.993866
11821.161170	2637.613333	949.084961	373.567627
11821.161170	2637.613333	947.911133	325.565369
11821.161170	2637.613333	946.737305	379.678833
11821.161170	2637.613333	945.563477	440.596741
11821.161170	2637.613333	944.388672	634.035706
11821.161170	2637.613333	943.213867	827.085510
11821.161170	2637.613333	942.039063	989.983154
11821.161170	2637.613333	940.864258	1366.016602
11821.161170	2637.613333	939.688477	1593.989868
11821.161170	2637.613333	938.513672	1826.286255
11821.161170	2637.613333	937.337891	1860.627563
11821.161170	2637.613333	936.161133	1894.948486
11821.161170	2637.613333	934.985352	1870.460815
11821.161170	2637.613333	933.808594	1498.167358
11821.161170	2637.613333	932.631836	1243.169189
11821.161170	2637.613333	931.454102	1118.574829
11821.161170	2637.613333	930.277344	885.490051
11821.161170	2637.613333	929.099609	634.974731
11821.161170	2637.613333	927.921875	634.355652
11821.161170	2637.613333	926.743164	551.184021
11821.161170	2637.613333	925.565430	422.404297
11821.161170	2637.613333	924.386719	328.400330
11821.161170	2637.613333	923.208008	175.780685
11821.161170	2637.613333	922.028320	285.874390
11821.161170	2637.613333	920.849609	274.365784
11821.161170	2637.613333	919.669922	277.325500
11821.161170	2637.613333	919.474609	222.104904
11821.161170	2637.613333	918.309570	225.730804
11821.161170	2637.613333	917.143555	116.538620
11821.161170	2637.613333	915.977539	165.692261
11821.161170	2637.613333	914.810547	10.985896
11821.161170	2637.613333	913.644531	135.979065
11821.161170	2637.613333	912.477539	61.500538
11821.161170	2637.613333	911.310547	97.551186
11821.161170	2637.613333	910.143555	96.737770
11821.161170	2637.613333	908.975586	247.537979
11821.161170	2637.613333	907.807617	125.383911
11821.161170	2637.613333	906.639648	165.655731
11821.161170	2637.613333	905.471680	298.981201
11821.161170	2637.613333	904.303711	81.609634
11821.161170	2637.613333	903.134766	85.032341
11821.161170	2637.613333	901.965820	233.391418
11821.161170	2637.613333	900.796875	176.185699
11821.161170	2637.613333	899.626953	250.908859
11821.161170	2637.613333	898.457031	178.559982
11821.161170	2637.613333	897.287109	-1.859663
11821.161170	2637.613333	896.117188	25.262024
11821.161170	2637.613333	894.947266	19.946331
11821.161170	2637.613333	893.776367	-17.784798
11821.161170	2637.613333	892.605469	33.044315
11821.161170	2637.613333	891.434570	196.133652
11821.161170	2637.613333	890.262695	50.398685
11821.161170	2637.613333	889.091797	144.316452
11821.161170	2637.613333	887.919922	119.485130
11821.161170	2637.613333	886.748047	142.122162
11821.161170	2637.613333	885.575195	147.481796
11821.161170	2637.613333	884.403320	-45.606281
11821.161170	2637.613333	883.230469	39.554153
11821.161170	2637.613333	882.057617	-106.021591
11821.161170	2637.613333	880.883789	145.073532
11821.161170	2637.613333	879.710938	141.750793
11821.161170	2637.613333	878.537109	60.853321
11821.161170	2637.613333	877.362305	-162.197769
11821.161170	2637.613333	876.188477	47.740776
11821.161170	2637.613333	875.013672	-48.189159
11821.161170	2637.613333	873.839844	-34.293034
11821.161170	2637.613333	872.664063	-67.762001
11821.161170	2637.613333	871.489258	8.524755
11821.161170	2637.613333	870.313477	-89.504326
11821.161170	2637.613333	869.138672	79.237434
11821.161170	2637.613333	867.962891	-91.907021
11821.161170	2637.613333	866.786133	-75.915024
11821.161170	2637.613333	865.610352	-49.190109
11821.161170	2637.613333	864.433594	91.435326
11821.161170	2637.613333	863.256836	-21.579491
11821.161170	2637.613333	862.079102	20.138624
11821.161170	2637.613333	860.902344	29.609522
11821.161170	2637.613333	859.724609	-36.094967
11821.161170	2637.613333	858.546875	-60.982891
11821.161170	2637.613333	857.368164	-60.104450
11821.161170	2637.613333	856.190430	-12.016420
11821.161170	2637.613333	855.011719	-17.598698
11821.161170	2637.613333	853.833008	21.869194
11821.161170	2637.613333	852.654297	37.719940
11821.161170	2637.613333	851.474609	8.524867
11821.161170	2637.613333	850.294922	50.091370
11821.161170	2637.613333	849.115234	80.917160
11821.161170	2637.613333	847.935547	-76.877502
11821.161170	2637.613333	846.754883	9.664908
11821.161170	2637.613333	845.575195	-53.798466
11821.161170	2637.613333	844.393555	66.965973
11821.161170	2637.613333	843.212891	52.762478
11821.161170	2637.613333	842.032227	-55.644318
11821.161170	2637.613333	840.850586	-71.964409
11821.161170	2637.613333	839.668945	-24.078896
11821.161170	2637.613333	838.486328	6.666956
11821.161170	2637.613333	837.304688	-78.125351
11821.161170	2637.613333	836.122070	-60.222176
11821.161170	2637.613333	834.939453	34.650669
11821.161170	2637.613333	833.756836	-118.518936
11821.161170	2637.613333	832.573242	76.782570
11821.161170	2637.613333	831.389648	-44.283428
11821.161170	2637.613333	830.206055	-188.805725
11821.161170	2637.613333	829.022461	-74.795967
11821.161170	2637.613333	827.838867	-12.094443
11821.161170	2637.613333	826.654297	-75.402466
11821.161170	2637.613333	825.469727	-14.866766
11821.161170	2637.613333	824.284180	-44.003136
11821.161170	2637.613333	823.099609	91.182526
11821.161170	2637.613333	821.914063	66.296768
11821.161170	2637.613333	820.728516	37.151337
11821.161170	2637.613333	819.542969	-75.159012
11821.161170	2637.613333	818.356445	-93.607147
11821.161170	2637.613333	817.169922	-52.362278
11821.161170	2637.613333	815.983398	-72.945885
11821.161170	2637.613333	814.796875	0.234800
11821.161170	2637.613333	813.609375	13.730316
11821.161170	2637.613333	812.422852	-70.764549
11821.161170	2637.613333	811.235352	-31.711720
11821.161170	2637.613333	810.046875	-145.974014
11821.161170	2637.613333	808.859375	12.277623
11821.161170	2637.613333	807.670898	-38.106255
11821.161170	2637.613333	806.482422	-101.239708
11821.161170	2637.613333	805.293945	-2.670645
11821.161170	2637.613333	804.104492	6.524458
11821.161170	2637.613333	802.915039	-18.311926
11821.161170	2637.613333	801.725586	-21.881525
11821.161170	2637.613333	800.536133	-16.951012
11821.161170	2637.613333	799.345703	28.353285
11821.161170	2637.613333	798.155273	16.266897
11821.161170	2637.613333	796.964844	6.305851
11821.161170	2637.613333	795.774414	-7.902999
11821.161170	2637.613333	794.583008	-45.466488
11821.161170	2637.613333	793.392578	71.955696
11821.161170	2637.613333	792.200195	-65.374748
11821.161170	2637.613333	791.008789	187.809067
11821.161170	2637.613333	789.816406	-125.595657
11821.161170	2637.613333	788.625000	121.122513
11821.161170	2637.613333	787.432617	36.894466
11821.161170	2637.613333	786.239258	99.000801
11821.161170	2637.613333	785.046875	131.395126
11821.161170	2637.613333	783.853516	42.963871
11821.161170	2637.613333	782.660156	145.274567
11821.161170	2637.613333	781.465820	78.052284
11821.161170	2637.613333	780.272461	159.119812
11821.161170	2637.613333	779.078125	168.147186
11821.161170	2637.613333	777.883789	-110.781944
11821.161170	2637.613333	776.688477	93.032562
11821.161170	2637.613333	775.494141	112.629807
11821.161170	2637.613333	774.298828	-62.452084
11821.161170	2637.613333	773.103516	60.815384
11821.161170	2637.613333	771.907227	52.892548
11821.161170	2637.613333	770.711914	11.130057
11821.161170	2637.613333	769.515625	-5.251400
11821.161170	2637.613333	768.318359	54.461800
11821.161170	2637.613333	767.122070	86.667206
11821.161170	2637.613333	765.924805	-43.837894
11821.161170	2637.613333	764.727539	-28.540632
11821.161170	2637.613333	763.530273	24.756498
11821.161170	2637.613333	762.333008	221.606476
11821.161170	2637.613333	761.134766	165.034958
11821.161170	2637.613333	759.936523	43.046528
11821.161170	2637.613333	758.738281	-81.011917
11821.161170	2637.613333	757.540039	20.717768
11821.161170	2637.613333	756.340820	-10.492725
11821.161170	2637.613333	755.141602	-29.047981
11821.161170	2637.613333	753.942383	-37.064491
11821.161170	2637.613333	752.742188	56.097080
11821.161170	2637.613333	751.541992	41.721615
11821.161170	2637.613333	750.341797	204.339584
11821.161170	2637.613333	749.141602	34.018059
11821.161170	2637.613333	747.941406	143.888107
11821.161170	2637.613333	746.740234	24.165155
11821.161170	2637.613333	745.539063	-15.516277
11821.161170	2637.613333	744.337891	132.145264
11821.161170	2637.613333	743.135742	60.863686
11821.161170	2637.613333	741.933594	107.424911
11821.161170	2637.613333	740.731445	36.148926
11821.161170	2637.613333	739.529297	166.794189
11821.161170	2637.613333	738.326172	45.039913
11821.161170	2637.613333	737.124023	36.844559
11821.161170	2637.613333	735.919922	58.065670
11821.161170	2637.613333	734.716797	165.418762
11821.161170	2637.613333	733.513672	279.012726
11821.161170	2637.613333	732.309570	327.426514
11821.161170	2637.613333	731.105469	384.202545
11821.161170	2637.613333	729.900391	312.857697
11821.161170	2637.613333	728.696289	356.981567
11821.161170	2637.613333	727.491211	325.512695
11821.161170	2637.613333	726.286133	352.791779
11821.161170	2637.613333	725.080078	233.186813
11821.161170	2637.613333	723.874023	27.615202
11821.161170	2637.613333	722.668945	176.509079
11821.161170	2637.613333	721.461914	109.371902
11821.161170	2637.613333	720.255859	23.374773
11821.161170	2637.613333	719.048828	-24.882845
11821.161170	2637.613333	717.841797	-85.713928
11821.161170	2637.613333	716.634766	134.168747
11821.161170	2637.613333	715.427734	-6.302568
11821.161170	2637.613333	714.219727	100.352234
11821.161170	2637.613333	713.011719	146.226990
11821.161170	2637.613333	711.803711	18.331558
11821.161170	2637.613333	710.594727	49.508312
11821.161170	2637.613333	709.385742	-57.438423
11821.161170	2637.613333	708.176758	-5.389885
11821.161170	2637.613333	706.967773	-47.498783
11821.161170	2637.613333	705.758789	155.020157
11821.161170	2637.613333	704.548828	45.950100
11821.161170	2637.613333	703.338867	-38.020245
11821.161170	2637.613333	702.127930	160.112457
11821.161170	2637.613333	700.917969	-20.001385
11821.161170	2637.613333	699.707031	119.506088
11821.161170	2637.613333	698.496094	-93.990791
11821.161170	2637.613333	697.285156	62.119930
11821.161170	2637.613333	696.073242	82.456711
11821.161170	2637.613333	694.861328	6.755792
11821.161170	2637.613333	693.649414	68.767776
11821.161170	2637.613333	692.436523	68.141830
11821.161170	2637.613333	691.224609	-51.396561
11821.161170	2637.613333	690.011719	-22.864658
11821.161170	2637.613333	688.798828	-94.445045
11821.161170	2637.613333	687.584961	86.177361
11821.161170	2637.613333	686.372070	112.484100
11821.161170	2637.613333	685.158203	28.325422
11821.161170	2637.613333	683.943359	75.399628
11821.161170	2637.613333	682.729492	168.237259
11821.161170	2637.613333	681.514648	292.235260
11821.161170	2637.613333	680.299805	166.344086
11821.161170	2637.613333	679.084961	242.353912
11821.161170	2637.613333	677.869141	312.055237
11821.161170	2637.613333	676.653320	209.021118
11821.161170	2637.613333	675.437500	222.471954
11821.161170	2637.613333	674.221680	217.166229
11821.161170	2637.613333	673.004883	49.660446
11821.161170	2637.613333	671.789063	144.096024
11821.161170	2637.613333	670.571289	117.920837
11821.161170	2637.613333	669.354492	120.808495
11821.161170	2637.613333	668.136719	188.054810
11821.161170	2637.613333	666.919922	168.007004
11821.161170	2637.613333	665.701172	-26.490858
11821.161170	2637.613333	664.483398	196.331360
11821.161170	2637.613333	663.264648	-97.793221
11821.161170	2637.613333	662.045898	189.202515
11821.161170	2637.613333	660.827148	121.267052
11821.161170	2637.613333	659.608398	82.360588
11821.161170	2637.613333	658.388672	-103.809273
11821.161170	2637.613333	657.168945	74.973656
11821.161170	2637.613333	655.949219	181.088547
11821.161170	2637.613333	654.728516	125.463631
11821.161170	2637.613333	653.507813	-8.916234
11821.161170	2637.613333	652.287109	-25.197241
11821.161170	2637.613333	651.066406	223.598938
11821.161170	2637.613333	649.844727	258.961945
11821.161170	2637.613333	648.623047	308.761566
11821.161170	2637.613333	647.401367	192.908752
11821.161170	2637.613333	646.179688	128.798889
11821.161170	2637.613333	644.957031	192.952271
11821.161170	2637.613333	643.734375	106.031326
11821.161170	2637.613333	642.511719	292.096954
11821.161170	2637.613333	641.289063	101.723763
11821.161170	2637.613333	640.065430	-55.535828
11821.161170	2637.613333	638.841797	39.378738
11821.161170	2637.613333	637.618164	161.073334
11821.161170	2637.613333	636.393555	34.761436
11821.161170	2637.613333	635.168945	115.009125
11821.161170	2637.613333	633.944336	-17.521076
11821.161170	2637.613333	632.719727	116.298218
11821.161170	2637.613333	631.494141	35.341545
11821.161170	2637.613333	630.269531	55.500298
11821.161170	2637.613333	629.042969	174.644196
11821.161170	2637.613333	627.817383	72.967934
11821.161170	2637.613333	626.590820	86.786911
11821.161170	2637.613333	625.365234	102.619789
11821.161170	2637.613333	624.137695	106.030746
11821.161170	2637.613333	622.911133	41.380943
11821.161170	2637.613333	621.683594	9.685274
11821.161170	2637.613333	620.456055	78.911690
11821.161170	2637.613333	619.228516	141.885452
11821.161170	2637.613333	618.000977	-44.394341
11821.161170	2637.613333	616.772461	-10.333688
11821.161170	2637.613333	615.543945	213.051178
11821.161170	2637.613333	614.314453	49.381058
11821.161170	2637.613333	613.085938	9.196400
11821.161170	2637.613333	611.856445	131.502365
11821.161170	2637.613333	610.626953	0.733106
11821.161170	2637.613333	609.397461	-35.433002
11821.161170	2637.613333	608.166992	-28.453859
11821.161170	2637.613333	606.936523	15.477368
11821.161170	2637.613333	605.706055	-26.962358
11821.161170	2637.613333	604.474609	-67.373093
11821.161170	2637.613333	603.244141	-27.695711
11821.161170	2637.613333	602.012695	3.706864
11821.161170	2637.613333	600.780273	74.064278
11821.161170	2637.613333	599.548828	43.764511
11821.161170	2637.613333	598.316406	17.539692
11821.161170	2637.613333	597.083984	-25.130127
11821.161170	2637.613333	595.851563	63.474106
11821.161170	2637.613333	594.618164	-194.632584
11821.161170	2637.613333	593.384766	-126.617943
11821.161170	2637.613333	592.151367	-99.675980
11821.161170	2637.613333	590.917969	15.355282
11821.161170	2637.613333	589.683594	-35.698643
11821.161170	2637.613333	588.449219	-158.480942
11821.161170	2637.613333	587.214844	-109.178703
11821.161170	2637.613333	585.979492	126.432449
11821.161170	2637.613333	584.745117	-66.036949
11821.161170	2637.613333	583.509766	89.551407
11821.161170	2637.613333	582.273438	1.476695
11821.161170	2637.613333	581.038086	-107.057579
11821.161170	2637.613333	579.801758	-172.620758
11821.161170	2637.613333	578.565430	39.982708
11821.161170	2637.613333	577.329102	107.268921
11821.161170	2637.613333	576.091797	119.287346
11821.161170	2637.613333	574.854492	55.635010
11821.161170	2637.613333	573.617188	88.028740
11821.161170	2637.613333	572.378906	277.701080
11821.161170	2637.613333	571.141602	126.118248
11821.161170	2637.613333	569.903320	101.191078
11821.161170	2637.613333	568.664063	133.414688
11821.161170	2637.613333	567.425781	192.135376
11821.161170	2637.613333	566.186523	363.055328
11821.161170	2637.613333	564.947266	274.716248
11821.161170	2637.613333	563.708008	106.819839
11821.161170	2637.613333	562.467773	120.499962
11821.161170	2637.613333	561.227539	101.518066
11821.161170	2637.613333	559.987305	200.771271
11821.161170	2637.613333	558.747070	185.803711
11821.161170	2637.613333	557.505859	121.902451
11821.161170	2637.613333	556.264648	-23.499050
11821.161170	2637.613333	555.023438	136.704865
11821.161170	2637.613333	553.781250	32.045414
11821.161170	2637.613333	552.539063	-29.830999
11821.161170	2637.613333	551.296875	-20.450527
11821.161170	2637.613333	550.054688	-94.545853
11821.161170	2637.613333	548.811523	-70.956421
11821.161170	2637.613333	547.569336	101.124275
11821.161170	2637.613333	546.325195	-7.595028
11821.161170	2637.613333	545.082031	-154.923172
11821.161170	2637.613333	543.837891	-48.059818
11821.161170	2637.613333	542.593750	-142.502426
11821.161170	2637.613333	541.349609	2.892329
11821.161170	2637.613333	540.105469	-107.808891
11821.161170	2637.613333	538.860352	-92.530556
11821.161170	2637.613333	537.615234	-63.056190
11821.161170	2637.613333	536.369141	-135.140366
11821.161170	2637.613333	535.124023	-14.339577
11821.161170	2637.613333	533.877930	-124.993301
11821.161170	2637.613333	532.631836	-18.478302
11821.161170	2637.613333	531.384766	79.862465
11821.161170	2637.613333	530.138672	115.272339
11821.161170	2637.613333	528.891602	79.676430
11821.161170	2637.613333	527.643555	-59.321007
11821.161170	2637.613333	526.396484	6.474066
11821.161170	2637.613333	525.148438	98.577545
11821.161170	2637.613333	523.900391	111.612206
11821.161170	2637.613333	522.652344	55.757957
11821.161170	2637.613333	521.403320	261.191772
11821.161170	2637.613333	520.154297	57.496868
11821.161170	2637.613333	518.905273	100.874603
11821.161170	2637.613333	517.656250	211.024384
11821.161170	2637.613333	516.406250	157.208115
11821.161170	2637.613333	515.156250	34.624672
11821.161170	2637.613333	513.906250	61.776646
11821.161170	2637.613333	512.655273	56.556263
11821.161170	2637.613333	511.404297	77.623306
11821.161170	2637.613333	510.153320	-46.862949
11821.161170	2637.613333	508.902344	20.702557
11821.161170	2637.613333	507.650391	92.278885
11821.161170	2637.613333	506.398438	-234.142731
11821.161170	2637.613333	505.146484	-55.491947
11821.161170	2637.613333	503.893555	-99.038292
11821.161170	2637.613333	502.641602	-77.956642
11821.161170	2637.613333	501.388672	31.927797
11821.161170	2637.613333	500.134766	8.580294
11821.161170	2637.613333	498.881836	-57.117512
11821.161170	2637.613333	497.627930	-153.041656
11821.161170	2637.613333	496.374023	21.315954
11821.161170	2637.613333	495.119141	-22.152262
11821.161170	2637.613333	493.865234	-53.497944
11821.161170	2637.613333	492.610352	-88.856979
11821.161170	2637.613333	491.355469	-3.298109
11821.161170	2637.613333	490.099609	94.314621
11821.161170	2637.613333	488.843750	8.612079
11821.161170	2637.613333	487.587891	43.771549
11821.161170	2637.613333	486.332031	121.200256
11821.161170	2637.613333	485.075195	65.756668
11821.161170	2637.613333	483.818359	82.787735
11821.161170	2637.613333	482.561523	87.746445
11821.161170	2637.613333	481.304688	28.342545
11821.161170	2637.613333	480.046875	5.166745
11821.161170	2637.613333	478.789063	104.653160
11821.161170	2637.613333	477.531250	23.187162
11821.161170	2637.613333	476.272461	16.118574
11821.161170	2637.613333	475.013672	-59.258831
11821.161170	2637.613333	473.754883	184.810730
11821.161170	2637.613333	472.496094	2.990206
11821.161170	2637.613333	471.236328	74.256111
11821.161170	2637.613333	469.976563	25.038651
11821.161170	2637.613333	468.716797	303.007385
11821.161170	2637.613333	467.456055	141.385193
11821.161170	2637.613333	466.196289	158.392380
11821.161170	2637.613333	464.935547	191.434464
11821.161170	2637.613333	463.673828	120.175316
11821.161170	2637.613333	462.413086	245.432632
11821.161170	2637.613333	461.151367	112.041351
11821.161170	2637.613333	459.889648	14.774742
11821.161170	2637.613333	458.626953	170.001053
11821.161170	2637.613333	457.364258	194.939651
11821.161170	2637.613333	456.101563	175.793350
11821.161170	2637.613333	454.838867	152.636017
11821.161170	2637.613333	453.575195	187.526810
11821.161170	2637.613333	452.312500	286.435089
11821.161170	2637.613333	451.047852	253.203247
11821.161170	2637.613333	449.784180	251.976563
11821.161170	2637.613333	448.519531	452.743530
11821.161170	2637.613333	447.254883	687.392578
11821.161170	2637.613333	445.990234	446.065063
11821.161170	2637.613333	444.725586	538.626831
11821.161170	2637.613333	443.459961	655.091553
11821.161170	2637.613333	442.194336	809.429138
11821.161170	2637.613333	440.927734	839.802368
11821.161170	2637.613333	439.662109	764.268555
11821.161170	2637.613333	438.395508	487.042664
11821.161170	2637.613333	437.127930	645.077942
11821.161170	2637.613333	435.861328	453.710266
11821.161170	2637.613333	434.593750	553.697388
11821.161170	2637.613333	433.326172	458.063599
11821.161170	2637.613333	432.058594	388.330475
11821.161170	2637.613333	430.790039	370.398346
11821.161170	2637.613333	429.521484	485.973724
11821.161170	2637.613333	428.252930	342.286591
11821.161170	2637.613333	426.984375	332.094635
11821.161170	2637.613333	425.714844	317.823425
11821.161170	2637.613333	424.445313	415.010101
11821.161170	2637.613333	423.174805	265.090485
11821.161170	2637.613333	421.905273	264.462738
11821.161170	2637.613333	420.634766	203.991974
11821.161170	2637.613333	419.364258	434.002319
11821.161170	2637.613333	418.092773	160.348282
11821.161170	2637.613333	416.822266	423.819000
11821.161170	2637.613333	415.550781	259.396088
11821.161170	2637.613333	414.278320	208.234024
11821.161170	2637.613333	413.006836	417.382172
11821.161170	2637.613333	411.734375	399.670258
11821.161170	2637.613333	410.461914	427.497192
11821.161170	2637.613333	409.188477	379.622620
11821.161170	2637.613333	407.916016	379.254059
11821.161170	2637.613333	406.642578	420.383667
11821.161170	2637.613333	405.368164	479.147919
11821.161170	2637.613333	404.094727	434.446320
11821.161170	2637.613333	402.820313	371.665192
11821.161170	2637.613333	401.545898	483.283051
11821.161170	2637.613333	400.270508	517.226746
11821.161170	2637.613333	398.996094	421.979950
11821.161170	2637.613333	397.720703	421.676331
11821.161170	2637.613333	396.444336	508.311371
11821.161170	2637.613333	395.168945	364.697632
11821.161170	2637.613333	393.892578	508.170074
11821.161170	2637.613333	392.616211	516.535889
11821.161170	2637.613333	391.339844	413.639862
11821.161170	2637.613333	390.062500	284.689026
11821.161170	2637.613333	388.785156	305.907684
11821.161170	2637.613333	387.507813	312.885590
11821.161170	2637.613333	386.229492	283.839050
11821.161170	2637.613333	384.951172	305.845917
11821.161170	2637.613333	383.672852	256.208282
11821.161170	2637.613333	382.394531	299.112976
11821.161170	2637.613333	381.115234	207.078552
11821.161170	2637.613333	379.835938	367.661957
11821.161170	2637.613333	378.556641	351.783661
11821.161170	2637.613333	377.277344	240.560043
11821.161170	2637.613333	375.997070	61.683075
11821.161170	2637.613333	374.716797	251.707901
11821.161170	2637.613333	373.435547	178.436066
11821.161170	2637.613333	372.155273	179.658295
11821.161170	2637.613333	370.874023	198.036072
11821.161170	2637.613333	369.591797	397.336334
11821.161170	2637.613333	368.310547	153.963272
11821.161170	2637.613333	367.028320	150.683014
11821.161170	2637.613333	365.746094	184.195740
11821.161170	2637.613333	364.463867	256.426331
11821.161170	2637.613333	363.180664	138.636063
11821.161170	2637.613333	361.897461	136.430283
11821.161170	2637.613333	360.614258	-2.509964
11821.161170	2637.613333	359.330078	200.580933
11821.161170	2637.613333	358.045898	103.378044
11821.161170	2637.613333	356.761719	162.902466
11821.161170	2637.613333	355.477539	270.743500
11821.161170	2637.613333	354.192383	15.442060
11821.161170	2637.613333	352.907227	-30.115858
11821.161170	2637.613333	351.622070	106.361290
11821.161170	2637.613333	350.336914	-21.794083
11821.161170	2637.613333	349.050781	128.322952
11821.161170	2637.613333	347.764648	29.585438
11821.161170	2637.613333	346.477539	132.257095
11821.161170	2637.613333	345.191406	41.193569
11821.161170	2637.613333	343.904297	68.855812
11821.161170	2637.613333	342.616211	-6.854395
11821.161170	2637.613333	341.329102	67.512840
11821.161170	2637.613333	340.041016	16.861141
11821.161170	2637.613333	338.752930	55.252678
11821.161170	2637.613333	337.463867	-202.140045
11821.161170	2637.613333	336.175781	-30.999348
11821.161170	2637.613333	334.886719	-43.820717
11821.161170	2637.613333	333.596680	26.233961
11821.161170	2637.613333	332.307617	-54.224770
11821.161170	2637.613333	331.017578	-22.487993
11821.161170	2637.613333	329.727539	23.355865
11821.161170	2637.613333	328.436523	-38.291214
11821.161170	2637.613333	327.146484	-85.844215
11821.161170	2637.613333	325.855469	-5.822050
11821.161170	2637.613333	324.563477	82.175423
11821.161170	2637.613333	323.272461	72.448952
11821.161170	2637.613333	321.980469	78.468018
11821.161170	2637.613333	320.688477	-117.031509
11821.161170	2637.613333	319.395508	-24.822870
11821.161170	2637.613333	318.103516	47.804188
11821.161170	2637.613333	316.810547	-173.113174
11821.161170	2637.613333	315.516602	-114.486221
11821.161170	2637.613333	314.223633	-102.937599
11821.161170	2637.613333	312.929688	-40.870407
11821.161170	2637.613333	311.635742	-141.327087
11821.161170	2637.613333	310.340820	58.725601
11821.161170	2637.613333	309.045898	14.105566
11821.161170	2637.613333	307.750977	31.522554
11821.161170	2637.613333	306.456055	-21.894886
11821.161170	2637.613333	305.160156	144.628418
11821.161170	2637.613333	303.865234	123.127266
11821.161170	2637.613333	302.568359	131.986237
11821.161170	2637.613333	301.272461	261.064514
11821.161170	2637.613333	299.975586	434.008301
11821.161170	2637.613333	298.678711	307.603516
