#X		#Y		#Wave		#Intensity
11481.028191	1430.156667	1999.980469	127.055733
11481.028191	1430.156667	1999.016602	-114.626717
11481.028191	1430.156667	1998.052734	196.632294
11481.028191	1430.156667	1997.087891	-84.553329
11481.028191	1430.156667	1996.123047	206.653671
11481.028191	1430.156667	1995.158203	113.732788
11481.028191	1430.156667	1994.193359	-21.308210
11481.028191	1430.156667	1993.228516	88.805008
11481.028191	1430.156667	1992.262695	32.949627
11481.028191	1430.156667	1991.297852	199.855240
11481.028191	1430.156667	1990.332031	49.866035
11481.028191	1430.156667	1989.366211	80.526390
11481.028191	1430.156667	1988.399414	-86.785851
11481.028191	1430.156667	1987.433594	-36.400482
11481.028191	1430.156667	1986.466797	-109.725708
11481.028191	1430.156667	1985.500977	-66.843201
11481.028191	1430.156667	1984.534180	176.232178
11481.028191	1430.156667	1983.567383	70.677620
11481.028191	1430.156667	1982.599609	-94.180206
11481.028191	1430.156667	1981.632813	17.723629
11481.028191	1430.156667	1980.665039	193.785034
11481.028191	1430.156667	1979.697266	164.757339
11481.028191	1430.156667	1978.729492	-42.082684
11481.028191	1430.156667	1977.761719	-34.069660
11481.028191	1430.156667	1976.792969	23.284851
11481.028191	1430.156667	1975.825195	1.624000
11481.028191	1430.156667	1974.856445	130.470169
11481.028191	1430.156667	1973.887695	-44.204590
11481.028191	1430.156667	1972.918945	-33.832699
11481.028191	1430.156667	1971.949219	188.610168
11481.028191	1430.156667	1970.980469	287.671509
11481.028191	1430.156667	1970.010742	63.726849
11481.028191	1430.156667	1969.041016	182.463058
11481.028191	1430.156667	1968.071289	-263.195984
11481.028191	1430.156667	1967.101563	52.647171
11481.028191	1430.156667	1966.130859	-109.549782
11481.028191	1430.156667	1965.161133	124.849449
11481.028191	1430.156667	1964.190430	204.012146
11481.028191	1430.156667	1963.219727	91.094765
11481.028191	1430.156667	1962.249023	187.451660
11481.028191	1430.156667	1961.277344	121.327461
11481.028191	1430.156667	1960.306641	-60.427738
11481.028191	1430.156667	1959.334961	-28.080448
11481.028191	1430.156667	1958.363281	114.942673
11481.028191	1430.156667	1957.391602	98.053474
11481.028191	1430.156667	1956.419922	105.756546
11481.028191	1430.156667	1955.447266	0.366669
11481.028191	1430.156667	1954.474609	175.221741
11481.028191	1430.156667	1953.501953	207.477631
11481.028191	1430.156667	1952.529297	60.357597
11481.028191	1430.156667	1951.556641	58.231342
11481.028191	1430.156667	1950.583984	-201.786331
11481.028191	1430.156667	1949.610352	51.530354
11481.028191	1430.156667	1948.636719	-26.700592
11481.028191	1430.156667	1947.663086	216.674622
11481.028191	1430.156667	1946.689453	216.987503
11481.028191	1430.156667	1945.715820	-55.073055
11481.028191	1430.156667	1944.741211	274.049713
11481.028191	1430.156667	1943.767578	36.429993
11481.028191	1430.156667	1942.792969	156.963104
11481.028191	1430.156667	1941.818359	-68.278076
11481.028191	1430.156667	1940.842773	-224.787628
11481.028191	1430.156667	1939.868164	111.442131
11481.028191	1430.156667	1938.892578	231.893356
11481.028191	1430.156667	1937.916992	-83.828926
11481.028191	1430.156667	1936.941406	-90.758667
11481.028191	1430.156667	1935.965820	22.335806
11481.028191	1430.156667	1934.990234	25.198820
11481.028191	1430.156667	1934.013672	-20.902071
11481.028191	1430.156667	1933.037109	202.292297
11481.028191	1430.156667	1932.060547	16.686388
11481.028191	1430.156667	1931.083984	92.987328
11481.028191	1430.156667	1930.107422	-94.960037
11481.028191	1430.156667	1929.129883	181.926254
11481.028191	1430.156667	1928.153320	133.450302
11481.028191	1430.156667	1927.175781	-29.925268
11481.028191	1430.156667	1926.198242	149.030228
11481.028191	1430.156667	1925.219727	129.939728
11481.028191	1430.156667	1924.242188	223.281982
11481.028191	1430.156667	1923.263672	-159.859238
11481.028191	1430.156667	1922.285156	-37.168423
11481.028191	1430.156667	1921.306641	-2.442499
11481.028191	1430.156667	1920.328125	147.050903
11481.028191	1430.156667	1919.349609	-16.018381
11481.028191	1430.156667	1918.370117	-66.731537
11481.028191	1430.156667	1917.391602	7.055972
11481.028191	1430.156667	1916.412109	44.218929
11481.028191	1430.156667	1915.431641	117.970123
11481.028191	1430.156667	1914.452148	86.815331
11481.028191	1430.156667	1913.472656	-173.567917
11481.028191	1430.156667	1912.492188	100.148346
11481.028191	1430.156667	1911.511719	-118.683517
11481.028191	1430.156667	1910.531250	108.623787
11481.028191	1430.156667	1909.550781	226.189194
11481.028191	1430.156667	1908.569336	-85.113464
11481.028191	1430.156667	1907.588867	-74.730759
11481.028191	1430.156667	1906.607422	69.611534
11481.028191	1430.156667	1905.625977	162.767624
11481.028191	1430.156667	1904.644531	24.596613
11481.028191	1430.156667	1903.662109	42.273094
11481.028191	1430.156667	1902.680664	164.602310
11481.028191	1430.156667	1901.698242	-82.978394
11481.028191	1430.156667	1900.715820	100.158524
11481.028191	1430.156667	1899.733398	54.582081
11481.028191	1430.156667	1898.750000	-78.527298
11481.028191	1430.156667	1897.767578	-7.333220
11481.028191	1430.156667	1896.784180	46.818447
11481.028191	1430.156667	1895.800781	-319.544434
11481.028191	1430.156667	1894.817383	-126.830414
11481.028191	1430.156667	1893.833984	-67.821144
11481.028191	1430.156667	1892.850586	66.474213
11481.028191	1430.156667	1891.866211	45.276081
11481.028191	1430.156667	1890.881836	-87.617233
11481.028191	1430.156667	1889.897461	29.612232
11481.028191	1430.156667	1888.913086	-163.913879
11481.028191	1430.156667	1887.927734	-41.863838
11481.028191	1430.156667	1886.943359	84.996056
11481.028191	1430.156667	1885.958008	73.518158
11481.028191	1430.156667	1884.972656	263.369843
11481.028191	1430.156667	1883.987305	130.600494
11481.028191	1430.156667	1883.001953	14.851245
11481.028191	1430.156667	1882.015625	47.020176
11481.028191	1430.156667	1881.029297	149.463150
11481.028191	1430.156667	1880.042969	-29.244137
11481.028191	1430.156667	1879.056641	-9.212520
11481.028191	1430.156667	1878.070313	54.411034
11481.028191	1430.156667	1877.083984	57.455132
11481.028191	1430.156667	1876.096680	99.234802
11481.028191	1430.156667	1875.109375	201.518982
11481.028191	1430.156667	1874.122070	114.948753
11481.028191	1430.156667	1873.134766	-10.320132
11481.028191	1430.156667	1872.146484	-26.664097
11481.028191	1430.156667	1871.159180	31.988461
11481.028191	1430.156667	1870.170898	-293.982971
11481.028191	1430.156667	1869.182617	-70.874863
11481.028191	1430.156667	1868.194336	-7.442641
11481.028191	1430.156667	1867.205078	36.613976
11481.028191	1430.156667	1866.216797	10.551224
11481.028191	1430.156667	1865.227539	40.063931
11481.028191	1430.156667	1864.238281	-150.309418
11481.028191	1430.156667	1863.249023	12.057617
11481.028191	1430.156667	1862.259766	14.947673
11481.028191	1430.156667	1861.269531	25.065250
11481.028191	1430.156667	1860.279297	78.621735
11481.028191	1430.156667	1859.290039	214.214294
11481.028191	1430.156667	1858.298828	72.198639
11481.028191	1430.156667	1857.308594	147.384949
11481.028191	1430.156667	1856.318359	77.777512
11481.028191	1430.156667	1855.327148	51.593403
11481.028191	1430.156667	1854.335938	148.389786
11481.028191	1430.156667	1853.344727	221.020615
11481.028191	1430.156667	1852.353516	156.197235
11481.028191	1430.156667	1851.362305	-166.511566
11481.028191	1430.156667	1850.370117	-26.451286
11481.028191	1430.156667	1849.377930	48.484150
11481.028191	1430.156667	1848.385742	22.199459
11481.028191	1430.156667	1847.393555	3.126708
11481.028191	1430.156667	1846.401367	210.385468
11481.028191	1430.156667	1845.408203	212.904541
11481.028191	1430.156667	1844.415039	25.243231
11481.028191	1430.156667	1843.421875	-42.042366
11481.028191	1430.156667	1842.428711	-20.301432
11481.028191	1430.156667	1841.435547	323.765289
11481.028191	1430.156667	1840.441406	13.455645
11481.028191	1430.156667	1839.448242	-37.046467
11481.028191	1430.156667	1838.454102	66.316109
11481.028191	1430.156667	1837.459961	140.765930
11481.028191	1430.156667	1836.464844	58.934727
11481.028191	1430.156667	1835.470703	123.689232
11481.028191	1430.156667	1834.475586	99.494598
11481.028191	1430.156667	1833.480469	197.783447
11481.028191	1430.156667	1832.485352	135.098236
11481.028191	1430.156667	1831.490234	314.920837
11481.028191	1430.156667	1830.495117	206.561310
11481.028191	1430.156667	1829.499023	95.808403
11481.028191	1430.156667	1828.502930	234.640808
11481.028191	1430.156667	1827.506836	30.283600
11481.028191	1430.156667	1826.510742	49.066345
11481.028191	1430.156667	1825.513672	175.732788
11481.028191	1430.156667	1824.517578	31.349564
11481.028191	1430.156667	1823.520508	136.324554
11481.028191	1430.156667	1822.523438	-29.645565
11481.028191	1430.156667	1821.526367	39.280499
11481.028191	1430.156667	1820.529297	244.724335
11481.028191	1430.156667	1819.531250	203.291809
11481.028191	1430.156667	1818.533203	-89.665962
11481.028191	1430.156667	1817.535156	-1.776408
11481.028191	1430.156667	1816.537109	382.942413
11481.028191	1430.156667	1815.539063	-3.362478
11481.028191	1430.156667	1814.540039	-47.300232
11481.028191	1430.156667	1813.541992	47.535461
11481.028191	1430.156667	1812.542969	94.441422
11481.028191	1430.156667	1811.543945	-129.020020
11481.028191	1430.156667	1810.543945	78.054558
11481.028191	1430.156667	1809.544922	131.976089
11481.028191	1430.156667	1808.544922	142.796967
11481.028191	1430.156667	1807.544922	-61.555073
11481.028191	1430.156667	1806.544922	-103.364632
11481.028191	1430.156667	1805.544922	0.549526
11481.028191	1430.156667	1804.544922	-139.290558
11481.028191	1430.156667	1803.543945	81.534927
11481.028191	1430.156667	1802.542969	-46.422050
11481.028191	1430.156667	1801.541992	95.421143
11481.028191	1430.156667	1800.541016	-68.389015
11481.028191	1430.156667	1799.539063	-46.025635
11481.028191	1430.156667	1798.538086	55.030193
11481.028191	1430.156667	1797.536133	218.028259
11481.028191	1430.156667	1796.534180	156.695648
11481.028191	1430.156667	1795.532227	-114.531464
11481.028191	1430.156667	1794.529297	-8.968980
11481.028191	1430.156667	1793.527344	79.820473
11481.028191	1430.156667	1792.524414	4.060874
11481.028191	1430.156667	1791.521484	61.730541
11481.028191	1430.156667	1790.518555	59.764702
11481.028191	1430.156667	1789.514648	17.246679
11481.028191	1430.156667	1788.511719	39.005936
11481.028191	1430.156667	1787.507813	70.225983
11481.028191	1430.156667	1786.503906	-48.608734
11481.028191	1430.156667	1785.500000	106.291542
11481.028191	1430.156667	1784.496094	123.046661
11481.028191	1430.156667	1783.491211	187.327576
11481.028191	1430.156667	1782.486328	182.540817
11481.028191	1430.156667	1781.481445	-133.888062
11481.028191	1430.156667	1780.476563	-72.132179
11481.028191	1430.156667	1779.471680	13.323863
11481.028191	1430.156667	1778.465820	-134.276917
11481.028191	1430.156667	1777.460938	-205.814850
11481.028191	1430.156667	1776.455078	55.296894
11481.028191	1430.156667	1775.449219	59.664459
11481.028191	1430.156667	1774.442383	-16.793518
11481.028191	1430.156667	1773.436523	-171.646393
11481.028191	1430.156667	1772.429688	-46.309654
11481.028191	1430.156667	1771.422852	97.916817
11481.028191	1430.156667	1770.416016	-151.983734
11481.028191	1430.156667	1769.409180	-19.769299
11481.028191	1430.156667	1768.402344	22.176199
11481.028191	1430.156667	1767.394531	18.972250
11481.028191	1430.156667	1766.386719	-126.594772
11481.028191	1430.156667	1765.378906	-118.025978
11481.028191	1430.156667	1764.371094	-140.338089
11481.028191	1430.156667	1763.362305	-10.996736
11481.028191	1430.156667	1762.354492	-45.284893
11481.028191	1430.156667	1761.345703	173.917023
11481.028191	1430.156667	1760.336914	101.581284
11481.028191	1430.156667	1759.328125	36.322075
11481.028191	1430.156667	1758.318359	84.696968
11481.028191	1430.156667	1757.308594	-32.746380
11481.028191	1430.156667	1756.299805	119.673691
11481.028191	1430.156667	1755.290039	236.470703
11481.028191	1430.156667	1754.279297	14.765575
11481.028191	1430.156667	1753.269531	-86.244164
11481.028191	1430.156667	1752.258789	18.517223
11481.028191	1430.156667	1751.249023	295.833466
11481.028191	1430.156667	1750.238281	-8.706259
11481.028191	1430.156667	1749.226563	-105.151878
11481.028191	1430.156667	1748.215820	-170.883408
11481.028191	1430.156667	1747.204102	-19.238680
11481.028191	1430.156667	1746.193359	-66.176582
11481.028191	1430.156667	1745.181641	-186.393539
11481.028191	1430.156667	1744.168945	38.205055
11481.028191	1430.156667	1743.157227	17.077665
11481.028191	1430.156667	1742.144531	-8.827904
11481.028191	1430.156667	1741.132813	-133.918198
11481.028191	1430.156667	1740.120117	21.823721
11481.028191	1430.156667	1739.106445	-20.766266
11481.028191	1430.156667	1738.093750	75.799179
11481.028191	1430.156667	1737.080078	-129.653702
11481.028191	1430.156667	1736.067383	-101.610008
11481.028191	1430.156667	1735.053711	63.111778
11481.028191	1430.156667	1734.040039	88.628098
11481.028191	1430.156667	1733.025391	-128.693054
11481.028191	1430.156667	1732.011719	-16.075577
11481.028191	1430.156667	1730.997070	87.010300
11481.028191	1430.156667	1729.982422	124.043556
11481.028191	1430.156667	1728.967773	238.723587
11481.028191	1430.156667	1727.952148	35.416233
11481.028191	1430.156667	1726.937500	168.789749
11481.028191	1430.156667	1725.921875	7.826532
11481.028191	1430.156667	1724.906250	-61.351528
11481.028191	1430.156667	1723.890625	22.376867
11481.028191	1430.156667	1722.875000	103.664291
11481.028191	1430.156667	1721.858398	114.298187
11481.028191	1430.156667	1720.841797	-9.164774
11481.028191	1430.156667	1719.825195	-26.837618
11481.028191	1430.156667	1718.808594	-35.156612
11481.028191	1430.156667	1717.791992	26.977139
11481.028191	1430.156667	1716.774414	-143.598343
11481.028191	1430.156667	1715.756836	40.577229
11481.028191	1430.156667	1714.739258	-45.487072
11481.028191	1430.156667	1713.721680	86.826248
11481.028191	1430.156667	1712.704102	19.461821
11481.028191	1430.156667	1711.685547	29.527983
11481.028191	1430.156667	1710.667969	30.156626
11481.028191	1430.156667	1709.649414	-79.564842
11481.028191	1430.156667	1708.630859	45.314499
11481.028191	1430.156667	1707.611328	43.419422
11481.028191	1430.156667	1706.592773	-3.078711
11481.028191	1430.156667	1705.573242	302.097595
11481.028191	1430.156667	1704.553711	-32.895432
11481.028191	1430.156667	1703.534180	-67.794739
11481.028191	1430.156667	1702.513672	28.491062
11481.028191	1430.156667	1701.494141	197.330124
11481.028191	1430.156667	1700.473633	19.352062
11481.028191	1430.156667	1699.453125	164.599106
11481.028191	1430.156667	1698.432617	267.591187
11481.028191	1430.156667	1697.412109	-76.669319
11481.028191	1430.156667	1696.390625	255.613846
11481.028191	1430.156667	1695.369141	267.104187
11481.028191	1430.156667	1694.347656	170.910568
11481.028191	1430.156667	1693.326172	65.347862
11481.028191	1430.156667	1692.304688	50.997597
11481.028191	1430.156667	1691.282227	148.844330
11481.028191	1430.156667	1690.260742	136.728882
11481.028191	1430.156667	1689.238281	110.537872
11481.028191	1430.156667	1688.214844	308.666199
11481.028191	1430.156667	1687.192383	209.925629
11481.028191	1430.156667	1686.168945	213.963333
11481.028191	1430.156667	1685.146484	318.402771
11481.028191	1430.156667	1684.123047	193.887009
11481.028191	1430.156667	1683.099609	15.674893
11481.028191	1430.156667	1682.075195	234.332718
11481.028191	1430.156667	1681.051758	417.864166
11481.028191	1430.156667	1680.027344	283.913025
11481.028191	1430.156667	1679.002930	380.948273
11481.028191	1430.156667	1677.978516	505.897186
11481.028191	1430.156667	1676.953125	278.589630
11481.028191	1430.156667	1675.928711	128.286484
11481.028191	1430.156667	1674.903320	164.495514
11481.028191	1430.156667	1673.877930	163.359680
11481.028191	1430.156667	1672.852539	353.278015
11481.028191	1430.156667	1671.826172	470.848785
11481.028191	1430.156667	1670.800781	287.842987
11481.028191	1430.156667	1669.774414	179.391174
11481.028191	1430.156667	1668.748047	289.833740
11481.028191	1430.156667	1667.721680	556.184021
11481.028191	1430.156667	1666.694336	284.691498
11481.028191	1430.156667	1665.667969	669.561096
11481.028191	1430.156667	1664.640625	439.967102
11481.028191	1430.156667	1663.613281	459.347687
11481.028191	1430.156667	1662.585938	560.095093
11481.028191	1430.156667	1661.557617	577.046692
11481.028191	1430.156667	1660.530273	640.471130
11481.028191	1430.156667	1659.501953	599.226990
11481.028191	1430.156667	1658.473633	678.821960
11481.028191	1430.156667	1657.444336	879.177307
11481.028191	1430.156667	1656.416016	937.723022
11481.028191	1430.156667	1655.386719	882.392761
11481.028191	1430.156667	1654.358398	1210.247437
11481.028191	1430.156667	1653.328125	911.029785
11481.028191	1430.156667	1652.298828	1173.691772
11481.028191	1430.156667	1651.269531	930.259277
11481.028191	1430.156667	1650.239258	900.373901
11481.028191	1430.156667	1649.208984	926.158020
11481.028191	1430.156667	1648.178711	654.999939
11481.028191	1430.156667	1647.148438	650.628052
11481.028191	1430.156667	1646.117188	718.105896
11481.028191	1430.156667	1645.086914	961.735107
11481.028191	1430.156667	1644.055664	894.653992
11481.028191	1430.156667	1643.024414	811.357910
11481.028191	1430.156667	1641.992188	1017.680115
11481.028191	1430.156667	1640.960938	832.432007
11481.028191	1430.156667	1639.928711	929.783081
11481.028191	1430.156667	1638.896484	934.457336
11481.028191	1430.156667	1637.864258	658.985779
11481.028191	1430.156667	1636.832031	744.693359
11481.028191	1430.156667	1635.798828	830.343933
11481.028191	1430.156667	1634.766602	964.547852
11481.028191	1430.156667	1633.733398	1133.376953
11481.028191	1430.156667	1632.699219	1036.138428
11481.028191	1430.156667	1631.666016	1214.114868
11481.028191	1430.156667	1630.632813	955.049438
11481.028191	1430.156667	1629.598633	1262.388550
11481.028191	1430.156667	1628.564453	1079.651245
11481.028191	1430.156667	1627.530273	1165.010132
11481.028191	1430.156667	1626.495117	1042.402832
11481.028191	1430.156667	1625.460938	993.758240
11481.028191	1430.156667	1624.425781	1312.291626
11481.028191	1430.156667	1623.390625	1210.489868
11481.028191	1430.156667	1622.355469	1611.951294
11481.028191	1430.156667	1621.319336	1313.938721
11481.028191	1430.156667	1620.284180	1382.940796
11481.028191	1430.156667	1619.248047	1195.822998
11481.028191	1430.156667	1618.211914	1317.860352
11481.028191	1430.156667	1617.174805	1439.839111
11481.028191	1430.156667	1616.138672	1335.824829
11481.028191	1430.156667	1615.101563	1344.798462
11481.028191	1430.156667	1614.065430	1492.068848
11481.028191	1430.156667	1613.027344	1413.439453
11481.028191	1430.156667	1611.990234	1473.088867
11481.028191	1430.156667	1610.953125	1551.148071
11481.028191	1430.156667	1609.915039	1532.445557
11481.028191	1430.156667	1608.876953	1605.859375
11481.028191	1430.156667	1607.838867	1462.854614
11481.028191	1430.156667	1606.800781	1605.318481
11481.028191	1430.156667	1605.761719	1692.496582
11481.028191	1430.156667	1604.723633	1489.766724
11481.028191	1430.156667	1603.684570	1519.446045
11481.028191	1430.156667	1602.644531	1696.306885
11481.028191	1430.156667	1601.605469	1806.437988
11481.028191	1430.156667	1600.566406	1484.335938
11481.028191	1430.156667	1599.526367	1799.049561
11481.028191	1430.156667	1598.486328	1899.936035
11481.028191	1430.156667	1597.446289	1635.478394
11481.028191	1430.156667	1596.405273	1623.818604
11481.028191	1430.156667	1595.365234	1596.113770
11481.028191	1430.156667	1594.324219	1657.982910
11481.028191	1430.156667	1593.283203	1754.283813
11481.028191	1430.156667	1592.242188	1639.393188
11481.028191	1430.156667	1591.200195	1556.686768
11481.028191	1430.156667	1590.159180	1572.706665
11481.028191	1430.156667	1589.117188	1503.853882
11481.028191	1430.156667	1588.075195	1652.941772
11481.028191	1430.156667	1587.032227	1531.395874
11481.028191	1430.156667	1585.990234	1558.956665
11481.028191	1430.156667	1584.947266	1377.929321
11481.028191	1430.156667	1583.904297	1611.812988
11481.028191	1430.156667	1582.861328	1657.743042
11481.028191	1430.156667	1581.818359	1208.851318
11481.028191	1430.156667	1580.775391	1518.299561
11481.028191	1430.156667	1579.731445	1713.148560
11481.028191	1430.156667	1578.687500	1633.206421
11481.028191	1430.156667	1577.643555	1605.976074
11481.028191	1430.156667	1576.598633	1143.937988
11481.028191	1430.156667	1575.554688	1279.342651
11481.028191	1430.156667	1574.509766	1389.553589
11481.028191	1430.156667	1573.464844	1456.296997
11481.028191	1430.156667	1572.419922	1303.513916
11481.028191	1430.156667	1571.374023	1189.686279
11481.028191	1430.156667	1570.329102	1416.557251
11481.028191	1430.156667	1569.283203	1268.545410
11481.028191	1430.156667	1568.237305	1346.851318
11481.028191	1430.156667	1567.191406	1089.329224
11481.028191	1430.156667	1566.144531	994.115479
11481.028191	1430.156667	1565.098633	1207.290649
11481.028191	1430.156667	1564.051758	1397.583374
11481.028191	1430.156667	1563.004883	1135.847290
11481.028191	1430.156667	1561.957031	1175.521484
11481.028191	1430.156667	1560.910156	1028.117065
11481.028191	1430.156667	1559.862305	1389.574707
11481.028191	1430.156667	1558.814453	1109.970581
11481.028191	1430.156667	1557.766602	800.875916
11481.028191	1430.156667	1556.718750	952.536560
11481.028191	1430.156667	1555.669922	894.446411
11481.028191	1430.156667	1554.621094	866.060486
11481.028191	1430.156667	1553.573242	940.289429
11481.028191	1430.156667	1552.523438	1128.440186
11481.028191	1430.156667	1551.474609	979.450623
11481.028191	1430.156667	1550.424805	885.223206
11481.028191	1430.156667	1549.375000	1137.188232
11481.028191	1430.156667	1548.325195	938.354187
11481.028191	1430.156667	1547.275391	1005.956238
11481.028191	1430.156667	1546.225586	982.562439
11481.028191	1430.156667	1545.174805	918.272827
11481.028191	1430.156667	1544.124023	799.472412
11481.028191	1430.156667	1543.073242	810.412781
11481.028191	1430.156667	1542.022461	853.241272
11481.028191	1430.156667	1540.970703	668.765015
11481.028191	1430.156667	1539.919922	745.820007
11481.028191	1430.156667	1538.868164	686.547424
11481.028191	1430.156667	1537.815430	500.118042
11481.028191	1430.156667	1536.763672	672.747375
11481.028191	1430.156667	1535.710938	516.046570
11481.028191	1430.156667	1534.659180	770.478027
11481.028191	1430.156667	1533.606445	641.192200
11481.028191	1430.156667	1532.552734	682.252441
11481.028191	1430.156667	1531.500000	632.595398
11481.028191	1430.156667	1530.446289	705.539734
11481.028191	1430.156667	1529.393555	587.979858
11481.028191	1430.156667	1528.338867	520.417114
11481.028191	1430.156667	1527.285156	473.365082
11481.028191	1430.156667	1526.231445	614.573975
11481.028191	1430.156667	1525.176758	486.057068
11481.028191	1430.156667	1524.122070	267.012482
11481.028191	1430.156667	1523.067383	437.841217
11481.028191	1430.156667	1522.012695	354.958038
11481.028191	1430.156667	1520.957031	224.612671
11481.028191	1430.156667	1519.901367	418.208099
11481.028191	1430.156667	1518.845703	469.170685
11481.028191	1430.156667	1517.790039	366.266693
11481.028191	1430.156667	1516.734375	358.530884
11481.028191	1430.156667	1515.677734	108.765144
11481.028191	1430.156667	1514.621094	320.665009
11481.028191	1430.156667	1513.564453	80.208588
11481.028191	1430.156667	1512.507813	156.509735
11481.028191	1430.156667	1511.450195	341.374542
11481.028191	1430.156667	1510.393555	433.575439
11481.028191	1430.156667	1509.335938	442.196716
11481.028191	1430.156667	1508.278320	369.553558
11481.028191	1430.156667	1507.219727	-57.658054
11481.028191	1430.156667	1506.162109	192.973328
11481.028191	1430.156667	1505.103516	360.031647
11481.028191	1430.156667	1504.044922	190.705704
11481.028191	1430.156667	1502.986328	138.910126
11481.028191	1430.156667	1501.926758	179.744614
11481.028191	1430.156667	1500.868164	195.834564
11481.028191	1430.156667	1499.808594	45.058685
11481.028191	1430.156667	1498.749023	25.247923
11481.028191	1430.156667	1497.688477	-12.512335
11481.028191	1430.156667	1496.628906	87.364540
11481.028191	1430.156667	1495.568359	90.357483
11481.028191	1430.156667	1494.507813	52.872303
11481.028191	1430.156667	1493.447266	132.659454
11481.028191	1430.156667	1492.386719	117.887337
11481.028191	1430.156667	1491.325195	37.888893
11481.028191	1430.156667	1490.263672	-224.390411
11481.028191	1430.156667	1489.202148	-180.276337
11481.028191	1430.156667	1488.140625	-185.610229
11481.028191	1430.156667	1487.079102	-15.305766
11481.028191	1430.156667	1486.016602	-135.244461
11481.028191	1430.156667	1484.954102	-102.064316
11481.028191	1430.156667	1483.891602	-199.259079
11481.028191	1430.156667	1482.829102	-19.719986
11481.028191	1430.156667	1481.765625	-80.728607
11481.028191	1430.156667	1480.702148	-65.188957
11481.028191	1430.156667	1479.638672	-99.004974
11481.028191	1430.156667	1478.575195	-103.492706
11481.028191	1430.156667	1477.511719	-332.493622
11481.028191	1430.156667	1476.447266	-94.236137
11481.028191	1430.156667	1475.382813	197.910400
11481.028191	1430.156667	1474.318359	59.167973
11481.028191	1430.156667	1473.253906	-52.551956
11481.028191	1430.156667	1472.189453	-18.303768
11481.028191	1430.156667	1471.124023	179.731400
11481.028191	1430.156667	1470.058594	81.852638
11481.028191	1430.156667	1468.993164	107.272156
11481.028191	1430.156667	1467.927734	0.807604
11481.028191	1430.156667	1466.861328	254.987183
11481.028191	1430.156667	1465.794922	29.966015
11481.028191	1430.156667	1464.728516	37.893784
11481.028191	1430.156667	1463.662109	135.394745
11481.028191	1430.156667	1462.594727	117.064835
11481.028191	1430.156667	1461.528320	315.353607
11481.028191	1430.156667	1460.460938	263.274048
11481.028191	1430.156667	1459.393555	260.206299
11481.028191	1430.156667	1458.326172	63.842876
11481.028191	1430.156667	1457.257813	52.357338
11481.028191	1430.156667	1456.189453	63.452717
11481.028191	1430.156667	1455.121094	257.505157
11481.028191	1430.156667	1454.052734	241.966034
11481.028191	1430.156667	1452.984375	262.163574
11481.028191	1430.156667	1451.915039	290.899719
11481.028191	1430.156667	1450.845703	303.646484
11481.028191	1430.156667	1449.776367	568.349304
11481.028191	1430.156667	1448.707031	305.298401
11481.028191	1430.156667	1447.636719	468.976624
11481.028191	1430.156667	1446.567383	855.478210
11481.028191	1430.156667	1445.497070	640.194702
11481.028191	1430.156667	1444.425781	723.818909
11481.028191	1430.156667	1443.355469	715.422852
11481.028191	1430.156667	1442.285156	892.404724
11481.028191	1430.156667	1441.213867	802.210815
11481.028191	1430.156667	1440.142578	973.122681
11481.028191	1430.156667	1439.070313	610.910034
11481.028191	1430.156667	1437.999023	751.713318
11481.028191	1430.156667	1436.926758	752.666809
11481.028191	1430.156667	1435.854492	869.533081
11481.028191	1430.156667	1434.782227	597.425354
11481.028191	1430.156667	1433.709961	569.941406
11481.028191	1430.156667	1432.636719	629.611206
11481.028191	1430.156667	1431.563477	186.049484
11481.028191	1430.156667	1430.490234	415.884094
11481.028191	1430.156667	1429.416992	432.154114
11481.028191	1430.156667	1428.343750	328.380981
11481.028191	1430.156667	1427.269531	276.554199
11481.028191	1430.156667	1426.195313	243.414856
11481.028191	1430.156667	1425.121094	126.531235
11481.028191	1430.156667	1424.046875	-21.111372
11481.028191	1430.156667	1422.971680	227.792313
11481.028191	1430.156667	1421.896484	29.564993
11481.028191	1430.156667	1420.821289	159.478043
11481.028191	1430.156667	1419.746094	139.879044
11481.028191	1430.156667	1418.669922	261.807007
11481.028191	1430.156667	1417.594727	281.154327
11481.028191	1430.156667	1416.518555	293.849884
11481.028191	1430.156667	1415.442383	213.536011
11481.028191	1430.156667	1414.365234	192.949371
11481.028191	1430.156667	1413.289063	287.704224
11481.028191	1430.156667	1412.211914	61.684223
11481.028191	1430.156667	1411.134766	283.133881
11481.028191	1430.156667	1410.057617	-30.490934
11481.028191	1430.156667	1408.979492	296.771484
11481.028191	1430.156667	1407.902344	321.309753
11481.028191	1430.156667	1406.824219	182.525131
11481.028191	1430.156667	1405.746094	218.188858
11481.028191	1430.156667	1404.666992	528.885071
11481.028191	1430.156667	1403.588867	59.956738
11481.028191	1430.156667	1402.509766	323.683655
11481.028191	1430.156667	1401.430664	457.860199
11481.028191	1430.156667	1400.351563	378.072998
11481.028191	1430.156667	1399.271484	506.157593
11481.028191	1430.156667	1398.192383	618.732300
11481.028191	1430.156667	1397.112305	488.016327
11481.028191	1430.156667	1396.031250	524.165955
11481.028191	1430.156667	1394.951172	723.067444
11481.028191	1430.156667	1393.871094	661.397278
11481.028191	1430.156667	1392.790039	795.010071
11481.028191	1430.156667	1391.708984	663.122986
11481.028191	1430.156667	1390.626953	912.573364
11481.028191	1430.156667	1389.545898	832.243408
11481.028191	1430.156667	1388.463867	797.342163
11481.028191	1430.156667	1387.381836	551.516113
11481.028191	1430.156667	1386.299805	546.614502
11481.028191	1430.156667	1385.217773	577.444580
11481.028191	1430.156667	1384.134766	502.793335
11481.028191	1430.156667	1383.051758	542.112488
11481.028191	1430.156667	1381.968750	328.561829
11481.028191	1430.156667	1380.885742	254.381165
11481.028191	1430.156667	1379.802734	339.421661
11481.028191	1430.156667	1378.718750	250.170914
11481.028191	1430.156667	1377.634766	411.362366
11481.028191	1430.156667	1376.550781	426.335449
11481.028191	1430.156667	1375.465820	12.007640
11481.028191	1430.156667	1374.381836	182.233215
11481.028191	1430.156667	1373.296875	344.019501
11481.028191	1430.156667	1372.211914	239.757690
11481.028191	1430.156667	1371.126953	169.358490
11481.028191	1430.156667	1370.041016	257.036621
11481.028191	1430.156667	1368.955078	415.678162
11481.028191	1430.156667	1367.869141	208.651718
11481.028191	1430.156667	1366.783203	235.059387
11481.028191	1430.156667	1365.697266	286.932861
11481.028191	1430.156667	1364.610352	172.255890
11481.028191	1430.156667	1363.523438	526.683533
11481.028191	1430.156667	1362.436523	299.570770
11481.028191	1430.156667	1361.349609	506.085022
11481.028191	1430.156667	1360.261719	496.992523
11481.028191	1430.156667	1359.174805	317.779846
11481.028191	1430.156667	1358.086914	385.293457
11481.028191	1430.156667	1356.998047	335.822205
11481.028191	1430.156667	1355.910156	399.925262
11481.028191	1430.156667	1354.821289	523.813904
11481.028191	1430.156667	1353.732422	517.381775
11481.028191	1430.156667	1352.643555	535.217041
11481.028191	1430.156667	1351.554688	349.751801
11481.028191	1430.156667	1350.464844	294.528351
11481.028191	1430.156667	1349.375000	454.556061
11481.028191	1430.156667	1348.285156	329.017975
11481.028191	1430.156667	1347.195313	583.990601
11481.028191	1430.156667	1346.105469	603.155029
11481.028191	1430.156667	1345.014648	755.714905
11481.028191	1430.156667	1343.923828	545.196899
11481.028191	1430.156667	1342.833008	706.911865
11481.028191	1430.156667	1341.741211	746.688843
11481.028191	1430.156667	1340.650391	947.947021
11481.028191	1430.156667	1339.558594	531.417419
11481.028191	1430.156667	1338.466797	663.598816
11481.028191	1430.156667	1337.374023	476.960144
11481.028191	1430.156667	1336.282227	428.824341
11481.028191	1430.156667	1335.189453	758.775452
11481.028191	1430.156667	1334.096680	606.948730
11481.028191	1430.156667	1333.003906	443.995789
11481.028191	1430.156667	1331.910156	486.383911
11481.028191	1430.156667	1330.817383	563.046692
11481.028191	1430.156667	1329.723633	560.180176
11481.028191	1430.156667	1328.629883	578.436707
11481.028191	1430.156667	1327.535156	262.108093
11481.028191	1430.156667	1326.441406	222.191803
11481.028191	1430.156667	1325.346680	279.315979
11481.028191	1430.156667	1324.251953	331.142578
11481.028191	1430.156667	1323.156250	425.710602
11481.028191	1430.156667	1322.061523	264.881256
11481.028191	1430.156667	1320.965820	316.397461
11481.028191	1430.156667	1319.870117	436.847626
11481.028191	1430.156667	1318.774414	296.699768
11481.028191	1430.156667	1317.678711	443.653259
11481.028191	1430.156667	1316.582031	262.857910
11481.028191	1430.156667	1315.485352	537.441833
11481.028191	1430.156667	1314.388672	249.349640
11481.028191	1430.156667	1313.291016	506.399139
11481.028191	1430.156667	1312.194336	439.206238
11481.028191	1430.156667	1311.096680	397.888977
11481.028191	1430.156667	1309.999023	287.675781
11481.028191	1430.156667	1308.901367	391.701599
11481.028191	1430.156667	1307.802734	467.035522
11481.028191	1430.156667	1306.705078	289.529205
11481.028191	1430.156667	1305.606445	287.821747
11481.028191	1430.156667	1304.506836	223.566742
11481.028191	1430.156667	1303.408203	464.132172
11481.028191	1430.156667	1302.308594	298.382935
11481.028191	1430.156667	1301.208984	398.443481
11481.028191	1430.156667	1300.109375	241.390182
11481.028191	1430.156667	1299.009766	344.713379
11481.028191	1430.156667	1297.909180	102.276604
11481.028191	1430.156667	1296.808594	206.570267
11481.028191	1430.156667	1295.708008	311.559387
11481.028191	1430.156667	1294.607422	298.786072
11481.028191	1430.156667	1293.506836	287.604980
11481.028191	1430.156667	1292.405273	227.319244
11481.028191	1430.156667	1291.303711	78.771622
11481.028191	1430.156667	1290.202148	-27.828779
11481.028191	1430.156667	1289.099609	143.633804
11481.028191	1430.156667	1287.998047	36.107986
11481.028191	1430.156667	1286.895508	41.108395
11481.028191	1430.156667	1285.792969	9.424798
11481.028191	1430.156667	1284.689453	122.924095
11481.028191	1430.156667	1283.586914	44.396351
11481.028191	1430.156667	1282.483398	133.798889
11481.028191	1430.156667	1281.379883	124.246521
11481.028191	1430.156667	1280.276367	294.808685
11481.028191	1430.156667	1279.171875	39.911068
11481.028191	1430.156667	1278.067383	4.958363
11481.028191	1430.156667	1276.962891	118.145035
11481.028191	1430.156667	1275.858398	-105.376472
11481.028191	1430.156667	1274.753906	97.632248
11481.028191	1430.156667	1273.648438	11.894865
11481.028191	1430.156667	1272.542969	60.380367
11481.028191	1430.156667	1271.437500	86.067383
11481.028191	1430.156667	1270.331055	122.211899
11481.028191	1430.156667	1269.225586	-70.116661
11481.028191	1430.156667	1268.119141	-5.365378
11481.028191	1430.156667	1267.012695	108.333015
11481.028191	1430.156667	1265.906250	277.837006
11481.028191	1430.156667	1264.798828	274.280670
11481.028191	1430.156667	1263.691406	99.161072
11481.028191	1430.156667	1262.583984	196.912857
11481.028191	1430.156667	1261.476563	225.550812
11481.028191	1430.156667	1260.368164	165.481506
11481.028191	1430.156667	1259.260742	100.984863
11481.028191	1430.156667	1258.152344	66.460907
11481.028191	1430.156667	1257.043945	21.573555
11481.028191	1430.156667	1255.934570	67.743164
11481.028191	1430.156667	1254.825195	-144.196472
11481.028191	1430.156667	1253.716797	5.935037
11481.028191	1430.156667	1252.606445	-34.268322
11481.028191	1430.156667	1251.497070	-88.327080
11481.028191	1430.156667	1250.387695	40.394985
11481.028191	1430.156667	1249.277344	-186.387741
11481.028191	1430.156667	1248.166992	-166.497803
11481.028191	1430.156667	1247.055664	-117.547928
11481.028191	1430.156667	1245.945313	-257.992035
11481.028191	1430.156667	1244.833984	-48.757790
11481.028191	1430.156667	1243.722656	-91.157074
11481.028191	1430.156667	1242.611328	-129.665359
11481.028191	1430.156667	1241.499023	-62.308395
11481.028191	1430.156667	1240.387695	-82.946457
11481.028191	1430.156667	1239.275391	-24.527605
11481.028191	1430.156667	1238.162109	-125.884720
11481.028191	1430.156667	1237.049805	-48.515812
11481.028191	1430.156667	1235.936523	-104.239029
11481.028191	1430.156667	1234.823242	-100.935631
11481.028191	1430.156667	1233.709961	-74.280319
11481.028191	1430.156667	1232.596680	-101.630379
11481.028191	1430.156667	1231.482422	-63.193127
11481.028191	1430.156667	1230.369141	-130.981277
11481.028191	1430.156667	1229.253906	-169.632660
11481.028191	1430.156667	1228.139648	-79.365623
11481.028191	1430.156667	1227.025391	-10.147249
11481.028191	1430.156667	1225.910156	-123.590103
11481.028191	1430.156667	1224.794922	-152.685837
11481.028191	1430.156667	1223.679688	149.037384
11481.028191	1430.156667	1222.563477	47.790226
11481.028191	1430.156667	1221.447266	-125.831055
11481.028191	1430.156667	1220.331055	31.193228
11481.028191	1430.156667	1219.214844	146.047791
11481.028191	1430.156667	1218.098633	94.275772
11481.028191	1430.156667	1216.981445	31.098564
11481.028191	1430.156667	1215.864258	79.594879
11481.028191	1430.156667	1214.747070	-20.125729
11481.028191	1430.156667	1213.629883	92.294319
11481.028191	1430.156667	1212.511719	269.793213
11481.028191	1430.156667	1211.393555	209.303207
11481.028191	1430.156667	1210.275391	234.200485
11481.028191	1430.156667	1209.157227	211.336761
11481.028191	1430.156667	1208.038086	205.120911
11481.028191	1430.156667	1206.918945	275.043854
11481.028191	1430.156667	1205.799805	93.190720
11481.028191	1430.156667	1204.680664	216.332245
11481.028191	1430.156667	1203.560547	304.852814
11481.028191	1430.156667	1202.441406	161.512543
11481.028191	1430.156667	1201.321289	103.922821
11481.028191	1430.156667	1200.200195	57.653114
11481.028191	1430.156667	1199.080078	151.483215
11481.028191	1430.156667	1197.958984	-39.941441
11481.028191	1430.156667	1196.837891	73.051880
11481.028191	1430.156667	1195.716797	131.436050
11481.028191	1430.156667	1194.594727	68.184250
11481.028191	1430.156667	1193.473633	164.798126
11481.028191	1430.156667	1192.351563	95.219826
11481.028191	1430.156667	1191.229492	-3.766473
11481.028191	1430.156667	1190.106445	42.395317
11481.028191	1430.156667	1188.984375	46.456081
11481.028191	1430.156667	1187.861328	-93.888290
11481.028191	1430.156667	1186.738281	134.470703
11481.028191	1430.156667	1185.614258	-19.746859
11481.028191	1430.156667	1184.491211	200.969879
11481.028191	1430.156667	1183.367188	60.899651
11481.028191	1430.156667	1182.243164	113.782906
11481.028191	1430.156667	1181.119141	34.156078
11481.028191	1430.156667	1179.994141	101.100456
11481.028191	1430.156667	1178.869141	59.022625
11481.028191	1430.156667	1177.744141	-29.849575
11481.028191	1430.156667	1176.619141	50.952938
11481.028191	1430.156667	1175.493164	-1.027707
11481.028191	1430.156667	1174.368164	-28.517393
11481.028191	1430.156667	1173.242188	37.866627
11481.028191	1430.156667	1172.115234	29.040617
11481.028191	1430.156667	1170.989258	42.326752
11481.028191	1430.156667	1169.862305	89.120300
11481.028191	1430.156667	1168.735352	34.201202
11481.028191	1430.156667	1167.608398	-22.659660
11481.028191	1430.156667	1166.481445	18.236326
11481.028191	1430.156667	1165.353516	-126.585548
11481.028191	1430.156667	1164.225586	-88.174286
11481.028191	1430.156667	1163.097656	85.734192
11481.028191	1430.156667	1161.968750	-54.822239
11481.028191	1430.156667	1160.840820	89.558380
11481.028191	1430.156667	1159.711914	-65.814209
11481.028191	1430.156667	1158.583008	-203.252472
11481.028191	1430.156667	1157.453125	-175.018448
11481.028191	1430.156667	1156.324219	-38.516502
11481.028191	1430.156667	1155.194336	-216.332672
11481.028191	1430.156667	1154.064453	-17.981400
11481.028191	1430.156667	1152.933594	114.168709
11481.028191	1430.156667	1151.803711	-56.853752
11481.028191	1430.156667	1150.672852	12.697885
11481.028191	1430.156667	1149.541992	-118.730667
11481.028191	1430.156667	1148.411133	-42.927975
11481.028191	1430.156667	1147.279297	163.968597
11481.028191	1430.156667	1146.147461	-7.025724
11481.028191	1430.156667	1145.015625	-158.475891
11481.028191	1430.156667	1143.883789	55.867661
11481.028191	1430.156667	1142.750977	-124.987076
11481.028191	1430.156667	1141.619141	-72.123940
11481.028191	1430.156667	1140.486328	114.900291
11481.028191	1430.156667	1139.352539	-74.278244
11481.028191	1430.156667	1138.219727	-63.510670
11481.028191	1430.156667	1137.085938	-76.112816
11481.028191	1430.156667	1135.952148	-1.193033
11481.028191	1430.156667	1134.818359	191.244370
11481.028191	1430.156667	1133.683594	-162.003860
11481.028191	1430.156667	1132.549805	62.423584
11481.028191	1430.156667	1131.415039	31.661615
11481.028191	1430.156667	1130.279297	-54.185799
11481.028191	1430.156667	1129.144531	226.559357
11481.028191	1430.156667	1128.008789	112.034645
11481.028191	1430.156667	1126.873047	250.544266
11481.028191	1430.156667	1125.737305	163.470688
11481.028191	1430.156667	1124.601563	227.346786
11481.028191	1430.156667	1123.464844	149.564651
11481.028191	1430.156667	1122.328125	293.108368
11481.028191	1430.156667	1121.191406	228.416153
11481.028191	1430.156667	1120.054688	130.343124
11481.028191	1430.156667	1118.916992	172.935516
11481.028191	1430.156667	1117.779297	241.266556
11481.028191	1430.156667	1116.641602	345.962891
11481.028191	1430.156667	1115.503906	283.667816
11481.028191	1430.156667	1114.365234	164.547485
11481.028191	1430.156667	1113.226563	276.280823
11481.028191	1430.156667	1112.087891	500.027740
11481.028191	1430.156667	1110.949219	392.872955
11481.028191	1430.156667	1109.809570	509.834015
11481.028191	1430.156667	1108.669922	625.760925
11481.028191	1430.156667	1107.530273	613.898682
11481.028191	1430.156667	1106.390625	861.972595
11481.028191	1430.156667	1105.250000	760.272522
11481.028191	1430.156667	1104.109375	733.965149
11481.028191	1430.156667	1102.968750	729.925293
11481.028191	1430.156667	1101.828125	794.491638
11481.028191	1430.156667	1100.686523	613.380615
11481.028191	1430.156667	1099.544922	581.866577
11481.028191	1430.156667	1098.403320	816.417114
11481.028191	1430.156667	1097.261719	800.017517
11481.028191	1430.156667	1096.120117	806.145142
11481.028191	1430.156667	1094.977539	673.752441
11481.028191	1430.156667	1093.834961	685.091736
11481.028191	1430.156667	1092.691406	653.181763
11481.028191	1430.156667	1091.548828	887.839966
11481.028191	1430.156667	1090.405273	624.254517
11481.028191	1430.156667	1089.261719	584.661255
11481.028191	1430.156667	1088.118164	644.856995
11481.028191	1430.156667	1086.973633	537.539917
11481.028191	1430.156667	1085.829102	512.384644
11481.028191	1430.156667	1084.684570	358.371521
11481.028191	1430.156667	1083.540039	515.369751
11481.028191	1430.156667	1082.395508	672.842102
11481.028191	1430.156667	1081.250000	428.536377
11481.028191	1430.156667	1080.104492	450.154846
11481.028191	1430.156667	1078.958984	576.927979
11481.028191	1430.156667	1077.812500	604.496887
11481.028191	1430.156667	1076.666016	467.232086
11481.028191	1430.156667	1075.519531	656.684265
11481.028191	1430.156667	1074.373047	656.166016
11481.028191	1430.156667	1073.226563	555.199829
11481.028191	1430.156667	1072.079102	587.098450
11481.028191	1430.156667	1070.931641	563.102783
11481.028191	1430.156667	1069.784180	386.538086
11481.028191	1430.156667	1068.635742	261.965088
11481.028191	1430.156667	1067.487305	285.915802
11481.028191	1430.156667	1066.338867	49.436207
11481.028191	1430.156667	1065.190430	158.073273
11481.028191	1430.156667	1064.041992	328.117126
11481.028191	1430.156667	1062.892578	220.713196
11481.028191	1430.156667	1061.743164	297.869476
11481.028191	1430.156667	1060.593750	328.458130
11481.028191	1430.156667	1059.443359	296.176208
11481.028191	1430.156667	1058.292969	320.519165
11481.028191	1430.156667	1057.142578	458.001801
11481.028191	1430.156667	1055.992188	329.273651
11481.028191	1430.156667	1054.841797	340.566315
11481.028191	1430.156667	1053.690430	416.572723
11481.028191	1430.156667	1052.539063	386.857941
11481.028191	1430.156667	1051.387695	177.699524
11481.028191	1430.156667	1050.235352	214.114456
11481.028191	1430.156667	1049.083984	203.662949
11481.028191	1430.156667	1047.931641	335.164948
11481.028191	1430.156667	1046.778320	299.834320
11481.028191	1430.156667	1045.625977	21.525631
11481.028191	1430.156667	1044.472656	54.575073
11481.028191	1430.156667	1043.319336	25.877335
11481.028191	1430.156667	1042.166016	19.239286
11481.028191	1430.156667	1041.012695	239.308624
11481.028191	1430.156667	1039.858398	159.329453
11481.028191	1430.156667	1038.704102	6.260206
11481.028191	1430.156667	1037.549805	218.726120
11481.028191	1430.156667	1036.394531	92.882301
11481.028191	1430.156667	1035.239258	21.652199
11481.028191	1430.156667	1034.083984	125.648376
11481.028191	1430.156667	1032.928711	10.570330
11481.028191	1430.156667	1031.773438	297.462280
11481.028191	1430.156667	1030.617188	-13.973968
11481.028191	1430.156667	1029.460938	319.751678
11481.028191	1430.156667	1028.304688	93.011581
11481.028191	1430.156667	1027.147461	173.546463
11481.028191	1430.156667	1025.991211	84.883621
11481.028191	1430.156667	1024.833984	281.917175
11481.028191	1430.156667	1023.675781	193.779160
11481.028191	1430.156667	1022.518555	54.857517
11481.028191	1430.156667	1021.360352	9.968969
11481.028191	1430.156667	1020.202148	129.631439
11481.028191	1430.156667	1019.043945	136.669479
11481.028191	1430.156667	1017.884766	82.378128
11481.028191	1430.156667	1016.726563	44.088272
11481.028191	1430.156667	1015.567383	27.151297
11481.028191	1430.156667	1014.407227	-54.153267
11481.028191	1430.156667	1013.248047	136.028214
11481.028191	1430.156667	1012.087891	51.373043
11481.028191	1430.156667	1010.927734	131.954254
11481.028191	1430.156667	1009.767578	183.236115
11481.028191	1430.156667	1008.606445	105.808235
11481.028191	1430.156667	1007.446289	213.338226
11481.028191	1430.156667	1006.285156	234.521500
11481.028191	1430.156667	1005.123047	357.963806
11481.028191	1430.156667	1003.961914	333.568390
11481.028191	1430.156667	1002.799805	553.164185
11481.028191	1430.156667	1001.637695	452.678162
11481.028191	1430.156667	1000.475586	491.490631
11481.028191	1430.156667	999.312500	332.435028
11481.028191	1430.156667	998.149414	249.804672
11481.028191	1430.156667	996.986328	218.869537
11481.028191	1430.156667	995.823242	247.545105
11481.028191	1430.156667	994.659180	36.876591
11481.028191	1430.156667	993.496094	89.186012
11481.028191	1430.156667	992.332031	350.919739
11481.028191	1430.156667	991.166992	204.056641
11481.028191	1430.156667	990.002930	106.905304
11481.028191	1430.156667	988.837891	139.029083
11481.028191	1430.156667	987.672852	84.445320
11481.028191	1430.156667	986.506836	-74.570557
11481.028191	1430.156667	985.341797	101.000351
11481.028191	1430.156667	984.175781	-69.836548
11481.028191	1430.156667	983.009766	100.579834
11481.028191	1430.156667	981.843750	124.579079
11481.028191	1430.156667	980.676758	-74.835060
11481.028191	1430.156667	979.509766	18.608009
11481.028191	1430.156667	978.342773	-18.136148
11481.028191	1430.156667	977.175781	324.204437
11481.028191	1430.156667	976.007813	192.294540
11481.028191	1430.156667	974.839844	359.627533
11481.028191	1430.156667	973.671875	282.504730
11481.028191	1430.156667	972.503906	133.653168
11481.028191	1430.156667	971.334961	12.179856
11481.028191	1430.156667	970.166016	187.677963
11481.028191	1430.156667	968.997070	26.498562
11481.028191	1430.156667	967.828125	78.777924
11481.028191	1430.156667	966.658203	184.661011
11481.028191	1430.156667	965.488281	165.690323
11481.028191	1430.156667	964.318359	114.999207
11481.028191	1430.156667	963.148438	146.705353
11481.028191	1430.156667	961.977539	-15.628420
11481.028191	1430.156667	960.806641	-135.768066
11481.028191	1430.156667	959.635742	23.530111
11481.028191	1430.156667	958.463867	271.504608
11481.028191	1430.156667	957.292969	-36.546631
11481.028191	1430.156667	956.121094	-63.464512
11481.028191	1430.156667	954.948242	-77.776924
11481.028191	1430.156667	953.776367	46.243938
11481.028191	1430.156667	952.603516	-160.909027
11481.028191	1430.156667	951.430664	17.777786
11481.028191	1430.156667	950.257813	177.253128
11481.028191	1430.156667	949.084961	-99.165108
11481.028191	1430.156667	947.911133	119.961555
11481.028191	1430.156667	946.737305	51.430004
11481.028191	1430.156667	945.563477	244.088425
11481.028191	1430.156667	944.388672	146.353699
11481.028191	1430.156667	943.213867	153.039429
11481.028191	1430.156667	942.039063	10.866806
11481.028191	1430.156667	940.864258	-2.289617
11481.028191	1430.156667	939.688477	-2.043313
11481.028191	1430.156667	938.513672	54.450378
11481.028191	1430.156667	937.337891	-23.674685
11481.028191	1430.156667	936.161133	-144.135834
11481.028191	1430.156667	934.985352	153.482025
11481.028191	1430.156667	933.808594	8.364380
11481.028191	1430.156667	932.631836	129.399216
11481.028191	1430.156667	931.454102	256.887939
11481.028191	1430.156667	930.277344	125.147179
11481.028191	1430.156667	929.099609	169.906204
11481.028191	1430.156667	927.921875	167.845032
11481.028191	1430.156667	926.743164	9.358781
11481.028191	1430.156667	925.565430	176.915558
11481.028191	1430.156667	924.386719	94.337250
11481.028191	1430.156667	923.208008	-81.962646
11481.028191	1430.156667	922.028320	-70.752197
11481.028191	1430.156667	920.849609	201.516922
11481.028191	1430.156667	919.669922	203.835388
11481.028191	1430.156667	919.474609	271.028137
11481.028191	1430.156667	918.309570	-166.240479
11481.028191	1430.156667	917.143555	27.752579
11481.028191	1430.156667	915.977539	-74.884773
11481.028191	1430.156667	914.810547	-208.702972
11481.028191	1430.156667	913.644531	-244.423080
11481.028191	1430.156667	912.477539	45.177811
11481.028191	1430.156667	911.310547	-32.935925
11481.028191	1430.156667	910.143555	33.742996
11481.028191	1430.156667	908.975586	-91.128929
11481.028191	1430.156667	907.807617	-46.757175
11481.028191	1430.156667	906.639648	-111.488998
11481.028191	1430.156667	905.471680	-156.178467
11481.028191	1430.156667	904.303711	-169.710907
11481.028191	1430.156667	903.134766	39.209751
11481.028191	1430.156667	901.965820	23.395638
11481.028191	1430.156667	900.796875	25.365702
11481.028191	1430.156667	899.626953	-63.828156
11481.028191	1430.156667	898.457031	-137.437271
11481.028191	1430.156667	897.287109	137.879547
11481.028191	1430.156667	896.117188	39.798477
11481.028191	1430.156667	894.947266	-60.474068
11481.028191	1430.156667	893.776367	-5.245630
11481.028191	1430.156667	892.605469	14.421928
11481.028191	1430.156667	891.434570	229.440094
11481.028191	1430.156667	890.262695	47.051098
11481.028191	1430.156667	889.091797	48.918003
11481.028191	1430.156667	887.919922	-46.845222
11481.028191	1430.156667	886.748047	41.538437
11481.028191	1430.156667	885.575195	136.533813
11481.028191	1430.156667	884.403320	218.178024
11481.028191	1430.156667	883.230469	151.250977
11481.028191	1430.156667	882.057617	33.367588
11481.028191	1430.156667	880.883789	4.167439
11481.028191	1430.156667	879.710938	-0.657054
11481.028191	1430.156667	878.537109	-266.863159
11481.028191	1430.156667	877.362305	-54.604889
11481.028191	1430.156667	876.188477	-207.777740
11481.028191	1430.156667	875.013672	-117.381180
11481.028191	1430.156667	873.839844	216.431488
11481.028191	1430.156667	872.664063	-62.843548
11481.028191	1430.156667	871.489258	-204.843567
11481.028191	1430.156667	870.313477	126.562752
11481.028191	1430.156667	869.138672	61.976986
11481.028191	1430.156667	867.962891	-219.262543
11481.028191	1430.156667	866.786133	19.091457
11481.028191	1430.156667	865.610352	29.703072
11481.028191	1430.156667	864.433594	24.843195
11481.028191	1430.156667	863.256836	-24.202417
11481.028191	1430.156667	862.079102	54.879498
11481.028191	1430.156667	860.902344	-20.655186
11481.028191	1430.156667	859.724609	38.520046
11481.028191	1430.156667	858.546875	-87.752434
11481.028191	1430.156667	857.368164	13.342561
11481.028191	1430.156667	856.190430	290.910492
11481.028191	1430.156667	855.011719	484.536591
11481.028191	1430.156667	853.833008	325.190216
11481.028191	1430.156667	852.654297	287.189819
11481.028191	1430.156667	851.474609	176.452103
11481.028191	1430.156667	850.294922	109.842834
11481.028191	1430.156667	849.115234	-183.725784
11481.028191	1430.156667	847.935547	-109.222382
11481.028191	1430.156667	846.754883	73.191566
11481.028191	1430.156667	845.575195	37.491577
11481.028191	1430.156667	844.393555	94.290749
11481.028191	1430.156667	843.212891	3.564016
11481.028191	1430.156667	842.032227	-133.346207
11481.028191	1430.156667	840.850586	18.078270
11481.028191	1430.156667	839.668945	88.035164
11481.028191	1430.156667	838.486328	-42.206371
11481.028191	1430.156667	837.304688	36.532238
11481.028191	1430.156667	836.122070	-124.428528
11481.028191	1430.156667	834.939453	70.807259
11481.028191	1430.156667	833.756836	15.405606
11481.028191	1430.156667	832.573242	263.272339
11481.028191	1430.156667	831.389648	207.854141
11481.028191	1430.156667	830.206055	148.067001
11481.028191	1430.156667	829.022461	253.008514
11481.028191	1430.156667	827.838867	-131.714890
11481.028191	1430.156667	826.654297	52.269341
11481.028191	1430.156667	825.469727	-9.631207
11481.028191	1430.156667	824.284180	-80.280304
11481.028191	1430.156667	823.099609	48.732944
11481.028191	1430.156667	821.914063	293.942780
11481.028191	1430.156667	820.728516	337.302643
11481.028191	1430.156667	819.542969	16.699125
11481.028191	1430.156667	818.356445	220.115112
11481.028191	1430.156667	817.169922	252.505951
11481.028191	1430.156667	815.983398	92.065865
11481.028191	1430.156667	814.796875	49.986084
11481.028191	1430.156667	813.609375	27.635197
11481.028191	1430.156667	812.422852	-10.036918
11481.028191	1430.156667	811.235352	-146.211929
11481.028191	1430.156667	810.046875	-78.769890
11481.028191	1430.156667	808.859375	-105.459198
11481.028191	1430.156667	807.670898	-68.688110
11481.028191	1430.156667	806.482422	-3.497429
11481.028191	1430.156667	805.293945	120.713211
11481.028191	1430.156667	804.104492	-13.143753
11481.028191	1430.156667	802.915039	43.243385
11481.028191	1430.156667	801.725586	49.333374
11481.028191	1430.156667	800.536133	-60.399433
11481.028191	1430.156667	799.345703	35.279613
11481.028191	1430.156667	798.155273	-28.540453
11481.028191	1430.156667	796.964844	23.405716
11481.028191	1430.156667	795.774414	9.823889
11481.028191	1430.156667	794.583008	111.940849
11481.028191	1430.156667	793.392578	35.043346
11481.028191	1430.156667	792.200195	224.385529
11481.028191	1430.156667	791.008789	16.591524
11481.028191	1430.156667	789.816406	-184.578232
11481.028191	1430.156667	788.625000	-36.762764
11481.028191	1430.156667	787.432617	12.876464
11481.028191	1430.156667	786.239258	-218.703888
11481.028191	1430.156667	785.046875	-343.410431
11481.028191	1430.156667	783.853516	4.746691
11481.028191	1430.156667	782.660156	-109.077141
11481.028191	1430.156667	781.465820	53.743153
11481.028191	1430.156667	780.272461	-7.800585
11481.028191	1430.156667	779.078125	-27.962730
11481.028191	1430.156667	777.883789	-4.594737
11481.028191	1430.156667	776.688477	103.625671
11481.028191	1430.156667	775.494141	227.019485
11481.028191	1430.156667	774.298828	239.413269
11481.028191	1430.156667	773.103516	-202.746582
11481.028191	1430.156667	771.907227	-81.573372
11481.028191	1430.156667	770.711914	-25.682627
11481.028191	1430.156667	769.515625	-67.631653
11481.028191	1430.156667	768.318359	1.247018
11481.028191	1430.156667	767.122070	-64.616173
11481.028191	1430.156667	765.924805	147.563187
11481.028191	1430.156667	764.727539	168.534225
11481.028191	1430.156667	763.530273	137.371658
11481.028191	1430.156667	762.333008	153.962692
11481.028191	1430.156667	761.134766	79.379349
11481.028191	1430.156667	759.936523	117.641312
11481.028191	1430.156667	758.738281	25.706079
11481.028191	1430.156667	757.540039	137.670776
11481.028191	1430.156667	756.340820	84.766541
11481.028191	1430.156667	755.141602	-70.032814
11481.028191	1430.156667	753.942383	124.193069
11481.028191	1430.156667	752.742188	82.102020
11481.028191	1430.156667	751.541992	157.007736
11481.028191	1430.156667	750.341797	62.894012
11481.028191	1430.156667	749.141602	170.215378
11481.028191	1430.156667	747.941406	43.613838
11481.028191	1430.156667	746.740234	371.667023
11481.028191	1430.156667	745.539063	201.740448
11481.028191	1430.156667	744.337891	191.995636
11481.028191	1430.156667	743.135742	322.858795
11481.028191	1430.156667	741.933594	187.583145
11481.028191	1430.156667	740.731445	205.883911
11481.028191	1430.156667	739.529297	70.636505
11481.028191	1430.156667	738.326172	155.913467
11481.028191	1430.156667	737.124023	269.222107
11481.028191	1430.156667	735.919922	278.736389
11481.028191	1430.156667	734.716797	413.518433
11481.028191	1430.156667	733.513672	213.426910
11481.028191	1430.156667	732.309570	393.453217
11481.028191	1430.156667	731.105469	193.388840
11481.028191	1430.156667	729.900391	174.693863
11481.028191	1430.156667	728.696289	130.076111
11481.028191	1430.156667	727.491211	100.548141
11481.028191	1430.156667	726.286133	38.640789
11481.028191	1430.156667	725.080078	308.863831
11481.028191	1430.156667	723.874023	201.586029
11481.028191	1430.156667	722.668945	10.238832
11481.028191	1430.156667	721.461914	60.339901
11481.028191	1430.156667	720.255859	50.043129
11481.028191	1430.156667	719.048828	145.284485
11481.028191	1430.156667	717.841797	-43.888405
11481.028191	1430.156667	716.634766	87.864662
11481.028191	1430.156667	715.427734	-84.070251
11481.028191	1430.156667	714.219727	30.333920
11481.028191	1430.156667	713.011719	99.451111
11481.028191	1430.156667	711.803711	0.657635
11481.028191	1430.156667	710.594727	132.056625
11481.028191	1430.156667	709.385742	59.022110
11481.028191	1430.156667	708.176758	97.797607
11481.028191	1430.156667	706.967773	82.761375
11481.028191	1430.156667	705.758789	-31.192688
11481.028191	1430.156667	704.548828	16.036427
11481.028191	1430.156667	703.338867	97.576843
11481.028191	1430.156667	702.127930	-1.411908
11481.028191	1430.156667	700.917969	299.070496
11481.028191	1430.156667	699.707031	17.464762
11481.028191	1430.156667	698.496094	77.274216
11481.028191	1430.156667	697.285156	18.957207
11481.028191	1430.156667	696.073242	196.665268
11481.028191	1430.156667	694.861328	157.554169
11481.028191	1430.156667	693.649414	-6.004646
11481.028191	1430.156667	692.436523	291.536743
11481.028191	1430.156667	691.224609	-43.617569
11481.028191	1430.156667	690.011719	-20.692484
11481.028191	1430.156667	688.798828	169.341019
11481.028191	1430.156667	687.584961	322.809998
11481.028191	1430.156667	686.372070	240.504868
11481.028191	1430.156667	685.158203	186.020676
11481.028191	1430.156667	683.943359	127.219040
11481.028191	1430.156667	682.729492	496.579132
11481.028191	1430.156667	681.514648	304.908691
11481.028191	1430.156667	680.299805	391.467499
11481.028191	1430.156667	679.084961	296.063690
11481.028191	1430.156667	677.869141	254.118652
11481.028191	1430.156667	676.653320	312.649261
11481.028191	1430.156667	675.437500	492.975311
11481.028191	1430.156667	674.221680	213.532837
11481.028191	1430.156667	673.004883	269.710876
11481.028191	1430.156667	671.789063	163.397736
11481.028191	1430.156667	670.571289	249.346451
11481.028191	1430.156667	669.354492	196.353790
11481.028191	1430.156667	668.136719	305.621063
11481.028191	1430.156667	666.919922	305.887543
11481.028191	1430.156667	665.701172	402.145966
11481.028191	1430.156667	664.483398	301.950562
11481.028191	1430.156667	663.264648	233.736664
11481.028191	1430.156667	662.045898	195.349915
11481.028191	1430.156667	660.827148	380.863159
11481.028191	1430.156667	659.608398	523.581665
11481.028191	1430.156667	658.388672	342.111755
11481.028191	1430.156667	657.168945	424.957581
11481.028191	1430.156667	655.949219	345.737946
11481.028191	1430.156667	654.728516	479.541473
11481.028191	1430.156667	653.507813	523.751343
11481.028191	1430.156667	652.287109	491.203278
11481.028191	1430.156667	651.066406	596.999390
11481.028191	1430.156667	649.844727	634.556396
11481.028191	1430.156667	648.623047	565.607300
11481.028191	1430.156667	647.401367	468.952698
11481.028191	1430.156667	646.179688	604.160645
11481.028191	1430.156667	644.957031	647.774536
11481.028191	1430.156667	643.734375	453.122528
11481.028191	1430.156667	642.511719	575.270752
11481.028191	1430.156667	641.289063	531.492493
11481.028191	1430.156667	640.065430	453.654144
11481.028191	1430.156667	638.841797	433.142792
11481.028191	1430.156667	637.618164	552.770752
11481.028191	1430.156667	636.393555	644.661133
11481.028191	1430.156667	635.168945	630.268616
11481.028191	1430.156667	633.944336	615.806946
11481.028191	1430.156667	632.719727	306.246735
11481.028191	1430.156667	631.494141	406.299805
11481.028191	1430.156667	630.269531	453.197540
11481.028191	1430.156667	629.042969	336.664337
11481.028191	1430.156667	627.817383	425.818512
11481.028191	1430.156667	626.590820	487.293549
11481.028191	1430.156667	625.365234	421.481506
11481.028191	1430.156667	624.137695	330.183289
11481.028191	1430.156667	622.911133	444.387146
11481.028191	1430.156667	621.683594	465.251556
11481.028191	1430.156667	620.456055	492.386353
11481.028191	1430.156667	619.228516	292.854126
11481.028191	1430.156667	618.000977	222.476334
11481.028191	1430.156667	616.772461	111.832489
11481.028191	1430.156667	615.543945	231.829590
11481.028191	1430.156667	614.314453	262.835205
11481.028191	1430.156667	613.085938	272.603973
11481.028191	1430.156667	611.856445	421.871826
11481.028191	1430.156667	610.626953	317.270630
11481.028191	1430.156667	609.397461	5.470588
11481.028191	1430.156667	608.166992	107.977745
11481.028191	1430.156667	606.936523	37.094162
11481.028191	1430.156667	605.706055	183.769379
11481.028191	1430.156667	604.474609	26.150934
11481.028191	1430.156667	603.244141	96.597099
11481.028191	1430.156667	602.012695	71.930931
11481.028191	1430.156667	600.780273	76.749344
11481.028191	1430.156667	599.548828	30.850449
11481.028191	1430.156667	598.316406	278.175201
11481.028191	1430.156667	597.083984	128.742065
11481.028191	1430.156667	595.851563	293.547638
11481.028191	1430.156667	594.618164	95.532173
11481.028191	1430.156667	593.384766	104.129410
11481.028191	1430.156667	592.151367	167.453186
11481.028191	1430.156667	590.917969	76.854652
11481.028191	1430.156667	589.683594	262.210480
11481.028191	1430.156667	588.449219	-30.719137
11481.028191	1430.156667	587.214844	99.694374
11481.028191	1430.156667	585.979492	177.345169
11481.028191	1430.156667	584.745117	50.717396
11481.028191	1430.156667	583.509766	62.974674
11481.028191	1430.156667	582.273438	-53.192970
11481.028191	1430.156667	581.038086	192.458755
11481.028191	1430.156667	579.801758	198.173294
11481.028191	1430.156667	578.565430	302.651855
11481.028191	1430.156667	577.329102	196.795624
11481.028191	1430.156667	576.091797	204.417496
11481.028191	1430.156667	574.854492	321.251068
11481.028191	1430.156667	573.617188	301.413452
11481.028191	1430.156667	572.378906	189.097321
11481.028191	1430.156667	571.141602	-70.225586
11481.028191	1430.156667	569.903320	220.598755
11481.028191	1430.156667	568.664063	76.710823
11481.028191	1430.156667	567.425781	159.497711
11481.028191	1430.156667	566.186523	208.617142
11481.028191	1430.156667	564.947266	203.119659
11481.028191	1430.156667	563.708008	-110.740791
11481.028191	1430.156667	562.467773	-120.468948
11481.028191	1430.156667	561.227539	22.800344
11481.028191	1430.156667	559.987305	36.005650
11481.028191	1430.156667	558.747070	-110.105850
11481.028191	1430.156667	557.505859	-25.743063
11481.028191	1430.156667	556.264648	-203.296478
11481.028191	1430.156667	555.023438	-35.268890
11481.028191	1430.156667	553.781250	-18.115322
11481.028191	1430.156667	552.539063	-88.931213
11481.028191	1430.156667	551.296875	-122.086487
11481.028191	1430.156667	550.054688	97.920067
11481.028191	1430.156667	548.811523	-129.900848
11481.028191	1430.156667	547.569336	-4.182295
11481.028191	1430.156667	546.325195	-167.138718
11481.028191	1430.156667	545.082031	52.536655
11481.028191	1430.156667	543.837891	-156.415329
11481.028191	1430.156667	542.593750	-68.563393
11481.028191	1430.156667	541.349609	29.665979
11481.028191	1430.156667	540.105469	35.912758
11481.028191	1430.156667	538.860352	-137.481369
11481.028191	1430.156667	537.615234	-70.711998
11481.028191	1430.156667	536.369141	125.422920
11481.028191	1430.156667	535.124023	-60.479687
11481.028191	1430.156667	533.877930	1.976079
11481.028191	1430.156667	532.631836	187.468765
11481.028191	1430.156667	531.384766	185.137833
11481.028191	1430.156667	530.138672	-180.045578
11481.028191	1430.156667	528.891602	1.132658
11481.028191	1430.156667	527.643555	-161.716766
11481.028191	1430.156667	526.396484	-97.354118
11481.028191	1430.156667	525.148438	-20.538944
11481.028191	1430.156667	523.900391	27.067562
11481.028191	1430.156667	522.652344	-356.457092
11481.028191	1430.156667	521.403320	-123.514526
11481.028191	1430.156667	520.154297	-84.280563
11481.028191	1430.156667	518.905273	19.448263
11481.028191	1430.156667	517.656250	100.236732
11481.028191	1430.156667	516.406250	-97.789429
11481.028191	1430.156667	515.156250	-31.584415
11481.028191	1430.156667	513.906250	47.065952
11481.028191	1430.156667	512.655273	-140.440170
11481.028191	1430.156667	511.404297	4.707640
11481.028191	1430.156667	510.153320	93.684456
11481.028191	1430.156667	508.902344	-160.193069
11481.028191	1430.156667	507.650391	7.715376
11481.028191	1430.156667	506.398438	-121.424408
11481.028191	1430.156667	505.146484	-26.256752
11481.028191	1430.156667	503.893555	-57.758583
11481.028191	1430.156667	502.641602	2.086933
11481.028191	1430.156667	501.388672	-33.540462
11481.028191	1430.156667	500.134766	-33.879910
11481.028191	1430.156667	498.881836	73.652672
11481.028191	1430.156667	497.627930	102.345398
11481.028191	1430.156667	496.374023	-130.186981
11481.028191	1430.156667	495.119141	153.511124
11481.028191	1430.156667	493.865234	-49.888580
11481.028191	1430.156667	492.610352	192.264313
11481.028191	1430.156667	491.355469	53.184937
11481.028191	1430.156667	490.099609	-67.182938
11481.028191	1430.156667	488.843750	-222.679962
11481.028191	1430.156667	487.587891	21.439693
11481.028191	1430.156667	486.332031	-13.929788
11481.028191	1430.156667	485.075195	118.336906
11481.028191	1430.156667	483.818359	130.580490
11481.028191	1430.156667	482.561523	136.634460
11481.028191	1430.156667	481.304688	-215.032974
11481.028191	1430.156667	480.046875	181.876190
11481.028191	1430.156667	478.789063	97.030502
11481.028191	1430.156667	477.531250	80.440926
11481.028191	1430.156667	476.272461	3.959061
11481.028191	1430.156667	475.013672	121.704346
11481.028191	1430.156667	473.754883	237.357468
11481.028191	1430.156667	472.496094	121.731880
11481.028191	1430.156667	471.236328	140.354736
11481.028191	1430.156667	469.976563	-26.755524
11481.028191	1430.156667	468.716797	-72.028854
11481.028191	1430.156667	467.456055	0.323423
11481.028191	1430.156667	466.196289	118.048920
11481.028191	1430.156667	464.935547	202.746704
11481.028191	1430.156667	463.673828	101.875160
11481.028191	1430.156667	462.413086	-89.618317
11481.028191	1430.156667	461.151367	242.413986
11481.028191	1430.156667	459.889648	166.382187
11481.028191	1430.156667	458.626953	67.736519
11481.028191	1430.156667	457.364258	107.129982
11481.028191	1430.156667	456.101563	82.694092
11481.028191	1430.156667	454.838867	-96.106758
11481.028191	1430.156667	453.575195	62.701660
11481.028191	1430.156667	452.312500	207.053833
11481.028191	1430.156667	451.047852	221.737610
11481.028191	1430.156667	449.784180	265.223114
11481.028191	1430.156667	448.519531	-42.939587
11481.028191	1430.156667	447.254883	72.541054
11481.028191	1430.156667	445.990234	212.635300
11481.028191	1430.156667	444.725586	188.270325
11481.028191	1430.156667	443.459961	293.340149
11481.028191	1430.156667	442.194336	164.191299
11481.028191	1430.156667	440.927734	408.843475
11481.028191	1430.156667	439.662109	129.818420
11481.028191	1430.156667	438.395508	234.753845
11481.028191	1430.156667	437.127930	290.362000
11481.028191	1430.156667	435.861328	329.511841
11481.028191	1430.156667	434.593750	231.166580
11481.028191	1430.156667	433.326172	387.150085
11481.028191	1430.156667	432.058594	409.746155
11481.028191	1430.156667	430.790039	292.879059
11481.028191	1430.156667	429.521484	135.023422
11481.028191	1430.156667	428.252930	368.580627
11481.028191	1430.156667	426.984375	245.497620
11481.028191	1430.156667	425.714844	337.472107
11481.028191	1430.156667	424.445313	392.477966
11481.028191	1430.156667	423.174805	320.440796
11481.028191	1430.156667	421.905273	397.790436
11481.028191	1430.156667	420.634766	348.129456
11481.028191	1430.156667	419.364258	415.023743
11481.028191	1430.156667	418.092773	449.052887
11481.028191	1430.156667	416.822266	276.402069
11481.028191	1430.156667	415.550781	271.375366
11481.028191	1430.156667	414.278320	266.222687
11481.028191	1430.156667	413.006836	207.807602
11481.028191	1430.156667	411.734375	339.311646
11481.028191	1430.156667	410.461914	239.754425
11481.028191	1430.156667	409.188477	195.226471
11481.028191	1430.156667	407.916016	358.852692
11481.028191	1430.156667	406.642578	383.393646
11481.028191	1430.156667	405.368164	475.091003
11481.028191	1430.156667	404.094727	329.833221
11481.028191	1430.156667	402.820313	227.271530
11481.028191	1430.156667	401.545898	326.485535
11481.028191	1430.156667	400.270508	203.120987
11481.028191	1430.156667	398.996094	132.592545
11481.028191	1430.156667	397.720703	237.150223
11481.028191	1430.156667	396.444336	41.786995
11481.028191	1430.156667	395.168945	227.282700
11481.028191	1430.156667	393.892578	155.709244
11481.028191	1430.156667	392.616211	100.155533
11481.028191	1430.156667	391.339844	135.942642
11481.028191	1430.156667	390.062500	6.464371
11481.028191	1430.156667	388.785156	96.521942
11481.028191	1430.156667	387.507813	15.235888
11481.028191	1430.156667	386.229492	183.846497
11481.028191	1430.156667	384.951172	103.825302
11481.028191	1430.156667	383.672852	112.906685
11481.028191	1430.156667	382.394531	241.514023
11481.028191	1430.156667	381.115234	272.031921
11481.028191	1430.156667	379.835938	176.063919
11481.028191	1430.156667	378.556641	315.352264
11481.028191	1430.156667	377.277344	397.194305
11481.028191	1430.156667	375.997070	-53.665661
11481.028191	1430.156667	374.716797	96.176056
11481.028191	1430.156667	373.435547	277.854370
11481.028191	1430.156667	372.155273	83.384140
11481.028191	1430.156667	370.874023	-0.017027
11481.028191	1430.156667	369.591797	342.018677
11481.028191	1430.156667	368.310547	164.000305
11481.028191	1430.156667	367.028320	109.065598
11481.028191	1430.156667	365.746094	14.924884
11481.028191	1430.156667	364.463867	112.664673
11481.028191	1430.156667	363.180664	223.771378
11481.028191	1430.156667	361.897461	-67.136879
11481.028191	1430.156667	360.614258	82.878990
11481.028191	1430.156667	359.330078	112.477295
11481.028191	1430.156667	358.045898	-16.745596
11481.028191	1430.156667	356.761719	-23.322416
11481.028191	1430.156667	355.477539	155.379410
11481.028191	1430.156667	354.192383	15.329040
11481.028191	1430.156667	352.907227	-178.253418
11481.028191	1430.156667	351.622070	-103.764946
11481.028191	1430.156667	350.336914	-8.122794
11481.028191	1430.156667	349.050781	114.666245
11481.028191	1430.156667	347.764648	28.078062
11481.028191	1430.156667	346.477539	-122.310593
11481.028191	1430.156667	345.191406	-182.885574
11481.028191	1430.156667	343.904297	-46.740341
11481.028191	1430.156667	342.616211	-57.369240
11481.028191	1430.156667	341.329102	25.620268
11481.028191	1430.156667	340.041016	296.941803
11481.028191	1430.156667	338.752930	-111.377769
11481.028191	1430.156667	337.463867	-103.309883
11481.028191	1430.156667	336.175781	-70.467148
11481.028191	1430.156667	334.886719	-111.809235
11481.028191	1430.156667	333.596680	-100.298462
11481.028191	1430.156667	332.307617	12.445779
11481.028191	1430.156667	331.017578	-82.153595
11481.028191	1430.156667	329.727539	-150.212326
11481.028191	1430.156667	328.436523	-58.869648
11481.028191	1430.156667	327.146484	-108.320961
11481.028191	1430.156667	325.855469	-6.607085
11481.028191	1430.156667	324.563477	56.857388
11481.028191	1430.156667	323.272461	-103.054390
11481.028191	1430.156667	321.980469	34.894920
11481.028191	1430.156667	320.688477	-115.013138
11481.028191	1430.156667	319.395508	157.407837
11481.028191	1430.156667	318.103516	41.417557
11481.028191	1430.156667	316.810547	69.951012
11481.028191	1430.156667	315.516602	-0.400722
11481.028191	1430.156667	314.223633	-161.476944
11481.028191	1430.156667	312.929688	167.324875
11481.028191	1430.156667	311.635742	-2.748968
11481.028191	1430.156667	310.340820	348.844635
11481.028191	1430.156667	309.045898	195.609741
11481.028191	1430.156667	307.750977	9.613341
11481.028191	1430.156667	306.456055	256.487488
11481.028191	1430.156667	305.160156	377.912048
11481.028191	1430.156667	303.865234	376.048737
11481.028191	1430.156667	302.568359	629.794128
11481.028191	1430.156667	301.272461	439.219757
11481.028191	1430.156667	299.975586	562.287598
11481.028191	1430.156667	298.678711	533.723877
