#X		#Y		#Wave		#Intensity
11943.768617	1415.466667	1999.980469	46.741592
11943.768617	1415.466667	1999.016602	-67.042603
11943.768617	1415.466667	1998.052734	-13.264806
11943.768617	1415.466667	1997.087891	-93.436539
11943.768617	1415.466667	1996.123047	69.122231
11943.768617	1415.466667	1995.158203	70.494576
11943.768617	1415.466667	1994.193359	-32.261887
11943.768617	1415.466667	1993.228516	-23.649151
11943.768617	1415.466667	1992.262695	76.468903
11943.768617	1415.466667	1991.297852	5.651117
11943.768617	1415.466667	1990.332031	-70.182411
11943.768617	1415.466667	1989.366211	61.775185
11943.768617	1415.466667	1988.399414	-78.542679
11943.768617	1415.466667	1987.433594	-85.325165
11943.768617	1415.466667	1986.466797	-27.887964
11943.768617	1415.466667	1985.500977	49.226997
11943.768617	1415.466667	1984.534180	99.041473
11943.768617	1415.466667	1983.567383	114.157021
11943.768617	1415.466667	1982.599609	-36.378979
11943.768617	1415.466667	1981.632813	30.496466
11943.768617	1415.466667	1980.665039	-4.005247
11943.768617	1415.466667	1979.697266	10.835242
11943.768617	1415.466667	1978.729492	25.604555
11943.768617	1415.466667	1977.761719	-9.074110
11943.768617	1415.466667	1976.792969	104.308838
11943.768617	1415.466667	1975.825195	76.911186
11943.768617	1415.466667	1974.856445	-12.222734
11943.768617	1415.466667	1973.887695	-27.365616
11943.768617	1415.466667	1972.918945	-37.623478
11943.768617	1415.466667	1971.949219	-50.395901
11943.768617	1415.466667	1970.980469	284.455719
11943.768617	1415.466667	1970.010742	153.195694
11943.768617	1415.466667	1969.041016	83.558205
11943.768617	1415.466667	1968.071289	90.296440
11943.768617	1415.466667	1967.101563	-55.773499
11943.768617	1415.466667	1966.130859	86.392632
11943.768617	1415.466667	1965.161133	58.518726
11943.768617	1415.466667	1964.190430	-21.097017
11943.768617	1415.466667	1963.219727	44.541874
11943.768617	1415.466667	1962.249023	11.655136
11943.768617	1415.466667	1961.277344	-107.394501
11943.768617	1415.466667	1960.306641	-4.969364
11943.768617	1415.466667	1959.334961	38.339527
11943.768617	1415.466667	1958.363281	-6.951321
11943.768617	1415.466667	1957.391602	26.444557
11943.768617	1415.466667	1956.419922	57.340927
11943.768617	1415.466667	1955.447266	51.322315
11943.768617	1415.466667	1954.474609	79.691841
11943.768617	1415.466667	1953.501953	39.215824
11943.768617	1415.466667	1952.529297	38.044334
11943.768617	1415.466667	1951.556641	-44.216537
11943.768617	1415.466667	1950.583984	143.706268
11943.768617	1415.466667	1949.610352	14.756833
11943.768617	1415.466667	1948.636719	42.970165
11943.768617	1415.466667	1947.663086	115.340431
11943.768617	1415.466667	1946.689453	1.139118
11943.768617	1415.466667	1945.715820	53.825657
11943.768617	1415.466667	1944.741211	-21.099463
11943.768617	1415.466667	1943.767578	41.353279
11943.768617	1415.466667	1942.792969	13.027144
11943.768617	1415.466667	1941.818359	-103.574165
11943.768617	1415.466667	1940.842773	-21.567987
11943.768617	1415.466667	1939.868164	-0.880821
11943.768617	1415.466667	1938.892578	19.787918
11943.768617	1415.466667	1937.916992	47.789055
11943.768617	1415.466667	1936.941406	73.321541
11943.768617	1415.466667	1935.965820	106.183922
11943.768617	1415.466667	1934.990234	55.765541
11943.768617	1415.466667	1934.013672	44.532806
11943.768617	1415.466667	1933.037109	-57.275337
11943.768617	1415.466667	1932.060547	51.430088
11943.768617	1415.466667	1931.083984	101.361572
11943.768617	1415.466667	1930.107422	38.728664
11943.768617	1415.466667	1929.129883	15.251553
11943.768617	1415.466667	1928.153320	-15.556903
11943.768617	1415.466667	1927.175781	2.545838
11943.768617	1415.466667	1926.198242	-67.371315
11943.768617	1415.466667	1925.219727	4.503045
11943.768617	1415.466667	1924.242188	15.253504
11943.768617	1415.466667	1923.263672	-113.273491
11943.768617	1415.466667	1922.285156	-2.348940
11943.768617	1415.466667	1921.306641	-59.995411
11943.768617	1415.466667	1920.328125	-34.593399
11943.768617	1415.466667	1919.349609	-62.914036
11943.768617	1415.466667	1918.370117	-10.668988
11943.768617	1415.466667	1917.391602	29.355110
11943.768617	1415.466667	1916.412109	59.603222
11943.768617	1415.466667	1915.431641	99.600052
11943.768617	1415.466667	1914.452148	-40.920593
11943.768617	1415.466667	1913.472656	40.543427
11943.768617	1415.466667	1912.492188	82.964928
11943.768617	1415.466667	1911.511719	113.183556
11943.768617	1415.466667	1910.531250	97.081848
11943.768617	1415.466667	1909.550781	-57.919106
11943.768617	1415.466667	1908.569336	-34.993011
11943.768617	1415.466667	1907.588867	39.085014
11943.768617	1415.466667	1906.607422	-30.563396
11943.768617	1415.466667	1905.625977	-105.052803
11943.768617	1415.466667	1904.644531	25.004623
11943.768617	1415.466667	1903.662109	-115.185486
11943.768617	1415.466667	1902.680664	-58.182022
11943.768617	1415.466667	1901.698242	-27.963003
11943.768617	1415.466667	1900.715820	-138.858887
11943.768617	1415.466667	1899.733398	-62.412067
11943.768617	1415.466667	1898.750000	-41.926235
11943.768617	1415.466667	1897.767578	80.680229
11943.768617	1415.466667	1896.784180	71.966919
11943.768617	1415.466667	1895.800781	-116.604233
11943.768617	1415.466667	1894.817383	-66.945801
11943.768617	1415.466667	1893.833984	21.573559
11943.768617	1415.466667	1892.850586	102.776108
11943.768617	1415.466667	1891.866211	9.078834
11943.768617	1415.466667	1890.881836	-26.299543
11943.768617	1415.466667	1889.897461	8.748360
11943.768617	1415.466667	1888.913086	58.351406
11943.768617	1415.466667	1887.927734	105.512016
11943.768617	1415.466667	1886.943359	-24.476467
11943.768617	1415.466667	1885.958008	49.376671
11943.768617	1415.466667	1884.972656	89.247101
11943.768617	1415.466667	1883.987305	-1.852561
11943.768617	1415.466667	1883.001953	1.648880
11943.768617	1415.466667	1882.015625	2.727945
11943.768617	1415.466667	1881.029297	-78.599411
11943.768617	1415.466667	1880.042969	38.821491
11943.768617	1415.466667	1879.056641	-32.783886
11943.768617	1415.466667	1878.070313	137.883652
11943.768617	1415.466667	1877.083984	-25.743427
11943.768617	1415.466667	1876.096680	6.837279
11943.768617	1415.466667	1875.109375	-18.697695
11943.768617	1415.466667	1874.122070	-3.070176
11943.768617	1415.466667	1873.134766	27.074659
11943.768617	1415.466667	1872.146484	-87.973221
11943.768617	1415.466667	1871.159180	116.367393
11943.768617	1415.466667	1870.170898	-39.769711
11943.768617	1415.466667	1869.182617	137.885727
11943.768617	1415.466667	1868.194336	27.746105
11943.768617	1415.466667	1867.205078	60.278149
11943.768617	1415.466667	1866.216797	87.965363
11943.768617	1415.466667	1865.227539	-0.351425
11943.768617	1415.466667	1864.238281	133.645355
11943.768617	1415.466667	1863.249023	-70.596245
11943.768617	1415.466667	1862.259766	70.610100
11943.768617	1415.466667	1861.269531	-3.147839
11943.768617	1415.466667	1860.279297	70.392334
11943.768617	1415.466667	1859.290039	30.455408
11943.768617	1415.466667	1858.298828	-2.227577
11943.768617	1415.466667	1857.308594	83.334068
11943.768617	1415.466667	1856.318359	-2.422268
11943.768617	1415.466667	1855.327148	128.932480
11943.768617	1415.466667	1854.335938	-26.738226
11943.768617	1415.466667	1853.344727	-129.308167
11943.768617	1415.466667	1852.353516	-82.381561
11943.768617	1415.466667	1851.362305	152.520844
11943.768617	1415.466667	1850.370117	25.871090
11943.768617	1415.466667	1849.377930	75.143929
11943.768617	1415.466667	1848.385742	-8.090549
11943.768617	1415.466667	1847.393555	62.839775
11943.768617	1415.466667	1846.401367	80.765724
11943.768617	1415.466667	1845.408203	161.275024
11943.768617	1415.466667	1844.415039	92.514816
11943.768617	1415.466667	1843.421875	79.127922
11943.768617	1415.466667	1842.428711	27.243502
11943.768617	1415.466667	1841.435547	52.355450
11943.768617	1415.466667	1840.441406	17.321983
11943.768617	1415.466667	1839.448242	-63.392906
11943.768617	1415.466667	1838.454102	26.622274
11943.768617	1415.466667	1837.459961	-44.459927
11943.768617	1415.466667	1836.464844	21.472591
11943.768617	1415.466667	1835.470703	68.150459
11943.768617	1415.466667	1834.475586	4.289333
11943.768617	1415.466667	1833.480469	34.125744
11943.768617	1415.466667	1832.485352	172.015900
11943.768617	1415.466667	1831.490234	163.377029
11943.768617	1415.466667	1830.495117	157.135162
11943.768617	1415.466667	1829.499023	50.077667
11943.768617	1415.466667	1828.502930	58.242374
11943.768617	1415.466667	1827.506836	133.576797
11943.768617	1415.466667	1826.510742	19.363411
11943.768617	1415.466667	1825.513672	80.269432
11943.768617	1415.466667	1824.517578	64.408943
11943.768617	1415.466667	1823.520508	163.626358
11943.768617	1415.466667	1822.523438	-32.042885
11943.768617	1415.466667	1821.526367	-19.141970
11943.768617	1415.466667	1820.529297	125.533455
11943.768617	1415.466667	1819.531250	188.689621
11943.768617	1415.466667	1818.533203	-21.248337
11943.768617	1415.466667	1817.535156	68.234001
11943.768617	1415.466667	1816.537109	-33.876282
11943.768617	1415.466667	1815.539063	-35.415340
11943.768617	1415.466667	1814.540039	-92.014885
11943.768617	1415.466667	1813.541992	57.194279
11943.768617	1415.466667	1812.542969	-28.134544
11943.768617	1415.466667	1811.543945	73.140663
11943.768617	1415.466667	1810.543945	-55.233433
11943.768617	1415.466667	1809.544922	141.632492
11943.768617	1415.466667	1808.544922	34.786171
11943.768617	1415.466667	1807.544922	14.018130
11943.768617	1415.466667	1806.544922	60.160679
11943.768617	1415.466667	1805.544922	115.830315
11943.768617	1415.466667	1804.544922	-69.816902
11943.768617	1415.466667	1803.543945	-21.336611
11943.768617	1415.466667	1802.542969	5.619381
11943.768617	1415.466667	1801.541992	-15.200579
11943.768617	1415.466667	1800.541016	64.233109
11943.768617	1415.466667	1799.539063	-13.898906
11943.768617	1415.466667	1798.538086	106.041519
11943.768617	1415.466667	1797.536133	-48.443035
11943.768617	1415.466667	1796.534180	133.446899
11943.768617	1415.466667	1795.532227	-4.320103
11943.768617	1415.466667	1794.529297	53.471710
11943.768617	1415.466667	1793.527344	263.800964
11943.768617	1415.466667	1792.524414	73.603226
11943.768617	1415.466667	1791.521484	-23.598320
11943.768617	1415.466667	1790.518555	74.595085
11943.768617	1415.466667	1789.514648	70.301491
11943.768617	1415.466667	1788.511719	151.735992
11943.768617	1415.466667	1787.507813	33.096260
11943.768617	1415.466667	1786.503906	7.336696
11943.768617	1415.466667	1785.500000	76.784798
11943.768617	1415.466667	1784.496094	108.110847
11943.768617	1415.466667	1783.491211	-143.748352
11943.768617	1415.466667	1782.486328	27.934151
11943.768617	1415.466667	1781.481445	80.606483
11943.768617	1415.466667	1780.476563	9.580036
11943.768617	1415.466667	1779.471680	-99.479286
11943.768617	1415.466667	1778.465820	117.160667
11943.768617	1415.466667	1777.460938	19.970276
11943.768617	1415.466667	1776.455078	27.355373
11943.768617	1415.466667	1775.449219	-15.173258
11943.768617	1415.466667	1774.442383	13.556914
11943.768617	1415.466667	1773.436523	96.882637
11943.768617	1415.466667	1772.429688	142.165176
11943.768617	1415.466667	1771.422852	147.053574
11943.768617	1415.466667	1770.416016	-56.954678
11943.768617	1415.466667	1769.409180	30.992373
11943.768617	1415.466667	1768.402344	-63.809940
11943.768617	1415.466667	1767.394531	-32.867405
11943.768617	1415.466667	1766.386719	-56.506943
11943.768617	1415.466667	1765.378906	9.954490
11943.768617	1415.466667	1764.371094	-49.285427
11943.768617	1415.466667	1763.362305	-51.632919
11943.768617	1415.466667	1762.354492	126.121246
11943.768617	1415.466667	1761.345703	159.245712
11943.768617	1415.466667	1760.336914	17.025980
11943.768617	1415.466667	1759.328125	50.119732
11943.768617	1415.466667	1758.318359	111.598206
11943.768617	1415.466667	1757.308594	194.343643
11943.768617	1415.466667	1756.299805	-14.136605
11943.768617	1415.466667	1755.290039	30.692011
11943.768617	1415.466667	1754.279297	115.711250
11943.768617	1415.466667	1753.269531	-28.815102
11943.768617	1415.466667	1752.258789	-2.993688
11943.768617	1415.466667	1751.249023	51.180084
11943.768617	1415.466667	1750.238281	5.999893
11943.768617	1415.466667	1749.226563	-117.201324
11943.768617	1415.466667	1748.215820	-56.006733
11943.768617	1415.466667	1747.204102	50.044228
11943.768617	1415.466667	1746.193359	104.055481
11943.768617	1415.466667	1745.181641	70.618874
11943.768617	1415.466667	1744.168945	-43.130878
11943.768617	1415.466667	1743.157227	102.901482
11943.768617	1415.466667	1742.144531	-65.153229
11943.768617	1415.466667	1741.132813	-112.775375
11943.768617	1415.466667	1740.120117	-167.481171
11943.768617	1415.466667	1739.106445	53.888042
11943.768617	1415.466667	1738.093750	-26.819355
11943.768617	1415.466667	1737.080078	17.495064
11943.768617	1415.466667	1736.067383	7.533758
11943.768617	1415.466667	1735.053711	-101.474052
11943.768617	1415.466667	1734.040039	-125.594337
11943.768617	1415.466667	1733.025391	60.039188
11943.768617	1415.466667	1732.011719	38.214104
11943.768617	1415.466667	1730.997070	-73.153000
11943.768617	1415.466667	1729.982422	-33.740807
11943.768617	1415.466667	1728.967773	-72.081963
11943.768617	1415.466667	1727.952148	-105.720901
11943.768617	1415.466667	1726.937500	23.076933
11943.768617	1415.466667	1725.921875	-67.096741
11943.768617	1415.466667	1724.906250	-105.482506
11943.768617	1415.466667	1723.890625	39.651649
11943.768617	1415.466667	1722.875000	55.327297
11943.768617	1415.466667	1721.858398	122.719147
11943.768617	1415.466667	1720.841797	164.199509
11943.768617	1415.466667	1719.825195	48.123440
11943.768617	1415.466667	1718.808594	44.902172
11943.768617	1415.466667	1717.791992	100.418137
11943.768617	1415.466667	1716.774414	97.148216
11943.768617	1415.466667	1715.756836	89.162575
11943.768617	1415.466667	1714.739258	55.324600
11943.768617	1415.466667	1713.721680	-41.925175
11943.768617	1415.466667	1712.704102	72.157021
11943.768617	1415.466667	1711.685547	19.504072
11943.768617	1415.466667	1710.667969	-40.185490
11943.768617	1415.466667	1709.649414	-41.208126
11943.768617	1415.466667	1708.630859	96.172951
11943.768617	1415.466667	1707.611328	-24.543011
11943.768617	1415.466667	1706.592773	-46.728638
11943.768617	1415.466667	1705.573242	-12.651209
11943.768617	1415.466667	1704.553711	147.989136
11943.768617	1415.466667	1703.534180	116.353165
11943.768617	1415.466667	1702.513672	-88.703964
11943.768617	1415.466667	1701.494141	160.839828
11943.768617	1415.466667	1700.473633	154.933411
11943.768617	1415.466667	1699.453125	13.172155
11943.768617	1415.466667	1698.432617	54.095280
11943.768617	1415.466667	1697.412109	48.162899
11943.768617	1415.466667	1696.390625	112.435646
11943.768617	1415.466667	1695.369141	26.889801
11943.768617	1415.466667	1694.347656	-49.280125
11943.768617	1415.466667	1693.326172	108.501228
11943.768617	1415.466667	1692.304688	1.907367
11943.768617	1415.466667	1691.282227	14.598481
11943.768617	1415.466667	1690.260742	137.159012
11943.768617	1415.466667	1689.238281	23.559525
11943.768617	1415.466667	1688.214844	61.899292
11943.768617	1415.466667	1687.192383	118.905418
11943.768617	1415.466667	1686.168945	56.724670
11943.768617	1415.466667	1685.146484	71.636459
11943.768617	1415.466667	1684.123047	72.513588
11943.768617	1415.466667	1683.099609	141.087906
11943.768617	1415.466667	1682.075195	99.900368
11943.768617	1415.466667	1681.051758	140.407242
11943.768617	1415.466667	1680.027344	3.533972
11943.768617	1415.466667	1679.002930	62.678486
11943.768617	1415.466667	1677.978516	49.475266
11943.768617	1415.466667	1676.953125	57.251343
11943.768617	1415.466667	1675.928711	83.668198
11943.768617	1415.466667	1674.903320	79.752251
11943.768617	1415.466667	1673.877930	40.863403
11943.768617	1415.466667	1672.852539	85.870522
11943.768617	1415.466667	1671.826172	-88.167946
11943.768617	1415.466667	1670.800781	47.673248
11943.768617	1415.466667	1669.774414	36.717808
11943.768617	1415.466667	1668.748047	90.956055
11943.768617	1415.466667	1667.721680	17.114792
11943.768617	1415.466667	1666.694336	-40.418491
11943.768617	1415.466667	1665.667969	55.660484
11943.768617	1415.466667	1664.640625	7.428249
11943.768617	1415.466667	1663.613281	-12.880171
11943.768617	1415.466667	1662.585938	-58.775291
11943.768617	1415.466667	1661.557617	-41.878426
11943.768617	1415.466667	1660.530273	-117.994591
11943.768617	1415.466667	1659.501953	59.281780
11943.768617	1415.466667	1658.473633	131.895721
11943.768617	1415.466667	1657.444336	90.611130
11943.768617	1415.466667	1656.416016	72.568871
11943.768617	1415.466667	1655.386719	-59.292336
11943.768617	1415.466667	1654.358398	13.254321
11943.768617	1415.466667	1653.328125	127.552299
11943.768617	1415.466667	1652.298828	104.838219
11943.768617	1415.466667	1651.269531	7.854994
11943.768617	1415.466667	1650.239258	101.180946
11943.768617	1415.466667	1649.208984	134.141556
11943.768617	1415.466667	1648.178711	104.453377
11943.768617	1415.466667	1647.148438	58.536579
11943.768617	1415.466667	1646.117188	221.311279
11943.768617	1415.466667	1645.086914	173.058609
11943.768617	1415.466667	1644.055664	80.777229
11943.768617	1415.466667	1643.024414	111.346367
11943.768617	1415.466667	1641.992188	271.642181
11943.768617	1415.466667	1640.960938	214.126465
11943.768617	1415.466667	1639.928711	149.677292
11943.768617	1415.466667	1638.896484	388.587463
11943.768617	1415.466667	1637.864258	219.940247
11943.768617	1415.466667	1636.832031	178.660690
11943.768617	1415.466667	1635.798828	116.562950
11943.768617	1415.466667	1634.766602	170.176743
11943.768617	1415.466667	1633.733398	233.016815
11943.768617	1415.466667	1632.699219	374.463776
11943.768617	1415.466667	1631.666016	377.111359
11943.768617	1415.466667	1630.632813	224.852753
11943.768617	1415.466667	1629.598633	225.208679
11943.768617	1415.466667	1628.564453	193.207809
11943.768617	1415.466667	1627.530273	179.702438
11943.768617	1415.466667	1626.495117	272.465698
11943.768617	1415.466667	1625.460938	381.362762
11943.768617	1415.466667	1624.425781	293.924988
11943.768617	1415.466667	1623.390625	335.815338
11943.768617	1415.466667	1622.355469	379.996948
11943.768617	1415.466667	1621.319336	248.755615
11943.768617	1415.466667	1620.284180	470.613312
11943.768617	1415.466667	1619.248047	318.642365
11943.768617	1415.466667	1618.211914	376.630249
11943.768617	1415.466667	1617.174805	358.491211
11943.768617	1415.466667	1616.138672	252.747177
11943.768617	1415.466667	1615.101563	412.145782
11943.768617	1415.466667	1614.065430	403.236786
11943.768617	1415.466667	1613.027344	343.631531
11943.768617	1415.466667	1611.990234	217.242157
11943.768617	1415.466667	1610.953125	289.000977
11943.768617	1415.466667	1609.915039	429.821259
11943.768617	1415.466667	1608.876953	354.150146
11943.768617	1415.466667	1607.838867	269.303314
11943.768617	1415.466667	1606.800781	366.323975
11943.768617	1415.466667	1605.761719	246.994141
11943.768617	1415.466667	1604.723633	325.583160
11943.768617	1415.466667	1603.684570	376.538971
11943.768617	1415.466667	1602.644531	365.380432
11943.768617	1415.466667	1601.605469	340.437927
11943.768617	1415.466667	1600.566406	322.406982
11943.768617	1415.466667	1599.526367	299.788849
11943.768617	1415.466667	1598.486328	461.029602
11943.768617	1415.466667	1597.446289	355.690552
11943.768617	1415.466667	1596.405273	367.551727
11943.768617	1415.466667	1595.365234	420.757904
11943.768617	1415.466667	1594.324219	384.392883
11943.768617	1415.466667	1593.283203	331.978394
11943.768617	1415.466667	1592.242188	318.613312
11943.768617	1415.466667	1591.200195	364.925385
11943.768617	1415.466667	1590.159180	344.690643
11943.768617	1415.466667	1589.117188	372.643860
11943.768617	1415.466667	1588.075195	393.713409
11943.768617	1415.466667	1587.032227	355.158966
11943.768617	1415.466667	1585.990234	497.753021
11943.768617	1415.466667	1584.947266	411.074677
11943.768617	1415.466667	1583.904297	455.070831
11943.768617	1415.466667	1582.861328	453.232941
11943.768617	1415.466667	1581.818359	604.894775
11943.768617	1415.466667	1580.775391	428.975006
11943.768617	1415.466667	1579.731445	472.970154
11943.768617	1415.466667	1578.687500	532.985779
11943.768617	1415.466667	1577.643555	430.463074
11943.768617	1415.466667	1576.598633	549.987427
11943.768617	1415.466667	1575.554688	694.649475
11943.768617	1415.466667	1574.509766	351.973358
11943.768617	1415.466667	1573.464844	405.146057
11943.768617	1415.466667	1572.419922	419.433502
11943.768617	1415.466667	1571.374023	474.880127
11943.768617	1415.466667	1570.329102	434.310303
11943.768617	1415.466667	1569.283203	304.632080
11943.768617	1415.466667	1568.237305	387.527527
11943.768617	1415.466667	1567.191406	303.627777
11943.768617	1415.466667	1566.144531	407.072998
11943.768617	1415.466667	1565.098633	241.016083
11943.768617	1415.466667	1564.051758	333.044373
11943.768617	1415.466667	1563.004883	276.667542
11943.768617	1415.466667	1561.957031	103.924782
11943.768617	1415.466667	1560.910156	319.192932
11943.768617	1415.466667	1559.862305	297.115662
11943.768617	1415.466667	1558.814453	259.095551
11943.768617	1415.466667	1557.766602	211.983475
11943.768617	1415.466667	1556.718750	126.143364
11943.768617	1415.466667	1555.669922	270.597931
11943.768617	1415.466667	1554.621094	168.855194
11943.768617	1415.466667	1553.573242	290.491028
11943.768617	1415.466667	1552.523438	266.278229
11943.768617	1415.466667	1551.474609	264.872620
11943.768617	1415.466667	1550.424805	170.107071
11943.768617	1415.466667	1549.375000	118.659470
11943.768617	1415.466667	1548.325195	117.332733
11943.768617	1415.466667	1547.275391	293.559692
11943.768617	1415.466667	1546.225586	187.554886
11943.768617	1415.466667	1545.174805	195.367523
11943.768617	1415.466667	1544.124023	239.591415
11943.768617	1415.466667	1543.073242	208.764328
11943.768617	1415.466667	1542.022461	268.922119
11943.768617	1415.466667	1540.970703	179.028595
11943.768617	1415.466667	1539.919922	48.278278
11943.768617	1415.466667	1538.868164	176.662125
11943.768617	1415.466667	1537.815430	170.961609
11943.768617	1415.466667	1536.763672	190.272980
11943.768617	1415.466667	1535.710938	109.663010
11943.768617	1415.466667	1534.659180	140.371887
11943.768617	1415.466667	1533.606445	89.357552
11943.768617	1415.466667	1532.552734	133.713974
11943.768617	1415.466667	1531.500000	71.415154
11943.768617	1415.466667	1530.446289	115.798988
11943.768617	1415.466667	1529.393555	173.798859
11943.768617	1415.466667	1528.338867	263.545746
11943.768617	1415.466667	1527.285156	260.309845
11943.768617	1415.466667	1526.231445	141.473175
11943.768617	1415.466667	1525.176758	238.037415
11943.768617	1415.466667	1524.122070	132.891357
11943.768617	1415.466667	1523.067383	231.729019
11943.768617	1415.466667	1522.012695	201.425522
11943.768617	1415.466667	1520.957031	146.240967
11943.768617	1415.466667	1519.901367	75.250084
11943.768617	1415.466667	1518.845703	-11.538686
11943.768617	1415.466667	1517.790039	198.254684
11943.768617	1415.466667	1516.734375	-24.263699
11943.768617	1415.466667	1515.677734	45.209293
11943.768617	1415.466667	1514.621094	10.616936
11943.768617	1415.466667	1513.564453	23.558485
11943.768617	1415.466667	1512.507813	65.915421
11943.768617	1415.466667	1511.450195	-65.807869
11943.768617	1415.466667	1510.393555	10.503778
11943.768617	1415.466667	1509.335938	-80.429543
11943.768617	1415.466667	1508.278320	-37.990868
11943.768617	1415.466667	1507.219727	33.821339
11943.768617	1415.466667	1506.162109	1.734834
11943.768617	1415.466667	1505.103516	21.622242
11943.768617	1415.466667	1504.044922	-32.978687
11943.768617	1415.466667	1502.986328	-1.756325
11943.768617	1415.466667	1501.926758	-187.178253
11943.768617	1415.466667	1500.868164	-79.170769
11943.768617	1415.466667	1499.808594	-104.281929
11943.768617	1415.466667	1498.749023	51.080582
11943.768617	1415.466667	1497.688477	-5.567348
11943.768617	1415.466667	1496.628906	-71.184441
11943.768617	1415.466667	1495.568359	-141.258987
11943.768617	1415.466667	1494.507813	-58.029377
11943.768617	1415.466667	1493.447266	-82.961800
11943.768617	1415.466667	1492.386719	-8.735879
11943.768617	1415.466667	1491.325195	112.785530
11943.768617	1415.466667	1490.263672	78.903008
11943.768617	1415.466667	1489.202148	36.055111
11943.768617	1415.466667	1488.140625	72.035858
11943.768617	1415.466667	1487.079102	-20.253296
11943.768617	1415.466667	1486.016602	-62.977364
11943.768617	1415.466667	1484.954102	-42.666950
11943.768617	1415.466667	1483.891602	-49.328819
11943.768617	1415.466667	1482.829102	31.741682
11943.768617	1415.466667	1481.765625	-53.568596
11943.768617	1415.466667	1480.702148	-51.150723
11943.768617	1415.466667	1479.638672	-8.254152
11943.768617	1415.466667	1478.575195	90.818924
11943.768617	1415.466667	1477.511719	-108.878700
11943.768617	1415.466667	1476.447266	-135.526474
11943.768617	1415.466667	1475.382813	-54.371067
11943.768617	1415.466667	1474.318359	-36.099449
11943.768617	1415.466667	1473.253906	-2.048002
11943.768617	1415.466667	1472.189453	49.939079
11943.768617	1415.466667	1471.124023	25.618505
11943.768617	1415.466667	1470.058594	68.673637
11943.768617	1415.466667	1468.993164	98.253426
11943.768617	1415.466667	1467.927734	11.399416
11943.768617	1415.466667	1466.861328	-79.968498
11943.768617	1415.466667	1465.794922	-9.973237
11943.768617	1415.466667	1464.728516	142.862289
11943.768617	1415.466667	1463.662109	-42.178711
11943.768617	1415.466667	1462.594727	137.269089
11943.768617	1415.466667	1461.528320	88.980995
11943.768617	1415.466667	1460.460938	-55.477886
11943.768617	1415.466667	1459.393555	135.044250
11943.768617	1415.466667	1458.326172	117.925362
11943.768617	1415.466667	1457.257813	194.589447
11943.768617	1415.466667	1456.189453	163.582291
11943.768617	1415.466667	1455.121094	69.277916
11943.768617	1415.466667	1454.052734	167.522034
11943.768617	1415.466667	1452.984375	55.130058
11943.768617	1415.466667	1451.915039	69.065689
11943.768617	1415.466667	1450.845703	39.409229
11943.768617	1415.466667	1449.776367	6.599141
11943.768617	1415.466667	1448.707031	37.078285
11943.768617	1415.466667	1447.636719	97.878807
11943.768617	1415.466667	1446.567383	116.739632
11943.768617	1415.466667	1445.497070	159.186005
11943.768617	1415.466667	1444.425781	62.589100
11943.768617	1415.466667	1443.355469	186.081207
11943.768617	1415.466667	1442.285156	109.569527
11943.768617	1415.466667	1441.213867	221.312408
11943.768617	1415.466667	1440.142578	103.735100
11943.768617	1415.466667	1439.070313	143.193649
11943.768617	1415.466667	1437.999023	-24.419649
11943.768617	1415.466667	1436.926758	175.097137
11943.768617	1415.466667	1435.854492	81.971863
11943.768617	1415.466667	1434.782227	31.896866
11943.768617	1415.466667	1433.709961	128.823273
11943.768617	1415.466667	1432.636719	3.758183
11943.768617	1415.466667	1431.563477	-28.373899
11943.768617	1415.466667	1430.490234	102.066139
11943.768617	1415.466667	1429.416992	163.935181
11943.768617	1415.466667	1428.343750	-0.274641
11943.768617	1415.466667	1427.269531	86.198769
11943.768617	1415.466667	1426.195313	11.023923
11943.768617	1415.466667	1425.121094	52.954666
11943.768617	1415.466667	1424.046875	-11.451450
11943.768617	1415.466667	1422.971680	83.142479
11943.768617	1415.466667	1421.896484	95.848198
11943.768617	1415.466667	1420.821289	119.190552
11943.768617	1415.466667	1419.746094	120.938019
11943.768617	1415.466667	1418.669922	148.793320
11943.768617	1415.466667	1417.594727	126.153076
11943.768617	1415.466667	1416.518555	284.112762
11943.768617	1415.466667	1415.442383	70.983147
11943.768617	1415.466667	1414.365234	85.804001
11943.768617	1415.466667	1413.289063	317.002472
11943.768617	1415.466667	1412.211914	193.097565
11943.768617	1415.466667	1411.134766	257.266693
11943.768617	1415.466667	1410.057617	2.681117
11943.768617	1415.466667	1408.979492	115.152679
11943.768617	1415.466667	1407.902344	119.550179
11943.768617	1415.466667	1406.824219	97.945107
11943.768617	1415.466667	1405.746094	204.129456
11943.768617	1415.466667	1404.666992	163.231552
11943.768617	1415.466667	1403.588867	265.178589
11943.768617	1415.466667	1402.509766	139.454346
11943.768617	1415.466667	1401.430664	179.526016
11943.768617	1415.466667	1400.351563	105.995544
11943.768617	1415.466667	1399.271484	185.441055
11943.768617	1415.466667	1398.192383	233.070770
11943.768617	1415.466667	1397.112305	297.515656
11943.768617	1415.466667	1396.031250	330.292755
11943.768617	1415.466667	1394.951172	223.663361
11943.768617	1415.466667	1393.871094	179.609421
11943.768617	1415.466667	1392.790039	263.474365
11943.768617	1415.466667	1391.708984	186.634308
11943.768617	1415.466667	1390.626953	176.571350
11943.768617	1415.466667	1389.545898	145.581711
11943.768617	1415.466667	1388.463867	142.117035
11943.768617	1415.466667	1387.381836	182.502594
11943.768617	1415.466667	1386.299805	189.673782
11943.768617	1415.466667	1385.217773	201.924927
11943.768617	1415.466667	1384.134766	225.449692
11943.768617	1415.466667	1383.051758	129.771973
11943.768617	1415.466667	1381.968750	128.494644
11943.768617	1415.466667	1380.885742	-18.182697
11943.768617	1415.466667	1379.802734	171.260300
11943.768617	1415.466667	1378.718750	242.100922
11943.768617	1415.466667	1377.634766	131.518188
11943.768617	1415.466667	1376.550781	143.767349
11943.768617	1415.466667	1375.465820	163.495850
11943.768617	1415.466667	1374.381836	223.183289
11943.768617	1415.466667	1373.296875	100.445999
11943.768617	1415.466667	1372.211914	175.198761
11943.768617	1415.466667	1371.126953	186.654816
11943.768617	1415.466667	1370.041016	190.351318
11943.768617	1415.466667	1368.955078	114.649292
11943.768617	1415.466667	1367.869141	171.622803
11943.768617	1415.466667	1366.783203	205.866882
11943.768617	1415.466667	1365.697266	202.068909
11943.768617	1415.466667	1364.610352	191.022995
11943.768617	1415.466667	1363.523438	121.871269
11943.768617	1415.466667	1362.436523	155.241989
11943.768617	1415.466667	1361.349609	153.113022
11943.768617	1415.466667	1360.261719	182.985123
11943.768617	1415.466667	1359.174805	227.101929
11943.768617	1415.466667	1358.086914	-35.224812
11943.768617	1415.466667	1356.998047	100.128304
11943.768617	1415.466667	1355.910156	170.292526
11943.768617	1415.466667	1354.821289	68.335548
11943.768617	1415.466667	1353.732422	206.008194
11943.768617	1415.466667	1352.643555	180.141342
11943.768617	1415.466667	1351.554688	104.077118
11943.768617	1415.466667	1350.464844	214.684586
11943.768617	1415.466667	1349.375000	195.590469
11943.768617	1415.466667	1348.285156	169.875153
11943.768617	1415.466667	1347.195313	213.011627
11943.768617	1415.466667	1346.105469	260.714539
11943.768617	1415.466667	1345.014648	192.150436
11943.768617	1415.466667	1343.923828	1011.694458
11943.768617	1415.466667	1342.833008	715.127686
11943.768617	1415.466667	1341.741211	291.617645
11943.768617	1415.466667	1340.650391	194.034317
11943.768617	1415.466667	1339.558594	270.534760
11943.768617	1415.466667	1338.466797	194.232819
11943.768617	1415.466667	1337.374023	108.519218
11943.768617	1415.466667	1336.282227	117.386368
11943.768617	1415.466667	1335.189453	207.449936
11943.768617	1415.466667	1334.096680	180.019028
11943.768617	1415.466667	1333.003906	159.565109
11943.768617	1415.466667	1331.910156	179.935562
11943.768617	1415.466667	1330.817383	63.882858
11943.768617	1415.466667	1329.723633	139.413956
11943.768617	1415.466667	1328.629883	143.833954
11943.768617	1415.466667	1327.535156	113.760284
11943.768617	1415.466667	1326.441406	28.277342
11943.768617	1415.466667	1325.346680	56.581154
11943.768617	1415.466667	1324.251953	37.704292
11943.768617	1415.466667	1323.156250	55.321388
11943.768617	1415.466667	1322.061523	148.638779
11943.768617	1415.466667	1320.965820	135.966858
11943.768617	1415.466667	1319.870117	104.379158
11943.768617	1415.466667	1318.774414	62.742683
11943.768617	1415.466667	1317.678711	104.498146
11943.768617	1415.466667	1316.582031	58.039021
11943.768617	1415.466667	1315.485352	36.019333
11943.768617	1415.466667	1314.388672	180.758713
11943.768617	1415.466667	1313.291016	151.087692
11943.768617	1415.466667	1312.194336	291.774323
11943.768617	1415.466667	1311.096680	44.714760
11943.768617	1415.466667	1309.999023	-65.904846
11943.768617	1415.466667	1308.901367	53.916779
11943.768617	1415.466667	1307.802734	153.783661
11943.768617	1415.466667	1306.705078	107.721565
11943.768617	1415.466667	1305.606445	108.147713
11943.768617	1415.466667	1304.506836	166.901306
11943.768617	1415.466667	1303.408203	22.035873
11943.768617	1415.466667	1302.308594	63.891560
11943.768617	1415.466667	1301.208984	131.230133
11943.768617	1415.466667	1300.109375	124.029922
11943.768617	1415.466667	1299.009766	70.601761
11943.768617	1415.466667	1297.909180	37.764606
11943.768617	1415.466667	1296.808594	211.156158
11943.768617	1415.466667	1295.708008	75.450066
11943.768617	1415.466667	1294.607422	142.185165
11943.768617	1415.466667	1293.506836	155.602997
11943.768617	1415.466667	1292.405273	20.116783
11943.768617	1415.466667	1291.303711	87.759201
11943.768617	1415.466667	1290.202148	10.188749
11943.768617	1415.466667	1289.099609	-30.039209
11943.768617	1415.466667	1287.998047	17.363430
11943.768617	1415.466667	1286.895508	137.491974
11943.768617	1415.466667	1285.792969	24.929358
11943.768617	1415.466667	1284.689453	37.687992
11943.768617	1415.466667	1283.586914	-20.859118
11943.768617	1415.466667	1282.483398	31.719345
11943.768617	1415.466667	1281.379883	151.686935
11943.768617	1415.466667	1280.276367	117.948708
11943.768617	1415.466667	1279.171875	78.228096
11943.768617	1415.466667	1278.067383	73.273972
11943.768617	1415.466667	1276.962891	102.544136
11943.768617	1415.466667	1275.858398	-64.364914
11943.768617	1415.466667	1274.753906	36.525139
11943.768617	1415.466667	1273.648438	73.803467
11943.768617	1415.466667	1272.542969	-52.291832
11943.768617	1415.466667	1271.437500	24.814243
11943.768617	1415.466667	1270.331055	18.867622
11943.768617	1415.466667	1269.225586	44.078514
11943.768617	1415.466667	1268.119141	37.130871
11943.768617	1415.466667	1267.012695	112.421936
11943.768617	1415.466667	1265.906250	94.330421
11943.768617	1415.466667	1264.798828	67.373291
11943.768617	1415.466667	1263.691406	-16.598614
11943.768617	1415.466667	1262.583984	39.706501
11943.768617	1415.466667	1261.476563	150.688843
11943.768617	1415.466667	1260.368164	92.574867
11943.768617	1415.466667	1259.260742	18.467255
11943.768617	1415.466667	1258.152344	-62.085186
11943.768617	1415.466667	1257.043945	-40.692581
11943.768617	1415.466667	1255.934570	-22.663616
11943.768617	1415.466667	1254.825195	-6.307158
11943.768617	1415.466667	1253.716797	77.549843
11943.768617	1415.466667	1252.606445	-23.496777
11943.768617	1415.466667	1251.497070	11.801994
11943.768617	1415.466667	1250.387695	-78.368370
11943.768617	1415.466667	1249.277344	60.920769
11943.768617	1415.466667	1248.166992	18.944519
11943.768617	1415.466667	1247.055664	-0.124817
11943.768617	1415.466667	1245.945313	32.179619
11943.768617	1415.466667	1244.833984	8.907708
11943.768617	1415.466667	1243.722656	-143.627869
11943.768617	1415.466667	1242.611328	-12.049356
11943.768617	1415.466667	1241.499023	-31.645370
11943.768617	1415.466667	1240.387695	-9.027686
11943.768617	1415.466667	1239.275391	61.139736
11943.768617	1415.466667	1238.162109	-55.342983
11943.768617	1415.466667	1237.049805	-52.417706
11943.768617	1415.466667	1235.936523	-39.904633
11943.768617	1415.466667	1234.823242	-79.170280
11943.768617	1415.466667	1233.709961	-3.852531
11943.768617	1415.466667	1232.596680	12.290644
11943.768617	1415.466667	1231.482422	-60.413628
11943.768617	1415.466667	1230.369141	-35.735352
11943.768617	1415.466667	1229.253906	1.097250
11943.768617	1415.466667	1228.139648	50.894100
11943.768617	1415.466667	1227.025391	12.123931
11943.768617	1415.466667	1225.910156	9.570425
11943.768617	1415.466667	1224.794922	-22.553843
11943.768617	1415.466667	1223.679688	-68.047867
11943.768617	1415.466667	1222.563477	-22.325718
11943.768617	1415.466667	1221.447266	65.973129
11943.768617	1415.466667	1220.331055	17.242071
11943.768617	1415.466667	1219.214844	17.957506
11943.768617	1415.466667	1218.098633	-0.348005
11943.768617	1415.466667	1216.981445	-12.028965
11943.768617	1415.466667	1215.864258	-67.985580
11943.768617	1415.466667	1214.747070	-38.659420
11943.768617	1415.466667	1213.629883	-13.832860
11943.768617	1415.466667	1212.511719	46.943798
11943.768617	1415.466667	1211.393555	42.759121
11943.768617	1415.466667	1210.275391	0.604659
11943.768617	1415.466667	1209.157227	-95.571983
11943.768617	1415.466667	1208.038086	-40.607742
11943.768617	1415.466667	1206.918945	-51.264614
11943.768617	1415.466667	1205.799805	-26.423611
11943.768617	1415.466667	1204.680664	43.085533
11943.768617	1415.466667	1203.560547	71.477158
11943.768617	1415.466667	1202.441406	20.559456
11943.768617	1415.466667	1201.321289	69.692886
11943.768617	1415.466667	1200.200195	-94.839500
11943.768617	1415.466667	1199.080078	-34.250477
11943.768617	1415.466667	1197.958984	36.395592
11943.768617	1415.466667	1196.837891	108.530090
11943.768617	1415.466667	1195.716797	100.923874
11943.768617	1415.466667	1194.594727	47.409435
11943.768617	1415.466667	1193.473633	92.516708
11943.768617	1415.466667	1192.351563	179.838516
11943.768617	1415.466667	1191.229492	-35.934917
11943.768617	1415.466667	1190.106445	-23.784618
11943.768617	1415.466667	1188.984375	-13.912540
11943.768617	1415.466667	1187.861328	-48.727829
11943.768617	1415.466667	1186.738281	-13.504131
11943.768617	1415.466667	1185.614258	37.847359
11943.768617	1415.466667	1184.491211	77.885460
11943.768617	1415.466667	1183.367188	86.911453
11943.768617	1415.466667	1182.243164	78.174652
11943.768617	1415.466667	1181.119141	-20.273298
11943.768617	1415.466667	1179.994141	25.459122
11943.768617	1415.466667	1178.869141	44.353184
11943.768617	1415.466667	1177.744141	-67.624428
11943.768617	1415.466667	1176.619141	-39.700882
11943.768617	1415.466667	1175.493164	-140.872360
11943.768617	1415.466667	1174.368164	-61.252811
11943.768617	1415.466667	1173.242188	-31.954596
11943.768617	1415.466667	1172.115234	-25.060368
11943.768617	1415.466667	1170.989258	-34.952091
11943.768617	1415.466667	1169.862305	-46.875473
11943.768617	1415.466667	1168.735352	-112.496643
11943.768617	1415.466667	1167.608398	-15.674593
11943.768617	1415.466667	1166.481445	-33.020756
11943.768617	1415.466667	1165.353516	-108.585564
11943.768617	1415.466667	1164.225586	-102.631783
11943.768617	1415.466667	1163.097656	-117.975937
11943.768617	1415.466667	1161.968750	-51.461426
11943.768617	1415.466667	1160.840820	-141.502808
11943.768617	1415.466667	1159.711914	-144.167679
11943.768617	1415.466667	1158.583008	-117.125504
11943.768617	1415.466667	1157.453125	-0.828610
11943.768617	1415.466667	1156.324219	-60.845791
11943.768617	1415.466667	1155.194336	-74.792046
11943.768617	1415.466667	1154.064453	-91.299225
11943.768617	1415.466667	1152.933594	-37.892914
11943.768617	1415.466667	1151.803711	-16.350342
11943.768617	1415.466667	1150.672852	-52.455013
11943.768617	1415.466667	1149.541992	-78.141479
11943.768617	1415.466667	1148.411133	-53.855145
11943.768617	1415.466667	1147.279297	-22.160677
11943.768617	1415.466667	1146.147461	11.713936
11943.768617	1415.466667	1145.015625	-35.147404
11943.768617	1415.466667	1143.883789	50.137066
11943.768617	1415.466667	1142.750977	-11.116993
11943.768617	1415.466667	1141.619141	-99.915665
11943.768617	1415.466667	1140.486328	17.926168
11943.768617	1415.466667	1139.352539	-97.392860
11943.768617	1415.466667	1138.219727	-91.513069
11943.768617	1415.466667	1137.085938	30.218884
11943.768617	1415.466667	1135.952148	-36.815533
11943.768617	1415.466667	1134.818359	63.403149
11943.768617	1415.466667	1133.683594	71.805283
11943.768617	1415.466667	1132.549805	127.843903
11943.768617	1415.466667	1131.415039	104.687416
11943.768617	1415.466667	1130.279297	189.403595
11943.768617	1415.466667	1129.144531	138.516327
11943.768617	1415.466667	1128.008789	86.070442
11943.768617	1415.466667	1126.873047	155.760956
11943.768617	1415.466667	1125.737305	101.694733
11943.768617	1415.466667	1124.601563	16.921051
11943.768617	1415.466667	1123.464844	45.881908
11943.768617	1415.466667	1122.328125	172.593185
11943.768617	1415.466667	1121.191406	74.411247
11943.768617	1415.466667	1120.054688	128.282349
11943.768617	1415.466667	1118.916992	97.659218
11943.768617	1415.466667	1117.779297	118.202271
11943.768617	1415.466667	1116.641602	164.204941
11943.768617	1415.466667	1115.503906	137.242340
11943.768617	1415.466667	1114.365234	136.429794
11943.768617	1415.466667	1113.226563	50.577663
11943.768617	1415.466667	1112.087891	19.420282
11943.768617	1415.466667	1110.949219	34.458092
11943.768617	1415.466667	1109.809570	-42.986130
11943.768617	1415.466667	1108.669922	116.376068
11943.768617	1415.466667	1107.530273	108.967491
11943.768617	1415.466667	1106.390625	33.183613
11943.768617	1415.466667	1105.250000	41.005863
11943.768617	1415.466667	1104.109375	166.681717
11943.768617	1415.466667	1102.968750	85.033417
11943.768617	1415.466667	1101.828125	53.286499
11943.768617	1415.466667	1100.686523	117.042969
11943.768617	1415.466667	1099.544922	68.401917
11943.768617	1415.466667	1098.403320	75.908714
11943.768617	1415.466667	1097.261719	60.976418
11943.768617	1415.466667	1096.120117	90.023453
11943.768617	1415.466667	1094.977539	156.455002
11943.768617	1415.466667	1093.834961	239.400482
11943.768617	1415.466667	1092.691406	74.845627
11943.768617	1415.466667	1091.548828	125.442406
11943.768617	1415.466667	1090.405273	117.427444
11943.768617	1415.466667	1089.261719	210.667984
11943.768617	1415.466667	1088.118164	100.696243
11943.768617	1415.466667	1086.973633	63.302586
11943.768617	1415.466667	1085.829102	116.459267
11943.768617	1415.466667	1084.684570	43.896740
11943.768617	1415.466667	1083.540039	18.905027
11943.768617	1415.466667	1082.395508	-28.111593
11943.768617	1415.466667	1081.250000	20.404785
11943.768617	1415.466667	1080.104492	156.148163
11943.768617	1415.466667	1078.958984	67.633644
11943.768617	1415.466667	1077.812500	108.648125
11943.768617	1415.466667	1076.666016	-8.643663
11943.768617	1415.466667	1075.519531	73.654259
11943.768617	1415.466667	1074.373047	94.229874
11943.768617	1415.466667	1073.226563	37.640778
11943.768617	1415.466667	1072.079102	0.919911
11943.768617	1415.466667	1070.931641	9.172974
11943.768617	1415.466667	1069.784180	-67.665474
11943.768617	1415.466667	1068.635742	-77.750023
11943.768617	1415.466667	1067.487305	129.930817
11943.768617	1415.466667	1066.338867	21.497156
11943.768617	1415.466667	1065.190430	120.416283
11943.768617	1415.466667	1064.041992	180.475296
11943.768617	1415.466667	1062.892578	54.069363
11943.768617	1415.466667	1061.743164	141.081116
11943.768617	1415.466667	1060.593750	63.559895
11943.768617	1415.466667	1059.443359	-31.225655
11943.768617	1415.466667	1058.292969	20.662815
11943.768617	1415.466667	1057.142578	143.104706
11943.768617	1415.466667	1055.992188	70.189850
11943.768617	1415.466667	1054.841797	202.662888
11943.768617	1415.466667	1053.690430	104.306602
11943.768617	1415.466667	1052.539063	9.930477
11943.768617	1415.466667	1051.387695	21.514988
11943.768617	1415.466667	1050.235352	16.651482
11943.768617	1415.466667	1049.083984	53.934124
11943.768617	1415.466667	1047.931641	65.959167
11943.768617	1415.466667	1046.778320	69.459503
11943.768617	1415.466667	1045.625977	49.454651
11943.768617	1415.466667	1044.472656	119.531525
11943.768617	1415.466667	1043.319336	93.463577
11943.768617	1415.466667	1042.166016	59.851391
11943.768617	1415.466667	1041.012695	138.051910
11943.768617	1415.466667	1039.858398	176.361008
11943.768617	1415.466667	1038.704102	92.474991
11943.768617	1415.466667	1037.549805	232.044769
11943.768617	1415.466667	1036.394531	221.093689
11943.768617	1415.466667	1035.239258	102.943611
11943.768617	1415.466667	1034.083984	97.246902
11943.768617	1415.466667	1032.928711	134.770660
11943.768617	1415.466667	1031.773438	203.922134
11943.768617	1415.466667	1030.617188	77.911133
11943.768617	1415.466667	1029.460938	70.123070
11943.768617	1415.466667	1028.304688	106.322105
11943.768617	1415.466667	1027.147461	108.440712
11943.768617	1415.466667	1025.991211	24.721905
11943.768617	1415.466667	1024.833984	57.165840
11943.768617	1415.466667	1023.675781	115.787155
11943.768617	1415.466667	1022.518555	184.515442
11943.768617	1415.466667	1021.360352	95.510002
11943.768617	1415.466667	1020.202148	105.334999
11943.768617	1415.466667	1019.043945	29.167692
11943.768617	1415.466667	1017.884766	-29.539501
11943.768617	1415.466667	1016.726563	96.824760
11943.768617	1415.466667	1015.567383	158.210678
11943.768617	1415.466667	1014.407227	144.203674
11943.768617	1415.466667	1013.248047	83.055794
11943.768617	1415.466667	1012.087891	85.712776
11943.768617	1415.466667	1010.927734	59.910755
11943.768617	1415.466667	1009.767578	-11.262353
11943.768617	1415.466667	1008.606445	-46.169167
11943.768617	1415.466667	1007.446289	-15.178645
11943.768617	1415.466667	1006.285156	57.813057
11943.768617	1415.466667	1005.123047	71.349876
11943.768617	1415.466667	1003.961914	106.939865
11943.768617	1415.466667	1002.799805	95.418739
11943.768617	1415.466667	1001.637695	-41.916237
11943.768617	1415.466667	1000.475586	40.649303
11943.768617	1415.466667	999.312500	130.302475
11943.768617	1415.466667	998.149414	17.093988
11943.768617	1415.466667	996.986328	36.348564
11943.768617	1415.466667	995.823242	208.708313
11943.768617	1415.466667	994.659180	16.277800
11943.768617	1415.466667	993.496094	58.235653
11943.768617	1415.466667	992.332031	107.266060
11943.768617	1415.466667	991.166992	19.037462
11943.768617	1415.466667	990.002930	82.647507
11943.768617	1415.466667	988.837891	-74.370079
11943.768617	1415.466667	987.672852	-54.824364
11943.768617	1415.466667	986.506836	60.938450
11943.768617	1415.466667	985.341797	-64.352074
11943.768617	1415.466667	984.175781	-28.138855
11943.768617	1415.466667	983.009766	-76.536095
11943.768617	1415.466667	981.843750	-26.805984
11943.768617	1415.466667	980.676758	-32.040371
11943.768617	1415.466667	979.509766	-14.281657
11943.768617	1415.466667	978.342773	80.844200
11943.768617	1415.466667	977.175781	87.411926
11943.768617	1415.466667	976.007813	58.860401
11943.768617	1415.466667	974.839844	69.087685
11943.768617	1415.466667	973.671875	25.197315
11943.768617	1415.466667	972.503906	136.012558
11943.768617	1415.466667	971.334961	25.254953
11943.768617	1415.466667	970.166016	61.985210
11943.768617	1415.466667	968.997070	37.017307
11943.768617	1415.466667	967.828125	104.571487
11943.768617	1415.466667	966.658203	57.726185
11943.768617	1415.466667	965.488281	-62.384613
11943.768617	1415.466667	964.318359	17.763525
11943.768617	1415.466667	963.148438	88.719933
11943.768617	1415.466667	961.977539	53.231964
11943.768617	1415.466667	960.806641	25.386761
11943.768617	1415.466667	959.635742	4.652596
11943.768617	1415.466667	958.463867	47.865669
11943.768617	1415.466667	957.292969	1.301391
11943.768617	1415.466667	956.121094	51.561810
11943.768617	1415.466667	954.948242	114.590759
11943.768617	1415.466667	953.776367	109.020638
11943.768617	1415.466667	952.603516	39.381180
11943.768617	1415.466667	951.430664	-10.742366
11943.768617	1415.466667	950.257813	30.323847
11943.768617	1415.466667	949.084961	-48.163822
11943.768617	1415.466667	947.911133	19.548712
11943.768617	1415.466667	946.737305	105.505722
11943.768617	1415.466667	945.563477	27.417664
11943.768617	1415.466667	944.388672	23.232935
11943.768617	1415.466667	943.213867	-61.990498
11943.768617	1415.466667	942.039063	-9.839535
11943.768617	1415.466667	940.864258	-97.211624
11943.768617	1415.466667	939.688477	67.338173
11943.768617	1415.466667	938.513672	94.657318
11943.768617	1415.466667	937.337891	67.936928
11943.768617	1415.466667	936.161133	61.572491
11943.768617	1415.466667	934.985352	5.600990
11943.768617	1415.466667	933.808594	-43.486233
11943.768617	1415.466667	932.631836	13.002177
11943.768617	1415.466667	931.454102	136.945648
11943.768617	1415.466667	930.277344	170.885147
11943.768617	1415.466667	929.099609	16.082449
11943.768617	1415.466667	927.921875	47.802177
11943.768617	1415.466667	926.743164	25.547272
11943.768617	1415.466667	925.565430	61.744495
11943.768617	1415.466667	924.386719	23.771278
11943.768617	1415.466667	923.208008	-90.553032
11943.768617	1415.466667	922.028320	37.684628
11943.768617	1415.466667	920.849609	60.337837
11943.768617	1415.466667	919.669922	61.451931
11943.768617	1415.466667	919.474609	-60.507153
11943.768617	1415.466667	918.309570	81.072983
11943.768617	1415.466667	917.143555	34.101540
11943.768617	1415.466667	915.977539	126.229958
11943.768617	1415.466667	914.810547	-30.655624
11943.768617	1415.466667	913.644531	9.850248
11943.768617	1415.466667	912.477539	-12.446953
11943.768617	1415.466667	911.310547	12.328358
11943.768617	1415.466667	910.143555	93.110756
11943.768617	1415.466667	908.975586	28.207224
11943.768617	1415.466667	907.807617	43.967503
11943.768617	1415.466667	906.639648	39.552723
11943.768617	1415.466667	905.471680	-114.903809
11943.768617	1415.466667	904.303711	35.175537
11943.768617	1415.466667	903.134766	-5.079538
11943.768617	1415.466667	901.965820	-13.997480
11943.768617	1415.466667	900.796875	-132.558762
11943.768617	1415.466667	899.626953	-60.934490
11943.768617	1415.466667	898.457031	-132.490204
11943.768617	1415.466667	897.287109	-27.374329
11943.768617	1415.466667	896.117188	79.923859
11943.768617	1415.466667	894.947266	3.880929
11943.768617	1415.466667	893.776367	-45.323696
11943.768617	1415.466667	892.605469	35.069984
11943.768617	1415.466667	891.434570	97.549759
11943.768617	1415.466667	890.262695	25.991318
11943.768617	1415.466667	889.091797	12.507026
11943.768617	1415.466667	887.919922	-38.933968
11943.768617	1415.466667	886.748047	48.020172
11943.768617	1415.466667	885.575195	-72.605972
11943.768617	1415.466667	884.403320	-88.332291
11943.768617	1415.466667	883.230469	-90.678482
11943.768617	1415.466667	882.057617	-79.653023
11943.768617	1415.466667	880.883789	-37.426189
11943.768617	1415.466667	879.710938	-35.355217
11943.768617	1415.466667	878.537109	-71.184959
11943.768617	1415.466667	877.362305	-120.379814
11943.768617	1415.466667	876.188477	-89.361893
11943.768617	1415.466667	875.013672	-65.049446
11943.768617	1415.466667	873.839844	-40.757629
11943.768617	1415.466667	872.664063	-69.922722
11943.768617	1415.466667	871.489258	-56.792053
11943.768617	1415.466667	870.313477	-32.548607
11943.768617	1415.466667	869.138672	11.700066
11943.768617	1415.466667	867.962891	95.964798
11943.768617	1415.466667	866.786133	53.401794
11943.768617	1415.466667	865.610352	119.811279
11943.768617	1415.466667	864.433594	-62.832119
11943.768617	1415.466667	863.256836	-40.905380
11943.768617	1415.466667	862.079102	-16.775723
11943.768617	1415.466667	860.902344	-48.217079
11943.768617	1415.466667	859.724609	-35.226070
11943.768617	1415.466667	858.546875	97.686554
11943.768617	1415.466667	857.368164	-18.174572
11943.768617	1415.466667	856.190430	-78.495918
11943.768617	1415.466667	855.011719	-23.379152
11943.768617	1415.466667	853.833008	-54.846226
11943.768617	1415.466667	852.654297	46.815254
11943.768617	1415.466667	851.474609	-11.295702
11943.768617	1415.466667	850.294922	-60.522789
11943.768617	1415.466667	849.115234	-76.479301
11943.768617	1415.466667	847.935547	-45.884502
11943.768617	1415.466667	846.754883	-46.343998
11943.768617	1415.466667	845.575195	19.666361
11943.768617	1415.466667	844.393555	-38.434902
11943.768617	1415.466667	843.212891	93.978577
11943.768617	1415.466667	842.032227	91.229881
11943.768617	1415.466667	840.850586	-6.741231
11943.768617	1415.466667	839.668945	-177.738342
11943.768617	1415.466667	838.486328	-5.610281
11943.768617	1415.466667	837.304688	0.469464
11943.768617	1415.466667	836.122070	-6.739256
11943.768617	1415.466667	834.939453	39.130428
11943.768617	1415.466667	833.756836	157.949097
11943.768617	1415.466667	832.573242	57.813683
11943.768617	1415.466667	831.389648	88.133057
11943.768617	1415.466667	830.206055	-23.021021
11943.768617	1415.466667	829.022461	-5.979616
11943.768617	1415.466667	827.838867	136.969162
11943.768617	1415.466667	826.654297	-20.545591
11943.768617	1415.466667	825.469727	31.782516
11943.768617	1415.466667	824.284180	-32.938923
11943.768617	1415.466667	823.099609	-88.816750
11943.768617	1415.466667	821.914063	-135.855026
11943.768617	1415.466667	820.728516	-43.876698
11943.768617	1415.466667	819.542969	-26.953568
11943.768617	1415.466667	818.356445	27.445244
11943.768617	1415.466667	817.169922	26.681381
11943.768617	1415.466667	815.983398	1.654729
11943.768617	1415.466667	814.796875	-10.148890
11943.768617	1415.466667	813.609375	61.783783
11943.768617	1415.466667	812.422852	25.711809
11943.768617	1415.466667	811.235352	27.091406
11943.768617	1415.466667	810.046875	-26.601885
11943.768617	1415.466667	808.859375	-47.255920
11943.768617	1415.466667	807.670898	-26.085438
11943.768617	1415.466667	806.482422	-51.157902
11943.768617	1415.466667	805.293945	-34.421082
11943.768617	1415.466667	804.104492	-0.102515
11943.768617	1415.466667	802.915039	20.991104
11943.768617	1415.466667	801.725586	-4.119245
11943.768617	1415.466667	800.536133	-9.443338
11943.768617	1415.466667	799.345703	53.369858
11943.768617	1415.466667	798.155273	80.979027
11943.768617	1415.466667	796.964844	47.036980
11943.768617	1415.466667	795.774414	-109.932365
11943.768617	1415.466667	794.583008	-55.986206
11943.768617	1415.466667	793.392578	19.884827
11943.768617	1415.466667	792.200195	73.756676
11943.768617	1415.466667	791.008789	59.544109
11943.768617	1415.466667	789.816406	54.103867
11943.768617	1415.466667	788.625000	13.545993
11943.768617	1415.466667	787.432617	51.966949
11943.768617	1415.466667	786.239258	64.039543
11943.768617	1415.466667	785.046875	8.116566
11943.768617	1415.466667	783.853516	-30.256861
11943.768617	1415.466667	782.660156	-35.748089
11943.768617	1415.466667	781.465820	107.770630
11943.768617	1415.466667	780.272461	29.923157
11943.768617	1415.466667	779.078125	-21.618013
11943.768617	1415.466667	777.883789	-180.465988
11943.768617	1415.466667	776.688477	-8.622468
11943.768617	1415.466667	775.494141	82.136612
11943.768617	1415.466667	774.298828	80.917244
11943.768617	1415.466667	773.103516	7.471604
11943.768617	1415.466667	771.907227	-13.448130
11943.768617	1415.466667	770.711914	105.620949
11943.768617	1415.466667	769.515625	-22.496492
11943.768617	1415.466667	768.318359	33.090637
11943.768617	1415.466667	767.122070	82.084076
11943.768617	1415.466667	765.924805	78.589676
11943.768617	1415.466667	764.727539	18.271320
11943.768617	1415.466667	763.530273	99.967865
11943.768617	1415.466667	762.333008	59.301884
11943.768617	1415.466667	761.134766	25.190514
11943.768617	1415.466667	759.936523	95.879204
11943.768617	1415.466667	758.738281	31.188768
11943.768617	1415.466667	757.540039	173.839432
11943.768617	1415.466667	756.340820	-15.236581
11943.768617	1415.466667	755.141602	146.971375
11943.768617	1415.466667	753.942383	25.565374
11943.768617	1415.466667	752.742188	80.822830
11943.768617	1415.466667	751.541992	-68.886711
11943.768617	1415.466667	750.341797	-20.197495
11943.768617	1415.466667	749.141602	54.609238
11943.768617	1415.466667	747.941406	92.332817
11943.768617	1415.466667	746.740234	-5.027201
11943.768617	1415.466667	745.539063	93.646347
11943.768617	1415.466667	744.337891	172.669403
11943.768617	1415.466667	743.135742	42.660152
11943.768617	1415.466667	741.933594	1.928164
11943.768617	1415.466667	740.731445	48.241535
11943.768617	1415.466667	739.529297	16.201851
11943.768617	1415.466667	738.326172	60.291515
11943.768617	1415.466667	737.124023	158.716705
11943.768617	1415.466667	735.919922	37.491901
11943.768617	1415.466667	734.716797	155.419083
11943.768617	1415.466667	733.513672	19.007021
11943.768617	1415.466667	732.309570	212.912384
11943.768617	1415.466667	731.105469	193.829117
11943.768617	1415.466667	729.900391	179.084305
11943.768617	1415.466667	728.696289	86.160126
11943.768617	1415.466667	727.491211	108.325928
11943.768617	1415.466667	726.286133	171.711243
11943.768617	1415.466667	725.080078	111.359428
11943.768617	1415.466667	723.874023	-42.275238
11943.768617	1415.466667	722.668945	36.248863
11943.768617	1415.466667	721.461914	171.113876
11943.768617	1415.466667	720.255859	99.921432
11943.768617	1415.466667	719.048828	30.913406
11943.768617	1415.466667	717.841797	20.441587
11943.768617	1415.466667	716.634766	-26.875809
11943.768617	1415.466667	715.427734	-41.688629
11943.768617	1415.466667	714.219727	-13.187008
11943.768617	1415.466667	713.011719	30.449162
11943.768617	1415.466667	711.803711	-75.338661
11943.768617	1415.466667	710.594727	24.548929
11943.768617	1415.466667	709.385742	-7.634835
11943.768617	1415.466667	708.176758	25.095951
11943.768617	1415.466667	706.967773	49.148087
11943.768617	1415.466667	705.758789	29.920563
11943.768617	1415.466667	704.548828	49.612350
11943.768617	1415.466667	703.338867	129.818542
11943.768617	1415.466667	702.127930	-60.209187
11943.768617	1415.466667	700.917969	54.540157
11943.768617	1415.466667	699.707031	46.074757
11943.768617	1415.466667	698.496094	-1.281250
11943.768617	1415.466667	697.285156	39.918495
11943.768617	1415.466667	696.073242	-7.439581
11943.768617	1415.466667	694.861328	79.054619
11943.768617	1415.466667	693.649414	89.960258
11943.768617	1415.466667	692.436523	-39.412441
11943.768617	1415.466667	691.224609	-30.666115
11943.768617	1415.466667	690.011719	49.243919
11943.768617	1415.466667	688.798828	-8.906953
11943.768617	1415.466667	687.584961	55.850163
11943.768617	1415.466667	686.372070	103.325287
11943.768617	1415.466667	685.158203	-47.504818
11943.768617	1415.466667	683.943359	-17.288528
11943.768617	1415.466667	682.729492	228.329651
11943.768617	1415.466667	681.514648	79.689209
11943.768617	1415.466667	680.299805	-4.298644
11943.768617	1415.466667	679.084961	96.886200
11943.768617	1415.466667	677.869141	-66.731262
11943.768617	1415.466667	676.653320	135.545837
11943.768617	1415.466667	675.437500	129.030090
11943.768617	1415.466667	674.221680	27.860283
11943.768617	1415.466667	673.004883	-2.307768
11943.768617	1415.466667	671.789063	100.838608
11943.768617	1415.466667	670.571289	27.653389
11943.768617	1415.466667	669.354492	89.893646
11943.768617	1415.466667	668.136719	53.252258
11943.768617	1415.466667	666.919922	57.436966
11943.768617	1415.466667	665.701172	-69.413658
11943.768617	1415.466667	664.483398	9.936057
11943.768617	1415.466667	663.264648	-20.254658
11943.768617	1415.466667	662.045898	142.747787
11943.768617	1415.466667	660.827148	118.962540
11943.768617	1415.466667	659.608398	41.537674
11943.768617	1415.466667	658.388672	-61.606403
11943.768617	1415.466667	657.168945	96.941666
11943.768617	1415.466667	655.949219	53.852394
11943.768617	1415.466667	654.728516	-2.091015
11943.768617	1415.466667	653.507813	44.862648
11943.768617	1415.466667	652.287109	46.787727
11943.768617	1415.466667	651.066406	1.569104
11943.768617	1415.466667	649.844727	7.769248
11943.768617	1415.466667	648.623047	48.224361
11943.768617	1415.466667	647.401367	73.666504
11943.768617	1415.466667	646.179688	58.418549
11943.768617	1415.466667	644.957031	19.625954
11943.768617	1415.466667	643.734375	27.916939
11943.768617	1415.466667	642.511719	-68.627800
11943.768617	1415.466667	641.289063	-81.724457
11943.768617	1415.466667	640.065430	31.342239
11943.768617	1415.466667	638.841797	-41.646637
11943.768617	1415.466667	637.618164	35.012650
11943.768617	1415.466667	636.393555	-35.823536
11943.768617	1415.466667	635.168945	66.427162
11943.768617	1415.466667	633.944336	147.266830
11943.768617	1415.466667	632.719727	42.262486
11943.768617	1415.466667	631.494141	3.487273
11943.768617	1415.466667	630.269531	94.944695
11943.768617	1415.466667	629.042969	39.087311
11943.768617	1415.466667	627.817383	-25.286207
11943.768617	1415.466667	626.590820	51.166080
11943.768617	1415.466667	625.365234	3.870065
11943.768617	1415.466667	624.137695	110.126907
11943.768617	1415.466667	622.911133	105.467728
11943.768617	1415.466667	621.683594	75.225166
11943.768617	1415.466667	620.456055	-31.730776
11943.768617	1415.466667	619.228516	10.502359
11943.768617	1415.466667	618.000977	69.755264
11943.768617	1415.466667	616.772461	67.212860
11943.768617	1415.466667	615.543945	54.020535
11943.768617	1415.466667	614.314453	134.499435
11943.768617	1415.466667	613.085938	-29.829288
11943.768617	1415.466667	611.856445	42.113052
11943.768617	1415.466667	610.626953	-51.927071
11943.768617	1415.466667	609.397461	28.489424
11943.768617	1415.466667	608.166992	32.308655
11943.768617	1415.466667	606.936523	-40.420162
11943.768617	1415.466667	605.706055	1.667335
11943.768617	1415.466667	604.474609	24.605152
11943.768617	1415.466667	603.244141	-35.336998
11943.768617	1415.466667	602.012695	-20.905678
11943.768617	1415.466667	600.780273	-34.095421
11943.768617	1415.466667	599.548828	-60.022251
11943.768617	1415.466667	598.316406	-81.695930
11943.768617	1415.466667	597.083984	-3.602893
11943.768617	1415.466667	595.851563	-44.384651
11943.768617	1415.466667	594.618164	-127.585846
11943.768617	1415.466667	593.384766	-49.542038
11943.768617	1415.466667	592.151367	-18.191132
11943.768617	1415.466667	590.917969	42.828278
11943.768617	1415.466667	589.683594	59.301117
11943.768617	1415.466667	588.449219	39.735088
11943.768617	1415.466667	587.214844	-37.036743
11943.768617	1415.466667	585.979492	40.871136
11943.768617	1415.466667	584.745117	14.960361
11943.768617	1415.466667	583.509766	-85.058189
11943.768617	1415.466667	582.273438	-66.477440
11943.768617	1415.466667	581.038086	-56.372410
11943.768617	1415.466667	579.801758	-97.064468
11943.768617	1415.466667	578.565430	-42.530331
11943.768617	1415.466667	577.329102	-47.250912
11943.768617	1415.466667	576.091797	-39.283138
11943.768617	1415.466667	574.854492	144.177521
11943.768617	1415.466667	573.617188	71.765862
11943.768617	1415.466667	572.378906	35.312134
11943.768617	1415.466667	571.141602	106.640709
11943.768617	1415.466667	569.903320	49.065411
11943.768617	1415.466667	568.664063	-114.097847
11943.768617	1415.466667	567.425781	-13.225400
11943.768617	1415.466667	566.186523	45.374977
11943.768617	1415.466667	564.947266	-126.131882
11943.768617	1415.466667	563.708008	-29.548729
11943.768617	1415.466667	562.467773	14.241256
11943.768617	1415.466667	561.227539	66.448799
11943.768617	1415.466667	559.987305	-88.052620
11943.768617	1415.466667	558.747070	-40.067261
11943.768617	1415.466667	557.505859	-76.430466
11943.768617	1415.466667	556.264648	9.464930
11943.768617	1415.466667	555.023438	13.139358
11943.768617	1415.466667	553.781250	-52.714729
11943.768617	1415.466667	552.539063	96.301331
11943.768617	1415.466667	551.296875	-60.100182
11943.768617	1415.466667	550.054688	8.842343
11943.768617	1415.466667	548.811523	41.967312
11943.768617	1415.466667	547.569336	-61.717922
11943.768617	1415.466667	546.325195	28.209814
11943.768617	1415.466667	545.082031	-75.435654
11943.768617	1415.466667	543.837891	-19.201059
11943.768617	1415.466667	542.593750	-129.108719
11943.768617	1415.466667	541.349609	-26.644156
11943.768617	1415.466667	540.105469	14.819852
11943.768617	1415.466667	538.860352	22.638708
11943.768617	1415.466667	537.615234	129.192902
11943.768617	1415.466667	536.369141	71.858788
11943.768617	1415.466667	535.124023	71.245720
11943.768617	1415.466667	533.877930	22.336607
11943.768617	1415.466667	532.631836	63.704769
11943.768617	1415.466667	531.384766	29.496040
11943.768617	1415.466667	530.138672	35.162991
11943.768617	1415.466667	528.891602	7.255846
11943.768617	1415.466667	527.643555	-79.372223
11943.768617	1415.466667	526.396484	-84.191513
11943.768617	1415.466667	525.148438	-89.017593
11943.768617	1415.466667	523.900391	59.156376
11943.768617	1415.466667	522.652344	-29.534737
11943.768617	1415.466667	521.403320	-2.969671
11943.768617	1415.466667	520.154297	69.656723
11943.768617	1415.466667	518.905273	-71.363029
11943.768617	1415.466667	517.656250	43.101982
11943.768617	1415.466667	516.406250	10.976624
11943.768617	1415.466667	515.156250	3.968353
11943.768617	1415.466667	513.906250	-67.912598
11943.768617	1415.466667	512.655273	29.670202
11943.768617	1415.466667	511.404297	-38.028473
11943.768617	1415.466667	510.153320	61.571388
11943.768617	1415.466667	508.902344	129.755341
11943.768617	1415.466667	507.650391	9.783510
11943.768617	1415.466667	506.398438	61.201176
11943.768617	1415.466667	505.146484	108.403206
11943.768617	1415.466667	503.893555	40.683811
11943.768617	1415.466667	502.641602	156.751389
11943.768617	1415.466667	501.388672	7.588998
11943.768617	1415.466667	500.134766	144.448334
11943.768617	1415.466667	498.881836	76.707230
11943.768617	1415.466667	497.627930	98.694794
11943.768617	1415.466667	496.374023	179.062180
11943.768617	1415.466667	495.119141	144.661957
11943.768617	1415.466667	493.865234	168.641006
11943.768617	1415.466667	492.610352	148.804794
11943.768617	1415.466667	491.355469	145.627197
11943.768617	1415.466667	490.099609	111.166656
11943.768617	1415.466667	488.843750	257.949738
11943.768617	1415.466667	487.587891	244.255768
11943.768617	1415.466667	486.332031	70.187744
11943.768617	1415.466667	485.075195	156.419159
11943.768617	1415.466667	483.818359	242.583008
11943.768617	1415.466667	482.561523	326.597168
11943.768617	1415.466667	481.304688	242.006409
11943.768617	1415.466667	480.046875	251.027481
11943.768617	1415.466667	478.789063	289.126862
11943.768617	1415.466667	477.531250	266.872650
11943.768617	1415.466667	476.272461	167.668961
11943.768617	1415.466667	475.013672	205.647736
11943.768617	1415.466667	473.754883	318.378021
11943.768617	1415.466667	472.496094	325.063538
11943.768617	1415.466667	471.236328	190.457275
11943.768617	1415.466667	469.976563	271.838104
11943.768617	1415.466667	468.716797	274.241760
11943.768617	1415.466667	467.456055	392.838440
11943.768617	1415.466667	466.196289	200.039642
11943.768617	1415.466667	464.935547	335.100677
11943.768617	1415.466667	463.673828	212.821671
11943.768617	1415.466667	462.413086	200.464310
11943.768617	1415.466667	461.151367	233.672745
11943.768617	1415.466667	459.889648	225.348465
11943.768617	1415.466667	458.626953	256.346680
11943.768617	1415.466667	457.364258	216.816925
11943.768617	1415.466667	456.101563	326.406830
11943.768617	1415.466667	454.838867	276.395813
11943.768617	1415.466667	453.575195	342.305237
11943.768617	1415.466667	452.312500	234.207260
11943.768617	1415.466667	451.047852	235.788132
11943.768617	1415.466667	449.784180	336.634521
11943.768617	1415.466667	448.519531	340.115265
11943.768617	1415.466667	447.254883	248.361908
11943.768617	1415.466667	445.990234	408.885010
11943.768617	1415.466667	444.725586	300.455811
11943.768617	1415.466667	443.459961	398.713074
11943.768617	1415.466667	442.194336	401.769257
11943.768617	1415.466667	440.927734	398.533875
11943.768617	1415.466667	439.662109	333.235565
11943.768617	1415.466667	438.395508	360.815094
11943.768617	1415.466667	437.127930	390.349365
11943.768617	1415.466667	435.861328	264.933014
11943.768617	1415.466667	434.593750	333.494934
11943.768617	1415.466667	433.326172	346.203979
11943.768617	1415.466667	432.058594	265.956390
11943.768617	1415.466667	430.790039	334.151794
11943.768617	1415.466667	429.521484	272.277954
11943.768617	1415.466667	428.252930	224.749496
11943.768617	1415.466667	426.984375	222.476120
11943.768617	1415.466667	425.714844	370.532227
11943.768617	1415.466667	424.445313	279.375366
11943.768617	1415.466667	423.174805	307.612793
11943.768617	1415.466667	421.905273	273.922974
11943.768617	1415.466667	420.634766	238.049637
11943.768617	1415.466667	419.364258	372.933441
11943.768617	1415.466667	418.092773	262.672668
11943.768617	1415.466667	416.822266	372.514191
11943.768617	1415.466667	415.550781	245.550797
11943.768617	1415.466667	414.278320	200.765472
11943.768617	1415.466667	413.006836	238.112106
11943.768617	1415.466667	411.734375	447.989716
11943.768617	1415.466667	410.461914	367.768433
11943.768617	1415.466667	409.188477	326.458832
11943.768617	1415.466667	407.916016	344.590698
11943.768617	1415.466667	406.642578	305.013489
11943.768617	1415.466667	405.368164	318.670074
11943.768617	1415.466667	404.094727	282.861816
11943.768617	1415.466667	402.820313	283.829193
11943.768617	1415.466667	401.545898	366.706390
11943.768617	1415.466667	400.270508	328.272522
11943.768617	1415.466667	398.996094	226.061279
11943.768617	1415.466667	397.720703	322.647614
11943.768617	1415.466667	396.444336	234.409378
11943.768617	1415.466667	395.168945	264.918976
11943.768617	1415.466667	393.892578	348.485535
11943.768617	1415.466667	392.616211	189.961502
11943.768617	1415.466667	391.339844	119.383087
11943.768617	1415.466667	390.062500	349.725250
11943.768617	1415.466667	388.785156	266.372894
11943.768617	1415.466667	387.507813	117.288246
11943.768617	1415.466667	386.229492	285.323395
11943.768617	1415.466667	384.951172	168.533417
11943.768617	1415.466667	383.672852	276.625397
11943.768617	1415.466667	382.394531	233.010925
11943.768617	1415.466667	381.115234	162.543839
11943.768617	1415.466667	379.835938	202.257217
11943.768617	1415.466667	378.556641	192.600403
11943.768617	1415.466667	377.277344	295.081818
11943.768617	1415.466667	375.997070	237.809906
11943.768617	1415.466667	374.716797	278.332855
11943.768617	1415.466667	373.435547	167.356628
11943.768617	1415.466667	372.155273	135.772995
11943.768617	1415.466667	370.874023	154.916992
11943.768617	1415.466667	369.591797	379.893860
11943.768617	1415.466667	368.310547	141.152130
11943.768617	1415.466667	367.028320	224.561249
11943.768617	1415.466667	365.746094	154.580429
11943.768617	1415.466667	364.463867	-25.865953
11943.768617	1415.466667	363.180664	82.953537
11943.768617	1415.466667	361.897461	60.876038
11943.768617	1415.466667	360.614258	209.646378
11943.768617	1415.466667	359.330078	54.314144
11943.768617	1415.466667	358.045898	-1.511554
11943.768617	1415.466667	356.761719	68.576866
11943.768617	1415.466667	355.477539	-2.292910
11943.768617	1415.466667	354.192383	56.744427
11943.768617	1415.466667	352.907227	62.404644
11943.768617	1415.466667	351.622070	140.895645
11943.768617	1415.466667	350.336914	123.277763
11943.768617	1415.466667	349.050781	149.956009
11943.768617	1415.466667	347.764648	129.384735
11943.768617	1415.466667	346.477539	96.137924
11943.768617	1415.466667	345.191406	76.675720
11943.768617	1415.466667	343.904297	22.166571
11943.768617	1415.466667	342.616211	-8.447246
11943.768617	1415.466667	341.329102	47.825970
11943.768617	1415.466667	340.041016	58.856663
11943.768617	1415.466667	338.752930	10.466958
11943.768617	1415.466667	337.463867	4.182365
11943.768617	1415.466667	336.175781	9.555729
11943.768617	1415.466667	334.886719	6.236050
11943.768617	1415.466667	333.596680	44.942345
11943.768617	1415.466667	332.307617	123.648933
11943.768617	1415.466667	331.017578	-167.396545
11943.768617	1415.466667	329.727539	-24.993690
11943.768617	1415.466667	328.436523	-41.402702
11943.768617	1415.466667	327.146484	20.644680
11943.768617	1415.466667	325.855469	-86.169579
11943.768617	1415.466667	324.563477	-98.384468
11943.768617	1415.466667	323.272461	-64.635643
11943.768617	1415.466667	321.980469	-74.113075
11943.768617	1415.466667	320.688477	-72.112762
11943.768617	1415.466667	319.395508	-109.282677
11943.768617	1415.466667	318.103516	-136.990479
11943.768617	1415.466667	316.810547	-116.865364
11943.768617	1415.466667	315.516602	-26.701502
11943.768617	1415.466667	314.223633	14.179071
11943.768617	1415.466667	312.929688	64.374916
11943.768617	1415.466667	311.635742	57.187225
11943.768617	1415.466667	310.340820	-25.578453
11943.768617	1415.466667	309.045898	129.331482
11943.768617	1415.466667	307.750977	125.802155
11943.768617	1415.466667	306.456055	151.755127
11943.768617	1415.466667	305.160156	122.317093
11943.768617	1415.466667	303.865234	180.908752
11943.768617	1415.466667	302.568359	313.232086
11943.768617	1415.466667	301.272461	283.225342
11943.768617	1415.466667	299.975586	157.490067
11943.768617	1415.466667	298.678711	317.328125
