#X		#Y		#Wave		#Intensity
11840.134043	1562.366667	1999.980469	-6.348847
11840.134043	1562.366667	1999.016602	-54.746441
11840.134043	1562.366667	1998.052734	-99.367508
11840.134043	1562.366667	1997.087891	39.360405
11840.134043	1562.366667	1996.123047	44.193550
11840.134043	1562.366667	1995.158203	-57.543777
11840.134043	1562.366667	1994.193359	6.651905
11840.134043	1562.366667	1993.228516	-8.464474
11840.134043	1562.366667	1992.262695	-75.611771
11840.134043	1562.366667	1991.297852	-41.289730
11840.134043	1562.366667	1990.332031	-4.547501
11840.134043	1562.366667	1989.366211	-9.927917
11840.134043	1562.366667	1988.399414	110.826988
11840.134043	1562.366667	1987.433594	231.495590
11840.134043	1562.366667	1986.466797	89.934120
11840.134043	1562.366667	1985.500977	-36.779114
11840.134043	1562.366667	1984.534180	73.844734
11840.134043	1562.366667	1983.567383	3.956360
11840.134043	1562.366667	1982.599609	134.228455
11840.134043	1562.366667	1981.632813	93.931969
11840.134043	1562.366667	1980.665039	90.671127
11840.134043	1562.366667	1979.697266	-4.007292
11840.134043	1562.366667	1978.729492	37.133377
11840.134043	1562.366667	1977.761719	-79.785942
11840.134043	1562.366667	1976.792969	23.002373
11840.134043	1562.366667	1975.825195	24.531816
11840.134043	1562.366667	1974.856445	-23.319948
11840.134043	1562.366667	1973.887695	-2.104641
11840.134043	1562.366667	1972.918945	78.274185
11840.134043	1562.366667	1971.949219	-26.369673
11840.134043	1562.366667	1970.980469	71.188927
11840.134043	1562.366667	1970.010742	-1.419787
11840.134043	1562.366667	1969.041016	133.017700
11840.134043	1562.366667	1968.071289	-43.129780
11840.134043	1562.366667	1967.101563	-7.340550
11840.134043	1562.366667	1966.130859	-99.687759
11840.134043	1562.366667	1965.161133	-4.836660
11840.134043	1562.366667	1964.190430	85.031578
11840.134043	1562.366667	1963.219727	24.657881
11840.134043	1562.366667	1962.249023	20.902231
11840.134043	1562.366667	1961.277344	-27.174397
11840.134043	1562.366667	1960.306641	-62.949020
11840.134043	1562.366667	1959.334961	122.691360
11840.134043	1562.366667	1958.363281	94.242119
11840.134043	1562.366667	1957.391602	6.760932
11840.134043	1562.366667	1956.419922	-43.822945
11840.134043	1562.366667	1955.447266	-89.489243
11840.134043	1562.366667	1954.474609	56.565536
11840.134043	1562.366667	1953.501953	-30.913464
11840.134043	1562.366667	1952.529297	48.703159
11840.134043	1562.366667	1951.556641	47.206917
11840.134043	1562.366667	1950.583984	33.415661
11840.134043	1562.366667	1949.610352	-100.713974
11840.134043	1562.366667	1948.636719	84.370575
11840.134043	1562.366667	1947.663086	18.986656
11840.134043	1562.366667	1946.689453	61.602962
11840.134043	1562.366667	1945.715820	143.452332
11840.134043	1562.366667	1944.741211	19.172947
11840.134043	1562.366667	1943.767578	98.521919
11840.134043	1562.366667	1942.792969	67.467522
11840.134043	1562.366667	1941.818359	36.413395
11840.134043	1562.366667	1940.842773	140.195389
11840.134043	1562.366667	1939.868164	64.997429
11840.134043	1562.366667	1938.892578	19.224176
11840.134043	1562.366667	1937.916992	-80.446289
11840.134043	1562.366667	1936.941406	-104.146927
11840.134043	1562.366667	1935.965820	-2.935022
11840.134043	1562.366667	1934.990234	117.821091
11840.134043	1562.366667	1934.013672	-79.765541
11840.134043	1562.366667	1933.037109	6.671148
11840.134043	1562.366667	1932.060547	44.118275
11840.134043	1562.366667	1931.083984	93.778763
11840.134043	1562.366667	1930.107422	-42.524853
11840.134043	1562.366667	1929.129883	-98.064362
11840.134043	1562.366667	1928.153320	-1.959929
11840.134043	1562.366667	1927.175781	45.197681
11840.134043	1562.366667	1926.198242	1.875604
11840.134043	1562.366667	1925.219727	141.883530
11840.134043	1562.366667	1924.242188	-4.092541
11840.134043	1562.366667	1923.263672	233.586044
11840.134043	1562.366667	1922.285156	97.406929
11840.134043	1562.366667	1921.306641	-43.612118
11840.134043	1562.366667	1920.328125	20.543268
11840.134043	1562.366667	1919.349609	16.306381
11840.134043	1562.366667	1918.370117	38.917480
11840.134043	1562.366667	1917.391602	-33.667873
11840.134043	1562.366667	1916.412109	59.699585
11840.134043	1562.366667	1915.431641	-3.114762
11840.134043	1562.366667	1914.452148	-56.151939
11840.134043	1562.366667	1913.472656	-21.376316
11840.134043	1562.366667	1912.492188	-20.755705
11840.134043	1562.366667	1911.511719	-54.269787
11840.134043	1562.366667	1910.531250	-131.648895
11840.134043	1562.366667	1909.550781	-79.842644
11840.134043	1562.366667	1908.569336	-18.313976
11840.134043	1562.366667	1907.588867	164.992264
11840.134043	1562.366667	1906.607422	172.861938
11840.134043	1562.366667	1905.625977	-33.568951
11840.134043	1562.366667	1904.644531	-8.628423
11840.134043	1562.366667	1903.662109	-37.255081
11840.134043	1562.366667	1902.680664	116.661407
11840.134043	1562.366667	1901.698242	63.682716
11840.134043	1562.366667	1900.715820	13.153844
11840.134043	1562.366667	1899.733398	-90.872429
11840.134043	1562.366667	1898.750000	-34.352795
11840.134043	1562.366667	1897.767578	-148.063171
11840.134043	1562.366667	1896.784180	-8.903338
11840.134043	1562.366667	1895.800781	-83.692406
11840.134043	1562.366667	1894.817383	-19.937166
11840.134043	1562.366667	1893.833984	-26.669344
11840.134043	1562.366667	1892.850586	109.923584
11840.134043	1562.366667	1891.866211	-59.565830
11840.134043	1562.366667	1890.881836	-12.872210
11840.134043	1562.366667	1889.897461	67.791550
11840.134043	1562.366667	1888.913086	34.333172
11840.134043	1562.366667	1887.927734	78.547325
11840.134043	1562.366667	1886.943359	125.169823
11840.134043	1562.366667	1885.958008	-22.314474
11840.134043	1562.366667	1884.972656	-247.366287
11840.134043	1562.366667	1883.987305	53.924034
11840.134043	1562.366667	1883.001953	-144.391312
11840.134043	1562.366667	1882.015625	-61.421959
11840.134043	1562.366667	1881.029297	69.989021
11840.134043	1562.366667	1880.042969	82.604286
11840.134043	1562.366667	1879.056641	124.286095
11840.134043	1562.366667	1878.070313	76.319557
11840.134043	1562.366667	1877.083984	139.778824
11840.134043	1562.366667	1876.096680	-9.883761
11840.134043	1562.366667	1875.109375	-14.229060
11840.134043	1562.366667	1874.122070	8.050974
11840.134043	1562.366667	1873.134766	-199.596954
11840.134043	1562.366667	1872.146484	71.932785
11840.134043	1562.366667	1871.159180	-9.854482
11840.134043	1562.366667	1870.170898	-21.469620
11840.134043	1562.366667	1869.182617	-23.410978
11840.134043	1562.366667	1868.194336	-10.847589
11840.134043	1562.366667	1867.205078	-128.835968
11840.134043	1562.366667	1866.216797	-101.763359
11840.134043	1562.366667	1865.227539	-74.705597
11840.134043	1562.366667	1864.238281	-69.406647
11840.134043	1562.366667	1863.249023	-3.723543
11840.134043	1562.366667	1862.259766	110.234726
11840.134043	1562.366667	1861.269531	88.919899
11840.134043	1562.366667	1860.279297	115.894180
11840.134043	1562.366667	1859.290039	75.267639
11840.134043	1562.366667	1858.298828	37.063137
11840.134043	1562.366667	1857.308594	80.907974
11840.134043	1562.366667	1856.318359	136.793900
11840.134043	1562.366667	1855.327148	45.520279
11840.134043	1562.366667	1854.335938	-4.727635
11840.134043	1562.366667	1853.344727	19.781967
11840.134043	1562.366667	1852.353516	10.527475
11840.134043	1562.366667	1851.362305	61.526340
11840.134043	1562.366667	1850.370117	100.450447
11840.134043	1562.366667	1849.377930	93.577339
11840.134043	1562.366667	1848.385742	134.877609
11840.134043	1562.366667	1847.393555	53.328640
11840.134043	1562.366667	1846.401367	48.857552
11840.134043	1562.366667	1845.408203	39.566360
11840.134043	1562.366667	1844.415039	83.226303
11840.134043	1562.366667	1843.421875	160.554993
11840.134043	1562.366667	1842.428711	16.484932
11840.134043	1562.366667	1841.435547	16.802094
11840.134043	1562.366667	1840.441406	72.430725
11840.134043	1562.366667	1839.448242	-160.539139
11840.134043	1562.366667	1838.454102	159.561447
11840.134043	1562.366667	1837.459961	1.165846
11840.134043	1562.366667	1836.464844	63.935097
11840.134043	1562.366667	1835.470703	150.702438
11840.134043	1562.366667	1834.475586	-31.651321
11840.134043	1562.366667	1833.480469	-69.821701
11840.134043	1562.366667	1832.485352	-57.552994
11840.134043	1562.366667	1831.490234	144.392441
11840.134043	1562.366667	1830.495117	12.557922
11840.134043	1562.366667	1829.499023	-42.429771
11840.134043	1562.366667	1828.502930	46.581543
11840.134043	1562.366667	1827.506836	32.378822
11840.134043	1562.366667	1826.510742	135.716797
11840.134043	1562.366667	1825.513672	104.693909
11840.134043	1562.366667	1824.517578	90.459480
11840.134043	1562.366667	1823.520508	90.604584
11840.134043	1562.366667	1822.523438	112.313179
11840.134043	1562.366667	1821.526367	-16.983242
11840.134043	1562.366667	1820.529297	76.602371
11840.134043	1562.366667	1819.531250	67.124947
11840.134043	1562.366667	1818.533203	160.636642
11840.134043	1562.366667	1817.535156	88.860458
11840.134043	1562.366667	1816.537109	79.353859
11840.134043	1562.366667	1815.539063	208.686020
11840.134043	1562.366667	1814.540039	31.594923
11840.134043	1562.366667	1813.541992	46.000622
11840.134043	1562.366667	1812.542969	2.966622
11840.134043	1562.366667	1811.543945	105.854736
11840.134043	1562.366667	1810.543945	-8.948169
11840.134043	1562.366667	1809.544922	67.576187
11840.134043	1562.366667	1808.544922	57.991718
11840.134043	1562.366667	1807.544922	-104.580444
11840.134043	1562.366667	1806.544922	72.254089
11840.134043	1562.366667	1805.544922	33.963417
11840.134043	1562.366667	1804.544922	-140.495071
11840.134043	1562.366667	1803.543945	-9.175523
11840.134043	1562.366667	1802.542969	17.007627
11840.134043	1562.366667	1801.541992	52.717800
11840.134043	1562.366667	1800.541016	-16.633032
11840.134043	1562.366667	1799.539063	50.068432
11840.134043	1562.366667	1798.538086	28.441330
11840.134043	1562.366667	1797.536133	130.867691
11840.134043	1562.366667	1796.534180	32.873550
11840.134043	1562.366667	1795.532227	4.063776
11840.134043	1562.366667	1794.529297	194.616058
11840.134043	1562.366667	1793.527344	13.183356
11840.134043	1562.366667	1792.524414	15.334096
11840.134043	1562.366667	1791.521484	5.553878
11840.134043	1562.366667	1790.518555	162.545212
11840.134043	1562.366667	1789.514648	-102.182243
11840.134043	1562.366667	1788.511719	-14.329866
11840.134043	1562.366667	1787.507813	94.903542
11840.134043	1562.366667	1786.503906	108.847900
11840.134043	1562.366667	1785.500000	-55.756191
11840.134043	1562.366667	1784.496094	36.716629
11840.134043	1562.366667	1783.491211	-1.733325
11840.134043	1562.366667	1782.486328	64.491508
11840.134043	1562.366667	1781.481445	140.189362
11840.134043	1562.366667	1780.476563	-10.078382
11840.134043	1562.366667	1779.471680	3.753125
11840.134043	1562.366667	1778.465820	3.297409
11840.134043	1562.366667	1777.460938	-61.345306
11840.134043	1562.366667	1776.455078	61.745502
11840.134043	1562.366667	1775.449219	35.094757
11840.134043	1562.366667	1774.442383	51.191914
11840.134043	1562.366667	1773.436523	26.893183
11840.134043	1562.366667	1772.429688	78.568680
11840.134043	1562.366667	1771.422852	189.558334
11840.134043	1562.366667	1770.416016	115.347893
11840.134043	1562.366667	1769.409180	24.536388
11840.134043	1562.366667	1768.402344	-35.413879
11840.134043	1562.366667	1767.394531	115.768188
11840.134043	1562.366667	1766.386719	72.388443
11840.134043	1562.366667	1765.378906	114.375496
11840.134043	1562.366667	1764.371094	-21.488503
11840.134043	1562.366667	1763.362305	167.428818
11840.134043	1562.366667	1762.354492	36.309719
11840.134043	1562.366667	1761.345703	85.304756
11840.134043	1562.366667	1760.336914	226.657379
11840.134043	1562.366667	1759.328125	-32.361961
11840.134043	1562.366667	1758.318359	127.865334
11840.134043	1562.366667	1757.308594	-38.734589
11840.134043	1562.366667	1756.299805	-131.902039
11840.134043	1562.366667	1755.290039	77.899559
11840.134043	1562.366667	1754.279297	8.366886
11840.134043	1562.366667	1753.269531	59.506268
11840.134043	1562.366667	1752.258789	-10.034475
11840.134043	1562.366667	1751.249023	-6.249915
11840.134043	1562.366667	1750.238281	-75.790154
11840.134043	1562.366667	1749.226563	-41.303230
11840.134043	1562.366667	1748.215820	-110.849037
11840.134043	1562.366667	1747.204102	-14.964006
11840.134043	1562.366667	1746.193359	-157.773376
11840.134043	1562.366667	1745.181641	-9.984034
11840.134043	1562.366667	1744.168945	40.890732
11840.134043	1562.366667	1743.157227	9.078337
11840.134043	1562.366667	1742.144531	95.304886
11840.134043	1562.366667	1741.132813	28.046900
11840.134043	1562.366667	1740.120117	140.158340
11840.134043	1562.366667	1739.106445	-14.432650
11840.134043	1562.366667	1738.093750	59.857498
11840.134043	1562.366667	1737.080078	4.367517
11840.134043	1562.366667	1736.067383	-1.595323
11840.134043	1562.366667	1735.053711	39.578636
11840.134043	1562.366667	1734.040039	-1.791429
11840.134043	1562.366667	1733.025391	72.320923
11840.134043	1562.366667	1732.011719	-84.546402
11840.134043	1562.366667	1730.997070	36.634087
11840.134043	1562.366667	1729.982422	2.280276
11840.134043	1562.366667	1728.967773	-20.304605
11840.134043	1562.366667	1727.952148	-0.519475
11840.134043	1562.366667	1726.937500	-67.865311
11840.134043	1562.366667	1725.921875	-201.113602
11840.134043	1562.366667	1724.906250	-146.065598
11840.134043	1562.366667	1723.890625	43.055080
11840.134043	1562.366667	1722.875000	50.947197
11840.134043	1562.366667	1721.858398	-49.377132
11840.134043	1562.366667	1720.841797	120.741875
11840.134043	1562.366667	1719.825195	55.668983
11840.134043	1562.366667	1718.808594	-91.671448
11840.134043	1562.366667	1717.791992	-11.008387
11840.134043	1562.366667	1716.774414	34.355762
11840.134043	1562.366667	1715.756836	60.888000
11840.134043	1562.366667	1714.739258	-112.259766
11840.134043	1562.366667	1713.721680	-12.949304
11840.134043	1562.366667	1712.704102	-92.139549
11840.134043	1562.366667	1711.685547	14.128737
11840.134043	1562.366667	1710.667969	-20.481716
11840.134043	1562.366667	1709.649414	-97.339607
11840.134043	1562.366667	1708.630859	-75.651131
11840.134043	1562.366667	1707.611328	-46.955635
11840.134043	1562.366667	1706.592773	14.545004
11840.134043	1562.366667	1705.573242	-8.412077
11840.134043	1562.366667	1704.553711	-0.903595
11840.134043	1562.366667	1703.534180	4.238496
11840.134043	1562.366667	1702.513672	-166.399734
11840.134043	1562.366667	1701.494141	-8.972628
11840.134043	1562.366667	1700.473633	-64.797874
11840.134043	1562.366667	1699.453125	52.692924
11840.134043	1562.366667	1698.432617	62.405128
11840.134043	1562.366667	1697.412109	11.223601
11840.134043	1562.366667	1696.390625	-82.092827
11840.134043	1562.366667	1695.369141	-100.503021
11840.134043	1562.366667	1694.347656	-130.624054
11840.134043	1562.366667	1693.326172	-48.462181
11840.134043	1562.366667	1692.304688	-6.112017
11840.134043	1562.366667	1691.282227	125.062645
11840.134043	1562.366667	1690.260742	3.664717
11840.134043	1562.366667	1689.238281	13.196466
11840.134043	1562.366667	1688.214844	-164.266846
11840.134043	1562.366667	1687.192383	27.518435
11840.134043	1562.366667	1686.168945	107.070107
11840.134043	1562.366667	1685.146484	-86.709442
11840.134043	1562.366667	1684.123047	128.247360
11840.134043	1562.366667	1683.099609	81.597588
11840.134043	1562.366667	1682.075195	-0.071486
11840.134043	1562.366667	1681.051758	-16.371498
11840.134043	1562.366667	1680.027344	88.658066
11840.134043	1562.366667	1679.002930	107.305710
11840.134043	1562.366667	1677.978516	67.614067
11840.134043	1562.366667	1676.953125	142.194748
11840.134043	1562.366667	1675.928711	44.184811
11840.134043	1562.366667	1674.903320	13.800018
11840.134043	1562.366667	1673.877930	88.298683
11840.134043	1562.366667	1672.852539	186.055969
11840.134043	1562.366667	1671.826172	234.827972
11840.134043	1562.366667	1670.800781	325.498962
11840.134043	1562.366667	1669.774414	213.490143
11840.134043	1562.366667	1668.748047	162.052094
11840.134043	1562.366667	1667.721680	136.227966
11840.134043	1562.366667	1666.694336	66.168831
11840.134043	1562.366667	1665.667969	79.906548
11840.134043	1562.366667	1664.640625	77.332420
11840.134043	1562.366667	1663.613281	56.134132
11840.134043	1562.366667	1662.585938	334.969574
11840.134043	1562.366667	1661.557617	213.703629
11840.134043	1562.366667	1660.530273	157.572906
11840.134043	1562.366667	1659.501953	85.175140
11840.134043	1562.366667	1658.473633	147.589188
11840.134043	1562.366667	1657.444336	175.107132
11840.134043	1562.366667	1656.416016	393.106293
11840.134043	1562.366667	1655.386719	244.010544
11840.134043	1562.366667	1654.358398	171.599091
11840.134043	1562.366667	1653.328125	329.058258
11840.134043	1562.366667	1652.298828	261.271973
11840.134043	1562.366667	1651.269531	253.843811
11840.134043	1562.366667	1650.239258	160.544327
11840.134043	1562.366667	1649.208984	257.513031
11840.134043	1562.366667	1648.178711	296.442566
11840.134043	1562.366667	1647.148438	335.345306
11840.134043	1562.366667	1646.117188	392.767670
11840.134043	1562.366667	1645.086914	410.749329
11840.134043	1562.366667	1644.055664	440.298920
11840.134043	1562.366667	1643.024414	638.993469
11840.134043	1562.366667	1641.992188	571.151917
11840.134043	1562.366667	1640.960938	487.114685
11840.134043	1562.366667	1639.928711	484.156464
11840.134043	1562.366667	1638.896484	372.358337
11840.134043	1562.366667	1637.864258	360.143829
11840.134043	1562.366667	1636.832031	533.097717
11840.134043	1562.366667	1635.798828	351.896118
11840.134043	1562.366667	1634.766602	520.139038
11840.134043	1562.366667	1633.733398	540.251404
11840.134043	1562.366667	1632.699219	435.448792
11840.134043	1562.366667	1631.666016	534.175903
11840.134043	1562.366667	1630.632813	746.142578
11840.134043	1562.366667	1629.598633	417.119354
11840.134043	1562.366667	1628.564453	395.589172
11840.134043	1562.366667	1627.530273	655.956543
11840.134043	1562.366667	1626.495117	479.588165
11840.134043	1562.366667	1625.460938	485.753937
11840.134043	1562.366667	1624.425781	466.505219
11840.134043	1562.366667	1623.390625	634.272827
11840.134043	1562.366667	1622.355469	370.301544
11840.134043	1562.366667	1621.319336	524.159241
11840.134043	1562.366667	1620.284180	398.750183
11840.134043	1562.366667	1619.248047	547.917664
11840.134043	1562.366667	1618.211914	549.401062
11840.134043	1562.366667	1617.174805	557.793091
11840.134043	1562.366667	1616.138672	499.316925
11840.134043	1562.366667	1615.101563	500.791382
11840.134043	1562.366667	1614.065430	529.922546
11840.134043	1562.366667	1613.027344	413.857605
11840.134043	1562.366667	1611.990234	479.845917
11840.134043	1562.366667	1610.953125	419.116425
11840.134043	1562.366667	1609.915039	498.886292
11840.134043	1562.366667	1608.876953	394.418427
11840.134043	1562.366667	1607.838867	368.260895
11840.134043	1562.366667	1606.800781	517.036560
11840.134043	1562.366667	1605.761719	417.219482
11840.134043	1562.366667	1604.723633	524.510864
11840.134043	1562.366667	1603.684570	611.052795
11840.134043	1562.366667	1602.644531	561.865112
11840.134043	1562.366667	1601.605469	586.280945
11840.134043	1562.366667	1600.566406	583.099365
11840.134043	1562.366667	1599.526367	568.422485
11840.134043	1562.366667	1598.486328	684.741150
11840.134043	1562.366667	1597.446289	752.765076
11840.134043	1562.366667	1596.405273	765.627563
11840.134043	1562.366667	1595.365234	636.093262
11840.134043	1562.366667	1594.324219	623.717468
11840.134043	1562.366667	1593.283203	769.759033
11840.134043	1562.366667	1592.242188	784.910156
11840.134043	1562.366667	1591.200195	623.344238
11840.134043	1562.366667	1590.159180	744.068542
11840.134043	1562.366667	1589.117188	779.865845
11840.134043	1562.366667	1588.075195	889.046387
11840.134043	1562.366667	1587.032227	805.561768
11840.134043	1562.366667	1585.990234	804.653259
11840.134043	1562.366667	1584.947266	916.065063
11840.134043	1562.366667	1583.904297	704.296387
11840.134043	1562.366667	1582.861328	795.071106
11840.134043	1562.366667	1581.818359	640.690857
11840.134043	1562.366667	1580.775391	733.743286
11840.134043	1562.366667	1579.731445	897.750854
11840.134043	1562.366667	1578.687500	709.111145
11840.134043	1562.366667	1577.643555	662.474915
11840.134043	1562.366667	1576.598633	780.641968
11840.134043	1562.366667	1575.554688	809.533936
11840.134043	1562.366667	1574.509766	838.417847
11840.134043	1562.366667	1573.464844	816.977722
11840.134043	1562.366667	1572.419922	731.521606
11840.134043	1562.366667	1571.374023	650.675903
11840.134043	1562.366667	1570.329102	638.453186
11840.134043	1562.366667	1569.283203	580.529602
11840.134043	1562.366667	1568.237305	602.615051
11840.134043	1562.366667	1567.191406	741.215759
11840.134043	1562.366667	1566.144531	546.281067
11840.134043	1562.366667	1565.098633	438.216858
11840.134043	1562.366667	1564.051758	569.945068
11840.134043	1562.366667	1563.004883	662.823486
11840.134043	1562.366667	1561.957031	650.684387
11840.134043	1562.366667	1560.910156	533.596130
11840.134043	1562.366667	1559.862305	745.093506
11840.134043	1562.366667	1558.814453	609.804382
11840.134043	1562.366667	1557.766602	627.378906
11840.134043	1562.366667	1556.718750	752.124573
11840.134043	1562.366667	1555.669922	847.194397
11840.134043	1562.366667	1554.621094	705.200134
11840.134043	1562.366667	1553.573242	697.726440
11840.134043	1562.366667	1552.523438	628.747925
11840.134043	1562.366667	1551.474609	755.710999
11840.134043	1562.366667	1550.424805	611.620972
11840.134043	1562.366667	1549.375000	800.041504
11840.134043	1562.366667	1548.325195	667.411011
11840.134043	1562.366667	1547.275391	648.652039
11840.134043	1562.366667	1546.225586	431.935364
11840.134043	1562.366667	1545.174805	481.513794
11840.134043	1562.366667	1544.124023	663.024292
11840.134043	1562.366667	1543.073242	603.404114
11840.134043	1562.366667	1542.022461	621.134460
11840.134043	1562.366667	1540.970703	682.066528
11840.134043	1562.366667	1539.919922	567.977478
11840.134043	1562.366667	1538.868164	413.042358
11840.134043	1562.366667	1537.815430	435.403595
11840.134043	1562.366667	1536.763672	664.494080
11840.134043	1562.366667	1535.710938	502.869293
11840.134043	1562.366667	1534.659180	468.489960
11840.134043	1562.366667	1533.606445	395.545837
11840.134043	1562.366667	1532.552734	576.866455
11840.134043	1562.366667	1531.500000	438.156860
11840.134043	1562.366667	1530.446289	528.679871
11840.134043	1562.366667	1529.393555	544.330505
11840.134043	1562.366667	1528.338867	603.082397
11840.134043	1562.366667	1527.285156	498.568909
11840.134043	1562.366667	1526.231445	604.961121
11840.134043	1562.366667	1525.176758	437.061005
11840.134043	1562.366667	1524.122070	407.489075
11840.134043	1562.366667	1523.067383	498.037537
11840.134043	1562.366667	1522.012695	371.099731
11840.134043	1562.366667	1520.957031	436.747833
11840.134043	1562.366667	1519.901367	205.750580
11840.134043	1562.366667	1518.845703	205.795258
11840.134043	1562.366667	1517.790039	366.574982
11840.134043	1562.366667	1516.734375	366.634491
11840.134043	1562.366667	1515.677734	199.279388
11840.134043	1562.366667	1514.621094	262.759277
11840.134043	1562.366667	1513.564453	362.426514
11840.134043	1562.366667	1512.507813	190.722198
11840.134043	1562.366667	1511.450195	202.237778
11840.134043	1562.366667	1510.393555	342.620331
11840.134043	1562.366667	1509.335938	166.575363
11840.134043	1562.366667	1508.278320	153.310806
11840.134043	1562.366667	1507.219727	241.733582
11840.134043	1562.366667	1506.162109	275.942719
11840.134043	1562.366667	1505.103516	102.411034
11840.134043	1562.366667	1504.044922	258.602661
11840.134043	1562.366667	1502.986328	170.973450
11840.134043	1562.366667	1501.926758	169.163803
11840.134043	1562.366667	1500.868164	122.256889
11840.134043	1562.366667	1499.808594	5.460589
11840.134043	1562.366667	1498.749023	206.762390
11840.134043	1562.366667	1497.688477	87.794533
11840.134043	1562.366667	1496.628906	192.109665
11840.134043	1562.366667	1495.568359	127.349487
11840.134043	1562.366667	1494.507813	132.508682
11840.134043	1562.366667	1493.447266	54.324783
11840.134043	1562.366667	1492.386719	205.987457
11840.134043	1562.366667	1491.325195	60.306835
11840.134043	1562.366667	1490.263672	290.782349
11840.134043	1562.366667	1489.202148	88.917664
11840.134043	1562.366667	1488.140625	40.232006
11840.134043	1562.366667	1487.079102	-62.416992
11840.134043	1562.366667	1486.016602	8.262869
11840.134043	1562.366667	1484.954102	-38.036736
11840.134043	1562.366667	1483.891602	226.105301
11840.134043	1562.366667	1482.829102	33.674023
11840.134043	1562.366667	1481.765625	117.892418
11840.134043	1562.366667	1480.702148	-6.937127
11840.134043	1562.366667	1479.638672	-28.311985
11840.134043	1562.366667	1478.575195	2.038545
11840.134043	1562.366667	1477.511719	16.690825
11840.134043	1562.366667	1476.447266	-22.531935
11840.134043	1562.366667	1475.382813	171.776489
11840.134043	1562.366667	1474.318359	98.909737
11840.134043	1562.366667	1473.253906	174.208817
11840.134043	1562.366667	1472.189453	0.544491
11840.134043	1562.366667	1471.124023	44.531639
11840.134043	1562.366667	1470.058594	59.381973
11840.134043	1562.366667	1468.993164	-127.290077
11840.134043	1562.366667	1467.927734	-56.449196
11840.134043	1562.366667	1466.861328	-18.921795
11840.134043	1562.366667	1465.794922	27.060827
11840.134043	1562.366667	1464.728516	-60.743843
11840.134043	1562.366667	1463.662109	-63.571495
11840.134043	1562.366667	1462.594727	-61.720589
11840.134043	1562.366667	1461.528320	-11.036088
11840.134043	1562.366667	1460.460938	26.580267
11840.134043	1562.366667	1459.393555	122.127434
11840.134043	1562.366667	1458.326172	56.857998
11840.134043	1562.366667	1457.257813	-159.789536
11840.134043	1562.366667	1456.189453	22.567970
11840.134043	1562.366667	1455.121094	-53.323265
11840.134043	1562.366667	1454.052734	75.639427
11840.134043	1562.366667	1452.984375	13.487436
11840.134043	1562.366667	1451.915039	51.021244
11840.134043	1562.366667	1450.845703	-13.556878
11840.134043	1562.366667	1449.776367	161.689713
11840.134043	1562.366667	1448.707031	-23.776934
11840.134043	1562.366667	1447.636719	-3.386687
11840.134043	1562.366667	1446.567383	49.834309
11840.134043	1562.366667	1445.497070	-143.046005
11840.134043	1562.366667	1444.425781	168.379349
11840.134043	1562.366667	1443.355469	192.835922
11840.134043	1562.366667	1442.285156	197.313354
11840.134043	1562.366667	1441.213867	217.641296
11840.134043	1562.366667	1440.142578	328.124634
11840.134043	1562.366667	1439.070313	164.085281
11840.134043	1562.366667	1437.999023	113.730354
11840.134043	1562.366667	1436.926758	202.898376
11840.134043	1562.366667	1435.854492	125.188553
11840.134043	1562.366667	1434.782227	156.638062
11840.134043	1562.366667	1433.709961	169.938873
11840.134043	1562.366667	1432.636719	162.652344
11840.134043	1562.366667	1431.563477	306.274963
11840.134043	1562.366667	1430.490234	250.113907
11840.134043	1562.366667	1429.416992	254.889496
11840.134043	1562.366667	1428.343750	378.469452
11840.134043	1562.366667	1427.269531	191.003159
11840.134043	1562.366667	1426.195313	237.180786
11840.134043	1562.366667	1425.121094	215.808044
11840.134043	1562.366667	1424.046875	211.236557
11840.134043	1562.366667	1422.971680	220.659286
11840.134043	1562.366667	1421.896484	224.122208
11840.134043	1562.366667	1420.821289	342.960297
11840.134043	1562.366667	1419.746094	319.742493
11840.134043	1562.366667	1418.669922	232.543198
11840.134043	1562.366667	1417.594727	289.755157
11840.134043	1562.366667	1416.518555	309.446259
11840.134043	1562.366667	1415.442383	264.515686
11840.134043	1562.366667	1414.365234	293.739777
11840.134043	1562.366667	1413.289063	131.921005
11840.134043	1562.366667	1412.211914	361.406403
11840.134043	1562.366667	1411.134766	255.611603
11840.134043	1562.366667	1410.057617	171.049316
11840.134043	1562.366667	1408.979492	280.192780
11840.134043	1562.366667	1407.902344	223.528214
11840.134043	1562.366667	1406.824219	191.419098
11840.134043	1562.366667	1405.746094	35.151463
11840.134043	1562.366667	1404.666992	311.728485
11840.134043	1562.366667	1403.588867	207.086243
11840.134043	1562.366667	1402.509766	283.504059
11840.134043	1562.366667	1401.430664	271.175476
11840.134043	1562.366667	1400.351563	253.264633
11840.134043	1562.366667	1399.271484	236.240112
11840.134043	1562.366667	1398.192383	398.828186
11840.134043	1562.366667	1397.112305	230.944229
11840.134043	1562.366667	1396.031250	243.156708
11840.134043	1562.366667	1394.951172	168.339539
11840.134043	1562.366667	1393.871094	264.832062
11840.134043	1562.366667	1392.790039	309.589020
11840.134043	1562.366667	1391.708984	206.730820
11840.134043	1562.366667	1390.626953	244.004776
11840.134043	1562.366667	1389.545898	245.453857
11840.134043	1562.366667	1388.463867	141.840729
11840.134043	1562.366667	1387.381836	70.986382
11840.134043	1562.366667	1386.299805	216.152969
11840.134043	1562.366667	1385.217773	230.559677
11840.134043	1562.366667	1384.134766	324.494019
11840.134043	1562.366667	1383.051758	393.923279
11840.134043	1562.366667	1381.968750	586.656982
11840.134043	1562.366667	1380.885742	306.594025
11840.134043	1562.366667	1379.802734	203.753342
11840.134043	1562.366667	1378.718750	298.708710
11840.134043	1562.366667	1377.634766	237.667511
11840.134043	1562.366667	1376.550781	320.958771
11840.134043	1562.366667	1375.465820	304.885406
11840.134043	1562.366667	1374.381836	154.362839
11840.134043	1562.366667	1373.296875	268.812439
11840.134043	1562.366667	1372.211914	236.267059
11840.134043	1562.366667	1371.126953	235.867233
11840.134043	1562.366667	1370.041016	171.649887
11840.134043	1562.366667	1368.955078	219.271805
11840.134043	1562.366667	1367.869141	307.233856
11840.134043	1562.366667	1366.783203	273.425568
11840.134043	1562.366667	1365.697266	190.611969
11840.134043	1562.366667	1364.610352	320.565033
11840.134043	1562.366667	1363.523438	191.075638
11840.134043	1562.366667	1362.436523	176.332581
11840.134043	1562.366667	1361.349609	138.802063
11840.134043	1562.366667	1360.261719	347.743988
11840.134043	1562.366667	1359.174805	366.128937
11840.134043	1562.366667	1358.086914	253.951462
11840.134043	1562.366667	1356.998047	387.291138
11840.134043	1562.366667	1355.910156	322.638306
11840.134043	1562.366667	1354.821289	422.882294
11840.134043	1562.366667	1353.732422	358.051392
11840.134043	1562.366667	1352.643555	381.777313
11840.134043	1562.366667	1351.554688	273.246368
11840.134043	1562.366667	1350.464844	313.941437
11840.134043	1562.366667	1349.375000	271.745667
11840.134043	1562.366667	1348.285156	301.624695
11840.134043	1562.366667	1347.195313	304.138428
11840.134043	1562.366667	1346.105469	316.174866
11840.134043	1562.366667	1345.014648	383.364471
11840.134043	1562.366667	1343.923828	197.542389
11840.134043	1562.366667	1342.833008	365.672729
11840.134043	1562.366667	1341.741211	283.120483
11840.134043	1562.366667	1340.650391	186.152313
11840.134043	1562.366667	1339.558594	199.334747
11840.134043	1562.366667	1338.466797	198.894760
11840.134043	1562.366667	1337.374023	218.082199
11840.134043	1562.366667	1336.282227	275.819214
11840.134043	1562.366667	1335.189453	196.075943
11840.134043	1562.366667	1334.096680	227.746155
11840.134043	1562.366667	1333.003906	401.693481
11840.134043	1562.366667	1331.910156	329.490143
11840.134043	1562.366667	1330.817383	344.744476
11840.134043	1562.366667	1329.723633	328.787292
11840.134043	1562.366667	1328.629883	303.812500
11840.134043	1562.366667	1327.535156	266.057983
11840.134043	1562.366667	1326.441406	271.019073
11840.134043	1562.366667	1325.346680	321.964264
11840.134043	1562.366667	1324.251953	97.034149
11840.134043	1562.366667	1323.156250	303.118561
11840.134043	1562.366667	1322.061523	188.896194
11840.134043	1562.366667	1320.965820	297.473114
11840.134043	1562.366667	1319.870117	276.679291
11840.134043	1562.366667	1318.774414	93.124344
11840.134043	1562.366667	1317.678711	193.870056
11840.134043	1562.366667	1316.582031	74.932907
11840.134043	1562.366667	1315.485352	152.129013
11840.134043	1562.366667	1314.388672	277.430817
11840.134043	1562.366667	1313.291016	142.981323
11840.134043	1562.366667	1312.194336	229.505524
11840.134043	1562.366667	1311.096680	92.740906
11840.134043	1562.366667	1309.999023	9.417004
11840.134043	1562.366667	1308.901367	162.332397
11840.134043	1562.366667	1307.802734	121.191780
11840.134043	1562.366667	1306.705078	139.071381
11840.134043	1562.366667	1305.606445	208.991699
11840.134043	1562.366667	1304.506836	131.561432
11840.134043	1562.366667	1303.408203	204.133026
11840.134043	1562.366667	1302.308594	129.190018
11840.134043	1562.366667	1301.208984	41.463638
11840.134043	1562.366667	1300.109375	146.096710
11840.134043	1562.366667	1299.009766	187.586029
11840.134043	1562.366667	1297.909180	175.712173
11840.134043	1562.366667	1296.808594	153.252213
11840.134043	1562.366667	1295.708008	57.273239
11840.134043	1562.366667	1294.607422	-20.712805
11840.134043	1562.366667	1293.506836	110.369980
11840.134043	1562.366667	1292.405273	86.950241
11840.134043	1562.366667	1291.303711	53.219933
11840.134043	1562.366667	1290.202148	158.284241
11840.134043	1562.366667	1289.099609	32.998142
11840.134043	1562.366667	1287.998047	72.087875
11840.134043	1562.366667	1286.895508	61.392132
11840.134043	1562.366667	1285.792969	73.861015
11840.134043	1562.366667	1284.689453	35.693851
11840.134043	1562.366667	1283.586914	159.905716
11840.134043	1562.366667	1282.483398	140.831604
11840.134043	1562.366667	1281.379883	50.304794
11840.134043	1562.366667	1280.276367	78.406075
11840.134043	1562.366667	1279.171875	82.545799
11840.134043	1562.366667	1278.067383	63.472240
11840.134043	1562.366667	1276.962891	-16.400827
11840.134043	1562.366667	1275.858398	-13.965300
11840.134043	1562.366667	1274.753906	57.371296
11840.134043	1562.366667	1273.648438	13.166876
11840.134043	1562.366667	1272.542969	-14.344553
11840.134043	1562.366667	1271.437500	-23.148151
11840.134043	1562.366667	1270.331055	56.874592
11840.134043	1562.366667	1269.225586	53.428638
11840.134043	1562.366667	1268.119141	-3.859998
11840.134043	1562.366667	1267.012695	-72.500084
11840.134043	1562.366667	1265.906250	21.205338
11840.134043	1562.366667	1264.798828	-38.821423
11840.134043	1562.366667	1263.691406	-233.688797
11840.134043	1562.366667	1262.583984	-220.457642
11840.134043	1562.366667	1261.476563	-95.551125
11840.134043	1562.366667	1260.368164	-124.893059
11840.134043	1562.366667	1259.260742	-141.526855
11840.134043	1562.366667	1258.152344	-78.371620
11840.134043	1562.366667	1257.043945	-153.498764
11840.134043	1562.366667	1255.934570	-167.995148
11840.134043	1562.366667	1254.825195	-29.687107
11840.134043	1562.366667	1253.716797	6.637499
11840.134043	1562.366667	1252.606445	-123.753784
11840.134043	1562.366667	1251.497070	-97.560768
11840.134043	1562.366667	1250.387695	-0.338533
11840.134043	1562.366667	1249.277344	-44.125977
11840.134043	1562.366667	1248.166992	-11.050334
11840.134043	1562.366667	1247.055664	-3.935637
11840.134043	1562.366667	1245.945313	8.118654
11840.134043	1562.366667	1244.833984	6.843223
11840.134043	1562.366667	1243.722656	72.812439
11840.134043	1562.366667	1242.611328	-49.988667
11840.134043	1562.366667	1241.499023	-7.217076
11840.134043	1562.366667	1240.387695	-8.648157
11840.134043	1562.366667	1239.275391	-84.965164
11840.134043	1562.366667	1238.162109	78.741272
11840.134043	1562.366667	1237.049805	-4.314531
11840.134043	1562.366667	1235.936523	111.166649
11840.134043	1562.366667	1234.823242	-21.293152
11840.134043	1562.366667	1233.709961	36.832100
11840.134043	1562.366667	1232.596680	-60.906162
11840.134043	1562.366667	1231.482422	-71.279068
11840.134043	1562.366667	1230.369141	-35.766796
11840.134043	1562.366667	1229.253906	-51.237747
11840.134043	1562.366667	1228.139648	9.389221
11840.134043	1562.366667	1227.025391	-58.958294
11840.134043	1562.366667	1225.910156	-21.544064
11840.134043	1562.366667	1224.794922	52.370152
11840.134043	1562.366667	1223.679688	92.027679
11840.134043	1562.366667	1222.563477	94.065163
11840.134043	1562.366667	1221.447266	23.594843
11840.134043	1562.366667	1220.331055	20.518738
11840.134043	1562.366667	1219.214844	27.108500
11840.134043	1562.366667	1218.098633	84.467812
11840.134043	1562.366667	1216.981445	169.704529
11840.134043	1562.366667	1215.864258	26.301968
11840.134043	1562.366667	1214.747070	-51.443817
11840.134043	1562.366667	1213.629883	22.948299
11840.134043	1562.366667	1212.511719	91.166779
11840.134043	1562.366667	1211.393555	115.812080
11840.134043	1562.366667	1210.275391	113.113861
11840.134043	1562.366667	1209.157227	-23.147425
11840.134043	1562.366667	1208.038086	49.726944
11840.134043	1562.366667	1206.918945	83.000496
11840.134043	1562.366667	1205.799805	21.209549
11840.134043	1562.366667	1204.680664	19.343521
11840.134043	1562.366667	1203.560547	7.051842
11840.134043	1562.366667	1202.441406	-63.124466
11840.134043	1562.366667	1201.321289	-40.217281
11840.134043	1562.366667	1200.200195	25.390268
11840.134043	1562.366667	1199.080078	-6.496150
11840.134043	1562.366667	1197.958984	-4.893270
11840.134043	1562.366667	1196.837891	-78.164047
11840.134043	1562.366667	1195.716797	-1.537784
11840.134043	1562.366667	1194.594727	15.507509
11840.134043	1562.366667	1193.473633	-5.476902
11840.134043	1562.366667	1192.351563	-79.080490
11840.134043	1562.366667	1191.229492	-81.570999
11840.134043	1562.366667	1190.106445	55.341167
11840.134043	1562.366667	1188.984375	-104.469009
11840.134043	1562.366667	1187.861328	-119.091965
11840.134043	1562.366667	1186.738281	7.477511
11840.134043	1562.366667	1185.614258	-41.335743
11840.134043	1562.366667	1184.491211	-66.011215
11840.134043	1562.366667	1183.367188	-33.297070
11840.134043	1562.366667	1182.243164	-34.591400
11840.134043	1562.366667	1181.119141	-68.394989
11840.134043	1562.366667	1179.994141	-42.890926
11840.134043	1562.366667	1178.869141	-53.597889
11840.134043	1562.366667	1177.744141	55.476990
11840.134043	1562.366667	1176.619141	31.228436
11840.134043	1562.366667	1175.493164	31.555883
11840.134043	1562.366667	1174.368164	83.262138
11840.134043	1562.366667	1173.242188	175.815781
11840.134043	1562.366667	1172.115234	117.168175
11840.134043	1562.366667	1170.989258	71.761307
11840.134043	1562.366667	1169.862305	151.121857
11840.134043	1562.366667	1168.735352	101.624725
11840.134043	1562.366667	1167.608398	196.227158
11840.134043	1562.366667	1166.481445	196.274094
11840.134043	1562.366667	1165.353516	53.302132
11840.134043	1562.366667	1164.225586	59.148129
11840.134043	1562.366667	1163.097656	190.800095
11840.134043	1562.366667	1161.968750	71.903992
11840.134043	1562.366667	1160.840820	-22.004320
11840.134043	1562.366667	1159.711914	-63.538887
11840.134043	1562.366667	1158.583008	-26.334494
11840.134043	1562.366667	1157.453125	17.356361
11840.134043	1562.366667	1156.324219	-91.197479
11840.134043	1562.366667	1155.194336	-176.990509
11840.134043	1562.366667	1154.064453	-66.579803
11840.134043	1562.366667	1152.933594	-212.680328
11840.134043	1562.366667	1151.803711	-149.154480
11840.134043	1562.366667	1150.672852	-83.424072
11840.134043	1562.366667	1149.541992	-160.732193
11840.134043	1562.366667	1148.411133	-88.386711
11840.134043	1562.366667	1147.279297	28.585878
11840.134043	1562.366667	1146.147461	-30.819204
11840.134043	1562.366667	1145.015625	-64.151520
11840.134043	1562.366667	1143.883789	-101.864441
11840.134043	1562.366667	1142.750977	-9.213490
11840.134043	1562.366667	1141.619141	5.240856
11840.134043	1562.366667	1140.486328	106.160629
11840.134043	1562.366667	1139.352539	73.951340
11840.134043	1562.366667	1138.219727	157.543274
11840.134043	1562.366667	1137.085938	174.902634
11840.134043	1562.366667	1135.952148	29.697586
11840.134043	1562.366667	1134.818359	-30.755205
11840.134043	1562.366667	1133.683594	3.707613
11840.134043	1562.366667	1132.549805	-30.913698
11840.134043	1562.366667	1131.415039	64.506111
11840.134043	1562.366667	1130.279297	71.007324
11840.134043	1562.366667	1129.144531	127.070251
11840.134043	1562.366667	1128.008789	87.554459
11840.134043	1562.366667	1126.873047	62.289360
11840.134043	1562.366667	1125.737305	27.251810
11840.134043	1562.366667	1124.601563	88.966499
11840.134043	1562.366667	1123.464844	33.498543
11840.134043	1562.366667	1122.328125	-34.320633
11840.134043	1562.366667	1121.191406	-31.717289
11840.134043	1562.366667	1120.054688	-111.156960
11840.134043	1562.366667	1118.916992	-21.770384
11840.134043	1562.366667	1117.779297	16.931168
11840.134043	1562.366667	1116.641602	-17.806396
11840.134043	1562.366667	1115.503906	95.214981
11840.134043	1562.366667	1114.365234	104.611572
11840.134043	1562.366667	1113.226563	72.012810
11840.134043	1562.366667	1112.087891	-12.684030
11840.134043	1562.366667	1110.949219	86.311409
11840.134043	1562.366667	1109.809570	81.642212
11840.134043	1562.366667	1108.669922	20.286985
11840.134043	1562.366667	1107.530273	131.916473
11840.134043	1562.366667	1106.390625	78.994362
11840.134043	1562.366667	1105.250000	-0.974981
11840.134043	1562.366667	1104.109375	87.068184
11840.134043	1562.366667	1102.968750	41.995289
11840.134043	1562.366667	1101.828125	131.548843
11840.134043	1562.366667	1100.686523	26.795172
11840.134043	1562.366667	1099.544922	264.708649
11840.134043	1562.366667	1098.403320	181.932159
11840.134043	1562.366667	1097.261719	35.904560
11840.134043	1562.366667	1096.120117	51.246796
11840.134043	1562.366667	1094.977539	175.941605
11840.134043	1562.366667	1093.834961	176.382904
11840.134043	1562.366667	1092.691406	91.524574
11840.134043	1562.366667	1091.548828	133.739166
11840.134043	1562.366667	1090.405273	56.371624
11840.134043	1562.366667	1089.261719	86.602547
11840.134043	1562.366667	1088.118164	120.106140
11840.134043	1562.366667	1086.973633	121.626740
11840.134043	1562.366667	1085.829102	191.068665
11840.134043	1562.366667	1084.684570	230.185684
11840.134043	1562.366667	1083.540039	148.608078
11840.134043	1562.366667	1082.395508	94.884079
11840.134043	1562.366667	1081.250000	164.982071
11840.134043	1562.366667	1080.104492	176.631668
11840.134043	1562.366667	1078.958984	198.103256
11840.134043	1562.366667	1077.812500	203.714325
11840.134043	1562.366667	1076.666016	233.943069
11840.134043	1562.366667	1075.519531	216.785004
11840.134043	1562.366667	1074.373047	309.246857
11840.134043	1562.366667	1073.226563	258.425262
11840.134043	1562.366667	1072.079102	138.858749
11840.134043	1562.366667	1070.931641	215.910431
11840.134043	1562.366667	1069.784180	156.102188
11840.134043	1562.366667	1068.635742	231.537979
11840.134043	1562.366667	1067.487305	232.175674
11840.134043	1562.366667	1066.338867	219.364807
11840.134043	1562.366667	1065.190430	201.226410
11840.134043	1562.366667	1064.041992	348.446442
11840.134043	1562.366667	1062.892578	201.327530
11840.134043	1562.366667	1061.743164	215.723145
11840.134043	1562.366667	1060.593750	266.432068
11840.134043	1562.366667	1059.443359	170.151855
11840.134043	1562.366667	1058.292969	102.254616
11840.134043	1562.366667	1057.142578	158.150482
11840.134043	1562.366667	1055.992188	101.935097
11840.134043	1562.366667	1054.841797	52.346210
11840.134043	1562.366667	1053.690430	132.844009
11840.134043	1562.366667	1052.539063	96.030197
11840.134043	1562.366667	1051.387695	44.922813
11840.134043	1562.366667	1050.235352	138.091858
11840.134043	1562.366667	1049.083984	133.142822
11840.134043	1562.366667	1047.931641	239.537994
11840.134043	1562.366667	1046.778320	131.746017
11840.134043	1562.366667	1045.625977	-21.132822
11840.134043	1562.366667	1044.472656	23.231785
11840.134043	1562.366667	1043.319336	107.627281
11840.134043	1562.366667	1042.166016	53.905716
11840.134043	1562.366667	1041.012695	121.847832
11840.134043	1562.366667	1039.858398	195.779312
11840.134043	1562.366667	1038.704102	232.435944
11840.134043	1562.366667	1037.549805	219.965683
11840.134043	1562.366667	1036.394531	210.763977
11840.134043	1562.366667	1035.239258	153.990036
11840.134043	1562.366667	1034.083984	80.908485
11840.134043	1562.366667	1032.928711	172.648254
11840.134043	1562.366667	1031.773438	114.101944
11840.134043	1562.366667	1030.617188	66.418320
11840.134043	1562.366667	1029.460938	130.277206
11840.134043	1562.366667	1028.304688	95.487717
11840.134043	1562.366667	1027.147461	206.826004
11840.134043	1562.366667	1025.991211	154.138702
11840.134043	1562.366667	1024.833984	110.499596
11840.134043	1562.366667	1023.675781	173.444305
11840.134043	1562.366667	1022.518555	196.352295
11840.134043	1562.366667	1021.360352	80.459366
11840.134043	1562.366667	1020.202148	136.404007
11840.134043	1562.366667	1019.043945	52.848843
11840.134043	1562.366667	1017.884766	58.617764
11840.134043	1562.366667	1016.726563	99.087532
11840.134043	1562.366667	1015.567383	57.840408
11840.134043	1562.366667	1014.407227	85.591232
11840.134043	1562.366667	1013.248047	33.063568
11840.134043	1562.366667	1012.087891	96.990456
11840.134043	1562.366667	1010.927734	-41.986015
11840.134043	1562.366667	1009.767578	168.893982
11840.134043	1562.366667	1008.606445	188.916107
11840.134043	1562.366667	1007.446289	222.363693
11840.134043	1562.366667	1006.285156	181.597031
11840.134043	1562.366667	1005.123047	299.323639
11840.134043	1562.366667	1003.961914	265.501343
11840.134043	1562.366667	1002.799805	157.713928
11840.134043	1562.366667	1001.637695	203.543121
11840.134043	1562.366667	1000.475586	134.118378
11840.134043	1562.366667	999.312500	93.979141
11840.134043	1562.366667	998.149414	158.297516
11840.134043	1562.366667	996.986328	95.107285
11840.134043	1562.366667	995.823242	-12.257010
11840.134043	1562.366667	994.659180	11.457365
11840.134043	1562.366667	993.496094	-15.428144
11840.134043	1562.366667	992.332031	41.388680
11840.134043	1562.366667	991.166992	57.048496
11840.134043	1562.366667	990.002930	12.447093
11840.134043	1562.366667	988.837891	-41.435196
11840.134043	1562.366667	987.672852	-60.662868
11840.134043	1562.366667	986.506836	-23.133228
11840.134043	1562.366667	985.341797	-69.068977
11840.134043	1562.366667	984.175781	-16.565117
11840.134043	1562.366667	983.009766	131.134735
11840.134043	1562.366667	981.843750	-12.021571
11840.134043	1562.366667	980.676758	77.100815
11840.134043	1562.366667	979.509766	-105.143524
11840.134043	1562.366667	978.342773	109.127365
11840.134043	1562.366667	977.175781	43.557148
11840.134043	1562.366667	976.007813	160.409500
11840.134043	1562.366667	974.839844	15.835958
11840.134043	1562.366667	973.671875	-24.278097
11840.134043	1562.366667	972.503906	107.433174
11840.134043	1562.366667	971.334961	47.864235
11840.134043	1562.366667	970.166016	-6.964141
11840.134043	1562.366667	968.997070	-87.897049
11840.134043	1562.366667	967.828125	41.123730
11840.134043	1562.366667	966.658203	-38.660221
11840.134043	1562.366667	965.488281	-121.417999
11840.134043	1562.366667	964.318359	-75.177811
11840.134043	1562.366667	963.148438	-33.552311
11840.134043	1562.366667	961.977539	-38.885445
11840.134043	1562.366667	960.806641	53.327595
11840.134043	1562.366667	959.635742	158.649445
11840.134043	1562.366667	958.463867	244.030533
11840.134043	1562.366667	957.292969	261.214386
11840.134043	1562.366667	956.121094	84.956757
11840.134043	1562.366667	954.948242	312.711334
11840.134043	1562.366667	953.776367	-38.994102
11840.134043	1562.366667	952.603516	30.806559
11840.134043	1562.366667	951.430664	210.672455
11840.134043	1562.366667	950.257813	-134.050568
11840.134043	1562.366667	949.084961	2.502847
11840.134043	1562.366667	947.911133	-87.392754
11840.134043	1562.366667	946.737305	-81.921822
11840.134043	1562.366667	945.563477	37.221451
11840.134043	1562.366667	944.388672	22.442898
11840.134043	1562.366667	943.213867	39.359398
11840.134043	1562.366667	942.039063	73.627342
11840.134043	1562.366667	940.864258	101.411415
11840.134043	1562.366667	939.688477	15.924049
11840.134043	1562.366667	938.513672	65.853607
11840.134043	1562.366667	937.337891	-6.540763
11840.134043	1562.366667	936.161133	78.866043
11840.134043	1562.366667	934.985352	24.382120
11840.134043	1562.366667	933.808594	138.553635
11840.134043	1562.366667	932.631836	110.615280
11840.134043	1562.366667	931.454102	42.764725
11840.134043	1562.366667	930.277344	39.267696
11840.134043	1562.366667	929.099609	-17.528471
11840.134043	1562.366667	927.921875	92.115356
11840.134043	1562.366667	926.743164	-37.884438
11840.134043	1562.366667	925.565430	-39.212723
11840.134043	1562.366667	924.386719	-62.730755
11840.134043	1562.366667	923.208008	35.678581
11840.134043	1562.366667	922.028320	32.076630
11840.134043	1562.366667	920.849609	-100.069992
11840.134043	1562.366667	919.669922	-98.139755
11840.134043	1562.366667	919.474609	-54.603653
11840.134043	1562.366667	918.309570	-89.262901
11840.134043	1562.366667	917.143555	-59.691818
11840.134043	1562.366667	915.977539	-114.292244
11840.134043	1562.366667	914.810547	19.297371
11840.134043	1562.366667	913.644531	75.346527
11840.134043	1562.366667	912.477539	-103.215790
11840.134043	1562.366667	911.310547	-173.305527
11840.134043	1562.366667	910.143555	-31.020203
11840.134043	1562.366667	908.975586	-96.698532
11840.134043	1562.366667	907.807617	-58.438557
11840.134043	1562.366667	906.639648	-2.520907
11840.134043	1562.366667	905.471680	-8.527965
11840.134043	1562.366667	904.303711	65.008667
11840.134043	1562.366667	903.134766	-33.828396
11840.134043	1562.366667	901.965820	-8.937437
11840.134043	1562.366667	900.796875	-14.988736
11840.134043	1562.366667	899.626953	-85.081352
11840.134043	1562.366667	898.457031	-108.799088
11840.134043	1562.366667	897.287109	-59.683800
11840.134043	1562.366667	896.117188	-138.588882
11840.134043	1562.366667	894.947266	62.718239
11840.134043	1562.366667	893.776367	19.090082
11840.134043	1562.366667	892.605469	-59.817345
11840.134043	1562.366667	891.434570	-17.436050
11840.134043	1562.366667	890.262695	-85.303658
11840.134043	1562.366667	889.091797	203.888367
11840.134043	1562.366667	887.919922	-51.320621
11840.134043	1562.366667	886.748047	-9.020195
11840.134043	1562.366667	885.575195	26.645050
11840.134043	1562.366667	884.403320	22.643869
11840.134043	1562.366667	883.230469	91.291908
11840.134043	1562.366667	882.057617	38.830200
11840.134043	1562.366667	880.883789	-77.444000
11840.134043	1562.366667	879.710938	83.566055
11840.134043	1562.366667	878.537109	121.304359
11840.134043	1562.366667	877.362305	97.432610
11840.134043	1562.366667	876.188477	-161.737534
11840.134043	1562.366667	875.013672	3.515686
11840.134043	1562.366667	873.839844	-123.662064
11840.134043	1562.366667	872.664063	-20.038132
11840.134043	1562.366667	871.489258	-70.274643
11840.134043	1562.366667	870.313477	-28.233894
11840.134043	1562.366667	869.138672	-38.933739
11840.134043	1562.366667	867.962891	66.744446
11840.134043	1562.366667	866.786133	-7.654831
11840.134043	1562.366667	865.610352	-3.015091
11840.134043	1562.366667	864.433594	-68.610832
11840.134043	1562.366667	863.256836	12.815198
11840.134043	1562.366667	862.079102	-204.135208
11840.134043	1562.366667	860.902344	35.175964
11840.134043	1562.366667	859.724609	184.479034
11840.134043	1562.366667	858.546875	28.983906
11840.134043	1562.366667	857.368164	-69.467911
11840.134043	1562.366667	856.190430	20.570244
11840.134043	1562.366667	855.011719	64.554199
11840.134043	1562.366667	853.833008	187.369202
11840.134043	1562.366667	852.654297	67.030457
11840.134043	1562.366667	851.474609	-5.095188
11840.134043	1562.366667	850.294922	-140.685471
11840.134043	1562.366667	849.115234	111.170807
11840.134043	1562.366667	847.935547	-9.086329
11840.134043	1562.366667	846.754883	69.787354
11840.134043	1562.366667	845.575195	21.754261
11840.134043	1562.366667	844.393555	-50.321705
11840.134043	1562.366667	843.212891	10.996465
11840.134043	1562.366667	842.032227	48.234730
11840.134043	1562.366667	840.850586	-17.269451
11840.134043	1562.366667	839.668945	166.346268
11840.134043	1562.366667	838.486328	-156.958588
11840.134043	1562.366667	837.304688	-14.905141
11840.134043	1562.366667	836.122070	-121.864471
11840.134043	1562.366667	834.939453	39.758202
11840.134043	1562.366667	833.756836	20.129930
11840.134043	1562.366667	832.573242	57.245819
11840.134043	1562.366667	831.389648	59.427238
11840.134043	1562.366667	830.206055	-73.652924
11840.134043	1562.366667	829.022461	57.221188
11840.134043	1562.366667	827.838867	15.766409
11840.134043	1562.366667	826.654297	-54.019753
11840.134043	1562.366667	825.469727	92.005379
11840.134043	1562.366667	824.284180	-130.329651
11840.134043	1562.366667	823.099609	2.563744
11840.134043	1562.366667	821.914063	17.764496
11840.134043	1562.366667	820.728516	-21.496325
11840.134043	1562.366667	819.542969	-147.846634
11840.134043	1562.366667	818.356445	26.275969
11840.134043	1562.366667	817.169922	15.311540
11840.134043	1562.366667	815.983398	-78.347816
11840.134043	1562.366667	814.796875	12.954648
11840.134043	1562.366667	813.609375	95.512733
11840.134043	1562.366667	812.422852	-59.020924
11840.134043	1562.366667	811.235352	-52.598282
11840.134043	1562.366667	810.046875	25.552608
11840.134043	1562.366667	808.859375	-37.608944
11840.134043	1562.366667	807.670898	55.702358
11840.134043	1562.366667	806.482422	-92.181297
11840.134043	1562.366667	805.293945	22.808439
11840.134043	1562.366667	804.104492	-118.506866
11840.134043	1562.366667	802.915039	2.940338
11840.134043	1562.366667	801.725586	-51.498894
11840.134043	1562.366667	800.536133	63.358032
11840.134043	1562.366667	799.345703	-23.632685
11840.134043	1562.366667	798.155273	-28.159336
11840.134043	1562.366667	796.964844	-89.083282
11840.134043	1562.366667	795.774414	19.150629
11840.134043	1562.366667	794.583008	149.013306
11840.134043	1562.366667	793.392578	79.396782
11840.134043	1562.366667	792.200195	31.474112
11840.134043	1562.366667	791.008789	22.562408
11840.134043	1562.366667	789.816406	-1.516142
11840.134043	1562.366667	788.625000	171.491882
11840.134043	1562.366667	787.432617	52.101994
11840.134043	1562.366667	786.239258	86.460602
11840.134043	1562.366667	785.046875	53.698608
11840.134043	1562.366667	783.853516	18.778255
11840.134043	1562.366667	782.660156	79.060127
11840.134043	1562.366667	781.465820	-33.737900
11840.134043	1562.366667	780.272461	74.090805
11840.134043	1562.366667	779.078125	39.162716
11840.134043	1562.366667	777.883789	75.577690
11840.134043	1562.366667	776.688477	131.421249
11840.134043	1562.366667	775.494141	161.301926
11840.134043	1562.366667	774.298828	74.501152
11840.134043	1562.366667	773.103516	-1.473459
11840.134043	1562.366667	771.907227	-60.148254
11840.134043	1562.366667	770.711914	6.415911
11840.134043	1562.366667	769.515625	29.771902
11840.134043	1562.366667	768.318359	31.528496
11840.134043	1562.366667	767.122070	93.689323
11840.134043	1562.366667	765.924805	15.594314
11840.134043	1562.366667	764.727539	-6.400764
11840.134043	1562.366667	763.530273	-43.490829
11840.134043	1562.366667	762.333008	-54.704784
11840.134043	1562.366667	761.134766	82.803505
11840.134043	1562.366667	759.936523	153.439148
11840.134043	1562.366667	758.738281	71.061424
11840.134043	1562.366667	757.540039	8.095026
11840.134043	1562.366667	756.340820	74.364563
11840.134043	1562.366667	755.141602	155.668732
11840.134043	1562.366667	753.942383	163.733978
11840.134043	1562.366667	752.742188	51.256474
11840.134043	1562.366667	751.541992	-18.147701
11840.134043	1562.366667	750.341797	71.670753
11840.134043	1562.366667	749.141602	71.100403
11840.134043	1562.366667	747.941406	289.871582
11840.134043	1562.366667	746.740234	65.626198
11840.134043	1562.366667	745.539063	181.103439
11840.134043	1562.366667	744.337891	111.691345
11840.134043	1562.366667	743.135742	220.641678
11840.134043	1562.366667	741.933594	76.037849
11840.134043	1562.366667	740.731445	227.882675
11840.134043	1562.366667	739.529297	164.913818
11840.134043	1562.366667	738.326172	220.040665
11840.134043	1562.366667	737.124023	251.520187
11840.134043	1562.366667	735.919922	289.412872
11840.134043	1562.366667	734.716797	453.866425
11840.134043	1562.366667	733.513672	427.320526
11840.134043	1562.366667	732.309570	544.467773
11840.134043	1562.366667	731.105469	447.127930
11840.134043	1562.366667	729.900391	422.704987
11840.134043	1562.366667	728.696289	263.248047
11840.134043	1562.366667	727.491211	195.988449
11840.134043	1562.366667	726.286133	165.165024
11840.134043	1562.366667	725.080078	140.766647
11840.134043	1562.366667	723.874023	172.044861
11840.134043	1562.366667	722.668945	57.700459
11840.134043	1562.366667	721.461914	20.453201
11840.134043	1562.366667	720.255859	188.667007
11840.134043	1562.366667	719.048828	63.648312
11840.134043	1562.366667	717.841797	84.140388
11840.134043	1562.366667	716.634766	-36.556137
11840.134043	1562.366667	715.427734	-60.988773
11840.134043	1562.366667	714.219727	-12.735168
11840.134043	1562.366667	713.011719	-26.505602
11840.134043	1562.366667	711.803711	-46.697689
11840.134043	1562.366667	710.594727	114.716835
11840.134043	1562.366667	709.385742	6.888579
11840.134043	1562.366667	708.176758	82.762207
11840.134043	1562.366667	706.967773	-61.346527
11840.134043	1562.366667	705.758789	-6.871846
11840.134043	1562.366667	704.548828	-3.661528
11840.134043	1562.366667	703.338867	-53.818333
11840.134043	1562.366667	702.127930	73.108284
11840.134043	1562.366667	700.917969	61.316864
11840.134043	1562.366667	699.707031	36.717411
11840.134043	1562.366667	698.496094	-4.946579
11840.134043	1562.366667	697.285156	251.827179
11840.134043	1562.366667	696.073242	126.981339
11840.134043	1562.366667	694.861328	59.700848
11840.134043	1562.366667	693.649414	141.555862
11840.134043	1562.366667	692.436523	-51.400658
11840.134043	1562.366667	691.224609	70.865524
11840.134043	1562.366667	690.011719	148.352570
11840.134043	1562.366667	688.798828	223.659531
11840.134043	1562.366667	687.584961	222.303223
11840.134043	1562.366667	686.372070	140.076752
11840.134043	1562.366667	685.158203	136.572418
11840.134043	1562.366667	683.943359	152.190918
11840.134043	1562.366667	682.729492	142.267441
11840.134043	1562.366667	681.514648	117.446945
11840.134043	1562.366667	680.299805	154.253906
11840.134043	1562.366667	679.084961	214.400574
11840.134043	1562.366667	677.869141	357.357727
11840.134043	1562.366667	676.653320	391.905762
11840.134043	1562.366667	675.437500	456.149536
11840.134043	1562.366667	674.221680	463.019531
11840.134043	1562.366667	673.004883	465.619324
11840.134043	1562.366667	671.789063	425.751190
11840.134043	1562.366667	670.571289	489.848480
11840.134043	1562.366667	669.354492	536.926819
11840.134043	1562.366667	668.136719	499.124939
11840.134043	1562.366667	666.919922	387.099335
11840.134043	1562.366667	665.701172	434.103424
11840.134043	1562.366667	664.483398	252.147186
11840.134043	1562.366667	663.264648	260.970825
11840.134043	1562.366667	662.045898	193.494583
11840.134043	1562.366667	660.827148	111.195885
11840.134043	1562.366667	659.608398	5.613688
11840.134043	1562.366667	658.388672	196.486588
11840.134043	1562.366667	657.168945	239.070389
11840.134043	1562.366667	655.949219	296.428955
11840.134043	1562.366667	654.728516	167.528336
11840.134043	1562.366667	653.507813	391.962830
11840.134043	1562.366667	652.287109	250.359222
11840.134043	1562.366667	651.066406	263.164764
11840.134043	1562.366667	649.844727	316.112030
11840.134043	1562.366667	648.623047	297.144012
11840.134043	1562.366667	647.401367	383.828461
11840.134043	1562.366667	646.179688	573.985168
11840.134043	1562.366667	644.957031	652.076111
11840.134043	1562.366667	643.734375	651.965332
11840.134043	1562.366667	642.511719	829.202515
11840.134043	1562.366667	641.289063	902.896057
11840.134043	1562.366667	640.065430	999.750549
11840.134043	1562.366667	638.841797	1018.461060
11840.134043	1562.366667	637.618164	935.869934
11840.134043	1562.366667	636.393555	853.288147
11840.134043	1562.366667	635.168945	623.094482
11840.134043	1562.366667	633.944336	527.914368
11840.134043	1562.366667	632.719727	472.801971
11840.134043	1562.366667	631.494141	398.719696
11840.134043	1562.366667	630.269531	124.469704
11840.134043	1562.366667	629.042969	233.721893
11840.134043	1562.366667	627.817383	172.300461
11840.134043	1562.366667	626.590820	239.331299
11840.134043	1562.366667	625.365234	264.203186
11840.134043	1562.366667	624.137695	188.004272
11840.134043	1562.366667	622.911133	162.319733
11840.134043	1562.366667	621.683594	159.764099
11840.134043	1562.366667	620.456055	100.389259
11840.134043	1562.366667	619.228516	169.303116
11840.134043	1562.366667	618.000977	139.339188
11840.134043	1562.366667	616.772461	306.967987
11840.134043	1562.366667	615.543945	285.343536
11840.134043	1562.366667	614.314453	301.525665
11840.134043	1562.366667	613.085938	363.895721
11840.134043	1562.366667	611.856445	512.330750
11840.134043	1562.366667	610.626953	561.979370
11840.134043	1562.366667	609.397461	363.838806
11840.134043	1562.366667	608.166992	207.737823
11840.134043	1562.366667	606.936523	198.582565
11840.134043	1562.366667	605.706055	237.665070
11840.134043	1562.366667	604.474609	190.697433
11840.134043	1562.366667	603.244141	137.434891
11840.134043	1562.366667	602.012695	130.299561
11840.134043	1562.366667	600.780273	41.382294
11840.134043	1562.366667	599.548828	30.030268
11840.134043	1562.366667	598.316406	138.101044
11840.134043	1562.366667	597.083984	42.880825
11840.134043	1562.366667	595.851563	79.637779
11840.134043	1562.366667	594.618164	-13.484476
11840.134043	1562.366667	593.384766	12.751001
11840.134043	1562.366667	592.151367	120.588966
11840.134043	1562.366667	590.917969	186.501221
11840.134043	1562.366667	589.683594	41.029274
11840.134043	1562.366667	588.449219	119.433609
11840.134043	1562.366667	587.214844	174.774429
11840.134043	1562.366667	585.979492	253.068771
11840.134043	1562.366667	584.745117	289.495850
11840.134043	1562.366667	583.509766	405.308899
11840.134043	1562.366667	582.273438	422.831696
11840.134043	1562.366667	581.038086	291.988220
11840.134043	1562.366667	579.801758	186.242508
11840.134043	1562.366667	578.565430	253.854248
11840.134043	1562.366667	577.329102	171.084366
11840.134043	1562.366667	576.091797	65.363396
11840.134043	1562.366667	574.854492	49.408600
11840.134043	1562.366667	573.617188	-123.055710
11840.134043	1562.366667	572.378906	-159.870026
11840.134043	1562.366667	571.141602	170.395752
11840.134043	1562.366667	569.903320	173.112198
11840.134043	1562.366667	568.664063	71.564133
11840.134043	1562.366667	567.425781	5.474735
11840.134043	1562.366667	566.186523	33.167618
11840.134043	1562.366667	564.947266	152.501312
11840.134043	1562.366667	563.708008	217.605453
11840.134043	1562.366667	562.467773	195.190720
11840.134043	1562.366667	561.227539	45.755836
11840.134043	1562.366667	559.987305	-3.713608
11840.134043	1562.366667	558.747070	46.719154
11840.134043	1562.366667	557.505859	32.604607
11840.134043	1562.366667	556.264648	-14.808937
11840.134043	1562.366667	555.023438	18.896252
11840.134043	1562.366667	553.781250	25.533813
11840.134043	1562.366667	552.539063	146.496643
11840.134043	1562.366667	551.296875	69.924637
11840.134043	1562.366667	550.054688	41.165230
11840.134043	1562.366667	548.811523	105.894806
11840.134043	1562.366667	547.569336	108.264290
11840.134043	1562.366667	546.325195	-9.843207
11840.134043	1562.366667	545.082031	42.347439
11840.134043	1562.366667	543.837891	-46.665302
11840.134043	1562.366667	542.593750	-96.222305
11840.134043	1562.366667	541.349609	38.904224
11840.134043	1562.366667	540.105469	-35.575958
11840.134043	1562.366667	538.860352	-83.077858
11840.134043	1562.366667	537.615234	-74.584892
11840.134043	1562.366667	536.369141	-107.577499
11840.134043	1562.366667	535.124023	41.839123
11840.134043	1562.366667	533.877930	-32.640453
11840.134043	1562.366667	532.631836	-63.591393
11840.134043	1562.366667	531.384766	15.243125
11840.134043	1562.366667	530.138672	-48.868988
11840.134043	1562.366667	528.891602	-77.768379
11840.134043	1562.366667	527.643555	121.044205
11840.134043	1562.366667	526.396484	32.073540
11840.134043	1562.366667	525.148438	73.488686
11840.134043	1562.366667	523.900391	112.805351
11840.134043	1562.366667	522.652344	1.102868
11840.134043	1562.366667	521.403320	-17.509977
11840.134043	1562.366667	520.154297	-40.261124
11840.134043	1562.366667	518.905273	-199.437943
11840.134043	1562.366667	517.656250	-139.499161
11840.134043	1562.366667	516.406250	-48.607086
11840.134043	1562.366667	515.156250	11.249636
11840.134043	1562.366667	513.906250	-85.889236
11840.134043	1562.366667	512.655273	9.028821
11840.134043	1562.366667	511.404297	-104.605942
11840.134043	1562.366667	510.153320	-59.279182
11840.134043	1562.366667	508.902344	-236.837387
11840.134043	1562.366667	507.650391	-94.560623
11840.134043	1562.366667	506.398438	35.269974
11840.134043	1562.366667	505.146484	-55.614491
11840.134043	1562.366667	503.893555	-24.831020
11840.134043	1562.366667	502.641602	-274.399109
11840.134043	1562.366667	501.388672	-93.159363
11840.134043	1562.366667	500.134766	26.179802
11840.134043	1562.366667	498.881836	38.344501
11840.134043	1562.366667	497.627930	-38.065033
11840.134043	1562.366667	496.374023	7.033755
11840.134043	1562.366667	495.119141	0.636535
11840.134043	1562.366667	493.865234	-61.333813
11840.134043	1562.366667	492.610352	12.520680
11840.134043	1562.366667	491.355469	189.199051
11840.134043	1562.366667	490.099609	129.254486
11840.134043	1562.366667	488.843750	30.255817
11840.134043	1562.366667	487.587891	50.536011
11840.134043	1562.366667	486.332031	-48.420628
11840.134043	1562.366667	485.075195	142.418488
11840.134043	1562.366667	483.818359	203.725174
11840.134043	1562.366667	482.561523	45.199474
11840.134043	1562.366667	481.304688	32.548286
11840.134043	1562.366667	480.046875	-41.708122
11840.134043	1562.366667	478.789063	77.025803
11840.134043	1562.366667	477.531250	142.336273
11840.134043	1562.366667	476.272461	115.267387
11840.134043	1562.366667	475.013672	106.663666
11840.134043	1562.366667	473.754883	50.878326
11840.134043	1562.366667	472.496094	83.283592
11840.134043	1562.366667	471.236328	80.807709
11840.134043	1562.366667	469.976563	168.510437
11840.134043	1562.366667	468.716797	24.591055
11840.134043	1562.366667	467.456055	183.950836
11840.134043	1562.366667	466.196289	201.889847
11840.134043	1562.366667	464.935547	209.565506
11840.134043	1562.366667	463.673828	100.510880
11840.134043	1562.366667	462.413086	22.197887
11840.134043	1562.366667	461.151367	285.691956
11840.134043	1562.366667	459.889648	125.489647
11840.134043	1562.366667	458.626953	47.168167
11840.134043	1562.366667	457.364258	159.078506
11840.134043	1562.366667	456.101563	189.126602
11840.134043	1562.366667	454.838867	202.786728
11840.134043	1562.366667	453.575195	230.726181
11840.134043	1562.366667	452.312500	60.409878
11840.134043	1562.366667	451.047852	-1.575621
11840.134043	1562.366667	449.784180	101.902794
11840.134043	1562.366667	448.519531	217.562668
11840.134043	1562.366667	447.254883	275.976440
11840.134043	1562.366667	445.990234	-4.526072
11840.134043	1562.366667	444.725586	43.651588
11840.134043	1562.366667	443.459961	120.343155
11840.134043	1562.366667	442.194336	101.089645
11840.134043	1562.366667	440.927734	208.263702
11840.134043	1562.366667	439.662109	241.951630
11840.134043	1562.366667	438.395508	136.955200
11840.134043	1562.366667	437.127930	164.451416
11840.134043	1562.366667	435.861328	248.959198
11840.134043	1562.366667	434.593750	162.247696
11840.134043	1562.366667	433.326172	183.488968
11840.134043	1562.366667	432.058594	70.268555
11840.134043	1562.366667	430.790039	160.654144
11840.134043	1562.366667	429.521484	179.705368
11840.134043	1562.366667	428.252930	145.784409
11840.134043	1562.366667	426.984375	121.998940
11840.134043	1562.366667	425.714844	297.527527
11840.134043	1562.366667	424.445313	226.826111
11840.134043	1562.366667	423.174805	160.159897
11840.134043	1562.366667	421.905273	140.222076
11840.134043	1562.366667	420.634766	262.501770
11840.134043	1562.366667	419.364258	283.057343
11840.134043	1562.366667	418.092773	266.960022
11840.134043	1562.366667	416.822266	419.390381
11840.134043	1562.366667	415.550781	281.275696
11840.134043	1562.366667	414.278320	303.533203
11840.134043	1562.366667	413.006836	242.477234
11840.134043	1562.366667	411.734375	242.241470
11840.134043	1562.366667	410.461914	203.365860
11840.134043	1562.366667	409.188477	99.495781
11840.134043	1562.366667	407.916016	226.784988
11840.134043	1562.366667	406.642578	151.146042
11840.134043	1562.366667	405.368164	274.101746
11840.134043	1562.366667	404.094727	157.737152
11840.134043	1562.366667	402.820313	241.916611
11840.134043	1562.366667	401.545898	297.580627
11840.134043	1562.366667	400.270508	114.087013
11840.134043	1562.366667	398.996094	197.858917
11840.134043	1562.366667	397.720703	153.909378
11840.134043	1562.366667	396.444336	87.573257
11840.134043	1562.366667	395.168945	195.171814
11840.134043	1562.366667	393.892578	181.176086
11840.134043	1562.366667	392.616211	57.803123
11840.134043	1562.366667	391.339844	49.605808
11840.134043	1562.366667	390.062500	192.893127
11840.134043	1562.366667	388.785156	91.346909
11840.134043	1562.366667	387.507813	288.793488
11840.134043	1562.366667	386.229492	59.612766
11840.134043	1562.366667	384.951172	78.832657
11840.134043	1562.366667	383.672852	-29.391867
11840.134043	1562.366667	382.394531	122.727295
11840.134043	1562.366667	381.115234	113.058556
11840.134043	1562.366667	379.835938	163.736649
11840.134043	1562.366667	378.556641	80.985664
11840.134043	1562.366667	377.277344	121.117935
11840.134043	1562.366667	375.997070	52.067879
11840.134043	1562.366667	374.716797	49.358788
11840.134043	1562.366667	373.435547	34.298355
11840.134043	1562.366667	372.155273	61.328167
11840.134043	1562.366667	370.874023	-32.848362
11840.134043	1562.366667	369.591797	9.751694
11840.134043	1562.366667	368.310547	3.711618
11840.134043	1562.366667	367.028320	132.318924
11840.134043	1562.366667	365.746094	20.949858
11840.134043	1562.366667	364.463867	249.549500
11840.134043	1562.366667	363.180664	197.950974
11840.134043	1562.366667	361.897461	111.837639
11840.134043	1562.366667	360.614258	158.208115
11840.134043	1562.366667	359.330078	119.721184
11840.134043	1562.366667	358.045898	-71.943657
11840.134043	1562.366667	356.761719	-46.753357
11840.134043	1562.366667	355.477539	162.977722
11840.134043	1562.366667	354.192383	36.598186
11840.134043	1562.366667	352.907227	-11.768085
11840.134043	1562.366667	351.622070	-36.422047
11840.134043	1562.366667	350.336914	93.152954
11840.134043	1562.366667	349.050781	43.515099
11840.134043	1562.366667	347.764648	135.979828
11840.134043	1562.366667	346.477539	35.250080
11840.134043	1562.366667	345.191406	0.317915
11840.134043	1562.366667	343.904297	-49.145847
11840.134043	1562.366667	342.616211	15.220295
11840.134043	1562.366667	341.329102	-3.163516
11840.134043	1562.366667	340.041016	-18.076887
11840.134043	1562.366667	338.752930	-61.594105
11840.134043	1562.366667	337.463867	-143.746582
11840.134043	1562.366667	336.175781	-60.130253
11840.134043	1562.366667	334.886719	44.874008
11840.134043	1562.366667	333.596680	-123.159889
11840.134043	1562.366667	332.307617	-123.541077
11840.134043	1562.366667	331.017578	-40.507183
11840.134043	1562.366667	329.727539	-50.233406
11840.134043	1562.366667	328.436523	-28.636709
11840.134043	1562.366667	327.146484	54.288765
11840.134043	1562.366667	325.855469	-85.561852
11840.134043	1562.366667	324.563477	-116.125702
11840.134043	1562.366667	323.272461	-39.451508
11840.134043	1562.366667	321.980469	-53.546982
11840.134043	1562.366667	320.688477	-76.421310
11840.134043	1562.366667	319.395508	-170.044952
11840.134043	1562.366667	318.103516	-136.601227
11840.134043	1562.366667	316.810547	31.747795
11840.134043	1562.366667	315.516602	39.397831
11840.134043	1562.366667	314.223633	-47.645874
11840.134043	1562.366667	312.929688	77.943108
11840.134043	1562.366667	311.635742	170.610565
11840.134043	1562.366667	310.340820	216.363205
11840.134043	1562.366667	309.045898	161.386505
11840.134043	1562.366667	307.750977	181.189209
11840.134043	1562.366667	306.456055	189.977310
11840.134043	1562.366667	305.160156	137.874176
11840.134043	1562.366667	303.865234	178.389618
11840.134043	1562.366667	302.568359	62.315041
11840.134043	1562.366667	301.272461	319.633423
11840.134043	1562.366667	299.975586	402.388977
11840.134043	1562.366667	298.678711	434.136688
