#X		#Y		#Wave		#Intensity
11975.407979	2794.306667	1999.980469	82.689102
11975.407979	2794.306667	1999.016602	-40.986004
11975.407979	2794.306667	1998.052734	-92.010139
11975.407979	2794.306667	1997.087891	45.214504
11975.407979	2794.306667	1996.123047	-72.914757
11975.407979	2794.306667	1995.158203	200.299347
11975.407979	2794.306667	1994.193359	96.850876
11975.407979	2794.306667	1993.228516	-85.892181
11975.407979	2794.306667	1992.262695	-65.638527
11975.407979	2794.306667	1991.297852	-18.247995
11975.407979	2794.306667	1990.332031	-55.103813
11975.407979	2794.306667	1989.366211	29.224688
11975.407979	2794.306667	1988.399414	-77.051895
11975.407979	2794.306667	1987.433594	41.733334
11975.407979	2794.306667	1986.466797	63.954052
11975.407979	2794.306667	1985.500977	-62.253967
11975.407979	2794.306667	1984.534180	-15.427610
11975.407979	2794.306667	1983.567383	60.982956
11975.407979	2794.306667	1982.599609	95.295944
11975.407979	2794.306667	1981.632813	1.064332
11975.407979	2794.306667	1980.665039	52.563984
11975.407979	2794.306667	1979.697266	47.190411
11975.407979	2794.306667	1978.729492	-111.329086
11975.407979	2794.306667	1977.761719	53.598934
11975.407979	2794.306667	1976.792969	-77.794884
11975.407979	2794.306667	1975.825195	64.776009
11975.407979	2794.306667	1974.856445	120.892242
11975.407979	2794.306667	1973.887695	-52.487312
11975.407979	2794.306667	1972.918945	131.833038
11975.407979	2794.306667	1971.949219	138.487747
11975.407979	2794.306667	1970.980469	150.047607
11975.407979	2794.306667	1970.010742	188.695175
11975.407979	2794.306667	1969.041016	111.460472
11975.407979	2794.306667	1968.071289	164.844574
11975.407979	2794.306667	1967.101563	102.388535
11975.407979	2794.306667	1966.130859	249.330856
11975.407979	2794.306667	1965.161133	83.405289
11975.407979	2794.306667	1964.190430	136.694275
11975.407979	2794.306667	1963.219727	47.151440
11975.407979	2794.306667	1962.249023	9.327349
11975.407979	2794.306667	1961.277344	62.570568
11975.407979	2794.306667	1960.306641	-103.211479
11975.407979	2794.306667	1959.334961	90.257629
11975.407979	2794.306667	1958.363281	-82.855774
11975.407979	2794.306667	1957.391602	-100.968170
11975.407979	2794.306667	1956.419922	153.861328
11975.407979	2794.306667	1955.447266	-24.084457
11975.407979	2794.306667	1954.474609	-103.643250
11975.407979	2794.306667	1953.501953	99.445038
11975.407979	2794.306667	1952.529297	17.445311
11975.407979	2794.306667	1951.556641	-0.645127
11975.407979	2794.306667	1950.583984	-28.544842
11975.407979	2794.306667	1949.610352	144.937973
11975.407979	2794.306667	1948.636719	-111.297394
11975.407979	2794.306667	1947.663086	8.153392
11975.407979	2794.306667	1946.689453	164.387039
11975.407979	2794.306667	1945.715820	-204.548615
11975.407979	2794.306667	1944.741211	253.459000
11975.407979	2794.306667	1943.767578	-39.286182
11975.407979	2794.306667	1942.792969	170.851166
11975.407979	2794.306667	1941.818359	84.230873
11975.407979	2794.306667	1940.842773	49.143192
11975.407979	2794.306667	1939.868164	45.952305
11975.407979	2794.306667	1938.892578	126.102135
11975.407979	2794.306667	1937.916992	0.424962
11975.407979	2794.306667	1936.941406	48.746609
11975.407979	2794.306667	1935.965820	-81.727249
11975.407979	2794.306667	1934.990234	106.217812
11975.407979	2794.306667	1934.013672	51.724483
11975.407979	2794.306667	1933.037109	16.856222
11975.407979	2794.306667	1932.060547	-8.185333
11975.407979	2794.306667	1931.083984	106.284821
11975.407979	2794.306667	1930.107422	59.264164
11975.407979	2794.306667	1929.129883	-51.314613
11975.407979	2794.306667	1928.153320	-117.804062
11975.407979	2794.306667	1927.175781	-120.671234
11975.407979	2794.306667	1926.198242	-42.835464
11975.407979	2794.306667	1925.219727	49.660351
11975.407979	2794.306667	1924.242188	44.396935
11975.407979	2794.306667	1923.263672	168.657333
11975.407979	2794.306667	1922.285156	4.636263
11975.407979	2794.306667	1921.306641	-103.121201
11975.407979	2794.306667	1920.328125	-27.662779
11975.407979	2794.306667	1919.349609	-5.920007
11975.407979	2794.306667	1918.370117	67.104271
11975.407979	2794.306667	1917.391602	20.537088
11975.407979	2794.306667	1916.412109	47.219334
11975.407979	2794.306667	1915.431641	-187.132095
11975.407979	2794.306667	1914.452148	100.633026
11975.407979	2794.306667	1913.472656	29.813572
11975.407979	2794.306667	1912.492188	-28.761251
11975.407979	2794.306667	1911.511719	-36.091625
11975.407979	2794.306667	1910.531250	-75.079018
11975.407979	2794.306667	1909.550781	-72.596573
11975.407979	2794.306667	1908.569336	-48.160759
11975.407979	2794.306667	1907.588867	44.503139
11975.407979	2794.306667	1906.607422	122.543968
11975.407979	2794.306667	1905.625977	47.167328
11975.407979	2794.306667	1904.644531	66.797813
11975.407979	2794.306667	1903.662109	-200.794861
11975.407979	2794.306667	1902.680664	237.538651
11975.407979	2794.306667	1901.698242	40.631004
11975.407979	2794.306667	1900.715820	-61.294876
11975.407979	2794.306667	1899.733398	24.139635
11975.407979	2794.306667	1898.750000	-16.897257
11975.407979	2794.306667	1897.767578	19.914371
11975.407979	2794.306667	1896.784180	-74.540924
11975.407979	2794.306667	1895.800781	-20.671257
11975.407979	2794.306667	1894.817383	8.900948
11975.407979	2794.306667	1893.833984	96.797386
11975.407979	2794.306667	1892.850586	55.932716
11975.407979	2794.306667	1891.866211	-96.618546
11975.407979	2794.306667	1890.881836	-98.534218
11975.407979	2794.306667	1889.897461	37.961643
11975.407979	2794.306667	1888.913086	-44.041550
11975.407979	2794.306667	1887.927734	2.635252
11975.407979	2794.306667	1886.943359	85.713676
11975.407979	2794.306667	1885.958008	59.606968
11975.407979	2794.306667	1884.972656	43.230846
11975.407979	2794.306667	1883.987305	39.006710
11975.407979	2794.306667	1883.001953	-57.337425
11975.407979	2794.306667	1882.015625	-160.900772
11975.407979	2794.306667	1881.029297	2.209838
11975.407979	2794.306667	1880.042969	121.655983
11975.407979	2794.306667	1879.056641	3.629513
11975.407979	2794.306667	1878.070313	-194.276352
11975.407979	2794.306667	1877.083984	-55.438126
11975.407979	2794.306667	1876.096680	-15.919822
11975.407979	2794.306667	1875.109375	-138.614563
11975.407979	2794.306667	1874.122070	84.898956
11975.407979	2794.306667	1873.134766	107.467834
11975.407979	2794.306667	1872.146484	137.299561
11975.407979	2794.306667	1871.159180	9.879770
11975.407979	2794.306667	1870.170898	32.485359
11975.407979	2794.306667	1869.182617	33.327583
11975.407979	2794.306667	1868.194336	-23.850012
11975.407979	2794.306667	1867.205078	-143.849670
11975.407979	2794.306667	1866.216797	101.169586
11975.407979	2794.306667	1865.227539	-74.372696
11975.407979	2794.306667	1864.238281	100.491501
11975.407979	2794.306667	1863.249023	74.798668
11975.407979	2794.306667	1862.259766	-45.068989
11975.407979	2794.306667	1861.269531	-172.130493
11975.407979	2794.306667	1860.279297	-108.412003
11975.407979	2794.306667	1859.290039	-25.402617
11975.407979	2794.306667	1858.298828	105.847771
11975.407979	2794.306667	1857.308594	75.386818
11975.407979	2794.306667	1856.318359	78.714073
11975.407979	2794.306667	1855.327148	219.526367
11975.407979	2794.306667	1854.335938	78.136337
11975.407979	2794.306667	1853.344727	-53.556255
11975.407979	2794.306667	1852.353516	5.241899
11975.407979	2794.306667	1851.362305	-83.004990
11975.407979	2794.306667	1850.370117	-24.225115
11975.407979	2794.306667	1849.377930	97.172501
11975.407979	2794.306667	1848.385742	-70.538376
11975.407979	2794.306667	1847.393555	-57.560524
11975.407979	2794.306667	1846.401367	-63.854549
11975.407979	2794.306667	1845.408203	-12.371106
11975.407979	2794.306667	1844.415039	99.263985
11975.407979	2794.306667	1843.421875	52.016891
11975.407979	2794.306667	1842.428711	33.654549
11975.407979	2794.306667	1841.435547	-121.830505
11975.407979	2794.306667	1840.441406	16.171589
11975.407979	2794.306667	1839.448242	211.827881
11975.407979	2794.306667	1838.454102	-75.864906
11975.407979	2794.306667	1837.459961	45.197926
11975.407979	2794.306667	1836.464844	137.363525
11975.407979	2794.306667	1835.470703	191.036301
11975.407979	2794.306667	1834.475586	88.514687
11975.407979	2794.306667	1833.480469	120.534286
11975.407979	2794.306667	1832.485352	-13.179929
11975.407979	2794.306667	1831.490234	102.861664
11975.407979	2794.306667	1830.495117	36.392838
11975.407979	2794.306667	1829.499023	20.338800
11975.407979	2794.306667	1828.502930	141.065109
11975.407979	2794.306667	1827.506836	98.574097
11975.407979	2794.306667	1826.510742	20.100533
11975.407979	2794.306667	1825.513672	164.693588
11975.407979	2794.306667	1824.517578	-43.288849
11975.407979	2794.306667	1823.520508	77.251175
11975.407979	2794.306667	1822.523438	97.049461
11975.407979	2794.306667	1821.526367	112.027306
11975.407979	2794.306667	1820.529297	220.430237
11975.407979	2794.306667	1819.531250	48.473392
11975.407979	2794.306667	1818.533203	5.905326
11975.407979	2794.306667	1817.535156	174.074127
11975.407979	2794.306667	1816.537109	-105.587143
11975.407979	2794.306667	1815.539063	158.251038
11975.407979	2794.306667	1814.540039	261.604492
11975.407979	2794.306667	1813.541992	218.922424
11975.407979	2794.306667	1812.542969	221.691040
11975.407979	2794.306667	1811.543945	-67.403358
11975.407979	2794.306667	1810.543945	9.508461
11975.407979	2794.306667	1809.544922	138.971603
11975.407979	2794.306667	1808.544922	-16.139183
11975.407979	2794.306667	1807.544922	-63.655090
11975.407979	2794.306667	1806.544922	-77.723083
11975.407979	2794.306667	1805.544922	70.665138
11975.407979	2794.306667	1804.544922	58.910473
11975.407979	2794.306667	1803.543945	-184.552521
11975.407979	2794.306667	1802.542969	126.071075
11975.407979	2794.306667	1801.541992	183.463455
11975.407979	2794.306667	1800.541016	16.413208
11975.407979	2794.306667	1799.539063	11.689775
11975.407979	2794.306667	1798.538086	200.221710
11975.407979	2794.306667	1797.536133	64.184044
11975.407979	2794.306667	1796.534180	-2.660318
11975.407979	2794.306667	1795.532227	66.426498
11975.407979	2794.306667	1794.529297	-52.915104
11975.407979	2794.306667	1793.527344	85.223274
11975.407979	2794.306667	1792.524414	-150.936752
11975.407979	2794.306667	1791.521484	163.446045
11975.407979	2794.306667	1790.518555	48.804886
11975.407979	2794.306667	1789.514648	62.808380
11975.407979	2794.306667	1788.511719	205.384811
11975.407979	2794.306667	1787.507813	104.981079
11975.407979	2794.306667	1786.503906	109.335121
11975.407979	2794.306667	1785.500000	116.030579
11975.407979	2794.306667	1784.496094	15.591546
11975.407979	2794.306667	1783.491211	103.129807
11975.407979	2794.306667	1782.486328	76.403961
11975.407979	2794.306667	1781.481445	-35.976913
11975.407979	2794.306667	1780.476563	103.726143
11975.407979	2794.306667	1779.471680	174.384903
11975.407979	2794.306667	1778.465820	171.283890
11975.407979	2794.306667	1777.460938	35.047550
11975.407979	2794.306667	1776.455078	131.700226
11975.407979	2794.306667	1775.449219	-71.081192
11975.407979	2794.306667	1774.442383	-107.548470
11975.407979	2794.306667	1773.436523	-115.541649
11975.407979	2794.306667	1772.429688	130.496552
11975.407979	2794.306667	1771.422852	110.508812
11975.407979	2794.306667	1770.416016	137.958786
11975.407979	2794.306667	1769.409180	20.595291
11975.407979	2794.306667	1768.402344	64.578285
11975.407979	2794.306667	1767.394531	106.128456
11975.407979	2794.306667	1766.386719	365.826416
11975.407979	2794.306667	1765.378906	-40.963715
11975.407979	2794.306667	1764.371094	71.583054
11975.407979	2794.306667	1763.362305	53.669727
11975.407979	2794.306667	1762.354492	7.281426
11975.407979	2794.306667	1761.345703	-60.459919
11975.407979	2794.306667	1760.336914	16.296129
11975.407979	2794.306667	1759.328125	-1.765006
11975.407979	2794.306667	1758.318359	41.706963
11975.407979	2794.306667	1757.308594	35.397583
11975.407979	2794.306667	1756.299805	-6.460565
11975.407979	2794.306667	1755.290039	107.861443
11975.407979	2794.306667	1754.279297	-42.939339
11975.407979	2794.306667	1753.269531	144.602524
11975.407979	2794.306667	1752.258789	192.463745
11975.407979	2794.306667	1751.249023	55.792583
11975.407979	2794.306667	1750.238281	30.261898
11975.407979	2794.306667	1749.226563	-59.137257
11975.407979	2794.306667	1748.215820	57.096149
11975.407979	2794.306667	1747.204102	33.807632
11975.407979	2794.306667	1746.193359	50.653671
11975.407979	2794.306667	1745.181641	22.561670
11975.407979	2794.306667	1744.168945	-22.099358
11975.407979	2794.306667	1743.157227	58.369339
11975.407979	2794.306667	1742.144531	89.180092
11975.407979	2794.306667	1741.132813	49.121677
11975.407979	2794.306667	1740.120117	-80.651344
11975.407979	2794.306667	1739.106445	34.978134
11975.407979	2794.306667	1738.093750	-156.171539
11975.407979	2794.306667	1737.080078	-12.356188
11975.407979	2794.306667	1736.067383	-85.598099
11975.407979	2794.306667	1735.053711	-19.747967
11975.407979	2794.306667	1734.040039	13.029325
11975.407979	2794.306667	1733.025391	-147.521255
11975.407979	2794.306667	1732.011719	-310.407959
11975.407979	2794.306667	1730.997070	-164.639984
11975.407979	2794.306667	1729.982422	-28.395691
11975.407979	2794.306667	1728.967773	126.594574
11975.407979	2794.306667	1727.952148	-222.421448
11975.407979	2794.306667	1726.937500	47.815037
11975.407979	2794.306667	1725.921875	2.496606
11975.407979	2794.306667	1724.906250	-12.255049
11975.407979	2794.306667	1723.890625	-59.984688
11975.407979	2794.306667	1722.875000	-65.396240
11975.407979	2794.306667	1721.858398	-157.874985
11975.407979	2794.306667	1720.841797	-85.755074
11975.407979	2794.306667	1719.825195	-215.897675
11975.407979	2794.306667	1718.808594	-89.815254
11975.407979	2794.306667	1717.791992	43.226749
11975.407979	2794.306667	1716.774414	131.526520
11975.407979	2794.306667	1715.756836	-1.080961
11975.407979	2794.306667	1714.739258	-44.423573
11975.407979	2794.306667	1713.721680	15.536027
11975.407979	2794.306667	1712.704102	-74.835709
11975.407979	2794.306667	1711.685547	85.962357
11975.407979	2794.306667	1710.667969	70.633743
11975.407979	2794.306667	1709.649414	-106.646690
11975.407979	2794.306667	1708.630859	-124.362961
11975.407979	2794.306667	1707.611328	-13.105844
11975.407979	2794.306667	1706.592773	25.371466
11975.407979	2794.306667	1705.573242	19.238684
11975.407979	2794.306667	1704.553711	109.186768
11975.407979	2794.306667	1703.534180	-32.983196
11975.407979	2794.306667	1702.513672	-100.152161
11975.407979	2794.306667	1701.494141	-50.180359
11975.407979	2794.306667	1700.473633	-145.507767
11975.407979	2794.306667	1699.453125	28.502089
11975.407979	2794.306667	1698.432617	75.958931
11975.407979	2794.306667	1697.412109	18.007627
11975.407979	2794.306667	1696.390625	30.259245
11975.407979	2794.306667	1695.369141	-16.038242
11975.407979	2794.306667	1694.347656	-10.878613
11975.407979	2794.306667	1693.326172	43.370335
11975.407979	2794.306667	1692.304688	-52.128914
11975.407979	2794.306667	1691.282227	-131.262497
11975.407979	2794.306667	1690.260742	161.350388
11975.407979	2794.306667	1689.238281	114.862869
11975.407979	2794.306667	1688.214844	173.524261
11975.407979	2794.306667	1687.192383	-50.603767
11975.407979	2794.306667	1686.168945	176.207916
11975.407979	2794.306667	1685.146484	141.296494
11975.407979	2794.306667	1684.123047	265.163422
11975.407979	2794.306667	1683.099609	55.063026
11975.407979	2794.306667	1682.075195	-80.292450
11975.407979	2794.306667	1681.051758	-24.236452
11975.407979	2794.306667	1680.027344	171.774277
11975.407979	2794.306667	1679.002930	141.369156
11975.407979	2794.306667	1677.978516	204.251770
11975.407979	2794.306667	1676.953125	117.814934
11975.407979	2794.306667	1675.928711	57.035069
11975.407979	2794.306667	1674.903320	77.840942
11975.407979	2794.306667	1673.877930	89.285942
11975.407979	2794.306667	1672.852539	114.681099
11975.407979	2794.306667	1671.826172	74.795128
11975.407979	2794.306667	1670.800781	74.503143
11975.407979	2794.306667	1669.774414	67.192673
11975.407979	2794.306667	1668.748047	176.288345
11975.407979	2794.306667	1667.721680	250.394196
11975.407979	2794.306667	1666.694336	147.535660
11975.407979	2794.306667	1665.667969	161.059799
11975.407979	2794.306667	1664.640625	130.340256
11975.407979	2794.306667	1663.613281	262.452209
11975.407979	2794.306667	1662.585938	43.279945
11975.407979	2794.306667	1661.557617	338.087128
11975.407979	2794.306667	1660.530273	174.739609
11975.407979	2794.306667	1659.501953	480.986786
11975.407979	2794.306667	1658.473633	312.977234
11975.407979	2794.306667	1657.444336	372.724548
11975.407979	2794.306667	1656.416016	232.638626
11975.407979	2794.306667	1655.386719	146.004944
11975.407979	2794.306667	1654.358398	57.069443
11975.407979	2794.306667	1653.328125	139.954742
11975.407979	2794.306667	1652.298828	157.796158
11975.407979	2794.306667	1651.269531	326.474426
11975.407979	2794.306667	1650.239258	418.489441
11975.407979	2794.306667	1649.208984	174.043610
11975.407979	2794.306667	1648.178711	235.864029
11975.407979	2794.306667	1647.148438	432.156372
11975.407979	2794.306667	1646.117188	479.955566
11975.407979	2794.306667	1645.086914	293.583069
11975.407979	2794.306667	1644.055664	336.726379
11975.407979	2794.306667	1643.024414	347.396606
11975.407979	2794.306667	1641.992188	223.663834
11975.407979	2794.306667	1640.960938	419.644501
11975.407979	2794.306667	1639.928711	539.103210
11975.407979	2794.306667	1638.896484	570.513000
11975.407979	2794.306667	1637.864258	354.183075
11975.407979	2794.306667	1636.832031	549.938232
11975.407979	2794.306667	1635.798828	518.809509
11975.407979	2794.306667	1634.766602	422.904541
11975.407979	2794.306667	1633.733398	632.380554
11975.407979	2794.306667	1632.699219	406.943176
11975.407979	2794.306667	1631.666016	371.209930
11975.407979	2794.306667	1630.632813	483.451050
11975.407979	2794.306667	1629.598633	415.339172
11975.407979	2794.306667	1628.564453	465.112030
11975.407979	2794.306667	1627.530273	579.560303
11975.407979	2794.306667	1626.495117	613.096863
11975.407979	2794.306667	1625.460938	521.898743
11975.407979	2794.306667	1624.425781	631.633850
11975.407979	2794.306667	1623.390625	794.428589
11975.407979	2794.306667	1622.355469	661.684937
11975.407979	2794.306667	1621.319336	653.614685
11975.407979	2794.306667	1620.284180	652.475891
11975.407979	2794.306667	1619.248047	503.682495
11975.407979	2794.306667	1618.211914	576.379578
11975.407979	2794.306667	1617.174805	508.370605
11975.407979	2794.306667	1616.138672	710.160767
11975.407979	2794.306667	1615.101563	635.241272
11975.407979	2794.306667	1614.065430	763.181641
11975.407979	2794.306667	1613.027344	690.587585
11975.407979	2794.306667	1611.990234	730.922058
11975.407979	2794.306667	1610.953125	690.626282
11975.407979	2794.306667	1609.915039	862.221558
11975.407979	2794.306667	1608.876953	750.544312
11975.407979	2794.306667	1607.838867	758.625366
11975.407979	2794.306667	1606.800781	858.777832
11975.407979	2794.306667	1605.761719	721.870728
11975.407979	2794.306667	1604.723633	812.805603
11975.407979	2794.306667	1603.684570	878.405762
11975.407979	2794.306667	1602.644531	918.686584
11975.407979	2794.306667	1601.605469	933.675415
11975.407979	2794.306667	1600.566406	939.472778
11975.407979	2794.306667	1599.526367	959.066895
11975.407979	2794.306667	1598.486328	937.299805
11975.407979	2794.306667	1597.446289	993.674194
11975.407979	2794.306667	1596.405273	992.604980
11975.407979	2794.306667	1595.365234	706.764954
11975.407979	2794.306667	1594.324219	1073.184814
11975.407979	2794.306667	1593.283203	934.397888
11975.407979	2794.306667	1592.242188	843.884338
11975.407979	2794.306667	1591.200195	955.370789
11975.407979	2794.306667	1590.159180	965.879456
11975.407979	2794.306667	1589.117188	756.171570
11975.407979	2794.306667	1588.075195	677.297058
11975.407979	2794.306667	1587.032227	729.177063
11975.407979	2794.306667	1585.990234	769.598083
11975.407979	2794.306667	1584.947266	599.133240
11975.407979	2794.306667	1583.904297	538.763000
11975.407979	2794.306667	1582.861328	677.782898
11975.407979	2794.306667	1581.818359	729.718811
11975.407979	2794.306667	1580.775391	900.758911
11975.407979	2794.306667	1579.731445	826.721863
11975.407979	2794.306667	1578.687500	949.639771
11975.407979	2794.306667	1577.643555	697.122559
11975.407979	2794.306667	1576.598633	710.206848
11975.407979	2794.306667	1575.554688	904.084900
11975.407979	2794.306667	1574.509766	892.011902
11975.407979	2794.306667	1573.464844	909.705383
11975.407979	2794.306667	1572.419922	941.140503
11975.407979	2794.306667	1571.374023	970.301208
11975.407979	2794.306667	1570.329102	910.331665
11975.407979	2794.306667	1569.283203	1024.108398
11975.407979	2794.306667	1568.237305	913.935669
11975.407979	2794.306667	1567.191406	879.228149
11975.407979	2794.306667	1566.144531	999.883911
11975.407979	2794.306667	1565.098633	807.661133
11975.407979	2794.306667	1564.051758	983.146545
11975.407979	2794.306667	1563.004883	955.425537
11975.407979	2794.306667	1561.957031	948.284973
11975.407979	2794.306667	1560.910156	792.861755
11975.407979	2794.306667	1559.862305	897.616760
11975.407979	2794.306667	1558.814453	660.213501
11975.407979	2794.306667	1557.766602	546.089905
11975.407979	2794.306667	1556.718750	582.535522
11975.407979	2794.306667	1555.669922	530.091431
11975.407979	2794.306667	1554.621094	660.043884
11975.407979	2794.306667	1553.573242	810.497314
11975.407979	2794.306667	1552.523438	471.078827
11975.407979	2794.306667	1551.474609	582.858643
11975.407979	2794.306667	1550.424805	448.667511
11975.407979	2794.306667	1549.375000	448.910614
11975.407979	2794.306667	1548.325195	312.602142
11975.407979	2794.306667	1547.275391	488.212311
11975.407979	2794.306667	1546.225586	135.846069
11975.407979	2794.306667	1545.174805	391.134613
11975.407979	2794.306667	1544.124023	489.406769
11975.407979	2794.306667	1543.073242	355.705017
11975.407979	2794.306667	1542.022461	381.269012
11975.407979	2794.306667	1540.970703	481.885468
11975.407979	2794.306667	1539.919922	232.475632
11975.407979	2794.306667	1538.868164	317.263733
11975.407979	2794.306667	1537.815430	218.024796
11975.407979	2794.306667	1536.763672	450.528442
11975.407979	2794.306667	1535.710938	478.579254
11975.407979	2794.306667	1534.659180	409.028687
11975.407979	2794.306667	1533.606445	316.846558
11975.407979	2794.306667	1532.552734	363.204285
11975.407979	2794.306667	1531.500000	-62.432617
11975.407979	2794.306667	1530.446289	220.046463
11975.407979	2794.306667	1529.393555	271.082397
11975.407979	2794.306667	1528.338867	183.792465
11975.407979	2794.306667	1527.285156	92.055313
11975.407979	2794.306667	1526.231445	86.555481
11975.407979	2794.306667	1525.176758	92.438622
11975.407979	2794.306667	1524.122070	211.682999
11975.407979	2794.306667	1523.067383	258.427673
11975.407979	2794.306667	1522.012695	148.896622
11975.407979	2794.306667	1520.957031	184.412460
11975.407979	2794.306667	1519.901367	267.520630
11975.407979	2794.306667	1518.845703	196.698044
11975.407979	2794.306667	1517.790039	277.614014
11975.407979	2794.306667	1516.734375	62.087204
11975.407979	2794.306667	1515.677734	104.639717
11975.407979	2794.306667	1514.621094	156.279556
11975.407979	2794.306667	1513.564453	90.342041
11975.407979	2794.306667	1512.507813	105.894859
11975.407979	2794.306667	1511.450195	293.319641
11975.407979	2794.306667	1510.393555	218.522141
11975.407979	2794.306667	1509.335938	299.745789
11975.407979	2794.306667	1508.278320	281.576355
11975.407979	2794.306667	1507.219727	179.883011
11975.407979	2794.306667	1506.162109	225.101303
11975.407979	2794.306667	1505.103516	306.488739
11975.407979	2794.306667	1504.044922	277.273468
11975.407979	2794.306667	1502.986328	153.322983
11975.407979	2794.306667	1501.926758	131.036896
11975.407979	2794.306667	1500.868164	183.281830
11975.407979	2794.306667	1499.808594	136.302185
11975.407979	2794.306667	1498.749023	-5.327536
11975.407979	2794.306667	1497.688477	31.304243
11975.407979	2794.306667	1496.628906	63.475773
11975.407979	2794.306667	1495.568359	145.284409
11975.407979	2794.306667	1494.507813	-88.394814
11975.407979	2794.306667	1493.447266	-110.114388
11975.407979	2794.306667	1492.386719	14.668874
11975.407979	2794.306667	1491.325195	-126.314774
11975.407979	2794.306667	1490.263672	160.682495
11975.407979	2794.306667	1489.202148	73.886490
11975.407979	2794.306667	1488.140625	160.515167
11975.407979	2794.306667	1487.079102	94.135147
11975.407979	2794.306667	1486.016602	-55.410763
11975.407979	2794.306667	1484.954102	-27.109423
11975.407979	2794.306667	1483.891602	50.726849
11975.407979	2794.306667	1482.829102	148.836502
11975.407979	2794.306667	1481.765625	-137.486252
11975.407979	2794.306667	1480.702148	57.409161
11975.407979	2794.306667	1479.638672	-116.272034
11975.407979	2794.306667	1478.575195	184.282822
11975.407979	2794.306667	1477.511719	-31.882193
11975.407979	2794.306667	1476.447266	-180.486267
11975.407979	2794.306667	1475.382813	-25.885006
11975.407979	2794.306667	1474.318359	18.706856
11975.407979	2794.306667	1473.253906	40.865616
11975.407979	2794.306667	1472.189453	2.657788
11975.407979	2794.306667	1471.124023	-71.499794
11975.407979	2794.306667	1470.058594	-64.621284
11975.407979	2794.306667	1468.993164	-39.985893
11975.407979	2794.306667	1467.927734	65.510971
11975.407979	2794.306667	1466.861328	56.691624
11975.407979	2794.306667	1465.794922	-19.251322
11975.407979	2794.306667	1464.728516	171.508377
11975.407979	2794.306667	1463.662109	-7.074150
11975.407979	2794.306667	1462.594727	-26.810125
11975.407979	2794.306667	1461.528320	54.385067
11975.407979	2794.306667	1460.460938	93.090111
11975.407979	2794.306667	1459.393555	176.005997
11975.407979	2794.306667	1458.326172	20.277300
11975.407979	2794.306667	1457.257813	44.058868
11975.407979	2794.306667	1456.189453	4.511450
11975.407979	2794.306667	1455.121094	-39.625679
11975.407979	2794.306667	1454.052734	-5.273411
11975.407979	2794.306667	1452.984375	-150.918060
11975.407979	2794.306667	1451.915039	82.032028
11975.407979	2794.306667	1450.845703	116.563446
11975.407979	2794.306667	1449.776367	-37.976177
11975.407979	2794.306667	1448.707031	207.250061
11975.407979	2794.306667	1447.636719	77.233459
11975.407979	2794.306667	1446.567383	-58.071114
11975.407979	2794.306667	1445.497070	71.880569
11975.407979	2794.306667	1444.425781	-128.005096
11975.407979	2794.306667	1443.355469	-106.862534
11975.407979	2794.306667	1442.285156	-46.296017
11975.407979	2794.306667	1441.213867	72.540596
11975.407979	2794.306667	1440.142578	23.543337
11975.407979	2794.306667	1439.070313	-149.260864
11975.407979	2794.306667	1437.999023	-44.401596
11975.407979	2794.306667	1436.926758	67.598930
11975.407979	2794.306667	1435.854492	67.720474
11975.407979	2794.306667	1434.782227	18.150438
11975.407979	2794.306667	1433.709961	14.491259
11975.407979	2794.306667	1432.636719	-169.806946
11975.407979	2794.306667	1431.563477	86.719658
11975.407979	2794.306667	1430.490234	-156.812805
11975.407979	2794.306667	1429.416992	5.725399
11975.407979	2794.306667	1428.343750	-62.909988
11975.407979	2794.306667	1427.269531	-38.935566
11975.407979	2794.306667	1426.195313	41.334835
11975.407979	2794.306667	1425.121094	-102.281548
11975.407979	2794.306667	1424.046875	177.266891
11975.407979	2794.306667	1422.971680	117.098740
11975.407979	2794.306667	1421.896484	-11.520997
11975.407979	2794.306667	1420.821289	5.870399
11975.407979	2794.306667	1419.746094	-148.186234
11975.407979	2794.306667	1418.669922	17.858589
11975.407979	2794.306667	1417.594727	60.146645
11975.407979	2794.306667	1416.518555	-11.867431
11975.407979	2794.306667	1415.442383	-100.817467
11975.407979	2794.306667	1414.365234	-11.504354
11975.407979	2794.306667	1413.289063	-45.507515
11975.407979	2794.306667	1412.211914	25.529510
11975.407979	2794.306667	1411.134766	-153.258804
11975.407979	2794.306667	1410.057617	-105.262344
11975.407979	2794.306667	1408.979492	72.007324
11975.407979	2794.306667	1407.902344	59.985813
11975.407979	2794.306667	1406.824219	-30.009914
11975.407979	2794.306667	1405.746094	43.972652
11975.407979	2794.306667	1404.666992	23.509073
11975.407979	2794.306667	1403.588867	-54.555389
11975.407979	2794.306667	1402.509766	36.526375
11975.407979	2794.306667	1401.430664	92.739822
11975.407979	2794.306667	1400.351563	67.960663
11975.407979	2794.306667	1399.271484	5.910222
11975.407979	2794.306667	1398.192383	38.798401
11975.407979	2794.306667	1397.112305	54.256645
11975.407979	2794.306667	1396.031250	110.994797
11975.407979	2794.306667	1394.951172	174.230209
11975.407979	2794.306667	1393.871094	190.682373
11975.407979	2794.306667	1392.790039	113.470345
11975.407979	2794.306667	1391.708984	168.830017
11975.407979	2794.306667	1390.626953	118.724342
11975.407979	2794.306667	1389.545898	162.502899
11975.407979	2794.306667	1388.463867	273.256989
11975.407979	2794.306667	1387.381836	206.231979
11975.407979	2794.306667	1386.299805	152.343597
11975.407979	2794.306667	1385.217773	328.347351
11975.407979	2794.306667	1384.134766	156.518982
11975.407979	2794.306667	1383.051758	229.470856
11975.407979	2794.306667	1381.968750	202.347122
11975.407979	2794.306667	1380.885742	23.946297
11975.407979	2794.306667	1379.802734	234.391052
11975.407979	2794.306667	1378.718750	101.990562
11975.407979	2794.306667	1377.634766	185.893051
11975.407979	2794.306667	1376.550781	215.754379
11975.407979	2794.306667	1375.465820	299.726654
11975.407979	2794.306667	1374.381836	-42.448505
11975.407979	2794.306667	1373.296875	217.671188
11975.407979	2794.306667	1372.211914	110.174095
11975.407979	2794.306667	1371.126953	261.377228
11975.407979	2794.306667	1370.041016	342.653564
11975.407979	2794.306667	1368.955078	283.024933
11975.407979	2794.306667	1367.869141	426.121796
11975.407979	2794.306667	1366.783203	376.464264
11975.407979	2794.306667	1365.697266	307.667114
11975.407979	2794.306667	1364.610352	255.019653
11975.407979	2794.306667	1363.523438	205.077576
11975.407979	2794.306667	1362.436523	310.673462
11975.407979	2794.306667	1361.349609	254.094040
11975.407979	2794.306667	1360.261719	201.929459
11975.407979	2794.306667	1359.174805	238.502014
11975.407979	2794.306667	1358.086914	99.837303
11975.407979	2794.306667	1356.998047	293.154755
11975.407979	2794.306667	1355.910156	422.969666
11975.407979	2794.306667	1354.821289	529.504272
11975.407979	2794.306667	1353.732422	530.705383
11975.407979	2794.306667	1352.643555	679.843994
11975.407979	2794.306667	1351.554688	698.392395
11975.407979	2794.306667	1350.464844	547.408936
11975.407979	2794.306667	1349.375000	539.753296
11975.407979	2794.306667	1348.285156	460.680939
11975.407979	2794.306667	1347.195313	360.748016
11975.407979	2794.306667	1346.105469	406.973633
11975.407979	2794.306667	1345.014648	322.478790
11975.407979	2794.306667	1343.923828	348.366211
11975.407979	2794.306667	1342.833008	158.740891
11975.407979	2794.306667	1341.741211	194.737640
11975.407979	2794.306667	1340.650391	187.701645
11975.407979	2794.306667	1339.558594	245.657928
11975.407979	2794.306667	1338.466797	313.263672
11975.407979	2794.306667	1337.374023	157.130432
11975.407979	2794.306667	1336.282227	176.146973
11975.407979	2794.306667	1335.189453	204.719498
11975.407979	2794.306667	1334.096680	106.653481
11975.407979	2794.306667	1333.003906	205.524582
11975.407979	2794.306667	1331.910156	158.254059
11975.407979	2794.306667	1330.817383	63.492081
11975.407979	2794.306667	1329.723633	77.012352
11975.407979	2794.306667	1328.629883	197.262741
11975.407979	2794.306667	1327.535156	52.105034
11975.407979	2794.306667	1326.441406	-75.315742
11975.407979	2794.306667	1325.346680	289.284149
11975.407979	2794.306667	1324.251953	283.448090
11975.407979	2794.306667	1323.156250	297.792938
11975.407979	2794.306667	1322.061523	91.498550
11975.407979	2794.306667	1320.965820	197.056946
11975.407979	2794.306667	1319.870117	160.810211
11975.407979	2794.306667	1318.774414	325.352570
11975.407979	2794.306667	1317.678711	257.125885
11975.407979	2794.306667	1316.582031	278.333069
11975.407979	2794.306667	1315.485352	284.024109
11975.407979	2794.306667	1314.388672	228.533447
11975.407979	2794.306667	1313.291016	178.037720
11975.407979	2794.306667	1312.194336	227.971176
11975.407979	2794.306667	1311.096680	176.981567
11975.407979	2794.306667	1309.999023	285.318939
11975.407979	2794.306667	1308.901367	65.888039
11975.407979	2794.306667	1307.802734	211.873428
11975.407979	2794.306667	1306.705078	79.910263
11975.407979	2794.306667	1305.606445	351.085999
11975.407979	2794.306667	1304.506836	115.455856
11975.407979	2794.306667	1303.408203	183.874542
11975.407979	2794.306667	1302.308594	252.386703
11975.407979	2794.306667	1301.208984	309.303711
11975.407979	2794.306667	1300.109375	436.530273
11975.407979	2794.306667	1299.009766	353.260223
11975.407979	2794.306667	1297.909180	412.409729
11975.407979	2794.306667	1296.808594	418.915100
11975.407979	2794.306667	1295.708008	274.586334
11975.407979	2794.306667	1294.607422	321.706085
11975.407979	2794.306667	1293.506836	353.682007
11975.407979	2794.306667	1292.405273	407.240967
11975.407979	2794.306667	1291.303711	292.662903
11975.407979	2794.306667	1290.202148	212.118149
11975.407979	2794.306667	1289.099609	191.276978
11975.407979	2794.306667	1287.998047	255.971085
11975.407979	2794.306667	1286.895508	134.974152
11975.407979	2794.306667	1285.792969	146.804321
11975.407979	2794.306667	1284.689453	275.479553
11975.407979	2794.306667	1283.586914	99.809967
11975.407979	2794.306667	1282.483398	319.460968
11975.407979	2794.306667	1281.379883	209.507217
11975.407979	2794.306667	1280.276367	101.771469
11975.407979	2794.306667	1279.171875	224.962173
11975.407979	2794.306667	1278.067383	187.707703
11975.407979	2794.306667	1276.962891	262.311249
11975.407979	2794.306667	1275.858398	193.349380
11975.407979	2794.306667	1274.753906	95.906563
11975.407979	2794.306667	1273.648438	-148.079178
11975.407979	2794.306667	1272.542969	149.820251
11975.407979	2794.306667	1271.437500	-72.404449
11975.407979	2794.306667	1270.331055	-96.868950
11975.407979	2794.306667	1269.225586	-93.395271
11975.407979	2794.306667	1268.119141	-19.335283
11975.407979	2794.306667	1267.012695	-101.095871
11975.407979	2794.306667	1265.906250	-140.187317
11975.407979	2794.306667	1264.798828	-12.570957
11975.407979	2794.306667	1263.691406	-115.955444
11975.407979	2794.306667	1262.583984	8.960458
11975.407979	2794.306667	1261.476563	-173.785690
11975.407979	2794.306667	1260.368164	-167.454010
11975.407979	2794.306667	1259.260742	-158.387146
11975.407979	2794.306667	1258.152344	-102.604797
11975.407979	2794.306667	1257.043945	-74.591057
11975.407979	2794.306667	1255.934570	-226.451721
11975.407979	2794.306667	1254.825195	-14.127905
11975.407979	2794.306667	1253.716797	-45.134964
11975.407979	2794.306667	1252.606445	-30.128109
11975.407979	2794.306667	1251.497070	-71.239273
11975.407979	2794.306667	1250.387695	-18.066433
11975.407979	2794.306667	1249.277344	11.228971
11975.407979	2794.306667	1248.166992	91.000740
11975.407979	2794.306667	1247.055664	-16.039518
11975.407979	2794.306667	1245.945313	42.057507
11975.407979	2794.306667	1244.833984	62.381550
11975.407979	2794.306667	1243.722656	32.060825
11975.407979	2794.306667	1242.611328	70.237434
11975.407979	2794.306667	1241.499023	-105.092850
11975.407979	2794.306667	1240.387695	44.880650
11975.407979	2794.306667	1239.275391	131.032806
11975.407979	2794.306667	1238.162109	-70.073387
11975.407979	2794.306667	1237.049805	-93.207314
11975.407979	2794.306667	1235.936523	48.870148
11975.407979	2794.306667	1234.823242	-18.048689
11975.407979	2794.306667	1233.709961	52.311108
11975.407979	2794.306667	1232.596680	160.291840
11975.407979	2794.306667	1231.482422	18.586525
11975.407979	2794.306667	1230.369141	-60.313374
11975.407979	2794.306667	1229.253906	-28.585670
11975.407979	2794.306667	1228.139648	53.051018
11975.407979	2794.306667	1227.025391	-13.442696
11975.407979	2794.306667	1225.910156	35.517792
11975.407979	2794.306667	1224.794922	99.527626
11975.407979	2794.306667	1223.679688	111.474052
11975.407979	2794.306667	1222.563477	46.654552
11975.407979	2794.306667	1221.447266	111.152580
11975.407979	2794.306667	1220.331055	86.868088
11975.407979	2794.306667	1219.214844	214.130722
11975.407979	2794.306667	1218.098633	170.937134
11975.407979	2794.306667	1216.981445	124.823029
11975.407979	2794.306667	1215.864258	47.547718
11975.407979	2794.306667	1214.747070	23.984800
11975.407979	2794.306667	1213.629883	159.241287
11975.407979	2794.306667	1212.511719	10.685863
11975.407979	2794.306667	1211.393555	93.808365
11975.407979	2794.306667	1210.275391	169.930664
11975.407979	2794.306667	1209.157227	73.174400
11975.407979	2794.306667	1208.038086	78.311569
11975.407979	2794.306667	1206.918945	73.685570
11975.407979	2794.306667	1205.799805	-26.261591
11975.407979	2794.306667	1204.680664	54.112267
11975.407979	2794.306667	1203.560547	-90.950233
11975.407979	2794.306667	1202.441406	46.236374
11975.407979	2794.306667	1201.321289	-32.445808
11975.407979	2794.306667	1200.200195	1.889511
11975.407979	2794.306667	1199.080078	109.702332
11975.407979	2794.306667	1197.958984	10.715476
11975.407979	2794.306667	1196.837891	2.413172
11975.407979	2794.306667	1195.716797	23.874163
11975.407979	2794.306667	1194.594727	-154.577988
11975.407979	2794.306667	1193.473633	99.961243
11975.407979	2794.306667	1192.351563	-105.460274
11975.407979	2794.306667	1191.229492	57.147644
11975.407979	2794.306667	1190.106445	-64.775276
11975.407979	2794.306667	1188.984375	-163.005997
11975.407979	2794.306667	1187.861328	10.649717
11975.407979	2794.306667	1186.738281	-108.740723
11975.407979	2794.306667	1185.614258	17.871716
11975.407979	2794.306667	1184.491211	-53.196957
11975.407979	2794.306667	1183.367188	-126.005615
11975.407979	2794.306667	1182.243164	-74.520905
11975.407979	2794.306667	1181.119141	-29.289026
11975.407979	2794.306667	1179.994141	15.489930
11975.407979	2794.306667	1178.869141	18.926544
11975.407979	2794.306667	1177.744141	-3.441388
11975.407979	2794.306667	1176.619141	-106.547752
11975.407979	2794.306667	1175.493164	43.328194
11975.407979	2794.306667	1174.368164	-114.131874
11975.407979	2794.306667	1173.242188	-46.548706
11975.407979	2794.306667	1172.115234	-29.255661
11975.407979	2794.306667	1170.989258	46.539455
11975.407979	2794.306667	1169.862305	55.742123
11975.407979	2794.306667	1168.735352	-105.127655
11975.407979	2794.306667	1167.608398	-85.266426
11975.407979	2794.306667	1166.481445	-117.574814
11975.407979	2794.306667	1165.353516	-33.861565
11975.407979	2794.306667	1164.225586	-67.513786
11975.407979	2794.306667	1163.097656	-99.778786
11975.407979	2794.306667	1161.968750	-35.399925
11975.407979	2794.306667	1160.840820	-236.931702
11975.407979	2794.306667	1159.711914	-39.296684
11975.407979	2794.306667	1158.583008	-183.759750
11975.407979	2794.306667	1157.453125	-62.471603
11975.407979	2794.306667	1156.324219	-18.694492
11975.407979	2794.306667	1155.194336	-101.414665
11975.407979	2794.306667	1154.064453	1.341396
11975.407979	2794.306667	1152.933594	-42.145443
11975.407979	2794.306667	1151.803711	-14.158204
11975.407979	2794.306667	1150.672852	88.656998
11975.407979	2794.306667	1149.541992	79.163460
11975.407979	2794.306667	1148.411133	-6.581364
11975.407979	2794.306667	1147.279297	-46.523792
11975.407979	2794.306667	1146.147461	67.446167
11975.407979	2794.306667	1145.015625	-15.179956
11975.407979	2794.306667	1143.883789	51.335484
11975.407979	2794.306667	1142.750977	156.530945
11975.407979	2794.306667	1141.619141	74.874931
11975.407979	2794.306667	1140.486328	32.244305
11975.407979	2794.306667	1139.352539	-168.752289
11975.407979	2794.306667	1138.219727	19.373896
11975.407979	2794.306667	1137.085938	16.768080
11975.407979	2794.306667	1135.952148	111.001984
11975.407979	2794.306667	1134.818359	129.973434
11975.407979	2794.306667	1133.683594	134.264160
11975.407979	2794.306667	1132.549805	78.766991
11975.407979	2794.306667	1131.415039	141.916946
11975.407979	2794.306667	1130.279297	136.293930
11975.407979	2794.306667	1129.144531	172.795853
11975.407979	2794.306667	1128.008789	278.973755
11975.407979	2794.306667	1126.873047	265.101807
11975.407979	2794.306667	1125.737305	208.891800
11975.407979	2794.306667	1124.601563	181.859329
11975.407979	2794.306667	1123.464844	102.814857
11975.407979	2794.306667	1122.328125	197.761185
11975.407979	2794.306667	1121.191406	214.080093
11975.407979	2794.306667	1120.054688	191.031281
11975.407979	2794.306667	1118.916992	109.307968
11975.407979	2794.306667	1117.779297	222.221664
11975.407979	2794.306667	1116.641602	62.177116
11975.407979	2794.306667	1115.503906	106.983864
11975.407979	2794.306667	1114.365234	205.830109
11975.407979	2794.306667	1113.226563	104.466499
11975.407979	2794.306667	1112.087891	-51.935608
11975.407979	2794.306667	1110.949219	-39.684830
11975.407979	2794.306667	1109.809570	14.045622
11975.407979	2794.306667	1108.669922	235.017258
11975.407979	2794.306667	1107.530273	41.680759
11975.407979	2794.306667	1106.390625	22.280760
11975.407979	2794.306667	1105.250000	-60.631950
11975.407979	2794.306667	1104.109375	109.203796
11975.407979	2794.306667	1102.968750	36.633236
11975.407979	2794.306667	1101.828125	168.818008
11975.407979	2794.306667	1100.686523	30.111526
11975.407979	2794.306667	1099.544922	80.653046
11975.407979	2794.306667	1098.403320	171.286819
11975.407979	2794.306667	1097.261719	181.261917
11975.407979	2794.306667	1096.120117	203.792252
11975.407979	2794.306667	1094.977539	139.701813
11975.407979	2794.306667	1093.834961	273.961578
11975.407979	2794.306667	1092.691406	132.422791
11975.407979	2794.306667	1091.548828	184.483139
11975.407979	2794.306667	1090.405273	191.875397
11975.407979	2794.306667	1089.261719	45.079433
11975.407979	2794.306667	1088.118164	113.733032
11975.407979	2794.306667	1086.973633	202.731293
11975.407979	2794.306667	1085.829102	146.431152
11975.407979	2794.306667	1084.684570	101.314140
11975.407979	2794.306667	1083.540039	41.255348
11975.407979	2794.306667	1082.395508	111.547836
11975.407979	2794.306667	1081.250000	101.639297
11975.407979	2794.306667	1080.104492	105.214989
11975.407979	2794.306667	1078.958984	54.943951
11975.407979	2794.306667	1077.812500	37.246952
11975.407979	2794.306667	1076.666016	151.284439
11975.407979	2794.306667	1075.519531	220.032120
11975.407979	2794.306667	1074.373047	260.298676
11975.407979	2794.306667	1073.226563	297.583313
11975.407979	2794.306667	1072.079102	118.946739
11975.407979	2794.306667	1070.931641	213.446091
11975.407979	2794.306667	1069.784180	177.183548
11975.407979	2794.306667	1068.635742	144.459549
11975.407979	2794.306667	1067.487305	336.308838
11975.407979	2794.306667	1066.338867	261.874115
11975.407979	2794.306667	1065.190430	303.473907
11975.407979	2794.306667	1064.041992	331.482880
11975.407979	2794.306667	1062.892578	160.873230
11975.407979	2794.306667	1061.743164	172.710602
11975.407979	2794.306667	1060.593750	26.040567
11975.407979	2794.306667	1059.443359	204.965622
11975.407979	2794.306667	1058.292969	149.449982
11975.407979	2794.306667	1057.142578	-12.292358
11975.407979	2794.306667	1055.992188	53.730991
11975.407979	2794.306667	1054.841797	155.354675
11975.407979	2794.306667	1053.690430	61.669838
11975.407979	2794.306667	1052.539063	40.258007
11975.407979	2794.306667	1051.387695	9.213121
11975.407979	2794.306667	1050.235352	25.028591
11975.407979	2794.306667	1049.083984	231.758667
11975.407979	2794.306667	1047.931641	370.504700
11975.407979	2794.306667	1046.778320	196.461670
11975.407979	2794.306667	1045.625977	231.880234
11975.407979	2794.306667	1044.472656	137.397263
11975.407979	2794.306667	1043.319336	103.054024
11975.407979	2794.306667	1042.166016	160.171982
11975.407979	2794.306667	1041.012695	189.369049
11975.407979	2794.306667	1039.858398	-165.583252
11975.407979	2794.306667	1038.704102	79.069313
11975.407979	2794.306667	1037.549805	-31.140804
11975.407979	2794.306667	1036.394531	93.347893
11975.407979	2794.306667	1035.239258	-25.519833
11975.407979	2794.306667	1034.083984	-76.371193
11975.407979	2794.306667	1032.928711	136.505951
11975.407979	2794.306667	1031.773438	10.576671
11975.407979	2794.306667	1030.617188	50.882828
11975.407979	2794.306667	1029.460938	93.017265
11975.407979	2794.306667	1028.304688	83.845451
11975.407979	2794.306667	1027.147461	170.003906
11975.407979	2794.306667	1025.991211	79.577721
11975.407979	2794.306667	1024.833984	62.231258
11975.407979	2794.306667	1023.675781	53.643902
11975.407979	2794.306667	1022.518555	-30.243645
11975.407979	2794.306667	1021.360352	63.009712
11975.407979	2794.306667	1020.202148	62.664989
11975.407979	2794.306667	1019.043945	-48.163303
11975.407979	2794.306667	1017.884766	39.116264
11975.407979	2794.306667	1016.726563	-21.241413
11975.407979	2794.306667	1015.567383	136.930618
11975.407979	2794.306667	1014.407227	34.069092
11975.407979	2794.306667	1013.248047	109.584297
11975.407979	2794.306667	1012.087891	-24.488766
11975.407979	2794.306667	1010.927734	84.409935
11975.407979	2794.306667	1009.767578	-67.229095
11975.407979	2794.306667	1008.606445	37.273300
11975.407979	2794.306667	1007.446289	-35.876469
11975.407979	2794.306667	1006.285156	40.277302
11975.407979	2794.306667	1005.123047	49.208450
11975.407979	2794.306667	1003.961914	25.151344
11975.407979	2794.306667	1002.799805	15.273486
11975.407979	2794.306667	1001.637695	-59.108093
11975.407979	2794.306667	1000.475586	0.653852
11975.407979	2794.306667	999.312500	12.246638
11975.407979	2794.306667	998.149414	12.174861
11975.407979	2794.306667	996.986328	-55.257011
11975.407979	2794.306667	995.823242	83.954712
11975.407979	2794.306667	994.659180	189.980682
11975.407979	2794.306667	993.496094	130.039978
11975.407979	2794.306667	992.332031	18.467247
11975.407979	2794.306667	991.166992	-27.708961
11975.407979	2794.306667	990.002930	143.054260
11975.407979	2794.306667	988.837891	-18.907061
11975.407979	2794.306667	987.672852	237.957230
11975.407979	2794.306667	986.506836	96.907036
11975.407979	2794.306667	985.341797	63.507847
11975.407979	2794.306667	984.175781	-12.368795
11975.407979	2794.306667	983.009766	20.620792
11975.407979	2794.306667	981.843750	45.079910
11975.407979	2794.306667	980.676758	-104.926453
11975.407979	2794.306667	979.509766	58.183231
11975.407979	2794.306667	978.342773	7.153857
11975.407979	2794.306667	977.175781	-64.262352
11975.407979	2794.306667	976.007813	152.877960
11975.407979	2794.306667	974.839844	53.443462
11975.407979	2794.306667	973.671875	-221.529419
11975.407979	2794.306667	972.503906	222.693939
11975.407979	2794.306667	971.334961	122.701851
11975.407979	2794.306667	970.166016	-80.881561
11975.407979	2794.306667	968.997070	92.379997
11975.407979	2794.306667	967.828125	62.437469
11975.407979	2794.306667	966.658203	-22.828892
11975.407979	2794.306667	965.488281	14.968257
11975.407979	2794.306667	964.318359	-99.229912
11975.407979	2794.306667	963.148438	122.359581
11975.407979	2794.306667	961.977539	199.077881
11975.407979	2794.306667	960.806641	-156.451324
11975.407979	2794.306667	959.635742	77.120377
11975.407979	2794.306667	958.463867	0.539368
11975.407979	2794.306667	957.292969	181.575836
11975.407979	2794.306667	956.121094	-25.594120
11975.407979	2794.306667	954.948242	7.499919
11975.407979	2794.306667	953.776367	76.364052
11975.407979	2794.306667	952.603516	-132.235855
11975.407979	2794.306667	951.430664	24.511953
11975.407979	2794.306667	950.257813	-80.310730
11975.407979	2794.306667	949.084961	-180.937546
11975.407979	2794.306667	947.911133	-12.322926
11975.407979	2794.306667	946.737305	29.634008
11975.407979	2794.306667	945.563477	-5.015735
11975.407979	2794.306667	944.388672	-52.191929
11975.407979	2794.306667	943.213867	-43.498283
11975.407979	2794.306667	942.039063	-143.682129
11975.407979	2794.306667	940.864258	-62.591888
11975.407979	2794.306667	939.688477	20.855572
11975.407979	2794.306667	938.513672	-71.998993
11975.407979	2794.306667	937.337891	-61.133133
11975.407979	2794.306667	936.161133	-21.278099
11975.407979	2794.306667	934.985352	-15.235188
11975.407979	2794.306667	933.808594	70.578552
11975.407979	2794.306667	932.631836	57.307980
11975.407979	2794.306667	931.454102	229.881851
11975.407979	2794.306667	930.277344	211.800690
11975.407979	2794.306667	929.099609	15.135153
11975.407979	2794.306667	927.921875	13.954444
11975.407979	2794.306667	926.743164	186.437775
11975.407979	2794.306667	925.565430	122.518784
11975.407979	2794.306667	924.386719	-16.152313
11975.407979	2794.306667	923.208008	62.209023
11975.407979	2794.306667	922.028320	73.052467
11975.407979	2794.306667	920.849609	-101.686829
11975.407979	2794.306667	919.669922	-98.989090
11975.407979	2794.306667	919.474609	10.830395
11975.407979	2794.306667	918.309570	-79.548256
11975.407979	2794.306667	917.143555	131.186874
11975.407979	2794.306667	915.977539	137.139160
11975.407979	2794.306667	914.810547	-78.417061
11975.407979	2794.306667	913.644531	-94.097389
11975.407979	2794.306667	912.477539	8.154008
11975.407979	2794.306667	911.310547	14.112392
11975.407979	2794.306667	910.143555	80.207100
11975.407979	2794.306667	908.975586	-89.437462
11975.407979	2794.306667	907.807617	-18.544086
11975.407979	2794.306667	906.639648	93.188629
11975.407979	2794.306667	905.471680	-136.458435
11975.407979	2794.306667	904.303711	-58.399216
11975.407979	2794.306667	903.134766	-95.705162
11975.407979	2794.306667	901.965820	-128.194260
11975.407979	2794.306667	900.796875	17.058880
11975.407979	2794.306667	899.626953	6.168352
11975.407979	2794.306667	898.457031	-249.602783
11975.407979	2794.306667	897.287109	-97.218315
11975.407979	2794.306667	896.117188	-4.894444
11975.407979	2794.306667	894.947266	-42.175041
11975.407979	2794.306667	893.776367	40.502197
11975.407979	2794.306667	892.605469	87.167900
11975.407979	2794.306667	891.434570	25.908556
11975.407979	2794.306667	890.262695	-52.107590
11975.407979	2794.306667	889.091797	20.907700
11975.407979	2794.306667	887.919922	-119.385941
11975.407979	2794.306667	886.748047	-106.286018
11975.407979	2794.306667	885.575195	127.187202
11975.407979	2794.306667	884.403320	46.825375
11975.407979	2794.306667	883.230469	-11.953598
11975.407979	2794.306667	882.057617	34.624058
11975.407979	2794.306667	880.883789	-62.425323
11975.407979	2794.306667	879.710938	-6.288122
11975.407979	2794.306667	878.537109	68.966232
11975.407979	2794.306667	877.362305	7.846540
11975.407979	2794.306667	876.188477	183.507248
11975.407979	2794.306667	875.013672	-28.248064
11975.407979	2794.306667	873.839844	113.877632
11975.407979	2794.306667	872.664063	129.275482
11975.407979	2794.306667	871.489258	192.454239
11975.407979	2794.306667	870.313477	50.148609
11975.407979	2794.306667	869.138672	82.263031
11975.407979	2794.306667	867.962891	-71.905785
11975.407979	2794.306667	866.786133	46.174358
11975.407979	2794.306667	865.610352	-31.539865
11975.407979	2794.306667	864.433594	-204.686829
11975.407979	2794.306667	863.256836	120.935898
11975.407979	2794.306667	862.079102	19.396807
11975.407979	2794.306667	860.902344	75.314667
11975.407979	2794.306667	859.724609	-9.485057
11975.407979	2794.306667	858.546875	-110.941544
11975.407979	2794.306667	857.368164	-138.461441
11975.407979	2794.306667	856.190430	-185.040710
11975.407979	2794.306667	855.011719	56.707092
11975.407979	2794.306667	853.833008	-166.179169
11975.407979	2794.306667	852.654297	42.116318
11975.407979	2794.306667	851.474609	86.020882
11975.407979	2794.306667	850.294922	222.753510
11975.407979	2794.306667	849.115234	35.712574
11975.407979	2794.306667	847.935547	-75.101555
11975.407979	2794.306667	846.754883	-181.112183
11975.407979	2794.306667	845.575195	-146.735672
11975.407979	2794.306667	844.393555	37.460831
11975.407979	2794.306667	843.212891	143.108688
11975.407979	2794.306667	842.032227	-27.060152
11975.407979	2794.306667	840.850586	-102.086731
11975.407979	2794.306667	839.668945	-13.117773
11975.407979	2794.306667	838.486328	52.054211
11975.407979	2794.306667	837.304688	-25.328938
11975.407979	2794.306667	836.122070	63.559990
11975.407979	2794.306667	834.939453	-170.509232
11975.407979	2794.306667	833.756836	-22.287741
11975.407979	2794.306667	832.573242	42.800571
11975.407979	2794.306667	831.389648	103.111900
11975.407979	2794.306667	830.206055	47.144123
11975.407979	2794.306667	829.022461	76.584572
11975.407979	2794.306667	827.838867	8.777806
11975.407979	2794.306667	826.654297	-37.664967
11975.407979	2794.306667	825.469727	-67.501328
11975.407979	2794.306667	824.284180	-12.008745
11975.407979	2794.306667	823.099609	-89.239281
11975.407979	2794.306667	821.914063	-209.084152
11975.407979	2794.306667	820.728516	-51.768692
11975.407979	2794.306667	819.542969	27.330908
11975.407979	2794.306667	818.356445	-101.951546
11975.407979	2794.306667	817.169922	-15.784757
11975.407979	2794.306667	815.983398	51.406250
11975.407979	2794.306667	814.796875	-35.232742
11975.407979	2794.306667	813.609375	17.728699
11975.407979	2794.306667	812.422852	56.467594
11975.407979	2794.306667	811.235352	111.736626
11975.407979	2794.306667	810.046875	-26.881933
11975.407979	2794.306667	808.859375	-170.181259
11975.407979	2794.306667	807.670898	116.665985
11975.407979	2794.306667	806.482422	162.393967
11975.407979	2794.306667	805.293945	66.363251
11975.407979	2794.306667	804.104492	-6.018742
11975.407979	2794.306667	802.915039	-33.517857
11975.407979	2794.306667	801.725586	26.330488
11975.407979	2794.306667	800.536133	53.101227
11975.407979	2794.306667	799.345703	186.039597
11975.407979	2794.306667	798.155273	66.473045
11975.407979	2794.306667	796.964844	-10.597729
11975.407979	2794.306667	795.774414	202.418793
11975.407979	2794.306667	794.583008	226.715073
11975.407979	2794.306667	793.392578	192.055252
11975.407979	2794.306667	792.200195	32.490345
11975.407979	2794.306667	791.008789	132.171875
11975.407979	2794.306667	789.816406	172.904907
11975.407979	2794.306667	788.625000	154.722656
11975.407979	2794.306667	787.432617	115.342758
11975.407979	2794.306667	786.239258	94.801483
11975.407979	2794.306667	785.046875	93.084282
11975.407979	2794.306667	783.853516	110.182121
11975.407979	2794.306667	782.660156	115.492851
11975.407979	2794.306667	781.465820	24.339636
11975.407979	2794.306667	780.272461	161.343765
11975.407979	2794.306667	779.078125	171.298798
11975.407979	2794.306667	777.883789	42.528442
11975.407979	2794.306667	776.688477	207.603333
11975.407979	2794.306667	775.494141	76.495445
11975.407979	2794.306667	774.298828	149.831253
11975.407979	2794.306667	773.103516	-178.558685
11975.407979	2794.306667	771.907227	218.859604
11975.407979	2794.306667	770.711914	207.538177
11975.407979	2794.306667	769.515625	306.538422
11975.407979	2794.306667	768.318359	119.140770
11975.407979	2794.306667	767.122070	138.297333
11975.407979	2794.306667	765.924805	260.654388
11975.407979	2794.306667	764.727539	230.478622
11975.407979	2794.306667	763.530273	305.823395
11975.407979	2794.306667	762.333008	57.561947
11975.407979	2794.306667	761.134766	296.959503
11975.407979	2794.306667	759.936523	172.974197
11975.407979	2794.306667	758.738281	147.430435
11975.407979	2794.306667	757.540039	278.833221
11975.407979	2794.306667	756.340820	194.681137
11975.407979	2794.306667	755.141602	197.182907
11975.407979	2794.306667	753.942383	68.554489
11975.407979	2794.306667	752.742188	152.960892
11975.407979	2794.306667	751.541992	80.514229
11975.407979	2794.306667	750.341797	52.528095
11975.407979	2794.306667	749.141602	-71.379677
11975.407979	2794.306667	747.941406	188.293991
11975.407979	2794.306667	746.740234	129.832184
11975.407979	2794.306667	745.539063	178.906174
11975.407979	2794.306667	744.337891	253.644028
11975.407979	2794.306667	743.135742	181.107574
11975.407979	2794.306667	741.933594	64.184479
11975.407979	2794.306667	740.731445	169.185898
11975.407979	2794.306667	739.529297	255.433289
11975.407979	2794.306667	738.326172	385.980591
11975.407979	2794.306667	737.124023	301.682739
11975.407979	2794.306667	735.919922	457.782257
11975.407979	2794.306667	734.716797	434.116058
11975.407979	2794.306667	733.513672	436.092529
11975.407979	2794.306667	732.309570	370.399323
11975.407979	2794.306667	731.105469	516.908630
11975.407979	2794.306667	729.900391	395.212372
11975.407979	2794.306667	728.696289	196.614044
11975.407979	2794.306667	727.491211	359.289886
11975.407979	2794.306667	726.286133	365.758240
11975.407979	2794.306667	725.080078	376.852081
11975.407979	2794.306667	723.874023	238.852982
11975.407979	2794.306667	722.668945	21.709599
11975.407979	2794.306667	721.461914	235.310059
11975.407979	2794.306667	720.255859	134.569824
11975.407979	2794.306667	719.048828	222.329834
11975.407979	2794.306667	717.841797	63.404003
11975.407979	2794.306667	716.634766	197.596252
11975.407979	2794.306667	715.427734	108.441437
11975.407979	2794.306667	714.219727	100.668335
11975.407979	2794.306667	713.011719	137.031433
11975.407979	2794.306667	711.803711	296.522125
11975.407979	2794.306667	710.594727	0.478531
11975.407979	2794.306667	709.385742	173.799240
11975.407979	2794.306667	708.176758	179.779404
11975.407979	2794.306667	706.967773	243.774719
11975.407979	2794.306667	705.758789	128.936295
11975.407979	2794.306667	704.548828	111.600121
11975.407979	2794.306667	703.338867	205.628357
11975.407979	2794.306667	702.127930	153.405304
11975.407979	2794.306667	700.917969	57.090839
11975.407979	2794.306667	699.707031	-4.432492
11975.407979	2794.306667	698.496094	117.214714
11975.407979	2794.306667	697.285156	30.126480
11975.407979	2794.306667	696.073242	-40.738831
11975.407979	2794.306667	694.861328	-125.517815
11975.407979	2794.306667	693.649414	-22.638411
11975.407979	2794.306667	692.436523	177.444580
11975.407979	2794.306667	691.224609	196.767075
11975.407979	2794.306667	690.011719	222.988022
11975.407979	2794.306667	688.798828	216.749344
11975.407979	2794.306667	687.584961	154.927185
11975.407979	2794.306667	686.372070	113.915642
11975.407979	2794.306667	685.158203	160.789948
11975.407979	2794.306667	683.943359	4.065973
11975.407979	2794.306667	682.729492	157.233231
11975.407979	2794.306667	681.514648	162.329681
11975.407979	2794.306667	680.299805	248.283615
11975.407979	2794.306667	679.084961	49.909374
11975.407979	2794.306667	677.869141	43.346577
11975.407979	2794.306667	676.653320	154.555405
11975.407979	2794.306667	675.437500	224.103119
11975.407979	2794.306667	674.221680	88.076057
11975.407979	2794.306667	673.004883	236.013641
11975.407979	2794.306667	671.789063	88.415817
11975.407979	2794.306667	670.571289	76.983002
11975.407979	2794.306667	669.354492	203.937500
11975.407979	2794.306667	668.136719	210.852249
11975.407979	2794.306667	666.919922	224.639618
11975.407979	2794.306667	665.701172	215.320923
11975.407979	2794.306667	664.483398	185.217056
11975.407979	2794.306667	663.264648	314.103363
11975.407979	2794.306667	662.045898	244.733505
11975.407979	2794.306667	660.827148	265.192902
11975.407979	2794.306667	659.608398	82.919525
11975.407979	2794.306667	658.388672	140.160049
11975.407979	2794.306667	657.168945	261.795715
11975.407979	2794.306667	655.949219	146.257706
11975.407979	2794.306667	654.728516	242.439072
11975.407979	2794.306667	653.507813	73.948242
11975.407979	2794.306667	652.287109	36.601196
11975.407979	2794.306667	651.066406	245.304733
11975.407979	2794.306667	649.844727	42.299480
11975.407979	2794.306667	648.623047	92.207207
11975.407979	2794.306667	647.401367	66.205261
11975.407979	2794.306667	646.179688	196.425110
11975.407979	2794.306667	644.957031	227.759094
11975.407979	2794.306667	643.734375	50.021591
11975.407979	2794.306667	642.511719	33.062820
11975.407979	2794.306667	641.289063	160.711060
11975.407979	2794.306667	640.065430	148.240891
11975.407979	2794.306667	638.841797	50.820858
11975.407979	2794.306667	637.618164	136.955048
11975.407979	2794.306667	636.393555	83.078125
11975.407979	2794.306667	635.168945	175.963745
11975.407979	2794.306667	633.944336	14.246876
11975.407979	2794.306667	632.719727	136.827148
11975.407979	2794.306667	631.494141	34.694336
11975.407979	2794.306667	630.269531	-92.641197
11975.407979	2794.306667	629.042969	-119.161331
11975.407979	2794.306667	627.817383	28.373161
11975.407979	2794.306667	626.590820	56.719318
11975.407979	2794.306667	625.365234	-31.754786
11975.407979	2794.306667	624.137695	92.651749
11975.407979	2794.306667	622.911133	52.187340
11975.407979	2794.306667	621.683594	254.240662
11975.407979	2794.306667	620.456055	7.789482
11975.407979	2794.306667	619.228516	-71.632683
11975.407979	2794.306667	618.000977	-27.579195
11975.407979	2794.306667	616.772461	59.852562
11975.407979	2794.306667	615.543945	126.638062
11975.407979	2794.306667	614.314453	42.530968
11975.407979	2794.306667	613.085938	-105.548683
11975.407979	2794.306667	611.856445	86.749313
11975.407979	2794.306667	610.626953	-27.095995
11975.407979	2794.306667	609.397461	112.515411
11975.407979	2794.306667	608.166992	37.446468
11975.407979	2794.306667	606.936523	-151.741623
11975.407979	2794.306667	605.706055	-83.037682
11975.407979	2794.306667	604.474609	-107.934776
11975.407979	2794.306667	603.244141	-87.236465
11975.407979	2794.306667	602.012695	-82.545059
11975.407979	2794.306667	600.780273	-96.130653
11975.407979	2794.306667	599.548828	81.728760
11975.407979	2794.306667	598.316406	1.960039
11975.407979	2794.306667	597.083984	72.570465
11975.407979	2794.306667	595.851563	-20.893063
11975.407979	2794.306667	594.618164	-20.974512
11975.407979	2794.306667	593.384766	-59.794445
11975.407979	2794.306667	592.151367	-132.775177
11975.407979	2794.306667	590.917969	-151.130524
11975.407979	2794.306667	589.683594	23.910450
11975.407979	2794.306667	588.449219	-94.631111
11975.407979	2794.306667	587.214844	23.403084
11975.407979	2794.306667	585.979492	68.587135
11975.407979	2794.306667	584.745117	-31.781130
11975.407979	2794.306667	583.509766	92.901009
11975.407979	2794.306667	582.273438	-102.936729
11975.407979	2794.306667	581.038086	-196.467072
11975.407979	2794.306667	579.801758	-203.662109
11975.407979	2794.306667	578.565430	-101.862282
11975.407979	2794.306667	577.329102	29.390038
11975.407979	2794.306667	576.091797	-7.433665
11975.407979	2794.306667	574.854492	-46.533146
11975.407979	2794.306667	573.617188	-133.291077
11975.407979	2794.306667	572.378906	-240.453796
11975.407979	2794.306667	571.141602	-170.664444
11975.407979	2794.306667	569.903320	-51.035954
11975.407979	2794.306667	568.664063	79.856094
11975.407979	2794.306667	567.425781	-99.875473
11975.407979	2794.306667	566.186523	-5.325622
11975.407979	2794.306667	564.947266	-123.821877
11975.407979	2794.306667	563.708008	-42.932934
11975.407979	2794.306667	562.467773	-9.659595
11975.407979	2794.306667	561.227539	71.136940
11975.407979	2794.306667	559.987305	-85.825394
11975.407979	2794.306667	558.747070	51.509716
11975.407979	2794.306667	557.505859	95.990051
11975.407979	2794.306667	556.264648	0.167061
11975.407979	2794.306667	555.023438	-27.768188
11975.407979	2794.306667	553.781250	75.460281
11975.407979	2794.306667	552.539063	56.540161
11975.407979	2794.306667	551.296875	-68.625572
11975.407979	2794.306667	550.054688	-44.585598
11975.407979	2794.306667	548.811523	112.745583
11975.407979	2794.306667	547.569336	80.242760
11975.407979	2794.306667	546.325195	-6.465276
11975.407979	2794.306667	545.082031	-90.881584
11975.407979	2794.306667	543.837891	104.672005
11975.407979	2794.306667	542.593750	11.223989
11975.407979	2794.306667	541.349609	-111.525345
11975.407979	2794.306667	540.105469	-8.611062
11975.407979	2794.306667	538.860352	22.070810
11975.407979	2794.306667	537.615234	-71.299881
11975.407979	2794.306667	536.369141	-51.900917
11975.407979	2794.306667	535.124023	-30.255016
11975.407979	2794.306667	533.877930	-112.296432
11975.407979	2794.306667	532.631836	44.542332
11975.407979	2794.306667	531.384766	-14.957093
11975.407979	2794.306667	530.138672	-279.387787
11975.407979	2794.306667	528.891602	30.504889
11975.407979	2794.306667	527.643555	-28.956347
11975.407979	2794.306667	526.396484	93.930275
11975.407979	2794.306667	525.148438	-57.782303
11975.407979	2794.306667	523.900391	107.805809
11975.407979	2794.306667	522.652344	84.374649
11975.407979	2794.306667	521.403320	-31.252291
11975.407979	2794.306667	520.154297	98.252045
11975.407979	2794.306667	518.905273	14.148684
11975.407979	2794.306667	517.656250	49.200089
11975.407979	2794.306667	516.406250	-39.347477
11975.407979	2794.306667	515.156250	78.825104
11975.407979	2794.306667	513.906250	77.911377
11975.407979	2794.306667	512.655273	-136.326859
11975.407979	2794.306667	511.404297	-103.512947
11975.407979	2794.306667	510.153320	-104.377785
11975.407979	2794.306667	508.902344	63.068924
11975.407979	2794.306667	507.650391	-126.289047
11975.407979	2794.306667	506.398438	85.958458
11975.407979	2794.306667	505.146484	78.339714
11975.407979	2794.306667	503.893555	16.913195
11975.407979	2794.306667	502.641602	65.362381
11975.407979	2794.306667	501.388672	98.103096
11975.407979	2794.306667	500.134766	-120.129524
11975.407979	2794.306667	498.881836	56.018745
11975.407979	2794.306667	497.627930	82.027580
11975.407979	2794.306667	496.374023	20.696413
11975.407979	2794.306667	495.119141	102.673782
11975.407979	2794.306667	493.865234	97.325897
11975.407979	2794.306667	492.610352	112.119560
11975.407979	2794.306667	491.355469	151.517563
11975.407979	2794.306667	490.099609	141.685349
11975.407979	2794.306667	488.843750	31.219353
11975.407979	2794.306667	487.587891	193.579300
11975.407979	2794.306667	486.332031	156.914795
11975.407979	2794.306667	485.075195	93.440796
11975.407979	2794.306667	483.818359	56.803837
11975.407979	2794.306667	482.561523	254.744614
11975.407979	2794.306667	481.304688	41.632198
11975.407979	2794.306667	480.046875	176.950333
11975.407979	2794.306667	478.789063	240.760788
11975.407979	2794.306667	477.531250	161.683868
11975.407979	2794.306667	476.272461	194.204559
11975.407979	2794.306667	475.013672	293.631470
11975.407979	2794.306667	473.754883	205.631104
11975.407979	2794.306667	472.496094	64.130547
11975.407979	2794.306667	471.236328	196.916183
11975.407979	2794.306667	469.976563	309.562927
11975.407979	2794.306667	468.716797	96.753532
11975.407979	2794.306667	467.456055	158.077759
11975.407979	2794.306667	466.196289	185.938522
11975.407979	2794.306667	464.935547	432.025879
11975.407979	2794.306667	463.673828	254.891800
11975.407979	2794.306667	462.413086	240.323242
11975.407979	2794.306667	461.151367	345.916626
11975.407979	2794.306667	459.889648	333.486450
11975.407979	2794.306667	458.626953	534.603088
11975.407979	2794.306667	457.364258	384.143341
11975.407979	2794.306667	456.101563	416.060913
11975.407979	2794.306667	454.838867	316.736664
11975.407979	2794.306667	453.575195	379.673431
11975.407979	2794.306667	452.312500	509.204712
11975.407979	2794.306667	451.047852	425.308746
11975.407979	2794.306667	449.784180	419.142578
11975.407979	2794.306667	448.519531	539.506775
11975.407979	2794.306667	447.254883	397.731140
11975.407979	2794.306667	445.990234	475.726349
11975.407979	2794.306667	444.725586	431.536224
11975.407979	2794.306667	443.459961	407.252594
11975.407979	2794.306667	442.194336	551.506531
11975.407979	2794.306667	440.927734	420.559357
11975.407979	2794.306667	439.662109	389.372131
11975.407979	2794.306667	438.395508	513.295105
11975.407979	2794.306667	437.127930	550.606384
11975.407979	2794.306667	435.861328	392.772461
11975.407979	2794.306667	434.593750	549.517517
11975.407979	2794.306667	433.326172	551.009827
11975.407979	2794.306667	432.058594	446.067444
11975.407979	2794.306667	430.790039	458.391144
11975.407979	2794.306667	429.521484	601.184387
11975.407979	2794.306667	428.252930	440.550507
11975.407979	2794.306667	426.984375	516.607727
11975.407979	2794.306667	425.714844	541.586792
11975.407979	2794.306667	424.445313	535.425232
11975.407979	2794.306667	423.174805	458.326294
11975.407979	2794.306667	421.905273	374.455414
11975.407979	2794.306667	420.634766	595.469543
11975.407979	2794.306667	419.364258	562.051941
11975.407979	2794.306667	418.092773	574.839966
11975.407979	2794.306667	416.822266	514.524353
11975.407979	2794.306667	415.550781	440.760376
11975.407979	2794.306667	414.278320	565.519165
11975.407979	2794.306667	413.006836	473.656738
11975.407979	2794.306667	411.734375	529.458008
11975.407979	2794.306667	410.461914	503.338318
11975.407979	2794.306667	409.188477	521.083923
11975.407979	2794.306667	407.916016	651.044067
11975.407979	2794.306667	406.642578	535.885986
11975.407979	2794.306667	405.368164	513.075378
11975.407979	2794.306667	404.094727	622.231628
11975.407979	2794.306667	402.820313	592.183838
11975.407979	2794.306667	401.545898	389.972351
11975.407979	2794.306667	400.270508	478.269135
11975.407979	2794.306667	398.996094	643.268066
11975.407979	2794.306667	397.720703	581.040710
11975.407979	2794.306667	396.444336	485.438538
11975.407979	2794.306667	395.168945	635.998352
11975.407979	2794.306667	393.892578	568.247681
11975.407979	2794.306667	392.616211	577.112793
11975.407979	2794.306667	391.339844	486.575714
11975.407979	2794.306667	390.062500	435.209320
11975.407979	2794.306667	388.785156	557.091309
11975.407979	2794.306667	387.507813	485.029724
11975.407979	2794.306667	386.229492	674.009460
11975.407979	2794.306667	384.951172	506.490112
11975.407979	2794.306667	383.672852	448.358673
11975.407979	2794.306667	382.394531	519.291016
11975.407979	2794.306667	381.115234	534.743652
11975.407979	2794.306667	379.835938	536.456360
11975.407979	2794.306667	378.556641	557.340271
11975.407979	2794.306667	377.277344	441.580414
11975.407979	2794.306667	375.997070	625.775513
11975.407979	2794.306667	374.716797	379.387268
11975.407979	2794.306667	373.435547	424.070251
11975.407979	2794.306667	372.155273	472.464386
11975.407979	2794.306667	370.874023	408.348022
11975.407979	2794.306667	369.591797	639.355225
11975.407979	2794.306667	368.310547	427.001953
11975.407979	2794.306667	367.028320	476.810913
11975.407979	2794.306667	365.746094	433.848785
11975.407979	2794.306667	364.463867	322.236877
11975.407979	2794.306667	363.180664	352.114960
11975.407979	2794.306667	361.897461	411.775574
11975.407979	2794.306667	360.614258	345.830872
11975.407979	2794.306667	359.330078	219.940598
11975.407979	2794.306667	358.045898	360.006195
11975.407979	2794.306667	356.761719	212.636276
11975.407979	2794.306667	355.477539	387.903870
11975.407979	2794.306667	354.192383	310.736359
11975.407979	2794.306667	352.907227	287.214539
11975.407979	2794.306667	351.622070	360.966492
11975.407979	2794.306667	350.336914	361.538727
11975.407979	2794.306667	349.050781	94.574928
11975.407979	2794.306667	347.764648	295.985931
11975.407979	2794.306667	346.477539	101.048317
11975.407979	2794.306667	345.191406	151.632919
11975.407979	2794.306667	343.904297	246.761658
11975.407979	2794.306667	342.616211	107.167213
11975.407979	2794.306667	341.329102	162.659653
11975.407979	2794.306667	340.041016	253.845276
11975.407979	2794.306667	338.752930	191.052902
11975.407979	2794.306667	337.463867	-45.303444
11975.407979	2794.306667	336.175781	133.240204
11975.407979	2794.306667	334.886719	72.765800
11975.407979	2794.306667	333.596680	97.908333
11975.407979	2794.306667	332.307617	27.926302
11975.407979	2794.306667	331.017578	-95.875549
11975.407979	2794.306667	329.727539	37.785454
11975.407979	2794.306667	328.436523	-43.547783
11975.407979	2794.306667	327.146484	-59.032948
11975.407979	2794.306667	325.855469	-17.546700
11975.407979	2794.306667	324.563477	-97.490807
11975.407979	2794.306667	323.272461	-100.879791
11975.407979	2794.306667	321.980469	63.387871
11975.407979	2794.306667	320.688477	-106.804932
11975.407979	2794.306667	319.395508	-124.641899
11975.407979	2794.306667	318.103516	-59.671516
11975.407979	2794.306667	316.810547	-81.505951
11975.407979	2794.306667	315.516602	-144.541336
11975.407979	2794.306667	314.223633	-51.132122
11975.407979	2794.306667	312.929688	-61.994911
11975.407979	2794.306667	311.635742	-44.686672
11975.407979	2794.306667	310.340820	-88.288834
11975.407979	2794.306667	309.045898	-6.218260
11975.407979	2794.306667	307.750977	-6.783793
11975.407979	2794.306667	306.456055	261.232178
11975.407979	2794.306667	305.160156	127.761955
11975.407979	2794.306667	303.865234	78.579674
11975.407979	2794.306667	302.568359	327.837891
11975.407979	2794.306667	301.272461	375.142914
11975.407979	2794.306667	299.975586	402.324371
11975.407979	2794.306667	298.678711	470.039734
