#X		#Y		#Wave		#Intensity
11888.336170	1393.431667	1999.980469	-8.935349
11888.336170	1393.431667	1999.016602	54.391842
11888.336170	1393.431667	1998.052734	-34.801952
11888.336170	1393.431667	1997.087891	-129.180466
11888.336170	1393.431667	1996.123047	14.072230
11888.336170	1393.431667	1995.158203	77.747375
11888.336170	1393.431667	1994.193359	19.791378
11888.336170	1393.431667	1993.228516	102.765755
11888.336170	1393.431667	1992.262695	7.220721
11888.336170	1393.431667	1991.297852	-48.914661
11888.336170	1393.431667	1990.332031	77.898201
11888.336170	1393.431667	1989.366211	-65.266052
11888.336170	1393.431667	1988.399414	26.447113
11888.336170	1393.431667	1987.433594	-119.539268
11888.336170	1393.431667	1986.466797	83.038773
11888.336170	1393.431667	1985.500977	40.558926
11888.336170	1393.431667	1984.534180	-2.087927
11888.336170	1393.431667	1983.567383	24.308681
11888.336170	1393.431667	1982.599609	-8.785717
11888.336170	1393.431667	1981.632813	12.317694
11888.336170	1393.431667	1980.665039	-21.095604
11888.336170	1393.431667	1979.697266	-69.474495
11888.336170	1393.431667	1978.729492	7.950306
11888.336170	1393.431667	1977.761719	-50.594498
11888.336170	1393.431667	1976.792969	-119.134201
11888.336170	1393.431667	1975.825195	59.013969
11888.336170	1393.431667	1974.856445	86.440666
11888.336170	1393.431667	1973.887695	96.457581
11888.336170	1393.431667	1972.918945	94.011139
11888.336170	1393.431667	1971.949219	81.580772
11888.336170	1393.431667	1970.980469	133.145508
11888.336170	1393.431667	1970.010742	-32.365410
11888.336170	1393.431667	1969.041016	-50.034657
11888.336170	1393.431667	1968.071289	141.668701
11888.336170	1393.431667	1967.101563	-115.231339
11888.336170	1393.431667	1966.130859	4.775221
11888.336170	1393.431667	1965.161133	100.013367
11888.336170	1393.431667	1964.190430	91.700111
11888.336170	1393.431667	1963.219727	51.296368
11888.336170	1393.431667	1962.249023	64.980492
11888.336170	1393.431667	1961.277344	53.968666
11888.336170	1393.431667	1960.306641	-35.858002
11888.336170	1393.431667	1959.334961	61.254837
11888.336170	1393.431667	1958.363281	-28.682570
11888.336170	1393.431667	1957.391602	87.931564
11888.336170	1393.431667	1956.419922	135.590073
11888.336170	1393.431667	1955.447266	1.246529
11888.336170	1393.431667	1954.474609	63.532272
11888.336170	1393.431667	1953.501953	17.609825
11888.336170	1393.431667	1952.529297	30.621620
11888.336170	1393.431667	1951.556641	124.646538
11888.336170	1393.431667	1950.583984	9.818090
11888.336170	1393.431667	1949.610352	231.415314
11888.336170	1393.431667	1948.636719	-65.163490
11888.336170	1393.431667	1947.663086	107.188629
11888.336170	1393.431667	1946.689453	198.447678
11888.336170	1393.431667	1945.715820	58.975807
11888.336170	1393.431667	1944.741211	-65.757507
11888.336170	1393.431667	1943.767578	-77.638168
11888.336170	1393.431667	1942.792969	13.459804
11888.336170	1393.431667	1941.818359	75.073692
11888.336170	1393.431667	1940.842773	102.317131
11888.336170	1393.431667	1939.868164	48.642586
11888.336170	1393.431667	1938.892578	92.992485
11888.336170	1393.431667	1937.916992	-66.059387
11888.336170	1393.431667	1936.941406	-105.031288
11888.336170	1393.431667	1935.965820	15.199580
11888.336170	1393.431667	1934.990234	44.764767
11888.336170	1393.431667	1934.013672	157.550842
11888.336170	1393.431667	1933.037109	147.888702
11888.336170	1393.431667	1932.060547	30.532801
11888.336170	1393.431667	1931.083984	28.222364
11888.336170	1393.431667	1930.107422	35.692677
11888.336170	1393.431667	1929.129883	187.473572
11888.336170	1393.431667	1928.153320	-113.246979
11888.336170	1393.431667	1927.175781	77.622444
11888.336170	1393.431667	1926.198242	55.728394
11888.336170	1393.431667	1925.219727	-15.044021
11888.336170	1393.431667	1924.242188	-17.360531
11888.336170	1393.431667	1923.263672	-19.675783
11888.336170	1393.431667	1922.285156	43.972015
11888.336170	1393.431667	1921.306641	-2.309711
11888.336170	1393.431667	1920.328125	110.160149
11888.336170	1393.431667	1919.349609	12.622236
11888.336170	1393.431667	1918.370117	61.590797
11888.336170	1393.431667	1917.391602	-121.308769
11888.336170	1393.431667	1916.412109	10.649356
11888.336170	1393.431667	1915.431641	96.211052
11888.336170	1393.431667	1914.452148	67.107498
11888.336170	1393.431667	1913.472656	-0.995851
11888.336170	1393.431667	1912.492188	-0.789515
11888.336170	1393.431667	1911.511719	57.938274
11888.336170	1393.431667	1910.531250	155.654861
11888.336170	1393.431667	1909.550781	-43.963440
11888.336170	1393.431667	1908.569336	80.563667
11888.336170	1393.431667	1907.588867	-38.548195
11888.336170	1393.431667	1906.607422	90.830490
11888.336170	1393.431667	1905.625977	-18.470137
11888.336170	1393.431667	1904.644531	-71.716812
11888.336170	1393.431667	1903.662109	-71.375122
11888.336170	1393.431667	1902.680664	-126.994377
11888.336170	1393.431667	1901.698242	-7.376717
11888.336170	1393.431667	1900.715820	-114.046234
11888.336170	1393.431667	1899.733398	34.745827
11888.336170	1393.431667	1898.750000	86.219360
11888.336170	1393.431667	1897.767578	101.218300
11888.336170	1393.431667	1896.784180	31.140745
11888.336170	1393.431667	1895.800781	38.885715
11888.336170	1393.431667	1894.817383	175.444016
11888.336170	1393.431667	1893.833984	25.263462
11888.336170	1393.431667	1892.850586	-25.244791
11888.336170	1393.431667	1891.866211	-2.853556
11888.336170	1393.431667	1890.881836	68.113815
11888.336170	1393.431667	1889.897461	12.821356
11888.336170	1393.431667	1888.913086	-49.714890
11888.336170	1393.431667	1887.927734	-10.278488
11888.336170	1393.431667	1886.943359	87.398140
11888.336170	1393.431667	1885.958008	37.063831
11888.336170	1393.431667	1884.972656	59.533669
11888.336170	1393.431667	1883.987305	-7.718870
11888.336170	1393.431667	1883.001953	-50.682739
11888.336170	1393.431667	1882.015625	-127.554115
11888.336170	1393.431667	1881.029297	40.423347
11888.336170	1393.431667	1880.042969	-65.484467
11888.336170	1393.431667	1879.056641	-67.152313
11888.336170	1393.431667	1878.070313	71.697853
11888.336170	1393.431667	1877.083984	16.751802
11888.336170	1393.431667	1876.096680	41.751324
11888.336170	1393.431667	1875.109375	146.652283
11888.336170	1393.431667	1874.122070	16.727322
11888.336170	1393.431667	1873.134766	27.234871
11888.336170	1393.431667	1872.146484	-63.876228
11888.336170	1393.431667	1871.159180	94.244812
11888.336170	1393.431667	1870.170898	-33.100674
11888.336170	1393.431667	1869.182617	-32.212852
11888.336170	1393.431667	1868.194336	-231.998871
11888.336170	1393.431667	1867.205078	13.111220
11888.336170	1393.431667	1866.216797	26.110096
11888.336170	1393.431667	1865.227539	72.946617
11888.336170	1393.431667	1864.238281	-3.445117
11888.336170	1393.431667	1863.249023	-62.888321
11888.336170	1393.431667	1862.259766	-110.223297
11888.336170	1393.431667	1861.269531	-24.722397
11888.336170	1393.431667	1860.279297	-59.958443
11888.336170	1393.431667	1859.290039	-22.758209
11888.336170	1393.431667	1858.298828	74.769737
11888.336170	1393.431667	1857.308594	-15.939395
11888.336170	1393.431667	1856.318359	1.953341
11888.336170	1393.431667	1855.327148	121.149712
11888.336170	1393.431667	1854.335938	28.089993
11888.336170	1393.431667	1853.344727	19.458704
11888.336170	1393.431667	1852.353516	66.280212
11888.336170	1393.431667	1851.362305	28.731710
11888.336170	1393.431667	1850.370117	-49.765804
11888.336170	1393.431667	1849.377930	52.466656
11888.336170	1393.431667	1848.385742	-95.856628
11888.336170	1393.431667	1847.393555	40.067486
11888.336170	1393.431667	1846.401367	120.559250
11888.336170	1393.431667	1845.408203	-131.211334
11888.336170	1393.431667	1844.415039	-0.169330
11888.336170	1393.431667	1843.421875	-8.758662
11888.336170	1393.431667	1842.428711	-19.751886
11888.336170	1393.431667	1841.435547	89.540848
11888.336170	1393.431667	1840.441406	18.398909
11888.336170	1393.431667	1839.448242	-4.623446
11888.336170	1393.431667	1838.454102	25.253798
11888.336170	1393.431667	1837.459961	-74.692284
11888.336170	1393.431667	1836.464844	65.734657
11888.336170	1393.431667	1835.470703	13.867700
11888.336170	1393.431667	1834.475586	144.604507
11888.336170	1393.431667	1833.480469	-77.815445
11888.336170	1393.431667	1832.485352	64.884125
11888.336170	1393.431667	1831.490234	44.244614
11888.336170	1393.431667	1830.495117	59.615036
11888.336170	1393.431667	1829.499023	58.169228
11888.336170	1393.431667	1828.502930	51.914772
11888.336170	1393.431667	1827.506836	86.441422
11888.336170	1393.431667	1826.510742	8.197309
11888.336170	1393.431667	1825.513672	-36.451378
11888.336170	1393.431667	1824.517578	-141.042969
11888.336170	1393.431667	1823.520508	82.852249
11888.336170	1393.431667	1822.523438	-19.351322
11888.336170	1393.431667	1821.526367	70.199738
11888.336170	1393.431667	1820.529297	-41.575233
11888.336170	1393.431667	1819.531250	9.585889
11888.336170	1393.431667	1818.533203	-87.794540
11888.336170	1393.431667	1817.535156	83.065628
11888.336170	1393.431667	1816.537109	-21.507023
11888.336170	1393.431667	1815.539063	0.820443
11888.336170	1393.431667	1814.540039	118.859390
11888.336170	1393.431667	1813.541992	-24.000921
11888.336170	1393.431667	1812.542969	70.035637
11888.336170	1393.431667	1811.543945	154.449554
11888.336170	1393.431667	1810.543945	71.395912
11888.336170	1393.431667	1809.544922	72.045357
11888.336170	1393.431667	1808.544922	94.189987
11888.336170	1393.431667	1807.544922	30.254244
11888.336170	1393.431667	1806.544922	-5.000681
11888.336170	1393.431667	1805.544922	-68.938103
11888.336170	1393.431667	1804.544922	36.740307
11888.336170	1393.431667	1803.543945	82.642601
11888.336170	1393.431667	1802.542969	28.206055
11888.336170	1393.431667	1801.541992	-64.436050
11888.336170	1393.431667	1800.541016	98.354958
11888.336170	1393.431667	1799.539063	141.723709
11888.336170	1393.431667	1798.538086	256.637756
11888.336170	1393.431667	1797.536133	44.630016
11888.336170	1393.431667	1796.534180	-40.903118
11888.336170	1393.431667	1795.532227	-52.499702
11888.336170	1393.431667	1794.529297	64.637619
11888.336170	1393.431667	1793.527344	-6.630706
11888.336170	1393.431667	1792.524414	5.521424
11888.336170	1393.431667	1791.521484	84.365105
11888.336170	1393.431667	1790.518555	72.609856
11888.336170	1393.431667	1789.514648	110.852745
11888.336170	1393.431667	1788.511719	25.202564
11888.336170	1393.431667	1787.507813	127.672188
11888.336170	1393.431667	1786.503906	63.414715
11888.336170	1393.431667	1785.500000	101.504944
11888.336170	1393.431667	1784.496094	51.491802
11888.336170	1393.431667	1783.491211	-0.915980
11888.336170	1393.431667	1782.486328	32.306915
11888.336170	1393.431667	1781.481445	72.619102
11888.336170	1393.431667	1780.476563	-84.500771
11888.336170	1393.431667	1779.471680	-84.669746
11888.336170	1393.431667	1778.465820	-63.480511
11888.336170	1393.431667	1777.460938	159.690689
11888.336170	1393.431667	1776.455078	9.661261
11888.336170	1393.431667	1775.449219	218.406036
11888.336170	1393.431667	1774.442383	101.604706
11888.336170	1393.431667	1773.436523	-76.936089
11888.336170	1393.431667	1772.429688	100.726814
11888.336170	1393.431667	1771.422852	-54.081490
11888.336170	1393.431667	1770.416016	-4.739220
11888.336170	1393.431667	1769.409180	37.427177
11888.336170	1393.431667	1768.402344	43.949181
11888.336170	1393.431667	1767.394531	14.845143
11888.336170	1393.431667	1766.386719	18.917908
11888.336170	1393.431667	1765.378906	136.775146
11888.336170	1393.431667	1764.371094	81.473259
11888.336170	1393.431667	1763.362305	40.373268
11888.336170	1393.431667	1762.354492	-105.027351
11888.336170	1393.431667	1761.345703	-41.896004
11888.336170	1393.431667	1760.336914	127.779884
11888.336170	1393.431667	1759.328125	15.484017
11888.336170	1393.431667	1758.318359	-35.239635
11888.336170	1393.431667	1757.308594	-7.849543
11888.336170	1393.431667	1756.299805	-30.221502
11888.336170	1393.431667	1755.290039	49.145622
11888.336170	1393.431667	1754.279297	36.150002
11888.336170	1393.431667	1753.269531	124.854813
11888.336170	1393.431667	1752.258789	142.517319
11888.336170	1393.431667	1751.249023	-40.893353
11888.336170	1393.431667	1750.238281	24.001989
11888.336170	1393.431667	1749.226563	-29.378418
11888.336170	1393.431667	1748.215820	66.133522
11888.336170	1393.431667	1747.204102	-27.494329
11888.336170	1393.431667	1746.193359	-38.429146
11888.336170	1393.431667	1745.181641	63.986736
11888.336170	1393.431667	1744.168945	107.271194
11888.336170	1393.431667	1743.157227	-5.354986
11888.336170	1393.431667	1742.144531	108.669937
11888.336170	1393.431667	1741.132813	50.293007
11888.336170	1393.431667	1740.120117	-83.630241
11888.336170	1393.431667	1739.106445	-78.330421
11888.336170	1393.431667	1738.093750	94.428352
11888.336170	1393.431667	1737.080078	59.507751
11888.336170	1393.431667	1736.067383	125.965599
11888.336170	1393.431667	1735.053711	142.837753
11888.336170	1393.431667	1734.040039	20.575533
11888.336170	1393.431667	1733.025391	-5.052781
11888.336170	1393.431667	1732.011719	25.844007
11888.336170	1393.431667	1730.997070	-46.982719
11888.336170	1393.431667	1729.982422	-65.646393
11888.336170	1393.431667	1728.967773	42.830578
11888.336170	1393.431667	1727.952148	-44.218727
11888.336170	1393.431667	1726.937500	19.396147
11888.336170	1393.431667	1725.921875	-25.333052
11888.336170	1393.431667	1724.906250	40.517593
11888.336170	1393.431667	1723.890625	-25.461004
11888.336170	1393.431667	1722.875000	2.640444
11888.336170	1393.431667	1721.858398	-72.802696
11888.336170	1393.431667	1720.841797	-70.659294
11888.336170	1393.431667	1719.825195	-146.144547
11888.336170	1393.431667	1718.808594	170.910126
11888.336170	1393.431667	1717.791992	6.016612
11888.336170	1393.431667	1716.774414	-69.570992
11888.336170	1393.431667	1715.756836	31.023312
11888.336170	1393.431667	1714.739258	-51.670521
11888.336170	1393.431667	1713.721680	-5.214323
11888.336170	1393.431667	1712.704102	1.267569
11888.336170	1393.431667	1711.685547	127.422668
11888.336170	1393.431667	1710.667969	112.670845
11888.336170	1393.431667	1709.649414	149.503677
11888.336170	1393.431667	1708.630859	-71.791847
11888.336170	1393.431667	1707.611328	-6.875480
11888.336170	1393.431667	1706.592773	-66.317261
11888.336170	1393.431667	1705.573242	-34.334854
11888.336170	1393.431667	1704.553711	-0.061031
11888.336170	1393.431667	1703.534180	69.318413
11888.336170	1393.431667	1702.513672	37.859425
11888.336170	1393.431667	1701.494141	74.323402
11888.336170	1393.431667	1700.473633	-27.479321
11888.336170	1393.431667	1699.453125	76.820656
11888.336170	1393.431667	1698.432617	59.277309
11888.336170	1393.431667	1697.412109	172.807922
11888.336170	1393.431667	1696.390625	7.705575
11888.336170	1393.431667	1695.369141	95.378387
11888.336170	1393.431667	1694.347656	12.172374
11888.336170	1393.431667	1693.326172	-54.663624
11888.336170	1393.431667	1692.304688	67.942001
11888.336170	1393.431667	1691.282227	43.134727
11888.336170	1393.431667	1690.260742	29.995144
11888.336170	1393.431667	1689.238281	37.858299
11888.336170	1393.431667	1688.214844	-1.065604
11888.336170	1393.431667	1687.192383	2.054729
11888.336170	1393.431667	1686.168945	7.470183
11888.336170	1393.431667	1685.146484	106.284653
11888.336170	1393.431667	1684.123047	39.212772
11888.336170	1393.431667	1683.099609	-27.867132
11888.336170	1393.431667	1682.075195	-108.967529
11888.336170	1393.431667	1681.051758	-101.373413
11888.336170	1393.431667	1680.027344	-40.149673
11888.336170	1393.431667	1679.002930	-6.979355
11888.336170	1393.431667	1677.978516	121.783440
11888.336170	1393.431667	1676.953125	131.518219
11888.336170	1393.431667	1675.928711	26.967150
11888.336170	1393.431667	1674.903320	6.346347
11888.336170	1393.431667	1673.877930	134.876236
11888.336170	1393.431667	1672.852539	104.859505
11888.336170	1393.431667	1671.826172	81.808342
11888.336170	1393.431667	1670.800781	-88.015739
11888.336170	1393.431667	1669.774414	-50.524803
11888.336170	1393.431667	1668.748047	114.994911
11888.336170	1393.431667	1667.721680	131.421295
11888.336170	1393.431667	1666.694336	87.287918
11888.336170	1393.431667	1665.667969	29.186169
11888.336170	1393.431667	1664.640625	-10.311867
11888.336170	1393.431667	1663.613281	26.947653
11888.336170	1393.431667	1662.585938	138.595078
11888.336170	1393.431667	1661.557617	71.109207
11888.336170	1393.431667	1660.530273	105.928848
11888.336170	1393.431667	1659.501953	168.599014
11888.336170	1393.431667	1658.473633	98.746826
11888.336170	1393.431667	1657.444336	77.688927
11888.336170	1393.431667	1656.416016	291.263702
11888.336170	1393.431667	1655.386719	242.256729
11888.336170	1393.431667	1654.358398	-52.911945
11888.336170	1393.431667	1653.328125	39.748909
11888.336170	1393.431667	1652.298828	169.500031
11888.336170	1393.431667	1651.269531	90.294228
11888.336170	1393.431667	1650.239258	231.540817
11888.336170	1393.431667	1649.208984	50.224541
11888.336170	1393.431667	1648.178711	186.744354
11888.336170	1393.431667	1647.148438	279.128601
11888.336170	1393.431667	1646.117188	192.912018
11888.336170	1393.431667	1645.086914	273.631165
11888.336170	1393.431667	1644.055664	217.544464
11888.336170	1393.431667	1643.024414	170.731964
11888.336170	1393.431667	1641.992188	172.569687
11888.336170	1393.431667	1640.960938	97.953674
11888.336170	1393.431667	1639.928711	183.150055
11888.336170	1393.431667	1638.896484	175.675491
11888.336170	1393.431667	1637.864258	251.532959
11888.336170	1393.431667	1636.832031	417.619507
11888.336170	1393.431667	1635.798828	363.771484
11888.336170	1393.431667	1634.766602	277.544312
11888.336170	1393.431667	1633.733398	186.705933
11888.336170	1393.431667	1632.699219	56.565948
11888.336170	1393.431667	1631.666016	377.392700
11888.336170	1393.431667	1630.632813	214.882431
11888.336170	1393.431667	1629.598633	290.505798
11888.336170	1393.431667	1628.564453	312.935303
11888.336170	1393.431667	1627.530273	337.657867
11888.336170	1393.431667	1626.495117	424.730530
11888.336170	1393.431667	1625.460938	266.935883
11888.336170	1393.431667	1624.425781	164.612076
11888.336170	1393.431667	1623.390625	438.660675
11888.336170	1393.431667	1622.355469	456.365448
11888.336170	1393.431667	1621.319336	404.813721
11888.336170	1393.431667	1620.284180	302.517609
11888.336170	1393.431667	1619.248047	267.155090
11888.336170	1393.431667	1618.211914	395.569641
11888.336170	1393.431667	1617.174805	281.780212
11888.336170	1393.431667	1616.138672	359.409790
11888.336170	1393.431667	1615.101563	234.139740
11888.336170	1393.431667	1614.065430	417.764435
11888.336170	1393.431667	1613.027344	271.783447
11888.336170	1393.431667	1611.990234	259.490326
11888.336170	1393.431667	1610.953125	440.690613
11888.336170	1393.431667	1609.915039	396.121582
11888.336170	1393.431667	1608.876953	478.210724
11888.336170	1393.431667	1607.838867	472.789581
11888.336170	1393.431667	1606.800781	520.310486
11888.336170	1393.431667	1605.761719	429.737152
11888.336170	1393.431667	1604.723633	373.719849
11888.336170	1393.431667	1603.684570	481.043610
11888.336170	1393.431667	1602.644531	461.831512
11888.336170	1393.431667	1601.605469	470.230865
11888.336170	1393.431667	1600.566406	349.890533
11888.336170	1393.431667	1599.526367	521.507751
11888.336170	1393.431667	1598.486328	359.845947
11888.336170	1393.431667	1597.446289	283.265961
11888.336170	1393.431667	1596.405273	305.495850
11888.336170	1393.431667	1595.365234	516.061218
11888.336170	1393.431667	1594.324219	423.440521
11888.336170	1393.431667	1593.283203	498.460083
11888.336170	1393.431667	1592.242188	424.261047
11888.336170	1393.431667	1591.200195	379.929932
11888.336170	1393.431667	1590.159180	278.270996
11888.336170	1393.431667	1589.117188	403.765778
11888.336170	1393.431667	1588.075195	483.352325
11888.336170	1393.431667	1587.032227	145.565384
11888.336170	1393.431667	1585.990234	504.903961
11888.336170	1393.431667	1584.947266	300.221771
11888.336170	1393.431667	1583.904297	437.109131
11888.336170	1393.431667	1582.861328	310.454285
11888.336170	1393.431667	1581.818359	374.008209
11888.336170	1393.431667	1580.775391	508.557159
11888.336170	1393.431667	1579.731445	459.864960
11888.336170	1393.431667	1578.687500	349.391052
11888.336170	1393.431667	1577.643555	255.002106
11888.336170	1393.431667	1576.598633	499.382019
11888.336170	1393.431667	1575.554688	389.020172
11888.336170	1393.431667	1574.509766	514.353027
11888.336170	1393.431667	1573.464844	358.318970
11888.336170	1393.431667	1572.419922	561.401855
11888.336170	1393.431667	1571.374023	416.887146
11888.336170	1393.431667	1570.329102	373.038483
11888.336170	1393.431667	1569.283203	379.503998
11888.336170	1393.431667	1568.237305	397.415192
11888.336170	1393.431667	1567.191406	440.472778
11888.336170	1393.431667	1566.144531	261.968262
11888.336170	1393.431667	1565.098633	339.338745
11888.336170	1393.431667	1564.051758	455.513367
11888.336170	1393.431667	1563.004883	354.800293
11888.336170	1393.431667	1561.957031	322.618042
11888.336170	1393.431667	1560.910156	256.250702
11888.336170	1393.431667	1559.862305	262.938171
11888.336170	1393.431667	1558.814453	253.682770
11888.336170	1393.431667	1557.766602	66.573906
11888.336170	1393.431667	1556.718750	203.344437
11888.336170	1393.431667	1555.669922	109.837364
11888.336170	1393.431667	1554.621094	280.786377
11888.336170	1393.431667	1553.573242	98.491936
11888.336170	1393.431667	1552.523438	328.667297
11888.336170	1393.431667	1551.474609	160.157745
11888.336170	1393.431667	1550.424805	66.896042
11888.336170	1393.431667	1549.375000	89.829094
11888.336170	1393.431667	1548.325195	-23.807304
11888.336170	1393.431667	1547.275391	31.063951
11888.336170	1393.431667	1546.225586	35.882263
11888.336170	1393.431667	1545.174805	33.902035
11888.336170	1393.431667	1544.124023	150.242844
11888.336170	1393.431667	1543.073242	64.159492
11888.336170	1393.431667	1542.022461	23.621660
11888.336170	1393.431667	1540.970703	74.066490
11888.336170	1393.431667	1539.919922	17.702997
11888.336170	1393.431667	1538.868164	184.098450
11888.336170	1393.431667	1537.815430	102.806091
11888.336170	1393.431667	1536.763672	146.525940
11888.336170	1393.431667	1535.710938	290.192139
11888.336170	1393.431667	1534.659180	-22.569658
11888.336170	1393.431667	1533.606445	-130.850052
11888.336170	1393.431667	1532.552734	24.244997
11888.336170	1393.431667	1531.500000	29.543535
11888.336170	1393.431667	1530.446289	123.363373
11888.336170	1393.431667	1529.393555	-20.999350
11888.336170	1393.431667	1528.338867	106.889214
11888.336170	1393.431667	1527.285156	57.901608
11888.336170	1393.431667	1526.231445	-27.300068
11888.336170	1393.431667	1525.176758	5.436688
11888.336170	1393.431667	1524.122070	20.072464
11888.336170	1393.431667	1523.067383	-98.936829
11888.336170	1393.431667	1522.012695	264.660126
11888.336170	1393.431667	1520.957031	-71.698395
11888.336170	1393.431667	1519.901367	83.502716
11888.336170	1393.431667	1518.845703	-53.368538
11888.336170	1393.431667	1517.790039	-124.499344
11888.336170	1393.431667	1516.734375	-48.455788
11888.336170	1393.431667	1515.677734	138.467697
11888.336170	1393.431667	1514.621094	22.227861
11888.336170	1393.431667	1513.564453	-1.189149
11888.336170	1393.431667	1512.507813	61.378094
11888.336170	1393.431667	1511.450195	178.224182
11888.336170	1393.431667	1510.393555	19.303316
11888.336170	1393.431667	1509.335938	120.384605
11888.336170	1393.431667	1508.278320	-38.371864
11888.336170	1393.431667	1507.219727	-20.813931
11888.336170	1393.431667	1506.162109	-86.781219
11888.336170	1393.431667	1505.103516	-12.670792
11888.336170	1393.431667	1504.044922	34.365223
11888.336170	1393.431667	1502.986328	61.115643
11888.336170	1393.431667	1501.926758	24.709906
11888.336170	1393.431667	1500.868164	-29.680393
11888.336170	1393.431667	1499.808594	-68.211143
11888.336170	1393.431667	1498.749023	-18.713457
11888.336170	1393.431667	1497.688477	30.811901
11888.336170	1393.431667	1496.628906	-18.832033
11888.336170	1393.431667	1495.568359	-63.899918
11888.336170	1393.431667	1494.507813	-115.660568
11888.336170	1393.431667	1493.447266	-113.271980
11888.336170	1393.431667	1492.386719	-99.569405
11888.336170	1393.431667	1491.325195	-22.757948
11888.336170	1393.431667	1490.263672	-155.351761
11888.336170	1393.431667	1489.202148	-44.684628
11888.336170	1393.431667	1488.140625	-28.551798
11888.336170	1393.431667	1487.079102	-5.621552
11888.336170	1393.431667	1486.016602	152.356308
11888.336170	1393.431667	1484.954102	-33.874332
11888.336170	1393.431667	1483.891602	-26.545746
11888.336170	1393.431667	1482.829102	-59.644596
11888.336170	1393.431667	1481.765625	48.964264
11888.336170	1393.431667	1480.702148	-89.672775
11888.336170	1393.431667	1479.638672	97.653893
11888.336170	1393.431667	1478.575195	55.766182
11888.336170	1393.431667	1477.511719	103.822411
11888.336170	1393.431667	1476.447266	154.147888
11888.336170	1393.431667	1475.382813	76.531418
11888.336170	1393.431667	1474.318359	122.457474
11888.336170	1393.431667	1473.253906	193.151749
11888.336170	1393.431667	1472.189453	319.856995
11888.336170	1393.431667	1471.124023	262.740601
11888.336170	1393.431667	1470.058594	353.528992
11888.336170	1393.431667	1468.993164	262.885406
11888.336170	1393.431667	1467.927734	284.382141
11888.336170	1393.431667	1466.861328	399.964539
11888.336170	1393.431667	1465.794922	517.746155
11888.336170	1393.431667	1464.728516	525.848511
11888.336170	1393.431667	1463.662109	556.322571
11888.336170	1393.431667	1462.594727	656.517578
11888.336170	1393.431667	1461.528320	546.100769
11888.336170	1393.431667	1460.460938	377.821655
11888.336170	1393.431667	1459.393555	571.769958
11888.336170	1393.431667	1458.326172	454.690247
11888.336170	1393.431667	1457.257813	255.672882
11888.336170	1393.431667	1456.189453	384.709717
11888.336170	1393.431667	1455.121094	587.643555
11888.336170	1393.431667	1454.052734	575.556885
11888.336170	1393.431667	1452.984375	433.512756
11888.336170	1393.431667	1451.915039	339.158264
11888.336170	1393.431667	1450.845703	270.467987
11888.336170	1393.431667	1449.776367	396.810516
11888.336170	1393.431667	1448.707031	254.650665
11888.336170	1393.431667	1447.636719	299.455170
11888.336170	1393.431667	1446.567383	308.637268
11888.336170	1393.431667	1445.497070	356.882843
11888.336170	1393.431667	1444.425781	304.929352
11888.336170	1393.431667	1443.355469	335.517792
11888.336170	1393.431667	1442.285156	205.564713
11888.336170	1393.431667	1441.213867	214.434509
11888.336170	1393.431667	1440.142578	132.328659
11888.336170	1393.431667	1439.070313	120.813377
11888.336170	1393.431667	1437.999023	168.454803
11888.336170	1393.431667	1436.926758	150.882553
11888.336170	1393.431667	1435.854492	39.002422
11888.336170	1393.431667	1434.782227	201.138550
11888.336170	1393.431667	1433.709961	-72.146652
11888.336170	1393.431667	1432.636719	64.769447
11888.336170	1393.431667	1431.563477	146.102493
11888.336170	1393.431667	1430.490234	25.547691
11888.336170	1393.431667	1429.416992	-5.153363
11888.336170	1393.431667	1428.343750	230.416199
11888.336170	1393.431667	1427.269531	160.573578
11888.336170	1393.431667	1426.195313	-138.202652
11888.336170	1393.431667	1425.121094	178.263123
11888.336170	1393.431667	1424.046875	-55.022869
11888.336170	1393.431667	1422.971680	47.207443
11888.336170	1393.431667	1421.896484	94.462173
11888.336170	1393.431667	1420.821289	37.124474
11888.336170	1393.431667	1419.746094	83.864105
11888.336170	1393.431667	1418.669922	-14.558489
11888.336170	1393.431667	1417.594727	108.847588
11888.336170	1393.431667	1416.518555	16.954481
11888.336170	1393.431667	1415.442383	121.849571
11888.336170	1393.431667	1414.365234	67.124527
11888.336170	1393.431667	1413.289063	-5.932312
11888.336170	1393.431667	1412.211914	90.161926
11888.336170	1393.431667	1411.134766	83.470482
11888.336170	1393.431667	1410.057617	160.558090
11888.336170	1393.431667	1408.979492	126.270081
11888.336170	1393.431667	1407.902344	117.015358
11888.336170	1393.431667	1406.824219	180.979904
11888.336170	1393.431667	1405.746094	40.280876
11888.336170	1393.431667	1404.666992	18.012318
11888.336170	1393.431667	1403.588867	50.036827
11888.336170	1393.431667	1402.509766	80.772697
11888.336170	1393.431667	1401.430664	102.437950
11888.336170	1393.431667	1400.351563	56.715462
11888.336170	1393.431667	1399.271484	27.588144
11888.336170	1393.431667	1398.192383	-11.617043
11888.336170	1393.431667	1397.112305	-0.172768
11888.336170	1393.431667	1396.031250	7.822715
11888.336170	1393.431667	1394.951172	16.337675
11888.336170	1393.431667	1393.871094	69.763298
11888.336170	1393.431667	1392.790039	61.497311
11888.336170	1393.431667	1391.708984	90.393501
11888.336170	1393.431667	1390.626953	38.548409
11888.336170	1393.431667	1389.545898	74.220352
11888.336170	1393.431667	1388.463867	-47.280609
11888.336170	1393.431667	1387.381836	52.187710
11888.336170	1393.431667	1386.299805	-7.040508
11888.336170	1393.431667	1385.217773	39.622829
11888.336170	1393.431667	1384.134766	97.767174
11888.336170	1393.431667	1383.051758	-77.630043
11888.336170	1393.431667	1381.968750	105.551003
11888.336170	1393.431667	1380.885742	196.804138
11888.336170	1393.431667	1379.802734	-78.451988
11888.336170	1393.431667	1378.718750	142.782913
11888.336170	1393.431667	1377.634766	107.455276
11888.336170	1393.431667	1376.550781	185.867035
11888.336170	1393.431667	1375.465820	127.010788
11888.336170	1393.431667	1374.381836	197.750519
11888.336170	1393.431667	1373.296875	225.146484
11888.336170	1393.431667	1372.211914	165.088242
11888.336170	1393.431667	1371.126953	24.056913
11888.336170	1393.431667	1370.041016	149.644409
11888.336170	1393.431667	1368.955078	49.850014
11888.336170	1393.431667	1367.869141	48.773991
11888.336170	1393.431667	1366.783203	120.060028
11888.336170	1393.431667	1365.697266	115.965591
11888.336170	1393.431667	1364.610352	194.342545
11888.336170	1393.431667	1363.523438	82.274918
11888.336170	1393.431667	1362.436523	236.687668
11888.336170	1393.431667	1361.349609	181.091156
11888.336170	1393.431667	1360.261719	139.234863
11888.336170	1393.431667	1359.174805	177.471848
11888.336170	1393.431667	1358.086914	124.235008
11888.336170	1393.431667	1356.998047	122.066071
11888.336170	1393.431667	1355.910156	125.962914
11888.336170	1393.431667	1354.821289	175.767319
11888.336170	1393.431667	1353.732422	130.106445
11888.336170	1393.431667	1352.643555	32.782139
11888.336170	1393.431667	1351.554688	113.463966
11888.336170	1393.431667	1350.464844	156.292282
11888.336170	1393.431667	1349.375000	162.104553
11888.336170	1393.431667	1348.285156	181.440414
11888.336170	1393.431667	1347.195313	8.329270
11888.336170	1393.431667	1346.105469	140.524628
11888.336170	1393.431667	1345.014648	-9.261678
11888.336170	1393.431667	1343.923828	86.678207
11888.336170	1393.431667	1342.833008	193.018707
11888.336170	1393.431667	1341.741211	72.662140
11888.336170	1393.431667	1340.650391	123.916939
11888.336170	1393.431667	1339.558594	124.175606
11888.336170	1393.431667	1338.466797	-18.173985
11888.336170	1393.431667	1337.374023	58.693474
11888.336170	1393.431667	1336.282227	44.806839
11888.336170	1393.431667	1335.189453	20.095976
11888.336170	1393.431667	1334.096680	114.035538
11888.336170	1393.431667	1333.003906	8.515734
11888.336170	1393.431667	1331.910156	26.245806
11888.336170	1393.431667	1330.817383	22.170330
11888.336170	1393.431667	1329.723633	-86.711220
11888.336170	1393.431667	1328.629883	166.778778
11888.336170	1393.431667	1327.535156	7.351635
11888.336170	1393.431667	1326.441406	34.586941
11888.336170	1393.431667	1325.346680	-23.518543
11888.336170	1393.431667	1324.251953	16.999809
11888.336170	1393.431667	1323.156250	121.424683
11888.336170	1393.431667	1322.061523	183.735855
11888.336170	1393.431667	1320.965820	238.327744
11888.336170	1393.431667	1319.870117	54.314278
11888.336170	1393.431667	1318.774414	201.004120
11888.336170	1393.431667	1317.678711	202.531128
11888.336170	1393.431667	1316.582031	223.108780
11888.336170	1393.431667	1315.485352	223.351395
11888.336170	1393.431667	1314.388672	186.720932
11888.336170	1393.431667	1313.291016	225.187302
11888.336170	1393.431667	1312.194336	207.438354
11888.336170	1393.431667	1311.096680	152.160431
11888.336170	1393.431667	1309.999023	320.709900
11888.336170	1393.431667	1308.901367	368.579987
11888.336170	1393.431667	1307.802734	469.046844
11888.336170	1393.431667	1306.705078	383.900665
11888.336170	1393.431667	1305.606445	374.507660
11888.336170	1393.431667	1304.506836	363.702911
11888.336170	1393.431667	1303.408203	399.070404
11888.336170	1393.431667	1302.308594	235.336349
11888.336170	1393.431667	1301.208984	321.048401
11888.336170	1393.431667	1300.109375	340.111847
11888.336170	1393.431667	1299.009766	273.955963
11888.336170	1393.431667	1297.909180	313.020660
11888.336170	1393.431667	1296.808594	443.519958
11888.336170	1393.431667	1295.708008	271.148773
11888.336170	1393.431667	1294.607422	252.797287
11888.336170	1393.431667	1293.506836	319.776581
11888.336170	1393.431667	1292.405273	332.559326
11888.336170	1393.431667	1291.303711	243.298492
11888.336170	1393.431667	1290.202148	332.144989
11888.336170	1393.431667	1289.099609	372.515442
11888.336170	1393.431667	1287.998047	429.019714
11888.336170	1393.431667	1286.895508	325.700867
11888.336170	1393.431667	1285.792969	382.465240
11888.336170	1393.431667	1284.689453	491.782623
11888.336170	1393.431667	1283.586914	482.771667
11888.336170	1393.431667	1282.483398	393.595642
11888.336170	1393.431667	1281.379883	443.178345
11888.336170	1393.431667	1280.276367	338.071625
11888.336170	1393.431667	1279.171875	431.040771
11888.336170	1393.431667	1278.067383	446.684418
11888.336170	1393.431667	1276.962891	436.341003
11888.336170	1393.431667	1275.858398	324.775696
11888.336170	1393.431667	1274.753906	392.287415
11888.336170	1393.431667	1273.648438	308.044373
11888.336170	1393.431667	1272.542969	294.706635
11888.336170	1393.431667	1271.437500	285.950500
11888.336170	1393.431667	1270.331055	343.641052
11888.336170	1393.431667	1269.225586	91.576256
11888.336170	1393.431667	1268.119141	145.022736
11888.336170	1393.431667	1267.012695	37.743046
11888.336170	1393.431667	1265.906250	85.244598
11888.336170	1393.431667	1264.798828	12.016447
11888.336170	1393.431667	1263.691406	135.639038
11888.336170	1393.431667	1262.583984	204.670563
11888.336170	1393.431667	1261.476563	224.364990
11888.336170	1393.431667	1260.368164	-123.812500
11888.336170	1393.431667	1259.260742	29.020998
11888.336170	1393.431667	1258.152344	-11.712561
11888.336170	1393.431667	1257.043945	21.410503
11888.336170	1393.431667	1255.934570	48.381737
11888.336170	1393.431667	1254.825195	-95.633972
11888.336170	1393.431667	1253.716797	55.957947
11888.336170	1393.431667	1252.606445	8.048965
11888.336170	1393.431667	1251.497070	-21.547125
11888.336170	1393.431667	1250.387695	4.874621
11888.336170	1393.431667	1249.277344	-93.845596
11888.336170	1393.431667	1248.166992	11.556717
11888.336170	1393.431667	1247.055664	-56.830185
11888.336170	1393.431667	1245.945313	-50.884644
11888.336170	1393.431667	1244.833984	8.322189
11888.336170	1393.431667	1243.722656	27.719366
11888.336170	1393.431667	1242.611328	-51.653942
11888.336170	1393.431667	1241.499023	-1.877440
11888.336170	1393.431667	1240.387695	19.529924
11888.336170	1393.431667	1239.275391	21.706957
11888.336170	1393.431667	1238.162109	7.605920
11888.336170	1393.431667	1237.049805	-20.710566
11888.336170	1393.431667	1235.936523	-49.083199
11888.336170	1393.431667	1234.823242	120.429314
11888.336170	1393.431667	1233.709961	-53.394089
11888.336170	1393.431667	1232.596680	-51.408257
11888.336170	1393.431667	1231.482422	84.290009
11888.336170	1393.431667	1230.369141	159.159851
11888.336170	1393.431667	1229.253906	77.292908
11888.336170	1393.431667	1228.139648	152.354660
11888.336170	1393.431667	1227.025391	16.610149
11888.336170	1393.431667	1225.910156	157.869263
11888.336170	1393.431667	1224.794922	45.526985
11888.336170	1393.431667	1223.679688	9.087365
11888.336170	1393.431667	1222.563477	0.267531
11888.336170	1393.431667	1221.447266	116.901443
11888.336170	1393.431667	1220.331055	-2.328126
11888.336170	1393.431667	1219.214844	47.566788
11888.336170	1393.431667	1218.098633	2.017990
11888.336170	1393.431667	1216.981445	-131.366791
11888.336170	1393.431667	1215.864258	42.463741
11888.336170	1393.431667	1214.747070	55.649403
11888.336170	1393.431667	1213.629883	-61.863823
11888.336170	1393.431667	1212.511719	27.363804
11888.336170	1393.431667	1211.393555	66.509590
11888.336170	1393.431667	1210.275391	-40.093266
11888.336170	1393.431667	1209.157227	32.023689
11888.336170	1393.431667	1208.038086	-25.585577
11888.336170	1393.431667	1206.918945	-94.579643
11888.336170	1393.431667	1205.799805	-73.067200
11888.336170	1393.431667	1204.680664	-23.872736
11888.336170	1393.431667	1203.560547	37.375053
11888.336170	1393.431667	1202.441406	-18.393486
11888.336170	1393.431667	1201.321289	-116.884178
11888.336170	1393.431667	1200.200195	7.007163
11888.336170	1393.431667	1199.080078	-68.497536
11888.336170	1393.431667	1197.958984	5.872409
11888.336170	1393.431667	1196.837891	-96.050735
11888.336170	1393.431667	1195.716797	-170.886353
11888.336170	1393.431667	1194.594727	-113.376015
11888.336170	1393.431667	1193.473633	-134.164825
11888.336170	1393.431667	1192.351563	-88.476364
11888.336170	1393.431667	1191.229492	-49.369869
11888.336170	1393.431667	1190.106445	2.586886
11888.336170	1393.431667	1188.984375	-58.016705
11888.336170	1393.431667	1187.861328	-21.207064
11888.336170	1393.431667	1186.738281	-47.870014
11888.336170	1393.431667	1185.614258	-18.547497
11888.336170	1393.431667	1184.491211	52.276279
11888.336170	1393.431667	1183.367188	35.736908
11888.336170	1393.431667	1182.243164	18.511122
11888.336170	1393.431667	1181.119141	-167.860764
11888.336170	1393.431667	1179.994141	51.239910
11888.336170	1393.431667	1178.869141	-141.394836
11888.336170	1393.431667	1177.744141	-6.303290
11888.336170	1393.431667	1176.619141	7.671577
11888.336170	1393.431667	1175.493164	60.378830
11888.336170	1393.431667	1174.368164	50.813576
11888.336170	1393.431667	1173.242188	-28.987480
11888.336170	1393.431667	1172.115234	-31.740891
11888.336170	1393.431667	1170.989258	99.802483
11888.336170	1393.431667	1169.862305	56.748077
11888.336170	1393.431667	1168.735352	22.955994
11888.336170	1393.431667	1167.608398	-37.665257
11888.336170	1393.431667	1166.481445	3.614631
11888.336170	1393.431667	1165.353516	-13.371033
11888.336170	1393.431667	1164.225586	25.984993
11888.336170	1393.431667	1163.097656	18.788509
11888.336170	1393.431667	1161.968750	-84.708763
11888.336170	1393.431667	1160.840820	-112.874023
11888.336170	1393.431667	1159.711914	-7.893628
11888.336170	1393.431667	1158.583008	22.845146
11888.336170	1393.431667	1157.453125	-8.256130
11888.336170	1393.431667	1156.324219	-6.999076
11888.336170	1393.431667	1155.194336	-6.523787
11888.336170	1393.431667	1154.064453	-48.057785
11888.336170	1393.431667	1152.933594	17.032373
11888.336170	1393.431667	1151.803711	-3.920487
11888.336170	1393.431667	1150.672852	106.843788
11888.336170	1393.431667	1149.541992	99.456169
11888.336170	1393.431667	1148.411133	94.189499
11888.336170	1393.431667	1147.279297	-52.112915
11888.336170	1393.431667	1146.147461	25.654585
11888.336170	1393.431667	1145.015625	-16.239546
11888.336170	1393.431667	1143.883789	29.071783
11888.336170	1393.431667	1142.750977	-88.884583
11888.336170	1393.431667	1141.619141	71.204063
11888.336170	1393.431667	1140.486328	70.102928
11888.336170	1393.431667	1139.352539	29.135592
11888.336170	1393.431667	1138.219727	-20.288416
11888.336170	1393.431667	1137.085938	-24.865927
11888.336170	1393.431667	1135.952148	60.825329
11888.336170	1393.431667	1134.818359	96.625130
11888.336170	1393.431667	1133.683594	-26.164425
11888.336170	1393.431667	1132.549805	-48.945107
11888.336170	1393.431667	1131.415039	-51.175659
11888.336170	1393.431667	1130.279297	25.040777
11888.336170	1393.431667	1129.144531	42.668293
11888.336170	1393.431667	1128.008789	71.340805
11888.336170	1393.431667	1126.873047	32.505676
11888.336170	1393.431667	1125.737305	26.377716
11888.336170	1393.431667	1124.601563	121.241066
11888.336170	1393.431667	1123.464844	189.750214
11888.336170	1393.431667	1122.328125	151.296951
11888.336170	1393.431667	1121.191406	35.219635
11888.336170	1393.431667	1120.054688	151.412292
11888.336170	1393.431667	1118.916992	165.479996
11888.336170	1393.431667	1117.779297	133.711655
11888.336170	1393.431667	1116.641602	82.062294
11888.336170	1393.431667	1115.503906	98.025101
11888.336170	1393.431667	1114.365234	300.390137
11888.336170	1393.431667	1113.226563	169.204697
11888.336170	1393.431667	1112.087891	95.036621
11888.336170	1393.431667	1110.949219	102.702339
11888.336170	1393.431667	1109.809570	227.313141
11888.336170	1393.431667	1108.669922	181.833405
11888.336170	1393.431667	1107.530273	183.721634
11888.336170	1393.431667	1106.390625	120.185844
11888.336170	1393.431667	1105.250000	181.369003
11888.336170	1393.431667	1104.109375	178.717987
11888.336170	1393.431667	1102.968750	29.181091
11888.336170	1393.431667	1101.828125	175.113800
11888.336170	1393.431667	1100.686523	57.939743
11888.336170	1393.431667	1099.544922	106.865211
11888.336170	1393.431667	1098.403320	203.727631
11888.336170	1393.431667	1097.261719	202.632523
11888.336170	1393.431667	1096.120117	168.122894
11888.336170	1393.431667	1094.977539	291.366943
11888.336170	1393.431667	1093.834961	81.471413
11888.336170	1393.431667	1092.691406	122.775383
11888.336170	1393.431667	1091.548828	177.551086
11888.336170	1393.431667	1090.405273	215.376953
11888.336170	1393.431667	1089.261719	295.789520
11888.336170	1393.431667	1088.118164	299.496399
11888.336170	1393.431667	1086.973633	156.208572
11888.336170	1393.431667	1085.829102	115.841629
11888.336170	1393.431667	1084.684570	228.419052
11888.336170	1393.431667	1083.540039	175.686050
11888.336170	1393.431667	1082.395508	263.502075
11888.336170	1393.431667	1081.250000	289.143005
11888.336170	1393.431667	1080.104492	216.335022
11888.336170	1393.431667	1078.958984	213.799438
11888.336170	1393.431667	1077.812500	224.811081
11888.336170	1393.431667	1076.666016	80.601112
11888.336170	1393.431667	1075.519531	150.485550
11888.336170	1393.431667	1074.373047	50.840458
11888.336170	1393.431667	1073.226563	225.684494
11888.336170	1393.431667	1072.079102	260.795837
11888.336170	1393.431667	1070.931641	151.667007
11888.336170	1393.431667	1069.784180	207.340073
11888.336170	1393.431667	1068.635742	110.304115
11888.336170	1393.431667	1067.487305	182.630798
11888.336170	1393.431667	1066.338867	23.909105
11888.336170	1393.431667	1065.190430	155.175766
11888.336170	1393.431667	1064.041992	177.868423
11888.336170	1393.431667	1062.892578	142.266068
11888.336170	1393.431667	1061.743164	153.102585
11888.336170	1393.431667	1060.593750	46.586140
11888.336170	1393.431667	1059.443359	94.463928
11888.336170	1393.431667	1058.292969	31.449408
11888.336170	1393.431667	1057.142578	-10.245380
11888.336170	1393.431667	1055.992188	156.211243
11888.336170	1393.431667	1054.841797	6.849202
11888.336170	1393.431667	1053.690430	126.874619
11888.336170	1393.431667	1052.539063	-27.396906
11888.336170	1393.431667	1051.387695	50.261333
11888.336170	1393.431667	1050.235352	199.457764
11888.336170	1393.431667	1049.083984	135.269882
11888.336170	1393.431667	1047.931641	33.409019
11888.336170	1393.431667	1046.778320	171.141388
11888.336170	1393.431667	1045.625977	32.197433
11888.336170	1393.431667	1044.472656	107.402145
11888.336170	1393.431667	1043.319336	87.146484
11888.336170	1393.431667	1042.166016	291.429626
11888.336170	1393.431667	1041.012695	103.307365
11888.336170	1393.431667	1039.858398	207.408524
11888.336170	1393.431667	1038.704102	167.108490
11888.336170	1393.431667	1037.549805	173.241898
11888.336170	1393.431667	1036.394531	126.075180
11888.336170	1393.431667	1035.239258	97.691811
11888.336170	1393.431667	1034.083984	68.445465
11888.336170	1393.431667	1032.928711	155.066284
11888.336170	1393.431667	1031.773438	117.692635
11888.336170	1393.431667	1030.617188	45.090370
11888.336170	1393.431667	1029.460938	76.889931
11888.336170	1393.431667	1028.304688	151.817566
11888.336170	1393.431667	1027.147461	69.374443
11888.336170	1393.431667	1025.991211	51.962021
11888.336170	1393.431667	1024.833984	-113.633331
11888.336170	1393.431667	1023.675781	174.343872
11888.336170	1393.431667	1022.518555	100.048615
11888.336170	1393.431667	1021.360352	80.129951
11888.336170	1393.431667	1020.202148	15.909359
11888.336170	1393.431667	1019.043945	51.390919
11888.336170	1393.431667	1017.884766	18.195826
11888.336170	1393.431667	1016.726563	-22.356260
11888.336170	1393.431667	1015.567383	-145.532425
11888.336170	1393.431667	1014.407227	31.413065
11888.336170	1393.431667	1013.248047	0.106612
11888.336170	1393.431667	1012.087891	98.250275
11888.336170	1393.431667	1010.927734	15.350718
11888.336170	1393.431667	1009.767578	39.019924
11888.336170	1393.431667	1008.606445	59.520103
11888.336170	1393.431667	1007.446289	115.823967
11888.336170	1393.431667	1006.285156	12.127588
11888.336170	1393.431667	1005.123047	178.423798
11888.336170	1393.431667	1003.961914	217.108231
11888.336170	1393.431667	1002.799805	69.388123
11888.336170	1393.431667	1001.637695	223.768784
11888.336170	1393.431667	1000.475586	149.727417
11888.336170	1393.431667	999.312500	114.841087
11888.336170	1393.431667	998.149414	154.493530
11888.336170	1393.431667	996.986328	116.944214
11888.336170	1393.431667	995.823242	99.944298
11888.336170	1393.431667	994.659180	146.376923
11888.336170	1393.431667	993.496094	18.456306
11888.336170	1393.431667	992.332031	11.861646
11888.336170	1393.431667	991.166992	23.257145
11888.336170	1393.431667	990.002930	-18.369961
11888.336170	1393.431667	988.837891	19.651148
11888.336170	1393.431667	987.672852	144.215546
11888.336170	1393.431667	986.506836	42.076439
11888.336170	1393.431667	985.341797	86.685478
11888.336170	1393.431667	984.175781	86.966820
11888.336170	1393.431667	983.009766	-37.488121
11888.336170	1393.431667	981.843750	10.261744
11888.336170	1393.431667	980.676758	-67.127129
11888.336170	1393.431667	979.509766	-81.866524
11888.336170	1393.431667	978.342773	-2.802455
11888.336170	1393.431667	977.175781	16.519344
11888.336170	1393.431667	976.007813	-37.049881
11888.336170	1393.431667	974.839844	17.298132
11888.336170	1393.431667	973.671875	28.281816
11888.336170	1393.431667	972.503906	-11.488304
11888.336170	1393.431667	971.334961	100.862411
11888.336170	1393.431667	970.166016	76.545082
11888.336170	1393.431667	968.997070	137.482254
11888.336170	1393.431667	967.828125	5.178955
11888.336170	1393.431667	966.658203	52.506386
11888.336170	1393.431667	965.488281	-54.231529
11888.336170	1393.431667	964.318359	8.395058
11888.336170	1393.431667	963.148438	-42.110764
11888.336170	1393.431667	961.977539	37.550385
11888.336170	1393.431667	960.806641	-10.368327
11888.336170	1393.431667	959.635742	123.613724
11888.336170	1393.431667	958.463867	-171.012711
11888.336170	1393.431667	957.292969	-48.881504
11888.336170	1393.431667	956.121094	45.723534
11888.336170	1393.431667	954.948242	77.136528
11888.336170	1393.431667	953.776367	152.477051
11888.336170	1393.431667	952.603516	4.660459
11888.336170	1393.431667	951.430664	-5.143503
11888.336170	1393.431667	950.257813	72.801140
11888.336170	1393.431667	949.084961	7.248431
11888.336170	1393.431667	947.911133	115.635834
11888.336170	1393.431667	946.737305	55.336212
11888.336170	1393.431667	945.563477	24.905848
11888.336170	1393.431667	944.388672	11.340777
11888.336170	1393.431667	943.213867	23.368853
11888.336170	1393.431667	942.039063	65.952606
11888.336170	1393.431667	940.864258	-34.761845
11888.336170	1393.431667	939.688477	-97.674484
11888.336170	1393.431667	938.513672	17.896378
11888.336170	1393.431667	937.337891	95.839104
11888.336170	1393.431667	936.161133	82.299309
11888.336170	1393.431667	934.985352	54.519253
11888.336170	1393.431667	933.808594	-29.644470
11888.336170	1393.431667	932.631836	125.760132
11888.336170	1393.431667	931.454102	60.230484
11888.336170	1393.431667	930.277344	88.815521
11888.336170	1393.431667	929.099609	138.538773
11888.336170	1393.431667	927.921875	30.820513
11888.336170	1393.431667	926.743164	2.980399
11888.336170	1393.431667	925.565430	-36.581047
11888.336170	1393.431667	924.386719	76.455078
11888.336170	1393.431667	923.208008	65.066170
11888.336170	1393.431667	922.028320	-33.163967
11888.336170	1393.431667	920.849609	-84.433426
11888.336170	1393.431667	919.669922	-83.008308
11888.336170	1393.431667	919.474609	-62.729160
11888.336170	1393.431667	918.309570	-85.851555
11888.336170	1393.431667	917.143555	73.928894
11888.336170	1393.431667	915.977539	-113.322998
11888.336170	1393.431667	914.810547	-94.240288
11888.336170	1393.431667	913.644531	-119.695343
11888.336170	1393.431667	912.477539	-79.540268
11888.336170	1393.431667	911.310547	-55.802540
11888.336170	1393.431667	910.143555	31.154625
11888.336170	1393.431667	908.975586	-10.707121
11888.336170	1393.431667	907.807617	-10.417199
11888.336170	1393.431667	906.639648	78.809113
11888.336170	1393.431667	905.471680	86.093925
11888.336170	1393.431667	904.303711	60.618439
11888.336170	1393.431667	903.134766	65.559128
11888.336170	1393.431667	901.965820	40.092617
11888.336170	1393.431667	900.796875	147.907913
11888.336170	1393.431667	899.626953	-13.155437
11888.336170	1393.431667	898.457031	-111.051674
11888.336170	1393.431667	897.287109	17.750490
11888.336170	1393.431667	896.117188	64.728615
11888.336170	1393.431667	894.947266	50.954498
11888.336170	1393.431667	893.776367	-23.533127
11888.336170	1393.431667	892.605469	-65.306656
11888.336170	1393.431667	891.434570	-111.734726
11888.336170	1393.431667	890.262695	-6.444634
11888.336170	1393.431667	889.091797	187.467163
11888.336170	1393.431667	887.919922	-19.962931
11888.336170	1393.431667	886.748047	-19.724312
11888.336170	1393.431667	885.575195	-33.479946
11888.336170	1393.431667	884.403320	32.036530
11888.336170	1393.431667	883.230469	-9.702014
11888.336170	1393.431667	882.057617	27.811136
11888.336170	1393.431667	880.883789	-69.835548
11888.336170	1393.431667	879.710938	-9.035862
11888.336170	1393.431667	878.537109	-1.832089
11888.336170	1393.431667	877.362305	54.267433
11888.336170	1393.431667	876.188477	33.511017
11888.336170	1393.431667	875.013672	59.314842
11888.336170	1393.431667	873.839844	138.628876
11888.336170	1393.431667	872.664063	-28.722910
11888.336170	1393.431667	871.489258	48.244522
11888.336170	1393.431667	870.313477	34.473682
11888.336170	1393.431667	869.138672	-49.054684
11888.336170	1393.431667	867.962891	46.458858
11888.336170	1393.431667	866.786133	9.443925
11888.336170	1393.431667	865.610352	28.212332
11888.336170	1393.431667	864.433594	81.821289
11888.336170	1393.431667	863.256836	23.904448
11888.336170	1393.431667	862.079102	26.391983
11888.336170	1393.431667	860.902344	-80.258286
11888.336170	1393.431667	859.724609	-19.721127
11888.336170	1393.431667	858.546875	68.639565
11888.336170	1393.431667	857.368164	124.473167
11888.336170	1393.431667	856.190430	82.836639
11888.336170	1393.431667	855.011719	-23.734377
11888.336170	1393.431667	853.833008	-5.034443
11888.336170	1393.431667	852.654297	-44.312675
11888.336170	1393.431667	851.474609	-185.576462
11888.336170	1393.431667	850.294922	37.087646
11888.336170	1393.431667	849.115234	58.059425
11888.336170	1393.431667	847.935547	-219.838959
11888.336170	1393.431667	846.754883	-39.010918
11888.336170	1393.431667	845.575195	28.264114
11888.336170	1393.431667	844.393555	-38.778603
11888.336170	1393.431667	843.212891	-96.541054
11888.336170	1393.431667	842.032227	-52.454018
11888.336170	1393.431667	840.850586	-172.673874
11888.336170	1393.431667	839.668945	116.619576
11888.336170	1393.431667	838.486328	-26.725195
11888.336170	1393.431667	837.304688	-72.895767
11888.336170	1393.431667	836.122070	-135.236572
11888.336170	1393.431667	834.939453	107.558937
11888.336170	1393.431667	833.756836	-188.217880
11888.336170	1393.431667	832.573242	93.755531
11888.336170	1393.431667	831.389648	-86.405685
11888.336170	1393.431667	830.206055	-56.327656
11888.336170	1393.431667	829.022461	22.222862
11888.336170	1393.431667	827.838867	-49.327518
11888.336170	1393.431667	826.654297	22.250463
11888.336170	1393.431667	825.469727	-7.745920
11888.336170	1393.431667	824.284180	68.394508
11888.336170	1393.431667	823.099609	-90.791138
11888.336170	1393.431667	821.914063	-26.211889
11888.336170	1393.431667	820.728516	-42.369293
11888.336170	1393.431667	819.542969	-26.254246
11888.336170	1393.431667	818.356445	68.210602
11888.336170	1393.431667	817.169922	65.845001
11888.336170	1393.431667	815.983398	5.874857
11888.336170	1393.431667	814.796875	-12.618472
11888.336170	1393.431667	813.609375	-72.565498
11888.336170	1393.431667	812.422852	35.581264
11888.336170	1393.431667	811.235352	-10.557596
11888.336170	1393.431667	810.046875	0.850716
11888.336170	1393.431667	808.859375	-3.863568
11888.336170	1393.431667	807.670898	44.327320
11888.336170	1393.431667	806.482422	-27.115702
11888.336170	1393.431667	805.293945	-73.244102
11888.336170	1393.431667	804.104492	94.453911
11888.336170	1393.431667	802.915039	-163.176453
11888.336170	1393.431667	801.725586	64.201042
11888.336170	1393.431667	800.536133	-14.119882
11888.336170	1393.431667	799.345703	-2.827667
11888.336170	1393.431667	798.155273	-32.892990
11888.336170	1393.431667	796.964844	-10.144189
11888.336170	1393.431667	795.774414	120.484932
11888.336170	1393.431667	794.583008	-120.792755
11888.336170	1393.431667	793.392578	71.740395
11888.336170	1393.431667	792.200195	57.689686
11888.336170	1393.431667	791.008789	71.157394
11888.336170	1393.431667	789.816406	-14.010189
11888.336170	1393.431667	788.625000	40.712288
11888.336170	1393.431667	787.432617	113.738953
11888.336170	1393.431667	786.239258	-12.681439
11888.336170	1393.431667	785.046875	0.718231
11888.336170	1393.431667	783.853516	14.098107
11888.336170	1393.431667	782.660156	84.721031
11888.336170	1393.431667	781.465820	79.727943
11888.336170	1393.431667	780.272461	106.775223
11888.336170	1393.431667	779.078125	-1.262747
11888.336170	1393.431667	777.883789	34.914036
11888.336170	1393.431667	776.688477	103.094414
11888.336170	1393.431667	775.494141	130.051056
11888.336170	1393.431667	774.298828	207.299850
11888.336170	1393.431667	773.103516	99.271713
11888.336170	1393.431667	771.907227	128.449265
11888.336170	1393.431667	770.711914	68.450020
11888.336170	1393.431667	769.515625	145.578323
11888.336170	1393.431667	768.318359	87.850975
11888.336170	1393.431667	767.122070	9.569180
11888.336170	1393.431667	765.924805	-121.227463
11888.336170	1393.431667	764.727539	74.542442
11888.336170	1393.431667	763.530273	110.404533
11888.336170	1393.431667	762.333008	109.713058
11888.336170	1393.431667	761.134766	145.515457
11888.336170	1393.431667	759.936523	135.651947
11888.336170	1393.431667	758.738281	112.086670
11888.336170	1393.431667	757.540039	70.266144
11888.336170	1393.431667	756.340820	-65.041550
11888.336170	1393.431667	755.141602	-118.246597
11888.336170	1393.431667	753.942383	81.536003
11888.336170	1393.431667	752.742188	121.706612
11888.336170	1393.431667	751.541992	209.681259
11888.336170	1393.431667	750.341797	33.380596
11888.336170	1393.431667	749.141602	180.502151
11888.336170	1393.431667	747.941406	124.906509
11888.336170	1393.431667	746.740234	135.324524
11888.336170	1393.431667	745.539063	47.854416
11888.336170	1393.431667	744.337891	160.629761
11888.336170	1393.431667	743.135742	68.594719
11888.336170	1393.431667	741.933594	115.313889
11888.336170	1393.431667	740.731445	36.923275
11888.336170	1393.431667	739.529297	29.018839
11888.336170	1393.431667	738.326172	157.472885
11888.336170	1393.431667	737.124023	181.313049
11888.336170	1393.431667	735.919922	186.941803
11888.336170	1393.431667	734.716797	33.534336
11888.336170	1393.431667	733.513672	118.629456
11888.336170	1393.431667	732.309570	201.393311
11888.336170	1393.431667	731.105469	141.077713
11888.336170	1393.431667	729.900391	216.941574
11888.336170	1393.431667	728.696289	54.482521
11888.336170	1393.431667	727.491211	-14.918164
11888.336170	1393.431667	726.286133	35.900600
11888.336170	1393.431667	725.080078	41.315308
11888.336170	1393.431667	723.874023	162.332794
11888.336170	1393.431667	722.668945	135.929199
11888.336170	1393.431667	721.461914	141.237259
11888.336170	1393.431667	720.255859	189.567200
11888.336170	1393.431667	719.048828	183.479218
11888.336170	1393.431667	717.841797	50.529568
11888.336170	1393.431667	716.634766	139.523239
11888.336170	1393.431667	715.427734	149.211502
11888.336170	1393.431667	714.219727	79.644005
11888.336170	1393.431667	713.011719	46.285336
11888.336170	1393.431667	711.803711	-45.914993
11888.336170	1393.431667	710.594727	15.713705
11888.336170	1393.431667	709.385742	59.194679
11888.336170	1393.431667	708.176758	118.454994
11888.336170	1393.431667	706.967773	62.367538
11888.336170	1393.431667	705.758789	74.078125
11888.336170	1393.431667	704.548828	106.090355
11888.336170	1393.431667	703.338867	72.540405
11888.336170	1393.431667	702.127930	-73.964676
11888.336170	1393.431667	700.917969	14.423006
11888.336170	1393.431667	699.707031	184.022202
11888.336170	1393.431667	698.496094	157.131317
11888.336170	1393.431667	697.285156	-11.962203
11888.336170	1393.431667	696.073242	-54.659695
11888.336170	1393.431667	694.861328	80.845619
11888.336170	1393.431667	693.649414	168.897858
11888.336170	1393.431667	692.436523	105.797752
11888.336170	1393.431667	691.224609	186.979553
11888.336170	1393.431667	690.011719	250.061951
11888.336170	1393.431667	688.798828	150.830383
11888.336170	1393.431667	687.584961	130.463943
11888.336170	1393.431667	686.372070	-56.617573
11888.336170	1393.431667	685.158203	40.112556
11888.336170	1393.431667	683.943359	44.450054
11888.336170	1393.431667	682.729492	168.065887
11888.336170	1393.431667	681.514648	23.762001
11888.336170	1393.431667	680.299805	140.511566
11888.336170	1393.431667	679.084961	7.456093
11888.336170	1393.431667	677.869141	202.816010
11888.336170	1393.431667	676.653320	206.911728
11888.336170	1393.431667	675.437500	121.038597
11888.336170	1393.431667	674.221680	21.680456
11888.336170	1393.431667	673.004883	90.882828
11888.336170	1393.431667	671.789063	-89.383499
11888.336170	1393.431667	670.571289	-15.764132
11888.336170	1393.431667	669.354492	140.892334
11888.336170	1393.431667	668.136719	16.761362
11888.336170	1393.431667	666.919922	114.905777
11888.336170	1393.431667	665.701172	-18.215839
11888.336170	1393.431667	664.483398	91.045334
11888.336170	1393.431667	663.264648	110.480293
11888.336170	1393.431667	662.045898	143.331223
11888.336170	1393.431667	660.827148	117.825188
11888.336170	1393.431667	659.608398	148.349899
11888.336170	1393.431667	658.388672	154.166946
11888.336170	1393.431667	657.168945	144.258392
11888.336170	1393.431667	655.949219	179.134506
11888.336170	1393.431667	654.728516	265.486542
11888.336170	1393.431667	653.507813	170.343002
11888.336170	1393.431667	652.287109	115.513069
11888.336170	1393.431667	651.066406	-17.688286
11888.336170	1393.431667	649.844727	-21.042576
11888.336170	1393.431667	648.623047	67.324585
11888.336170	1393.431667	647.401367	119.820992
11888.336170	1393.431667	646.179688	230.422318
11888.336170	1393.431667	644.957031	54.669716
11888.336170	1393.431667	643.734375	279.204803
11888.336170	1393.431667	642.511719	-70.924980
11888.336170	1393.431667	641.289063	61.836178
11888.336170	1393.431667	640.065430	20.206100
11888.336170	1393.431667	638.841797	166.226913
11888.336170	1393.431667	637.618164	184.834305
11888.336170	1393.431667	636.393555	114.070282
11888.336170	1393.431667	635.168945	161.636719
11888.336170	1393.431667	633.944336	300.671967
11888.336170	1393.431667	632.719727	156.180588
11888.336170	1393.431667	631.494141	181.293869
11888.336170	1393.431667	630.269531	25.669161
11888.336170	1393.431667	629.042969	57.422569
11888.336170	1393.431667	627.817383	160.488663
11888.336170	1393.431667	626.590820	24.930048
11888.336170	1393.431667	625.365234	107.834480
11888.336170	1393.431667	624.137695	172.839767
11888.336170	1393.431667	622.911133	68.460876
11888.336170	1393.431667	621.683594	44.282703
11888.336170	1393.431667	620.456055	-20.002726
11888.336170	1393.431667	619.228516	40.395359
11888.336170	1393.431667	618.000977	58.441563
11888.336170	1393.431667	616.772461	169.922729
11888.336170	1393.431667	615.543945	178.969482
11888.336170	1393.431667	614.314453	125.688965
11888.336170	1393.431667	613.085938	225.873566
11888.336170	1393.431667	611.856445	174.769974
11888.336170	1393.431667	610.626953	203.695953
11888.336170	1393.431667	609.397461	134.777786
11888.336170	1393.431667	608.166992	8.077118
11888.336170	1393.431667	606.936523	30.265785
11888.336170	1393.431667	605.706055	-14.224728
11888.336170	1393.431667	604.474609	25.667665
11888.336170	1393.431667	603.244141	-21.078672
11888.336170	1393.431667	602.012695	-176.612854
11888.336170	1393.431667	600.780273	-67.992188
11888.336170	1393.431667	599.548828	25.025490
11888.336170	1393.431667	598.316406	60.292923
11888.336170	1393.431667	597.083984	64.466080
11888.336170	1393.431667	595.851563	93.005783
11888.336170	1393.431667	594.618164	77.162498
11888.336170	1393.431667	593.384766	125.584457
11888.336170	1393.431667	592.151367	-3.332925
11888.336170	1393.431667	590.917969	-14.787484
11888.336170	1393.431667	589.683594	46.839855
11888.336170	1393.431667	588.449219	-55.475437
11888.336170	1393.431667	587.214844	50.374001
11888.336170	1393.431667	585.979492	-27.594349
11888.336170	1393.431667	584.745117	102.506241
11888.336170	1393.431667	583.509766	-17.528461
11888.336170	1393.431667	582.273438	17.332703
11888.336170	1393.431667	581.038086	-226.542465
11888.336170	1393.431667	579.801758	-41.313354
11888.336170	1393.431667	578.565430	8.946363
11888.336170	1393.431667	577.329102	-0.518204
11888.336170	1393.431667	576.091797	-107.243355
11888.336170	1393.431667	574.854492	-34.965294
11888.336170	1393.431667	573.617188	19.591370
11888.336170	1393.431667	572.378906	45.391785
11888.336170	1393.431667	571.141602	-74.571480
11888.336170	1393.431667	569.903320	10.812032
11888.336170	1393.431667	568.664063	25.509111
11888.336170	1393.431667	567.425781	62.255085
11888.336170	1393.431667	566.186523	-97.391403
11888.336170	1393.431667	564.947266	-98.166412
11888.336170	1393.431667	563.708008	28.954998
11888.336170	1393.431667	562.467773	92.063896
11888.336170	1393.431667	561.227539	0.825631
11888.336170	1393.431667	559.987305	136.618179
11888.336170	1393.431667	558.747070	85.047050
11888.336170	1393.431667	557.505859	-12.778606
11888.336170	1393.431667	556.264648	3.956970
11888.336170	1393.431667	555.023438	108.756287
11888.336170	1393.431667	553.781250	103.419868
11888.336170	1393.431667	552.539063	146.500824
11888.336170	1393.431667	551.296875	112.532921
11888.336170	1393.431667	550.054688	188.579208
11888.336170	1393.431667	548.811523	97.406029
11888.336170	1393.431667	547.569336	120.627411
11888.336170	1393.431667	546.325195	60.274132
11888.336170	1393.431667	545.082031	17.529917
11888.336170	1393.431667	543.837891	5.564562
11888.336170	1393.431667	542.593750	28.757395
11888.336170	1393.431667	541.349609	128.825775
11888.336170	1393.431667	540.105469	-56.682358
11888.336170	1393.431667	538.860352	-57.660358
11888.336170	1393.431667	537.615234	-3.754282
11888.336170	1393.431667	536.369141	-103.524460
11888.336170	1393.431667	535.124023	-36.467670
11888.336170	1393.431667	533.877930	-39.652420
11888.336170	1393.431667	532.631836	82.196625
11888.336170	1393.431667	531.384766	-6.545825
11888.336170	1393.431667	530.138672	56.044338
11888.336170	1393.431667	528.891602	116.414246
11888.336170	1393.431667	527.643555	47.447258
11888.336170	1393.431667	526.396484	107.797920
11888.336170	1393.431667	525.148438	-7.137402
11888.336170	1393.431667	523.900391	44.440983
11888.336170	1393.431667	522.652344	-107.649979
11888.336170	1393.431667	521.403320	-176.479416
11888.336170	1393.431667	520.154297	8.634174
11888.336170	1393.431667	518.905273	-33.919029
11888.336170	1393.431667	517.656250	-126.769867
11888.336170	1393.431667	516.406250	-27.081215
11888.336170	1393.431667	515.156250	-139.565659
11888.336170	1393.431667	513.906250	38.812469
11888.336170	1393.431667	512.655273	-49.577988
11888.336170	1393.431667	511.404297	17.253481
11888.336170	1393.431667	510.153320	-18.634069
11888.336170	1393.431667	508.902344	26.335497
11888.336170	1393.431667	507.650391	-114.362015
11888.336170	1393.431667	506.398438	-106.496918
11888.336170	1393.431667	505.146484	104.416069
11888.336170	1393.431667	503.893555	-40.542759
11888.336170	1393.431667	502.641602	19.710899
11888.336170	1393.431667	501.388672	21.038868
11888.336170	1393.431667	500.134766	-36.520847
11888.336170	1393.431667	498.881836	97.878151
11888.336170	1393.431667	497.627930	64.337463
11888.336170	1393.431667	496.374023	-54.192215
11888.336170	1393.431667	495.119141	27.851332
11888.336170	1393.431667	493.865234	33.611702
11888.336170	1393.431667	492.610352	148.308701
11888.336170	1393.431667	491.355469	60.410492
11888.336170	1393.431667	490.099609	129.349884
11888.336170	1393.431667	488.843750	61.115463
11888.336170	1393.431667	487.587891	108.289490
11888.336170	1393.431667	486.332031	225.097260
11888.336170	1393.431667	485.075195	15.509641
11888.336170	1393.431667	483.818359	51.832001
11888.336170	1393.431667	482.561523	16.387224
11888.336170	1393.431667	481.304688	-23.373890
11888.336170	1393.431667	480.046875	15.154272
11888.336170	1393.431667	478.789063	121.057198
11888.336170	1393.431667	477.531250	-18.607456
11888.336170	1393.431667	476.272461	56.873810
11888.336170	1393.431667	475.013672	-15.354551
11888.336170	1393.431667	473.754883	-22.390234
11888.336170	1393.431667	472.496094	22.698828
11888.336170	1393.431667	471.236328	-103.691788
11888.336170	1393.431667	469.976563	39.080254
11888.336170	1393.431667	468.716797	34.273098
11888.336170	1393.431667	467.456055	-87.653755
11888.336170	1393.431667	466.196289	16.035416
11888.336170	1393.431667	464.935547	-55.933617
11888.336170	1393.431667	463.673828	19.549257
11888.336170	1393.431667	462.413086	32.165882
11888.336170	1393.431667	461.151367	81.625389
11888.336170	1393.431667	459.889648	59.588787
11888.336170	1393.431667	458.626953	15.914346
11888.336170	1393.431667	457.364258	147.671173
11888.336170	1393.431667	456.101563	119.178596
11888.336170	1393.431667	454.838867	-54.309509
11888.336170	1393.431667	453.575195	120.693436
11888.336170	1393.431667	452.312500	79.280388
11888.336170	1393.431667	451.047852	42.217373
11888.336170	1393.431667	449.784180	-7.792279
11888.336170	1393.431667	448.519531	71.955032
11888.336170	1393.431667	447.254883	119.252113
11888.336170	1393.431667	445.990234	60.636692
11888.336170	1393.431667	444.725586	103.609367
11888.336170	1393.431667	443.459961	23.431326
11888.336170	1393.431667	442.194336	77.200813
11888.336170	1393.431667	440.927734	221.641342
11888.336170	1393.431667	439.662109	85.371597
11888.336170	1393.431667	438.395508	128.307800
11888.336170	1393.431667	437.127930	33.116245
11888.336170	1393.431667	435.861328	175.289474
11888.336170	1393.431667	434.593750	11.102426
11888.336170	1393.431667	433.326172	168.307220
11888.336170	1393.431667	432.058594	51.618774
11888.336170	1393.431667	430.790039	53.530632
11888.336170	1393.431667	429.521484	94.226395
11888.336170	1393.431667	428.252930	134.895386
11888.336170	1393.431667	426.984375	216.466110
11888.336170	1393.431667	425.714844	201.068085
11888.336170	1393.431667	424.445313	217.961807
11888.336170	1393.431667	423.174805	426.428040
11888.336170	1393.431667	421.905273	217.236038
11888.336170	1393.431667	420.634766	427.726318
11888.336170	1393.431667	419.364258	472.444824
11888.336170	1393.431667	418.092773	381.608429
11888.336170	1393.431667	416.822266	323.044342
11888.336170	1393.431667	415.550781	232.224060
11888.336170	1393.431667	414.278320	401.502502
11888.336170	1393.431667	413.006836	338.576965
11888.336170	1393.431667	411.734375	209.033203
11888.336170	1393.431667	410.461914	326.542236
11888.336170	1393.431667	409.188477	278.585327
11888.336170	1393.431667	407.916016	290.728790
11888.336170	1393.431667	406.642578	317.843933
11888.336170	1393.431667	405.368164	269.773956
11888.336170	1393.431667	404.094727	328.964905
11888.336170	1393.431667	402.820313	336.582092
11888.336170	1393.431667	401.545898	224.023148
11888.336170	1393.431667	400.270508	308.731842
11888.336170	1393.431667	398.996094	5.286077
11888.336170	1393.431667	397.720703	156.315750
11888.336170	1393.431667	396.444336	155.048996
11888.336170	1393.431667	395.168945	160.135025
11888.336170	1393.431667	393.892578	135.144989
11888.336170	1393.431667	392.616211	-46.258224
11888.336170	1393.431667	391.339844	-13.557675
11888.336170	1393.431667	390.062500	136.768707
11888.336170	1393.431667	388.785156	-57.644180
11888.336170	1393.431667	387.507813	-106.572670
11888.336170	1393.431667	386.229492	39.084297
11888.336170	1393.431667	384.951172	54.097256
11888.336170	1393.431667	383.672852	-42.207962
11888.336170	1393.431667	382.394531	19.610580
11888.336170	1393.431667	381.115234	87.683380
11888.336170	1393.431667	379.835938	-139.307068
11888.336170	1393.431667	378.556641	71.645721
11888.336170	1393.431667	377.277344	237.507126
11888.336170	1393.431667	375.997070	134.060974
11888.336170	1393.431667	374.716797	160.746994
11888.336170	1393.431667	373.435547	163.775269
11888.336170	1393.431667	372.155273	128.225189
11888.336170	1393.431667	370.874023	39.170250
11888.336170	1393.431667	369.591797	150.495499
11888.336170	1393.431667	368.310547	159.218155
11888.336170	1393.431667	367.028320	118.696640
11888.336170	1393.431667	365.746094	101.444221
11888.336170	1393.431667	364.463867	98.913139
11888.336170	1393.431667	363.180664	15.189609
11888.336170	1393.431667	361.897461	-26.108116
11888.336170	1393.431667	360.614258	11.194385
11888.336170	1393.431667	359.330078	90.829796
11888.336170	1393.431667	358.045898	-38.461071
11888.336170	1393.431667	356.761719	-8.300672
11888.336170	1393.431667	355.477539	-25.231544
11888.336170	1393.431667	354.192383	-50.939426
11888.336170	1393.431667	352.907227	10.303847
11888.336170	1393.431667	351.622070	103.137352
11888.336170	1393.431667	350.336914	125.470490
11888.336170	1393.431667	349.050781	26.312243
11888.336170	1393.431667	347.764648	22.527115
11888.336170	1393.431667	346.477539	20.539242
11888.336170	1393.431667	345.191406	67.093201
11888.336170	1393.431667	343.904297	45.311356
11888.336170	1393.431667	342.616211	16.808744
11888.336170	1393.431667	341.329102	-41.754082
11888.336170	1393.431667	340.041016	-70.955643
11888.336170	1393.431667	338.752930	28.923912
11888.336170	1393.431667	337.463867	60.464603
11888.336170	1393.431667	336.175781	40.690727
11888.336170	1393.431667	334.886719	-26.155628
11888.336170	1393.431667	333.596680	69.850983
11888.336170	1393.431667	332.307617	-82.627228
11888.336170	1393.431667	331.017578	-36.281879
11888.336170	1393.431667	329.727539	-49.746544
11888.336170	1393.431667	328.436523	-38.271194
11888.336170	1393.431667	327.146484	125.218369
11888.336170	1393.431667	325.855469	-10.441913
11888.336170	1393.431667	324.563477	-55.536861
11888.336170	1393.431667	323.272461	-99.007355
11888.336170	1393.431667	321.980469	-54.136673
11888.336170	1393.431667	320.688477	-130.430084
11888.336170	1393.431667	319.395508	-48.634689
11888.336170	1393.431667	318.103516	85.426155
11888.336170	1393.431667	316.810547	22.190922
11888.336170	1393.431667	315.516602	95.751740
11888.336170	1393.431667	314.223633	-4.623030
11888.336170	1393.431667	312.929688	107.786720
11888.336170	1393.431667	311.635742	23.035019
11888.336170	1393.431667	310.340820	34.777851
11888.336170	1393.431667	309.045898	5.705867
11888.336170	1393.431667	307.750977	83.601837
11888.336170	1393.431667	306.456055	46.769264
11888.336170	1393.431667	305.160156	15.521522
11888.336170	1393.431667	303.865234	-98.725517
11888.336170	1393.431667	302.568359	37.249161
11888.336170	1393.431667	301.272461	52.194748
11888.336170	1393.431667	299.975586	123.220711
11888.336170	1393.431667	298.678711	35.298965
