#X		#Y		#Wave		#Intensity
11697.937766	1474.226667	1999.980469	-39.110653
11697.937766	1474.226667	1999.016602	-0.839085
11697.937766	1474.226667	1998.052734	-84.641396
11697.937766	1474.226667	1997.087891	2.489313
11697.937766	1474.226667	1996.123047	-17.040155
11697.937766	1474.226667	1995.158203	-34.170143
11697.937766	1474.226667	1994.193359	15.495870
11697.937766	1474.226667	1993.228516	10.584590
11697.937766	1474.226667	1992.262695	15.500717
11697.937766	1474.226667	1991.297852	42.617435
11697.937766	1474.226667	1990.332031	52.326317
11697.937766	1474.226667	1989.366211	29.792736
11697.937766	1474.226667	1988.399414	51.730022
11697.937766	1474.226667	1987.433594	-30.296085
11697.937766	1474.226667	1986.466797	11.296898
11697.937766	1474.226667	1985.500977	23.140322
11697.937766	1474.226667	1984.534180	-29.357740
11697.937766	1474.226667	1983.567383	-79.423340
11697.937766	1474.226667	1982.599609	68.171623
11697.937766	1474.226667	1981.632813	57.526836
11697.937766	1474.226667	1980.665039	69.065620
11697.937766	1474.226667	1979.697266	13.862304
11697.937766	1474.226667	1978.729492	-122.860825
11697.937766	1474.226667	1977.761719	34.224186
11697.937766	1474.226667	1976.792969	6.067318
11697.937766	1474.226667	1975.825195	27.237648
11697.937766	1474.226667	1974.856445	68.097382
11697.937766	1474.226667	1973.887695	-31.725119
11697.937766	1474.226667	1972.918945	26.316195
11697.937766	1474.226667	1971.949219	27.574482
11697.937766	1474.226667	1970.980469	-18.052568
11697.937766	1474.226667	1970.010742	-58.768017
11697.937766	1474.226667	1969.041016	-57.599957
11697.937766	1474.226667	1968.071289	-4.712719
11697.937766	1474.226667	1967.101563	62.907310
11697.937766	1474.226667	1966.130859	-17.335083
11697.937766	1474.226667	1965.161133	74.834686
11697.937766	1474.226667	1964.190430	176.792343
11697.937766	1474.226667	1963.219727	39.865009
11697.937766	1474.226667	1962.249023	50.661617
11697.937766	1474.226667	1961.277344	61.429928
11697.937766	1474.226667	1960.306641	59.869686
11697.937766	1474.226667	1959.334961	36.145775
11697.937766	1474.226667	1958.363281	-54.003075
11697.937766	1474.226667	1957.391602	89.499687
11697.937766	1474.226667	1956.419922	-30.168339
11697.937766	1474.226667	1955.447266	39.488865
11697.937766	1474.226667	1954.474609	57.487343
11697.937766	1474.226667	1953.501953	36.144749
11697.937766	1474.226667	1952.529297	49.195213
11697.937766	1474.226667	1951.556641	5.726608
11697.937766	1474.226667	1950.583984	-13.176163
11697.937766	1474.226667	1949.610352	-103.298309
11697.937766	1474.226667	1948.636719	52.124924
11697.937766	1474.226667	1947.663086	119.110008
11697.937766	1474.226667	1946.689453	6.897522
11697.937766	1474.226667	1945.715820	29.681143
11697.937766	1474.226667	1944.741211	133.410370
11697.937766	1474.226667	1943.767578	21.237825
11697.937766	1474.226667	1942.792969	100.394211
11697.937766	1474.226667	1941.818359	-82.849983
11697.937766	1474.226667	1940.842773	-38.035103
11697.937766	1474.226667	1939.868164	19.016582
11697.937766	1474.226667	1938.892578	22.129145
11697.937766	1474.226667	1937.916992	39.939960
11697.937766	1474.226667	1936.941406	60.192566
11697.937766	1474.226667	1935.965820	19.204926
11697.937766	1474.226667	1934.990234	169.241043
11697.937766	1474.226667	1934.013672	103.763817
11697.937766	1474.226667	1933.037109	16.280668
11697.937766	1474.226667	1932.060547	34.072620
11697.937766	1474.226667	1931.083984	42.071804
11697.937766	1474.226667	1930.107422	-15.986442
11697.937766	1474.226667	1929.129883	-74.021111
11697.937766	1474.226667	1928.153320	29.382574
11697.937766	1474.226667	1927.175781	-33.522064
11697.937766	1474.226667	1926.198242	-49.949444
11697.937766	1474.226667	1925.219727	28.959459
11697.937766	1474.226667	1924.242188	66.300240
11697.937766	1474.226667	1923.263672	113.404556
11697.937766	1474.226667	1922.285156	43.237831
11697.937766	1474.226667	1921.306641	-87.957664
11697.937766	1474.226667	1920.328125	-114.092514
11697.937766	1474.226667	1919.349609	-13.251138
11697.937766	1474.226667	1918.370117	72.911995
11697.937766	1474.226667	1917.391602	98.035500
11697.937766	1474.226667	1916.412109	6.027914
11697.937766	1474.226667	1915.431641	-34.704731
11697.937766	1474.226667	1914.452148	-33.945793
11697.937766	1474.226667	1913.472656	118.026665
11697.937766	1474.226667	1912.492188	79.758606
11697.937766	1474.226667	1911.511719	17.134390
11697.937766	1474.226667	1910.531250	-43.020363
11697.937766	1474.226667	1909.550781	1.646307
11697.937766	1474.226667	1908.569336	-38.973965
11697.937766	1474.226667	1907.588867	47.106728
11697.937766	1474.226667	1906.607422	35.738636
11697.937766	1474.226667	1905.625977	65.782089
11697.937766	1474.226667	1904.644531	49.564335
11697.937766	1474.226667	1903.662109	-0.718317
11697.937766	1474.226667	1902.680664	-33.935047
11697.937766	1474.226667	1901.698242	-59.830528
11697.937766	1474.226667	1900.715820	-73.542091
11697.937766	1474.226667	1899.733398	-31.292850
11697.937766	1474.226667	1898.750000	15.813470
11697.937766	1474.226667	1897.767578	11.851137
11697.937766	1474.226667	1896.784180	7.899262
11697.937766	1474.226667	1895.800781	74.446625
11697.937766	1474.226667	1894.817383	-55.863949
11697.937766	1474.226667	1893.833984	3.401114
11697.937766	1474.226667	1892.850586	84.517433
11697.937766	1474.226667	1891.866211	41.743580
11697.937766	1474.226667	1890.881836	66.989151
11697.937766	1474.226667	1889.897461	-14.591854
11697.937766	1474.226667	1888.913086	-62.148411
11697.937766	1474.226667	1887.927734	4.389590
11697.937766	1474.226667	1886.943359	2.970367
11697.937766	1474.226667	1885.958008	-10.569510
11697.937766	1474.226667	1884.972656	89.908928
11697.937766	1474.226667	1883.987305	13.322346
11697.937766	1474.226667	1883.001953	9.514878
11697.937766	1474.226667	1882.015625	44.505630
11697.937766	1474.226667	1881.029297	-29.578695
11697.937766	1474.226667	1880.042969	-62.429138
11697.937766	1474.226667	1879.056641	120.378738
11697.937766	1474.226667	1878.070313	-21.479645
11697.937766	1474.226667	1877.083984	-54.286903
11697.937766	1474.226667	1876.096680	63.060810
11697.937766	1474.226667	1875.109375	18.160803
11697.937766	1474.226667	1874.122070	101.579086
11697.937766	1474.226667	1873.134766	-42.521893
11697.937766	1474.226667	1872.146484	-0.243359
11697.937766	1474.226667	1871.159180	146.055862
11697.937766	1474.226667	1870.170898	28.657389
11697.937766	1474.226667	1869.182617	-40.322769
11697.937766	1474.226667	1868.194336	-58.493671
11697.937766	1474.226667	1867.205078	-6.545389
11697.937766	1474.226667	1866.216797	6.719312
11697.937766	1474.226667	1865.227539	10.318903
11697.937766	1474.226667	1864.238281	21.171843
11697.937766	1474.226667	1863.249023	41.689804
11697.937766	1474.226667	1862.259766	117.755394
11697.937766	1474.226667	1861.269531	56.158062
11697.937766	1474.226667	1860.279297	88.746635
11697.937766	1474.226667	1859.290039	-127.294373
11697.937766	1474.226667	1858.298828	-65.712921
11697.937766	1474.226667	1857.308594	82.716301
11697.937766	1474.226667	1856.318359	38.097683
11697.937766	1474.226667	1855.327148	-13.736119
11697.937766	1474.226667	1854.335938	105.674530
11697.937766	1474.226667	1853.344727	34.567680
11697.937766	1474.226667	1852.353516	50.274902
11697.937766	1474.226667	1851.362305	-49.709160
11697.937766	1474.226667	1850.370117	6.980646
11697.937766	1474.226667	1849.377930	82.926956
11697.937766	1474.226667	1848.385742	50.450104
11697.937766	1474.226667	1847.393555	-20.545612
11697.937766	1474.226667	1846.401367	19.252813
11697.937766	1474.226667	1845.408203	47.000820
11697.937766	1474.226667	1844.415039	-23.947248
11697.937766	1474.226667	1843.421875	18.242113
11697.937766	1474.226667	1842.428711	17.107241
11697.937766	1474.226667	1841.435547	97.767281
11697.937766	1474.226667	1840.441406	48.515862
11697.937766	1474.226667	1839.448242	69.022820
11697.937766	1474.226667	1838.454102	103.948158
11697.937766	1474.226667	1837.459961	-14.985866
11697.937766	1474.226667	1836.464844	-32.932159
11697.937766	1474.226667	1835.470703	50.052784
11697.937766	1474.226667	1834.475586	20.088209
11697.937766	1474.226667	1833.480469	69.402214
11697.937766	1474.226667	1832.485352	10.625181
11697.937766	1474.226667	1831.490234	16.700464
11697.937766	1474.226667	1830.495117	-22.840925
11697.937766	1474.226667	1829.499023	-57.568638
11697.937766	1474.226667	1828.502930	92.498360
11697.937766	1474.226667	1827.506836	79.352501
11697.937766	1474.226667	1826.510742	63.810448
11697.937766	1474.226667	1825.513672	-14.087350
11697.937766	1474.226667	1824.517578	3.961027
11697.937766	1474.226667	1823.520508	38.781841
11697.937766	1474.226667	1822.523438	30.439394
11697.937766	1474.226667	1821.526367	17.303562
11697.937766	1474.226667	1820.529297	-26.981112
11697.937766	1474.226667	1819.531250	12.596765
11697.937766	1474.226667	1818.533203	-2.935364
11697.937766	1474.226667	1817.535156	-6.491790
11697.937766	1474.226667	1816.537109	49.807873
11697.937766	1474.226667	1815.539063	36.658222
11697.937766	1474.226667	1814.540039	-72.230392
11697.937766	1474.226667	1813.541992	34.288269
11697.937766	1474.226667	1812.542969	18.740368
11697.937766	1474.226667	1811.543945	-32.688660
11697.937766	1474.226667	1810.543945	-79.321198
11697.937766	1474.226667	1809.544922	72.527390
11697.937766	1474.226667	1808.544922	-7.590180
11697.937766	1474.226667	1807.544922	19.879240
11697.937766	1474.226667	1806.544922	68.840225
11697.937766	1474.226667	1805.544922	26.978838
11697.937766	1474.226667	1804.544922	35.293900
11697.937766	1474.226667	1803.543945	60.317253
11697.937766	1474.226667	1802.542969	-29.301731
11697.937766	1474.226667	1801.541992	24.360090
11697.937766	1474.226667	1800.541016	18.315456
11697.937766	1474.226667	1799.539063	112.504875
11697.937766	1474.226667	1798.538086	87.339706
11697.937766	1474.226667	1797.536133	71.717751
11697.937766	1474.226667	1796.534180	15.542610
11697.937766	1474.226667	1795.532227	126.320679
11697.937766	1474.226667	1794.529297	-3.779285
11697.937766	1474.226667	1793.527344	2.047470
11697.937766	1474.226667	1792.524414	38.847618
11697.937766	1474.226667	1791.521484	4.132219
11697.937766	1474.226667	1790.518555	26.602758
11697.937766	1474.226667	1789.514648	77.640114
11697.937766	1474.226667	1788.511719	0.035965
11697.937766	1474.226667	1787.507813	8.175524
11697.937766	1474.226667	1786.503906	-2.744786
11697.937766	1474.226667	1785.500000	57.738739
11697.937766	1474.226667	1784.496094	37.271698
11697.937766	1474.226667	1783.491211	12.041811
11697.937766	1474.226667	1782.486328	20.116152
11697.937766	1474.226667	1781.481445	139.967957
11697.937766	1474.226667	1780.476563	17.196463
11697.937766	1474.226667	1779.471680	25.230705
11697.937766	1474.226667	1778.465820	11.854323
11697.937766	1474.226667	1777.460938	81.658318
11697.937766	1474.226667	1776.455078	87.262573
11697.937766	1474.226667	1775.449219	95.228157
11697.937766	1474.226667	1774.442383	1.035452
11697.937766	1474.226667	1773.436523	68.363441
11697.937766	1474.226667	1772.429688	38.297764
11697.937766	1474.226667	1771.422852	27.223021
11697.937766	1474.226667	1770.416016	-47.947567
11697.937766	1474.226667	1769.409180	85.734131
11697.937766	1474.226667	1768.402344	22.418392
11697.937766	1474.226667	1767.394531	42.140705
11697.937766	1474.226667	1766.386719	28.637325
11697.937766	1474.226667	1765.378906	29.353460
11697.937766	1474.226667	1764.371094	30.055618
11697.937766	1474.226667	1763.362305	-42.740528
11697.937766	1474.226667	1762.354492	-53.902313
11697.937766	1474.226667	1761.345703	-79.292091
11697.937766	1474.226667	1760.336914	-24.137150
11697.937766	1474.226667	1759.328125	-92.186340
11697.937766	1474.226667	1758.318359	29.229767
11697.937766	1474.226667	1757.308594	-19.891447
11697.937766	1474.226667	1756.299805	113.273628
11697.937766	1474.226667	1755.290039	19.156437
11697.937766	1474.226667	1754.279297	-6.315390
11697.937766	1474.226667	1753.269531	62.846306
11697.937766	1474.226667	1752.258789	51.539452
11697.937766	1474.226667	1751.249023	-4.712093
11697.937766	1474.226667	1750.238281	-1.843694
11697.937766	1474.226667	1749.226563	-20.269749
11697.937766	1474.226667	1748.215820	55.844730
11697.937766	1474.226667	1747.204102	91.739105
11697.937766	1474.226667	1746.193359	127.606346
11697.937766	1474.226667	1745.181641	165.805618
11697.937766	1474.226667	1744.168945	62.261433
11697.937766	1474.226667	1743.157227	22.501545
11697.937766	1474.226667	1742.144531	39.403629
11697.937766	1474.226667	1741.132813	-12.169770
11697.937766	1474.226667	1740.120117	-84.980682
11697.937766	1474.226667	1739.106445	14.472064
11697.937766	1474.226667	1738.093750	76.126297
11697.937766	1474.226667	1737.080078	-25.011524
11697.937766	1474.226667	1736.067383	-1.136317
11697.937766	1474.226667	1735.053711	10.923848
11697.937766	1474.226667	1734.040039	-52.471687
11697.937766	1474.226667	1733.025391	-82.862732
11697.937766	1474.226667	1732.011719	4.567400
11697.937766	1474.226667	1730.997070	11.842587
11697.937766	1474.226667	1729.982422	4.966285
11697.937766	1474.226667	1728.967773	-81.996788
11697.937766	1474.226667	1727.952148	21.784830
11697.937766	1474.226667	1726.937500	12.510316
11697.937766	1474.226667	1725.921875	-6.192573
11697.937766	1474.226667	1724.906250	-36.669907
11697.937766	1474.226667	1723.890625	-34.210957
11697.937766	1474.226667	1722.875000	-67.054214
11697.937766	1474.226667	1721.858398	22.400524
11697.937766	1474.226667	1720.841797	-36.339710
11697.937766	1474.226667	1719.825195	36.587185
11697.937766	1474.226667	1718.808594	-62.123913
11697.937766	1474.226667	1717.791992	22.500673
11697.937766	1474.226667	1716.774414	-94.999687
11697.937766	1474.226667	1715.756836	57.696320
11697.937766	1474.226667	1714.739258	1.273571
11697.937766	1474.226667	1713.721680	69.321487
11697.937766	1474.226667	1712.704102	-64.592735
11697.937766	1474.226667	1711.685547	45.664948
11697.937766	1474.226667	1710.667969	-97.611084
11697.937766	1474.226667	1709.649414	-43.736332
11697.937766	1474.226667	1708.630859	73.448280
11697.937766	1474.226667	1707.611328	40.448826
11697.937766	1474.226667	1706.592773	37.937237
11697.937766	1474.226667	1705.573242	-67.759506
11697.937766	1474.226667	1704.553711	4.738699
11697.937766	1474.226667	1703.534180	-51.718456
11697.937766	1474.226667	1702.513672	-28.493116
11697.937766	1474.226667	1701.494141	8.768681
11697.937766	1474.226667	1700.473633	85.823494
11697.937766	1474.226667	1699.453125	55.099586
11697.937766	1474.226667	1698.432617	73.547508
11697.937766	1474.226667	1697.412109	52.174923
11697.937766	1474.226667	1696.390625	-16.019283
11697.937766	1474.226667	1695.369141	11.750387
11697.937766	1474.226667	1694.347656	-4.960529
11697.937766	1474.226667	1693.326172	39.145447
11697.937766	1474.226667	1692.304688	13.053543
11697.937766	1474.226667	1691.282227	94.526505
11697.937766	1474.226667	1690.260742	-60.183212
11697.937766	1474.226667	1689.238281	21.247118
11697.937766	1474.226667	1688.214844	-63.304966
11697.937766	1474.226667	1687.192383	-101.101105
11697.937766	1474.226667	1686.168945	113.415512
11697.937766	1474.226667	1685.146484	-48.221302
11697.937766	1474.226667	1684.123047	40.070366
11697.937766	1474.226667	1683.099609	-18.781485
11697.937766	1474.226667	1682.075195	-79.959251
11697.937766	1474.226667	1681.051758	47.929626
11697.937766	1474.226667	1680.027344	28.743107
11697.937766	1474.226667	1679.002930	84.210991
11697.937766	1474.226667	1677.978516	-39.966610
11697.937766	1474.226667	1676.953125	-7.853486
11697.937766	1474.226667	1675.928711	10.248207
11697.937766	1474.226667	1674.903320	9.679497
11697.937766	1474.226667	1673.877930	74.363609
11697.937766	1474.226667	1672.852539	59.779213
11697.937766	1474.226667	1671.826172	52.177689
11697.937766	1474.226667	1670.800781	18.946421
11697.937766	1474.226667	1669.774414	-39.903473
11697.937766	1474.226667	1668.748047	94.531998
11697.937766	1474.226667	1667.721680	49.639233
11697.937766	1474.226667	1666.694336	65.271866
11697.937766	1474.226667	1665.667969	50.636955
11697.937766	1474.226667	1664.640625	-26.826958
11697.937766	1474.226667	1663.613281	-1.911149
11697.937766	1474.226667	1662.585938	-25.857872
11697.937766	1474.226667	1661.557617	-10.273487
11697.937766	1474.226667	1660.530273	49.473228
11697.937766	1474.226667	1659.501953	-65.154602
11697.937766	1474.226667	1658.473633	80.552284
11697.937766	1474.226667	1657.444336	-24.761272
11697.937766	1474.226667	1656.416016	25.614380
11697.937766	1474.226667	1655.386719	50.410378
11697.937766	1474.226667	1654.358398	-38.600849
11697.937766	1474.226667	1653.328125	18.686672
11697.937766	1474.226667	1652.298828	-9.944468
11697.937766	1474.226667	1651.269531	-8.399242
11697.937766	1474.226667	1650.239258	37.225945
11697.937766	1474.226667	1649.208984	87.466843
11697.937766	1474.226667	1648.178711	33.299969
11697.937766	1474.226667	1647.148438	27.850033
11697.937766	1474.226667	1646.117188	52.536972
11697.937766	1474.226667	1645.086914	-29.428936
11697.937766	1474.226667	1644.055664	122.727531
11697.937766	1474.226667	1643.024414	101.017998
11697.937766	1474.226667	1641.992188	86.259834
11697.937766	1474.226667	1640.960938	99.302292
11697.937766	1474.226667	1639.928711	98.436417
11697.937766	1474.226667	1638.896484	134.615265
11697.937766	1474.226667	1637.864258	20.293381
11697.937766	1474.226667	1636.832031	26.374050
11697.937766	1474.226667	1635.798828	-23.094881
11697.937766	1474.226667	1634.766602	262.949982
11697.937766	1474.226667	1633.733398	150.987137
11697.937766	1474.226667	1632.699219	120.012672
11697.937766	1474.226667	1631.666016	146.859756
11697.937766	1474.226667	1630.632813	83.526657
11697.937766	1474.226667	1629.598633	184.331009
11697.937766	1474.226667	1628.564453	93.274696
11697.937766	1474.226667	1627.530273	200.965118
11697.937766	1474.226667	1626.495117	181.549469
11697.937766	1474.226667	1625.460938	99.779404
11697.937766	1474.226667	1624.425781	103.480125
11697.937766	1474.226667	1623.390625	199.531204
11697.937766	1474.226667	1622.355469	235.525909
11697.937766	1474.226667	1621.319336	202.265228
11697.937766	1474.226667	1620.284180	178.248856
11697.937766	1474.226667	1619.248047	198.072510
11697.937766	1474.226667	1618.211914	178.676086
11697.937766	1474.226667	1617.174805	256.142578
11697.937766	1474.226667	1616.138672	202.156998
11697.937766	1474.226667	1615.101563	203.515976
11697.937766	1474.226667	1614.065430	287.850037
11697.937766	1474.226667	1613.027344	215.451523
11697.937766	1474.226667	1611.990234	265.191132
11697.937766	1474.226667	1610.953125	271.146973
11697.937766	1474.226667	1609.915039	286.311554
11697.937766	1474.226667	1608.876953	430.414246
11697.937766	1474.226667	1607.838867	484.680878
11697.937766	1474.226667	1606.800781	260.428802
11697.937766	1474.226667	1605.761719	330.817474
11697.937766	1474.226667	1604.723633	348.266449
11697.937766	1474.226667	1603.684570	326.603638
11697.937766	1474.226667	1602.644531	392.344238
11697.937766	1474.226667	1601.605469	304.004395
11697.937766	1474.226667	1600.566406	220.300476
11697.937766	1474.226667	1599.526367	304.421478
11697.937766	1474.226667	1598.486328	161.005264
11697.937766	1474.226667	1597.446289	137.125046
11697.937766	1474.226667	1596.405273	271.760101
11697.937766	1474.226667	1595.365234	96.292839
11697.937766	1474.226667	1594.324219	221.707504
11697.937766	1474.226667	1593.283203	200.145599
11697.937766	1474.226667	1592.242188	217.618332
11697.937766	1474.226667	1591.200195	274.101105
11697.937766	1474.226667	1590.159180	236.496002
11697.937766	1474.226667	1589.117188	127.794212
11697.937766	1474.226667	1588.075195	257.673065
11697.937766	1474.226667	1587.032227	204.054550
11697.937766	1474.226667	1585.990234	244.465454
11697.937766	1474.226667	1584.947266	140.454376
11697.937766	1474.226667	1583.904297	125.870491
11697.937766	1474.226667	1582.861328	72.346336
11697.937766	1474.226667	1581.818359	172.339874
11697.937766	1474.226667	1580.775391	228.783203
11697.937766	1474.226667	1579.731445	278.340057
11697.937766	1474.226667	1578.687500	163.038269
11697.937766	1474.226667	1577.643555	132.486221
11697.937766	1474.226667	1576.598633	170.611572
11697.937766	1474.226667	1575.554688	243.055450
11697.937766	1474.226667	1574.509766	70.688614
11697.937766	1474.226667	1573.464844	143.138977
11697.937766	1474.226667	1572.419922	227.004150
11697.937766	1474.226667	1571.374023	223.960632
11697.937766	1474.226667	1570.329102	223.215836
11697.937766	1474.226667	1569.283203	135.629639
11697.937766	1474.226667	1568.237305	240.032288
11697.937766	1474.226667	1567.191406	257.589020
11697.937766	1474.226667	1566.144531	323.114563
11697.937766	1474.226667	1565.098633	292.710999
11697.937766	1474.226667	1564.051758	285.160675
11697.937766	1474.226667	1563.004883	243.381638
11697.937766	1474.226667	1561.957031	279.228729
11697.937766	1474.226667	1560.910156	235.208008
11697.937766	1474.226667	1559.862305	118.206841
11697.937766	1474.226667	1558.814453	165.496780
11697.937766	1474.226667	1557.766602	221.902496
11697.937766	1474.226667	1556.718750	228.135086
11697.937766	1474.226667	1555.669922	364.317230
11697.937766	1474.226667	1554.621094	391.055145
11697.937766	1474.226667	1553.573242	310.694244
11697.937766	1474.226667	1552.523438	323.785675
11697.937766	1474.226667	1551.474609	304.996399
11697.937766	1474.226667	1550.424805	306.722565
11697.937766	1474.226667	1549.375000	313.015411
11697.937766	1474.226667	1548.325195	314.766205
11697.937766	1474.226667	1547.275391	266.456085
11697.937766	1474.226667	1546.225586	240.935043
11697.937766	1474.226667	1545.174805	288.242645
11697.937766	1474.226667	1544.124023	396.963715
11697.937766	1474.226667	1543.073242	542.045166
11697.937766	1474.226667	1542.022461	461.972809
11697.937766	1474.226667	1540.970703	616.105286
11697.937766	1474.226667	1539.919922	706.550903
11697.937766	1474.226667	1538.868164	833.334534
11697.937766	1474.226667	1537.815430	932.816223
11697.937766	1474.226667	1536.763672	998.202332
11697.937766	1474.226667	1535.710938	877.340515
11697.937766	1474.226667	1534.659180	931.389221
11697.937766	1474.226667	1533.606445	765.214294
11697.937766	1474.226667	1532.552734	746.657715
11697.937766	1474.226667	1531.500000	818.901184
11697.937766	1474.226667	1530.446289	677.851685
11697.937766	1474.226667	1529.393555	534.607910
11697.937766	1474.226667	1528.338867	611.432190
11697.937766	1474.226667	1527.285156	515.908813
11697.937766	1474.226667	1526.231445	393.234375
11697.937766	1474.226667	1525.176758	383.957947
11697.937766	1474.226667	1524.122070	352.039948
11697.937766	1474.226667	1523.067383	261.241547
11697.937766	1474.226667	1522.012695	147.842911
11697.937766	1474.226667	1520.957031	385.563293
11697.937766	1474.226667	1519.901367	251.838745
11697.937766	1474.226667	1518.845703	287.984772
11697.937766	1474.226667	1517.790039	188.321579
11697.937766	1474.226667	1516.734375	199.607574
11697.937766	1474.226667	1515.677734	156.602692
11697.937766	1474.226667	1514.621094	186.023331
11697.937766	1474.226667	1513.564453	124.980927
11697.937766	1474.226667	1512.507813	143.126709
11697.937766	1474.226667	1511.450195	-10.542271
11697.937766	1474.226667	1510.393555	163.629395
11697.937766	1474.226667	1509.335938	229.271194
11697.937766	1474.226667	1508.278320	141.259338
11697.937766	1474.226667	1507.219727	118.813118
11697.937766	1474.226667	1506.162109	53.482536
11697.937766	1474.226667	1505.103516	125.944618
11697.937766	1474.226667	1504.044922	117.119415
11697.937766	1474.226667	1502.986328	117.346375
11697.937766	1474.226667	1501.926758	228.176407
11697.937766	1474.226667	1500.868164	133.652756
11697.937766	1474.226667	1499.808594	170.029480
11697.937766	1474.226667	1498.749023	138.747314
11697.937766	1474.226667	1497.688477	130.046936
11697.937766	1474.226667	1496.628906	132.644501
11697.937766	1474.226667	1495.568359	103.701950
11697.937766	1474.226667	1494.507813	95.074478
11697.937766	1474.226667	1493.447266	156.321716
11697.937766	1474.226667	1492.386719	80.144409
11697.937766	1474.226667	1491.325195	-74.815041
11697.937766	1474.226667	1490.263672	117.100449
11697.937766	1474.226667	1489.202148	59.049145
11697.937766	1474.226667	1488.140625	12.296729
11697.937766	1474.226667	1487.079102	33.100822
11697.937766	1474.226667	1486.016602	33.665428
11697.937766	1474.226667	1484.954102	41.000072
11697.937766	1474.226667	1483.891602	84.340393
11697.937766	1474.226667	1482.829102	57.973301
11697.937766	1474.226667	1481.765625	168.783539
11697.937766	1474.226667	1480.702148	88.506119
11697.937766	1474.226667	1479.638672	165.594955
11697.937766	1474.226667	1478.575195	69.667732
11697.937766	1474.226667	1477.511719	117.576805
11697.937766	1474.226667	1476.447266	111.569542
11697.937766	1474.226667	1475.382813	123.565178
11697.937766	1474.226667	1474.318359	79.422134
11697.937766	1474.226667	1473.253906	-31.981144
11697.937766	1474.226667	1472.189453	33.947170
11697.937766	1474.226667	1471.124023	-12.314744
11697.937766	1474.226667	1470.058594	-33.845325
11697.937766	1474.226667	1468.993164	-91.160919
11697.937766	1474.226667	1467.927734	-76.680450
11697.937766	1474.226667	1466.861328	98.899048
11697.937766	1474.226667	1465.794922	144.661148
11697.937766	1474.226667	1464.728516	-17.852890
11697.937766	1474.226667	1463.662109	-38.999977
11697.937766	1474.226667	1462.594727	35.775112
11697.937766	1474.226667	1461.528320	83.814827
11697.937766	1474.226667	1460.460938	107.099998
11697.937766	1474.226667	1459.393555	99.417694
11697.937766	1474.226667	1458.326172	6.360922
11697.937766	1474.226667	1457.257813	30.017963
11697.937766	1474.226667	1456.189453	-38.035374
11697.937766	1474.226667	1455.121094	39.415497
11697.937766	1474.226667	1454.052734	-15.522259
11697.937766	1474.226667	1452.984375	68.319069
11697.937766	1474.226667	1451.915039	44.585964
11697.937766	1474.226667	1450.845703	-16.292860
11697.937766	1474.226667	1449.776367	51.935020
11697.937766	1474.226667	1448.707031	39.953663
11697.937766	1474.226667	1447.636719	-27.627243
11697.937766	1474.226667	1446.567383	62.206997
11697.937766	1474.226667	1445.497070	-10.493635
11697.937766	1474.226667	1444.425781	14.712300
11697.937766	1474.226667	1443.355469	34.279308
11697.937766	1474.226667	1442.285156	85.831268
11697.937766	1474.226667	1441.213867	22.913282
11697.937766	1474.226667	1440.142578	-50.562515
11697.937766	1474.226667	1439.070313	26.487101
11697.937766	1474.226667	1437.999023	126.871399
11697.937766	1474.226667	1436.926758	-29.205997
11697.937766	1474.226667	1435.854492	63.623249
11697.937766	1474.226667	1434.782227	140.448929
11697.937766	1474.226667	1433.709961	-4.514151
11697.937766	1474.226667	1432.636719	44.289249
11697.937766	1474.226667	1431.563477	55.067719
11697.937766	1474.226667	1430.490234	-5.913169
11697.937766	1474.226667	1429.416992	-34.358070
11697.937766	1474.226667	1428.343750	59.617477
11697.937766	1474.226667	1427.269531	-81.372353
11697.937766	1474.226667	1426.195313	-5.623463
11697.937766	1474.226667	1425.121094	26.620661
11697.937766	1474.226667	1424.046875	-18.265051
11697.937766	1474.226667	1422.971680	57.937656
11697.937766	1474.226667	1421.896484	-30.955643
11697.937766	1474.226667	1420.821289	64.757851
11697.937766	1474.226667	1419.746094	-0.075253
11697.937766	1474.226667	1418.669922	106.513847
11697.937766	1474.226667	1417.594727	72.439117
11697.937766	1474.226667	1416.518555	-21.382721
11697.937766	1474.226667	1415.442383	-53.810299
11697.937766	1474.226667	1414.365234	-83.709198
11697.937766	1474.226667	1413.289063	-47.587025
11697.937766	1474.226667	1412.211914	-31.290565
11697.937766	1474.226667	1411.134766	-79.368477
11697.937766	1474.226667	1410.057617	-53.394592
11697.937766	1474.226667	1408.979492	18.330286
11697.937766	1474.226667	1407.902344	52.936550
11697.937766	1474.226667	1406.824219	9.180611
11697.937766	1474.226667	1405.746094	-82.268524
11697.937766	1474.226667	1404.666992	5.460046
11697.937766	1474.226667	1403.588867	-44.794464
11697.937766	1474.226667	1402.509766	-5.483268
11697.937766	1474.226667	1401.430664	30.158028
11697.937766	1474.226667	1400.351563	-62.571857
11697.937766	1474.226667	1399.271484	-19.630817
11697.937766	1474.226667	1398.192383	86.638062
11697.937766	1474.226667	1397.112305	109.127487
11697.937766	1474.226667	1396.031250	34.829811
11697.937766	1474.226667	1394.951172	-4.854748
11697.937766	1474.226667	1393.871094	92.238014
11697.937766	1474.226667	1392.790039	53.099037
11697.937766	1474.226667	1391.708984	107.691757
11697.937766	1474.226667	1390.626953	85.849678
11697.937766	1474.226667	1389.545898	5.917406
11697.937766	1474.226667	1388.463867	88.883118
11697.937766	1474.226667	1387.381836	29.970917
11697.937766	1474.226667	1386.299805	21.621599
11697.937766	1474.226667	1385.217773	-19.598810
11697.937766	1474.226667	1384.134766	87.601524
11697.937766	1474.226667	1383.051758	4.388787
11697.937766	1474.226667	1381.968750	32.586563
11697.937766	1474.226667	1380.885742	87.898331
11697.937766	1474.226667	1379.802734	118.911842
11697.937766	1474.226667	1378.718750	84.368958
11697.937766	1474.226667	1377.634766	117.180153
11697.937766	1474.226667	1376.550781	103.445625
11697.937766	1474.226667	1375.465820	168.041306
11697.937766	1474.226667	1374.381836	135.259827
11697.937766	1474.226667	1373.296875	195.051224
11697.937766	1474.226667	1372.211914	207.813675
11697.937766	1474.226667	1371.126953	241.897110
11697.937766	1474.226667	1370.041016	307.218567
11697.937766	1474.226667	1368.955078	308.738953
11697.937766	1474.226667	1367.869141	224.553268
11697.937766	1474.226667	1366.783203	229.746857
11697.937766	1474.226667	1365.697266	166.842239
11697.937766	1474.226667	1364.610352	272.156921
11697.937766	1474.226667	1363.523438	222.164352
11697.937766	1474.226667	1362.436523	237.566330
11697.937766	1474.226667	1361.349609	291.196625
11697.937766	1474.226667	1360.261719	131.433868
11697.937766	1474.226667	1359.174805	189.563858
11697.937766	1474.226667	1358.086914	275.726990
11697.937766	1474.226667	1356.998047	203.063721
11697.937766	1474.226667	1355.910156	211.914795
11697.937766	1474.226667	1354.821289	234.128891
11697.937766	1474.226667	1353.732422	281.583405
11697.937766	1474.226667	1352.643555	212.549210
11697.937766	1474.226667	1351.554688	248.857880
11697.937766	1474.226667	1350.464844	248.195953
11697.937766	1474.226667	1349.375000	224.721817
11697.937766	1474.226667	1348.285156	133.236298
11697.937766	1474.226667	1347.195313	140.045654
11697.937766	1474.226667	1346.105469	236.923386
11697.937766	1474.226667	1345.014648	275.637604
11697.937766	1474.226667	1343.923828	153.083664
11697.937766	1474.226667	1342.833008	272.780975
11697.937766	1474.226667	1341.741211	267.640686
11697.937766	1474.226667	1340.650391	290.309631
11697.937766	1474.226667	1339.558594	374.001526
11697.937766	1474.226667	1338.466797	422.237915
11697.937766	1474.226667	1337.374023	446.339691
11697.937766	1474.226667	1336.282227	478.353455
11697.937766	1474.226667	1335.189453	444.260376
11697.937766	1474.226667	1334.096680	333.837769
11697.937766	1474.226667	1333.003906	486.849426
11697.937766	1474.226667	1331.910156	391.309845
11697.937766	1474.226667	1330.817383	388.037567
11697.937766	1474.226667	1329.723633	395.609009
11697.937766	1474.226667	1328.629883	328.903015
11697.937766	1474.226667	1327.535156	307.443756
11697.937766	1474.226667	1326.441406	270.944641
11697.937766	1474.226667	1325.346680	256.958221
11697.937766	1474.226667	1324.251953	222.053543
11697.937766	1474.226667	1323.156250	329.061890
11697.937766	1474.226667	1322.061523	144.943680
11697.937766	1474.226667	1320.965820	246.320404
11697.937766	1474.226667	1319.870117	220.842117
11697.937766	1474.226667	1318.774414	133.618744
11697.937766	1474.226667	1317.678711	121.665207
11697.937766	1474.226667	1316.582031	198.862671
11697.937766	1474.226667	1315.485352	235.029587
11697.937766	1474.226667	1314.388672	143.902573
11697.937766	1474.226667	1313.291016	138.510254
11697.937766	1474.226667	1312.194336	186.622742
11697.937766	1474.226667	1311.096680	212.453690
11697.937766	1474.226667	1309.999023	213.098877
11697.937766	1474.226667	1308.901367	223.940201
11697.937766	1474.226667	1307.802734	206.773148
11697.937766	1474.226667	1306.705078	338.002747
11697.937766	1474.226667	1305.606445	324.720459
11697.937766	1474.226667	1304.506836	335.358948
11697.937766	1474.226667	1303.408203	340.136688
11697.937766	1474.226667	1302.308594	409.519440
11697.937766	1474.226667	1301.208984	409.354126
11697.937766	1474.226667	1300.109375	357.111237
11697.937766	1474.226667	1299.009766	382.818726
11697.937766	1474.226667	1297.909180	229.720551
11697.937766	1474.226667	1296.808594	335.422211
11697.937766	1474.226667	1295.708008	320.666962
11697.937766	1474.226667	1294.607422	227.469193
11697.937766	1474.226667	1293.506836	202.625412
11697.937766	1474.226667	1292.405273	243.358871
11697.937766	1474.226667	1291.303711	120.682777
11697.937766	1474.226667	1290.202148	166.001938
11697.937766	1474.226667	1289.099609	105.459114
11697.937766	1474.226667	1287.998047	78.733849
11697.937766	1474.226667	1286.895508	63.296623
11697.937766	1474.226667	1285.792969	61.917419
11697.937766	1474.226667	1284.689453	53.851536
11697.937766	1474.226667	1283.586914	0.098090
11697.937766	1474.226667	1282.483398	56.376602
11697.937766	1474.226667	1281.379883	91.063492
11697.937766	1474.226667	1280.276367	86.175667
11697.937766	1474.226667	1279.171875	148.316833
11697.937766	1474.226667	1278.067383	120.793571
11697.937766	1474.226667	1276.962891	105.352303
11697.937766	1474.226667	1275.858398	83.313141
11697.937766	1474.226667	1274.753906	5.826807
11697.937766	1474.226667	1273.648438	57.958424
11697.937766	1474.226667	1272.542969	76.075371
11697.937766	1474.226667	1271.437500	78.136215
11697.937766	1474.226667	1270.331055	87.326210
11697.937766	1474.226667	1269.225586	157.708649
11697.937766	1474.226667	1268.119141	215.868088
11697.937766	1474.226667	1267.012695	201.663361
11697.937766	1474.226667	1265.906250	104.267395
11697.937766	1474.226667	1264.798828	140.230423
11697.937766	1474.226667	1263.691406	157.079269
11697.937766	1474.226667	1262.583984	101.015656
11697.937766	1474.226667	1261.476563	134.772079
11697.937766	1474.226667	1260.368164	96.165390
11697.937766	1474.226667	1259.260742	125.532593
11697.937766	1474.226667	1258.152344	126.971161
11697.937766	1474.226667	1257.043945	93.138771
11697.937766	1474.226667	1255.934570	58.567600
11697.937766	1474.226667	1254.825195	-26.810253
11697.937766	1474.226667	1253.716797	109.606010
11697.937766	1474.226667	1252.606445	63.600250
11697.937766	1474.226667	1251.497070	38.272564
11697.937766	1474.226667	1250.387695	5.594580
11697.937766	1474.226667	1249.277344	134.191727
11697.937766	1474.226667	1248.166992	135.266632
11697.937766	1474.226667	1247.055664	150.545303
11697.937766	1474.226667	1245.945313	205.172424
11697.937766	1474.226667	1244.833984	211.879211
11697.937766	1474.226667	1243.722656	199.053360
11697.937766	1474.226667	1242.611328	144.068756
11697.937766	1474.226667	1241.499023	87.423363
11697.937766	1474.226667	1240.387695	47.967945
11697.937766	1474.226667	1239.275391	121.847046
11697.937766	1474.226667	1238.162109	69.564896
11697.937766	1474.226667	1237.049805	69.847527
11697.937766	1474.226667	1235.936523	11.104608
11697.937766	1474.226667	1234.823242	3.594704
11697.937766	1474.226667	1233.709961	3.839161
11697.937766	1474.226667	1232.596680	-62.081837
11697.937766	1474.226667	1231.482422	-35.428402
11697.937766	1474.226667	1230.369141	42.373466
11697.937766	1474.226667	1229.253906	10.502442
11697.937766	1474.226667	1228.139648	54.364784
11697.937766	1474.226667	1227.025391	38.696472
11697.937766	1474.226667	1225.910156	-23.401289
11697.937766	1474.226667	1224.794922	18.869684
11697.937766	1474.226667	1223.679688	59.982159
11697.937766	1474.226667	1222.563477	11.755831
11697.937766	1474.226667	1221.447266	41.649303
11697.937766	1474.226667	1220.331055	11.364841
11697.937766	1474.226667	1219.214844	-64.485130
11697.937766	1474.226667	1218.098633	37.908840
11697.937766	1474.226667	1216.981445	-19.441931
11697.937766	1474.226667	1215.864258	39.102108
11697.937766	1474.226667	1214.747070	21.595764
11697.937766	1474.226667	1213.629883	-35.811417
11697.937766	1474.226667	1212.511719	-96.403786
11697.937766	1474.226667	1211.393555	-52.449242
11697.937766	1474.226667	1210.275391	-14.056536
11697.937766	1474.226667	1209.157227	-108.949654
11697.937766	1474.226667	1208.038086	-52.706921
11697.937766	1474.226667	1206.918945	-86.867920
11697.937766	1474.226667	1205.799805	-66.519920
11697.937766	1474.226667	1204.680664	8.304993
11697.937766	1474.226667	1203.560547	-39.980068
11697.937766	1474.226667	1202.441406	-11.076887
11697.937766	1474.226667	1201.321289	-108.915245
11697.937766	1474.226667	1200.200195	-24.469381
11697.937766	1474.226667	1199.080078	25.401979
11697.937766	1474.226667	1197.958984	13.885478
11697.937766	1474.226667	1196.837891	-55.056198
11697.937766	1474.226667	1195.716797	-68.466110
11697.937766	1474.226667	1194.594727	24.504839
11697.937766	1474.226667	1193.473633	18.640108
11697.937766	1474.226667	1192.351563	14.668989
11697.937766	1474.226667	1191.229492	77.560318
11697.937766	1474.226667	1190.106445	-21.552647
11697.937766	1474.226667	1188.984375	35.843109
11697.937766	1474.226667	1187.861328	-59.233875
11697.937766	1474.226667	1186.738281	-2.383078
11697.937766	1474.226667	1185.614258	13.436197
11697.937766	1474.226667	1184.491211	-6.536395
11697.937766	1474.226667	1183.367188	37.792332
11697.937766	1474.226667	1182.243164	-10.174867
11697.937766	1474.226667	1181.119141	19.762135
11697.937766	1474.226667	1179.994141	-3.319135
11697.937766	1474.226667	1178.869141	-57.221214
11697.937766	1474.226667	1177.744141	18.740650
11697.937766	1474.226667	1176.619141	-13.936539
11697.937766	1474.226667	1175.493164	-82.326645
11697.937766	1474.226667	1174.368164	-84.969635
11697.937766	1474.226667	1173.242188	-33.336174
11697.937766	1474.226667	1172.115234	-17.705650
11697.937766	1474.226667	1170.989258	48.693565
11697.937766	1474.226667	1169.862305	-5.556037
11697.937766	1474.226667	1168.735352	8.495794
11697.937766	1474.226667	1167.608398	-20.183220
11697.937766	1474.226667	1166.481445	-30.124863
11697.937766	1474.226667	1165.353516	-62.927242
11697.937766	1474.226667	1164.225586	-28.298759
11697.937766	1474.226667	1163.097656	-33.783646
11697.937766	1474.226667	1161.968750	40.134476
11697.937766	1474.226667	1160.840820	-37.408821
11697.937766	1474.226667	1159.711914	-56.439346
11697.937766	1474.226667	1158.583008	-69.631508
11697.937766	1474.226667	1157.453125	44.031521
11697.937766	1474.226667	1156.324219	8.141706
11697.937766	1474.226667	1155.194336	-40.610527
11697.937766	1474.226667	1154.064453	16.433468
11697.937766	1474.226667	1152.933594	-39.424603
11697.937766	1474.226667	1151.803711	-22.436192
11697.937766	1474.226667	1150.672852	14.251891
11697.937766	1474.226667	1149.541992	43.356445
11697.937766	1474.226667	1148.411133	0.145274
11697.937766	1474.226667	1147.279297	91.000610
11697.937766	1474.226667	1146.147461	80.945198
11697.937766	1474.226667	1145.015625	91.132584
11697.937766	1474.226667	1143.883789	4.993660
11697.937766	1474.226667	1142.750977	102.987297
11697.937766	1474.226667	1141.619141	94.868820
11697.937766	1474.226667	1140.486328	130.808151
11697.937766	1474.226667	1139.352539	98.462730
11697.937766	1474.226667	1138.219727	94.723701
11697.937766	1474.226667	1137.085938	100.546318
11697.937766	1474.226667	1135.952148	90.254227
11697.937766	1474.226667	1134.818359	93.937752
11697.937766	1474.226667	1133.683594	84.736839
11697.937766	1474.226667	1132.549805	21.462660
11697.937766	1474.226667	1131.415039	100.939049
11697.937766	1474.226667	1130.279297	46.724812
11697.937766	1474.226667	1129.144531	106.132172
11697.937766	1474.226667	1128.008789	19.674835
11697.937766	1474.226667	1126.873047	84.941185
11697.937766	1474.226667	1125.737305	60.721748
11697.937766	1474.226667	1124.601563	139.893265
11697.937766	1474.226667	1123.464844	142.003311
11697.937766	1474.226667	1122.328125	99.700119
11697.937766	1474.226667	1121.191406	18.961990
11697.937766	1474.226667	1120.054688	-9.124389
11697.937766	1474.226667	1118.916992	56.854015
11697.937766	1474.226667	1117.779297	110.658272
11697.937766	1474.226667	1116.641602	160.798660
11697.937766	1474.226667	1115.503906	169.569412
11697.937766	1474.226667	1114.365234	31.087854
11697.937766	1474.226667	1113.226563	108.305305
11697.937766	1474.226667	1112.087891	94.189072
11697.937766	1474.226667	1110.949219	56.512878
11697.937766	1474.226667	1109.809570	-8.948492
11697.937766	1474.226667	1108.669922	71.302940
11697.937766	1474.226667	1107.530273	-16.599247
11697.937766	1474.226667	1106.390625	31.694605
11697.937766	1474.226667	1105.250000	-31.396469
11697.937766	1474.226667	1104.109375	30.020821
11697.937766	1474.226667	1102.968750	45.332993
11697.937766	1474.226667	1101.828125	67.858208
11697.937766	1474.226667	1100.686523	126.744240
11697.937766	1474.226667	1099.544922	69.443497
11697.937766	1474.226667	1098.403320	90.822731
11697.937766	1474.226667	1097.261719	88.964752
11697.937766	1474.226667	1096.120117	69.989014
11697.937766	1474.226667	1094.977539	62.460716
11697.937766	1474.226667	1093.834961	150.359909
11697.937766	1474.226667	1092.691406	97.410248
11697.937766	1474.226667	1091.548828	105.056938
11697.937766	1474.226667	1090.405273	79.271378
11697.937766	1474.226667	1089.261719	50.565636
11697.937766	1474.226667	1088.118164	55.007656
11697.937766	1474.226667	1086.973633	87.076897
11697.937766	1474.226667	1085.829102	82.444397
11697.937766	1474.226667	1084.684570	211.661987
11697.937766	1474.226667	1083.540039	82.525894
11697.937766	1474.226667	1082.395508	90.305946
11697.937766	1474.226667	1081.250000	72.581917
11697.937766	1474.226667	1080.104492	229.110580
11697.937766	1474.226667	1078.958984	209.491653
11697.937766	1474.226667	1077.812500	99.979401
11697.937766	1474.226667	1076.666016	239.089218
11697.937766	1474.226667	1075.519531	312.215698
11697.937766	1474.226667	1074.373047	277.540314
11697.937766	1474.226667	1073.226563	320.326111
11697.937766	1474.226667	1072.079102	259.140564
11697.937766	1474.226667	1070.931641	257.371887
11697.937766	1474.226667	1069.784180	115.957687
11697.937766	1474.226667	1068.635742	229.331635
11697.937766	1474.226667	1067.487305	180.739151
11697.937766	1474.226667	1066.338867	165.216217
11697.937766	1474.226667	1065.190430	129.776840
11697.937766	1474.226667	1064.041992	163.793655
11697.937766	1474.226667	1062.892578	157.648331
11697.937766	1474.226667	1061.743164	161.754303
11697.937766	1474.226667	1060.593750	116.887276
11697.937766	1474.226667	1059.443359	234.428909
11697.937766	1474.226667	1058.292969	116.099533
11697.937766	1474.226667	1057.142578	115.905838
11697.937766	1474.226667	1055.992188	118.537376
11697.937766	1474.226667	1054.841797	88.268402
11697.937766	1474.226667	1053.690430	57.679752
11697.937766	1474.226667	1052.539063	-17.146622
11697.937766	1474.226667	1051.387695	19.934393
11697.937766	1474.226667	1050.235352	33.760933
11697.937766	1474.226667	1049.083984	-45.138138
11697.937766	1474.226667	1047.931641	85.681648
11697.937766	1474.226667	1046.778320	26.950106
11697.937766	1474.226667	1045.625977	116.025734
11697.937766	1474.226667	1044.472656	82.293640
11697.937766	1474.226667	1043.319336	80.011620
11697.937766	1474.226667	1042.166016	27.155352
11697.937766	1474.226667	1041.012695	-14.174705
11697.937766	1474.226667	1039.858398	-54.807220
11697.937766	1474.226667	1038.704102	15.106691
11697.937766	1474.226667	1037.549805	70.893799
11697.937766	1474.226667	1036.394531	122.129951
11697.937766	1474.226667	1035.239258	41.364998
11697.937766	1474.226667	1034.083984	129.853912
11697.937766	1474.226667	1032.928711	101.469864
11697.937766	1474.226667	1031.773438	-29.156677
11697.937766	1474.226667	1030.617188	-1.513346
11697.937766	1474.226667	1029.460938	123.598152
11697.937766	1474.226667	1028.304688	9.476272
11697.937766	1474.226667	1027.147461	73.824272
11697.937766	1474.226667	1025.991211	149.222534
11697.937766	1474.226667	1024.833984	5.754694
11697.937766	1474.226667	1023.675781	111.608131
11697.937766	1474.226667	1022.518555	1.710884
11697.937766	1474.226667	1021.360352	167.979599
11697.937766	1474.226667	1020.202148	107.539627
11697.937766	1474.226667	1019.043945	104.807816
11697.937766	1474.226667	1017.884766	55.040379
11697.937766	1474.226667	1016.726563	125.353401
11697.937766	1474.226667	1015.567383	36.453281
11697.937766	1474.226667	1014.407227	44.127720
11697.937766	1474.226667	1013.248047	37.652489
11697.937766	1474.226667	1012.087891	-32.634197
11697.937766	1474.226667	1010.927734	-14.864048
11697.937766	1474.226667	1009.767578	85.539223
11697.937766	1474.226667	1008.606445	32.038586
11697.937766	1474.226667	1007.446289	27.985050
11697.937766	1474.226667	1006.285156	120.077385
11697.937766	1474.226667	1005.123047	81.984146
11697.937766	1474.226667	1003.961914	109.990196
11697.937766	1474.226667	1002.799805	-15.759895
11697.937766	1474.226667	1001.637695	-58.663448
11697.937766	1474.226667	1000.475586	113.862175
11697.937766	1474.226667	999.312500	27.002815
11697.937766	1474.226667	998.149414	34.497654
11697.937766	1474.226667	996.986328	122.555542
11697.937766	1474.226667	995.823242	-4.942310
11697.937766	1474.226667	994.659180	85.732658
11697.937766	1474.226667	993.496094	41.098763
11697.937766	1474.226667	992.332031	-5.305700
11697.937766	1474.226667	991.166992	66.156822
11697.937766	1474.226667	990.002930	125.153831
11697.937766	1474.226667	988.837891	63.326141
11697.937766	1474.226667	987.672852	-8.070442
11697.937766	1474.226667	986.506836	-10.664066
11697.937766	1474.226667	985.341797	26.137089
11697.937766	1474.226667	984.175781	38.830280
11697.937766	1474.226667	983.009766	-25.610918
11697.937766	1474.226667	981.843750	93.484016
11697.937766	1474.226667	980.676758	84.276711
11697.937766	1474.226667	979.509766	122.314735
11697.937766	1474.226667	978.342773	39.070831
11697.937766	1474.226667	977.175781	-79.968559
11697.937766	1474.226667	976.007813	-58.938919
11697.937766	1474.226667	974.839844	-19.326641
11697.937766	1474.226667	973.671875	59.130348
11697.937766	1474.226667	972.503906	73.412125
11697.937766	1474.226667	971.334961	9.802387
11697.937766	1474.226667	970.166016	-25.948915
11697.937766	1474.226667	968.997070	8.972766
11697.937766	1474.226667	967.828125	-43.510597
11697.937766	1474.226667	966.658203	83.204269
11697.937766	1474.226667	965.488281	-5.283073
11697.937766	1474.226667	964.318359	-16.805059
11697.937766	1474.226667	963.148438	-35.610126
11697.937766	1474.226667	961.977539	16.400112
11697.937766	1474.226667	960.806641	47.409927
11697.937766	1474.226667	959.635742	28.003387
11697.937766	1474.226667	958.463867	13.444655
11697.937766	1474.226667	957.292969	41.764278
11697.937766	1474.226667	956.121094	34.779541
11697.937766	1474.226667	954.948242	80.910210
11697.937766	1474.226667	953.776367	53.305721
11697.937766	1474.226667	952.603516	113.243080
11697.937766	1474.226667	951.430664	-42.343460
11697.937766	1474.226667	950.257813	20.200727
11697.937766	1474.226667	949.084961	69.798080
11697.937766	1474.226667	947.911133	73.604614
11697.937766	1474.226667	946.737305	91.764519
11697.937766	1474.226667	945.563477	1.348196
11697.937766	1474.226667	944.388672	36.630539
11697.937766	1474.226667	943.213867	61.455700
11697.937766	1474.226667	942.039063	-31.128639
11697.937766	1474.226667	940.864258	4.044343
11697.937766	1474.226667	939.688477	28.695831
11697.937766	1474.226667	938.513672	-40.844120
11697.937766	1474.226667	937.337891	-20.265285
11697.937766	1474.226667	936.161133	44.097202
11697.937766	1474.226667	934.985352	106.466446
11697.937766	1474.226667	933.808594	103.919037
11697.937766	1474.226667	932.631836	78.464867
11697.937766	1474.226667	931.454102	107.278252
11697.937766	1474.226667	930.277344	27.410654
11697.937766	1474.226667	929.099609	4.045355
11697.937766	1474.226667	927.921875	-21.420311
11697.937766	1474.226667	926.743164	9.515367
11697.937766	1474.226667	925.565430	23.736343
11697.937766	1474.226667	924.386719	52.590218
11697.937766	1474.226667	923.208008	4.163765
11697.937766	1474.226667	922.028320	20.480427
11697.937766	1474.226667	920.849609	68.108215
11697.937766	1474.226667	919.669922	68.351288
11697.937766	1474.226667	919.474609	-11.553512
11697.937766	1474.226667	918.309570	-45.315838
11697.937766	1474.226667	917.143555	-33.163780
11697.937766	1474.226667	915.977539	-10.584802
11697.937766	1474.226667	914.810547	-42.232956
11697.937766	1474.226667	913.644531	15.789081
11697.937766	1474.226667	912.477539	-65.875656
11697.937766	1474.226667	911.310547	31.732130
11697.937766	1474.226667	910.143555	-20.724691
11697.937766	1474.226667	908.975586	-39.824230
11697.937766	1474.226667	907.807617	-54.747349
11697.937766	1474.226667	906.639648	-36.342163
11697.937766	1474.226667	905.471680	-28.351810
11697.937766	1474.226667	904.303711	10.862646
11697.937766	1474.226667	903.134766	-87.293503
11697.937766	1474.226667	901.965820	12.264970
11697.937766	1474.226667	900.796875	9.849859
11697.937766	1474.226667	899.626953	-69.517090
11697.937766	1474.226667	898.457031	-49.033863
11697.937766	1474.226667	897.287109	73.318108
11697.937766	1474.226667	896.117188	-3.925517
11697.937766	1474.226667	894.947266	53.949379
11697.937766	1474.226667	893.776367	97.259224
11697.937766	1474.226667	892.605469	32.532093
11697.937766	1474.226667	891.434570	129.835617
11697.937766	1474.226667	890.262695	-13.772572
11697.937766	1474.226667	889.091797	77.278786
11697.937766	1474.226667	887.919922	-20.589132
11697.937766	1474.226667	886.748047	8.175901
11697.937766	1474.226667	885.575195	1.660583
11697.937766	1474.226667	884.403320	47.010834
11697.937766	1474.226667	883.230469	117.233803
11697.937766	1474.226667	882.057617	65.091888
11697.937766	1474.226667	880.883789	-3.610432
11697.937766	1474.226667	879.710938	35.498814
11697.937766	1474.226667	878.537109	51.800312
11697.937766	1474.226667	877.362305	86.745476
11697.937766	1474.226667	876.188477	-50.249569
11697.937766	1474.226667	875.013672	65.477386
11697.937766	1474.226667	873.839844	-27.968826
11697.937766	1474.226667	872.664063	-3.374174
11697.937766	1474.226667	871.489258	-53.297466
11697.937766	1474.226667	870.313477	80.971603
11697.937766	1474.226667	869.138672	51.746593
11697.937766	1474.226667	867.962891	24.605001
11697.937766	1474.226667	866.786133	102.947922
11697.937766	1474.226667	865.610352	19.987085
11697.937766	1474.226667	864.433594	5.280956
11697.937766	1474.226667	863.256836	-94.153984
11697.937766	1474.226667	862.079102	-5.507622
11697.937766	1474.226667	860.902344	4.599701
11697.937766	1474.226667	859.724609	-30.734957
11697.937766	1474.226667	858.546875	-78.442886
11697.937766	1474.226667	857.368164	18.396866
11697.937766	1474.226667	856.190430	-105.672737
11697.937766	1474.226667	855.011719	-31.563652
11697.937766	1474.226667	853.833008	-120.489662
11697.937766	1474.226667	852.654297	-85.599258
11697.937766	1474.226667	851.474609	-75.471008
11697.937766	1474.226667	850.294922	43.947174
11697.937766	1474.226667	849.115234	45.802448
11697.937766	1474.226667	847.935547	-28.607647
11697.937766	1474.226667	846.754883	-142.140488
11697.937766	1474.226667	845.575195	55.497349
11697.937766	1474.226667	844.393555	42.937717
11697.937766	1474.226667	843.212891	-74.653046
11697.937766	1474.226667	842.032227	-95.414055
11697.937766	1474.226667	840.850586	-29.698288
11697.937766	1474.226667	839.668945	-19.581629
11697.937766	1474.226667	838.486328	9.053406
11697.937766	1474.226667	837.304688	50.022652
11697.937766	1474.226667	836.122070	0.467879
11697.937766	1474.226667	834.939453	47.594936
11697.937766	1474.226667	833.756836	59.748959
11697.937766	1474.226667	832.573242	80.122368
11697.937766	1474.226667	831.389648	30.607288
11697.937766	1474.226667	830.206055	9.882341
11697.937766	1474.226667	829.022461	-27.269117
11697.937766	1474.226667	827.838867	77.325920
11697.937766	1474.226667	826.654297	36.070812
11697.937766	1474.226667	825.469727	70.802002
11697.937766	1474.226667	824.284180	-1.225100
11697.937766	1474.226667	823.099609	-69.117790
11697.937766	1474.226667	821.914063	39.485424
11697.937766	1474.226667	820.728516	20.849939
11697.937766	1474.226667	819.542969	-49.055355
11697.937766	1474.226667	818.356445	-59.461628
11697.937766	1474.226667	817.169922	5.995631
11697.937766	1474.226667	815.983398	-45.414646
11697.937766	1474.226667	814.796875	1.567691
11697.937766	1474.226667	813.609375	34.187786
11697.937766	1474.226667	812.422852	-4.906062
11697.937766	1474.226667	811.235352	17.460138
11697.937766	1474.226667	810.046875	11.148574
11697.937766	1474.226667	808.859375	121.534355
11697.937766	1474.226667	807.670898	61.983601
11697.937766	1474.226667	806.482422	145.707733
11697.937766	1474.226667	805.293945	213.027908
11697.937766	1474.226667	804.104492	45.075272
11697.937766	1474.226667	802.915039	75.572937
11697.937766	1474.226667	801.725586	16.087202
11697.937766	1474.226667	800.536133	97.683372
11697.937766	1474.226667	799.345703	48.434200
11697.937766	1474.226667	798.155273	-4.883459
11697.937766	1474.226667	796.964844	33.756634
11697.937766	1474.226667	795.774414	111.188828
11697.937766	1474.226667	794.583008	8.871860
11697.937766	1474.226667	793.392578	98.523132
11697.937766	1474.226667	792.200195	49.322556
11697.937766	1474.226667	791.008789	118.514038
11697.937766	1474.226667	789.816406	63.202415
11697.937766	1474.226667	788.625000	-0.249870
11697.937766	1474.226667	787.432617	64.821083
11697.937766	1474.226667	786.239258	-74.063141
11697.937766	1474.226667	785.046875	3.222621
11697.937766	1474.226667	783.853516	-31.639198
11697.937766	1474.226667	782.660156	35.409031
11697.937766	1474.226667	781.465820	118.726639
11697.937766	1474.226667	780.272461	-9.857344
11697.937766	1474.226667	779.078125	32.693012
11697.937766	1474.226667	777.883789	111.874550
11697.937766	1474.226667	776.688477	89.225792
11697.937766	1474.226667	775.494141	74.723495
11697.937766	1474.226667	774.298828	96.853508
11697.937766	1474.226667	773.103516	114.900284
11697.937766	1474.226667	771.907227	118.695793
11697.937766	1474.226667	770.711914	150.957047
11697.937766	1474.226667	769.515625	114.066589
11697.937766	1474.226667	768.318359	-8.195691
11697.937766	1474.226667	767.122070	87.063522
11697.937766	1474.226667	765.924805	46.129341
11697.937766	1474.226667	764.727539	147.421738
11697.937766	1474.226667	763.530273	-45.861168
11697.937766	1474.226667	762.333008	-17.712446
11697.937766	1474.226667	761.134766	53.056515
11697.937766	1474.226667	759.936523	58.831528
11697.937766	1474.226667	758.738281	-2.377038
11697.937766	1474.226667	757.540039	82.529312
11697.937766	1474.226667	756.340820	45.672504
11697.937766	1474.226667	755.141602	146.746246
11697.937766	1474.226667	753.942383	22.680584
11697.937766	1474.226667	752.742188	-22.270981
11697.937766	1474.226667	751.541992	13.868966
11697.937766	1474.226667	750.341797	19.587593
11697.937766	1474.226667	749.141602	21.244143
11697.937766	1474.226667	747.941406	39.098248
11697.937766	1474.226667	746.740234	20.481762
11697.937766	1474.226667	745.539063	-6.234564
11697.937766	1474.226667	744.337891	96.617844
11697.937766	1474.226667	743.135742	15.231894
11697.937766	1474.226667	741.933594	75.524513
11697.937766	1474.226667	740.731445	8.322231
11697.937766	1474.226667	739.529297	-4.245687
11697.937766	1474.226667	738.326172	39.808819
11697.937766	1474.226667	737.124023	93.945526
11697.937766	1474.226667	735.919922	162.201599
11697.937766	1474.226667	734.716797	151.597488
11697.937766	1474.226667	733.513672	229.897354
11697.937766	1474.226667	732.309570	227.346100
11697.937766	1474.226667	731.105469	224.786209
11697.937766	1474.226667	729.900391	193.946213
11697.937766	1474.226667	728.696289	231.754227
11697.937766	1474.226667	727.491211	150.442276
11697.937766	1474.226667	726.286133	166.024551
11697.937766	1474.226667	725.080078	4.032012
11697.937766	1474.226667	723.874023	104.343605
11697.937766	1474.226667	722.668945	-27.335987
11697.937766	1474.226667	721.461914	50.738632
11697.937766	1474.226667	720.255859	90.465652
11697.937766	1474.226667	719.048828	51.557194
11697.937766	1474.226667	717.841797	54.972836
11697.937766	1474.226667	716.634766	66.434883
11697.937766	1474.226667	715.427734	-4.706175
11697.937766	1474.226667	714.219727	-122.148445
11697.937766	1474.226667	713.011719	120.860901
11697.937766	1474.226667	711.803711	-34.829350
11697.937766	1474.226667	710.594727	-35.492527
11697.937766	1474.226667	709.385742	38.284878
11697.937766	1474.226667	708.176758	9.418305
11697.937766	1474.226667	706.967773	20.779495
11697.937766	1474.226667	705.758789	168.868851
11697.937766	1474.226667	704.548828	9.272890
11697.937766	1474.226667	703.338867	-104.035759
11697.937766	1474.226667	702.127930	-2.272352
11697.937766	1474.226667	700.917969	5.000484
11697.937766	1474.226667	699.707031	-29.927496
11697.937766	1474.226667	698.496094	-30.710308
11697.937766	1474.226667	697.285156	0.622927
11697.937766	1474.226667	696.073242	-54.395535
11697.937766	1474.226667	694.861328	29.090340
11697.937766	1474.226667	693.649414	-64.064041
11697.937766	1474.226667	692.436523	-135.122833
11697.937766	1474.226667	691.224609	2.448457
11697.937766	1474.226667	690.011719	31.653301
11697.937766	1474.226667	688.798828	64.843407
11697.937766	1474.226667	687.584961	25.839540
11697.937766	1474.226667	686.372070	71.016136
11697.937766	1474.226667	685.158203	42.020149
11697.937766	1474.226667	683.943359	53.090538
11697.937766	1474.226667	682.729492	48.119854
11697.937766	1474.226667	681.514648	-58.990589
11697.937766	1474.226667	680.299805	20.125647
11697.937766	1474.226667	679.084961	-92.965294
11697.937766	1474.226667	677.869141	-5.896799
11697.937766	1474.226667	676.653320	81.121696
11697.937766	1474.226667	675.437500	38.063560
11697.937766	1474.226667	674.221680	49.010090
11697.937766	1474.226667	673.004883	57.938473
11697.937766	1474.226667	671.789063	78.845238
11697.937766	1474.226667	670.571289	13.783765
11697.937766	1474.226667	669.354492	-17.291990
11697.937766	1474.226667	668.136719	69.506645
11697.937766	1474.226667	666.919922	12.438255
11697.937766	1474.226667	665.701172	-100.537148
11697.937766	1474.226667	664.483398	34.102890
11697.937766	1474.226667	663.264648	52.892967
11697.937766	1474.226667	662.045898	9.792747
11697.937766	1474.226667	660.827148	34.539570
11697.937766	1474.226667	659.608398	-12.555248
11697.937766	1474.226667	658.388672	14.153370
11697.937766	1474.226667	657.168945	28.872948
11697.937766	1474.226667	655.949219	-40.161110
11697.937766	1474.226667	654.728516	-29.449745
11697.937766	1474.226667	653.507813	58.964611
11697.937766	1474.226667	652.287109	61.654778
11697.937766	1474.226667	651.066406	104.170860
11697.937766	1474.226667	649.844727	180.511902
11697.937766	1474.226667	648.623047	101.498573
11697.937766	1474.226667	647.401367	36.440990
11697.937766	1474.226667	646.179688	152.515762
11697.937766	1474.226667	644.957031	43.671368
11697.937766	1474.226667	643.734375	127.838379
11697.937766	1474.226667	642.511719	108.527153
11697.937766	1474.226667	641.289063	45.462147
11697.937766	1474.226667	640.065430	87.785179
11697.937766	1474.226667	638.841797	221.516235
11697.937766	1474.226667	637.618164	108.746017
11697.937766	1474.226667	636.393555	87.410019
11697.937766	1474.226667	635.168945	99.841988
11697.937766	1474.226667	633.944336	108.284492
11697.937766	1474.226667	632.719727	47.213478
11697.937766	1474.226667	631.494141	4.023175
11697.937766	1474.226667	630.269531	58.097149
11697.937766	1474.226667	629.042969	12.915167
11697.937766	1474.226667	627.817383	57.021427
11697.937766	1474.226667	626.590820	25.721560
11697.937766	1474.226667	625.365234	14.256396
11697.937766	1474.226667	624.137695	165.367584
11697.937766	1474.226667	622.911133	108.262512
11697.937766	1474.226667	621.683594	130.445984
11697.937766	1474.226667	620.456055	51.554909
11697.937766	1474.226667	619.228516	-47.123207
11697.937766	1474.226667	618.000977	-24.951223
11697.937766	1474.226667	616.772461	52.646931
11697.937766	1474.226667	615.543945	52.990559
11697.937766	1474.226667	614.314453	-59.499794
11697.937766	1474.226667	613.085938	43.754295
11697.937766	1474.226667	611.856445	30.221653
11697.937766	1474.226667	610.626953	-3.095262
11697.937766	1474.226667	609.397461	11.058149
11697.937766	1474.226667	608.166992	90.445923
11697.937766	1474.226667	606.936523	3.736562
11697.937766	1474.226667	605.706055	0.066025
11697.937766	1474.226667	604.474609	31.956644
11697.937766	1474.226667	603.244141	-110.024498
11697.937766	1474.226667	602.012695	-12.958694
11697.937766	1474.226667	600.780273	-0.855976
11697.937766	1474.226667	599.548828	5.312447
11697.937766	1474.226667	598.316406	-29.981022
11697.937766	1474.226667	597.083984	-4.088068
11697.937766	1474.226667	595.851563	-29.511866
11697.937766	1474.226667	594.618164	-86.494247
11697.937766	1474.226667	593.384766	12.347976
11697.937766	1474.226667	592.151367	-11.109198
11697.937766	1474.226667	590.917969	-48.361362
11697.937766	1474.226667	589.683594	103.609406
11697.937766	1474.226667	588.449219	109.690247
11697.937766	1474.226667	587.214844	3.466870
11697.937766	1474.226667	585.979492	-39.685616
11697.937766	1474.226667	584.745117	-53.283455
11697.937766	1474.226667	583.509766	-7.814013
11697.937766	1474.226667	582.273438	-43.074383
11697.937766	1474.226667	581.038086	-23.217012
11697.937766	1474.226667	579.801758	-40.756374
11697.937766	1474.226667	578.565430	16.462532
11697.937766	1474.226667	577.329102	-71.886185
11697.937766	1474.226667	576.091797	18.737879
11697.937766	1474.226667	574.854492	20.854713
11697.937766	1474.226667	573.617188	-22.237537
11697.937766	1474.226667	572.378906	-57.452820
11697.937766	1474.226667	571.141602	-41.571243
11697.937766	1474.226667	569.903320	52.871975
11697.937766	1474.226667	568.664063	58.901543
11697.937766	1474.226667	567.425781	98.307671
11697.937766	1474.226667	566.186523	39.546848
11697.937766	1474.226667	564.947266	108.379066
11697.937766	1474.226667	563.708008	-66.124321
11697.937766	1474.226667	562.467773	55.669617
11697.937766	1474.226667	561.227539	-63.828968
11697.937766	1474.226667	559.987305	-2.871977
11697.937766	1474.226667	558.747070	26.693726
11697.937766	1474.226667	557.505859	32.727898
11697.937766	1474.226667	556.264648	-20.027056
11697.937766	1474.226667	555.023438	42.837860
11697.937766	1474.226667	553.781250	-0.097134
11697.937766	1474.226667	552.539063	29.450645
11697.937766	1474.226667	551.296875	-72.194046
11697.937766	1474.226667	550.054688	-11.314353
11697.937766	1474.226667	548.811523	-1.342504
11697.937766	1474.226667	547.569336	61.462307
11697.937766	1474.226667	546.325195	81.205437
11697.937766	1474.226667	545.082031	36.402470
11697.937766	1474.226667	543.837891	128.505569
11697.937766	1474.226667	542.593750	-17.938938
11697.937766	1474.226667	541.349609	83.921989
11697.937766	1474.226667	540.105469	172.066422
11697.937766	1474.226667	538.860352	150.767700
11697.937766	1474.226667	537.615234	109.951767
11697.937766	1474.226667	536.369141	125.795296
11697.937766	1474.226667	535.124023	153.355850
11697.937766	1474.226667	533.877930	159.438446
11697.937766	1474.226667	532.631836	163.574905
11697.937766	1474.226667	531.384766	68.202919
11697.937766	1474.226667	530.138672	206.983231
11697.937766	1474.226667	528.891602	98.007294
11697.937766	1474.226667	527.643555	129.487732
11697.937766	1474.226667	526.396484	90.779350
11697.937766	1474.226667	525.148438	135.911087
11697.937766	1474.226667	523.900391	-45.022583
11697.937766	1474.226667	522.652344	-71.949928
11697.937766	1474.226667	521.403320	-7.303615
11697.937766	1474.226667	520.154297	-10.837370
11697.937766	1474.226667	518.905273	-37.723877
11697.937766	1474.226667	517.656250	-56.801361
11697.937766	1474.226667	516.406250	95.409630
11697.937766	1474.226667	515.156250	-26.796127
11697.937766	1474.226667	513.906250	6.695270
11697.937766	1474.226667	512.655273	-43.452171
11697.937766	1474.226667	511.404297	-37.173698
11697.937766	1474.226667	510.153320	-85.322739
11697.937766	1474.226667	508.902344	43.441116
11697.937766	1474.226667	507.650391	-12.454942
11697.937766	1474.226667	506.398438	23.001253
11697.937766	1474.226667	505.146484	21.546804
11697.937766	1474.226667	503.893555	12.336179
11697.937766	1474.226667	502.641602	-29.866238
11697.937766	1474.226667	501.388672	44.434967
11697.937766	1474.226667	500.134766	-48.194523
11697.937766	1474.226667	498.881836	-8.824654
11697.937766	1474.226667	497.627930	40.239700
11697.937766	1474.226667	496.374023	56.322037
11697.937766	1474.226667	495.119141	0.660271
11697.937766	1474.226667	493.865234	109.826645
11697.937766	1474.226667	492.610352	92.966728
11697.937766	1474.226667	491.355469	39.305515
11697.937766	1474.226667	490.099609	109.676834
11697.937766	1474.226667	488.843750	79.301704
11697.937766	1474.226667	487.587891	78.000252
11697.937766	1474.226667	486.332031	84.454849
11697.937766	1474.226667	485.075195	139.312042
11697.937766	1474.226667	483.818359	211.574203
11697.937766	1474.226667	482.561523	252.855560
11697.937766	1474.226667	481.304688	274.783234
11697.937766	1474.226667	480.046875	385.680664
11697.937766	1474.226667	478.789063	235.486420
11697.937766	1474.226667	477.531250	238.096848
11697.937766	1474.226667	476.272461	217.519150
11697.937766	1474.226667	475.013672	42.360008
11697.937766	1474.226667	473.754883	193.801315
11697.937766	1474.226667	472.496094	45.779816
11697.937766	1474.226667	471.236328	145.024582
11697.937766	1474.226667	469.976563	-33.804146
11697.937766	1474.226667	468.716797	53.843307
11697.937766	1474.226667	467.456055	97.067520
11697.937766	1474.226667	466.196289	120.981606
11697.937766	1474.226667	464.935547	104.376129
11697.937766	1474.226667	463.673828	87.779915
11697.937766	1474.226667	462.413086	140.611862
11697.937766	1474.226667	461.151367	174.142426
11697.937766	1474.226667	459.889648	93.937546
11697.937766	1474.226667	458.626953	185.274048
11697.937766	1474.226667	457.364258	222.623306
11697.937766	1474.226667	456.101563	256.101318
11697.937766	1474.226667	454.838867	268.377014
11697.937766	1474.226667	453.575195	292.194824
11697.937766	1474.226667	452.312500	364.120819
11697.937766	1474.226667	451.047852	414.838074
11697.937766	1474.226667	449.784180	432.815002
11697.937766	1474.226667	448.519531	427.689606
11697.937766	1474.226667	447.254883	295.616943
11697.937766	1474.226667	445.990234	390.491211
11697.937766	1474.226667	444.725586	258.458588
11697.937766	1474.226667	443.459961	299.453461
11697.937766	1474.226667	442.194336	196.290970
11697.937766	1474.226667	440.927734	173.846603
11697.937766	1474.226667	439.662109	189.809143
11697.937766	1474.226667	438.395508	167.335495
11697.937766	1474.226667	437.127930	154.448578
11697.937766	1474.226667	435.861328	64.760239
11697.937766	1474.226667	434.593750	97.909981
11697.937766	1474.226667	433.326172	186.660889
11697.937766	1474.226667	432.058594	342.484711
11697.937766	1474.226667	430.790039	149.149368
11697.937766	1474.226667	429.521484	216.642426
11697.937766	1474.226667	428.252930	203.553131
11697.937766	1474.226667	426.984375	228.764572
11697.937766	1474.226667	425.714844	217.515015
11697.937766	1474.226667	424.445313	196.648575
11697.937766	1474.226667	423.174805	206.391586
11697.937766	1474.226667	421.905273	175.868698
11697.937766	1474.226667	420.634766	154.880951
11697.937766	1474.226667	419.364258	174.046951
11697.937766	1474.226667	418.092773	120.425606
11697.937766	1474.226667	416.822266	204.530991
11697.937766	1474.226667	415.550781	248.366150
11697.937766	1474.226667	414.278320	221.354355
11697.937766	1474.226667	413.006836	81.475067
11697.937766	1474.226667	411.734375	115.547928
11697.937766	1474.226667	410.461914	222.161041
11697.937766	1474.226667	409.188477	280.878754
11697.937766	1474.226667	407.916016	173.284576
11697.937766	1474.226667	406.642578	216.544327
11697.937766	1474.226667	405.368164	141.301361
11697.937766	1474.226667	404.094727	136.642487
11697.937766	1474.226667	402.820313	168.156677
11697.937766	1474.226667	401.545898	104.141037
11697.937766	1474.226667	400.270508	209.857025
11697.937766	1474.226667	398.996094	307.793304
11697.937766	1474.226667	397.720703	224.398666
11697.937766	1474.226667	396.444336	301.087463
11697.937766	1474.226667	395.168945	192.716217
11697.937766	1474.226667	393.892578	179.561035
11697.937766	1474.226667	392.616211	229.164474
11697.937766	1474.226667	391.339844	143.355774
11697.937766	1474.226667	390.062500	175.532730
11697.937766	1474.226667	388.785156	226.596024
11697.937766	1474.226667	387.507813	168.973663
11697.937766	1474.226667	386.229492	132.158981
11697.937766	1474.226667	384.951172	91.397354
11697.937766	1474.226667	383.672852	168.450150
11697.937766	1474.226667	382.394531	134.976837
11697.937766	1474.226667	381.115234	243.971970
11697.937766	1474.226667	379.835938	181.621078
11697.937766	1474.226667	378.556641	140.022476
11697.937766	1474.226667	377.277344	79.245979
11697.937766	1474.226667	375.997070	37.295570
11697.937766	1474.226667	374.716797	177.528931
11697.937766	1474.226667	373.435547	68.684059
11697.937766	1474.226667	372.155273	28.032784
11697.937766	1474.226667	370.874023	214.983643
11697.937766	1474.226667	369.591797	86.547302
11697.937766	1474.226667	368.310547	85.074036
11697.937766	1474.226667	367.028320	142.165497
11697.937766	1474.226667	365.746094	43.444633
11697.937766	1474.226667	364.463867	118.973534
11697.937766	1474.226667	363.180664	-29.525143
11697.937766	1474.226667	361.897461	11.320671
11697.937766	1474.226667	360.614258	4.487870
11697.937766	1474.226667	359.330078	-4.533206
11697.937766	1474.226667	358.045898	6.988030
11697.937766	1474.226667	356.761719	-2.635843
11697.937766	1474.226667	355.477539	15.830933
11697.937766	1474.226667	354.192383	45.316044
11697.937766	1474.226667	352.907227	29.031012
11697.937766	1474.226667	351.622070	-65.171745
11697.937766	1474.226667	350.336914	108.953560
11697.937766	1474.226667	349.050781	61.337749
11697.937766	1474.226667	347.764648	-5.538833
11697.937766	1474.226667	346.477539	10.408937
11697.937766	1474.226667	345.191406	-2.385787
11697.937766	1474.226667	343.904297	52.445415
11697.937766	1474.226667	342.616211	-68.879845
11697.937766	1474.226667	341.329102	30.440243
11697.937766	1474.226667	340.041016	108.498436
11697.937766	1474.226667	338.752930	16.146591
11697.937766	1474.226667	337.463867	80.045776
11697.937766	1474.226667	336.175781	15.123867
11697.937766	1474.226667	334.886719	6.344606
11697.937766	1474.226667	333.596680	15.928856
11697.937766	1474.226667	332.307617	72.167320
11697.937766	1474.226667	331.017578	-17.343889
11697.937766	1474.226667	329.727539	-60.215637
11697.937766	1474.226667	328.436523	-169.594543
11697.937766	1474.226667	327.146484	-13.767051
11697.937766	1474.226667	325.855469	67.932083
11697.937766	1474.226667	324.563477	-63.849380
11697.937766	1474.226667	323.272461	91.969666
11697.937766	1474.226667	321.980469	-12.729166
11697.937766	1474.226667	320.688477	-57.774071
11697.937766	1474.226667	319.395508	50.860950
11697.937766	1474.226667	318.103516	27.101254
11697.937766	1474.226667	316.810547	-6.743252
11697.937766	1474.226667	315.516602	-39.399136
11697.937766	1474.226667	314.223633	26.929564
11697.937766	1474.226667	312.929688	-65.420860
11697.937766	1474.226667	311.635742	63.310581
11697.937766	1474.226667	310.340820	72.830070
11697.937766	1474.226667	309.045898	-38.660004
11697.937766	1474.226667	307.750977	65.108490
11697.937766	1474.226667	306.456055	70.378014
11697.937766	1474.226667	305.160156	56.024311
11697.937766	1474.226667	303.865234	164.740509
11697.937766	1474.226667	302.568359	71.703804
11697.937766	1474.226667	301.272461	-29.653238
11697.937766	1474.226667	299.975586	149.476700
11697.937766	1474.226667	298.678711	164.451721
