#X		#Y		#Wave		#Intensity
12133.691489	-3.391667	1999.980469	-37.903568
12133.691489	-3.391667	1999.016602	-66.906929
12133.691489	-3.391667	1998.052734	-69.973793
12133.691489	-3.391667	1997.087891	-88.150787
12133.691489	-3.391667	1996.123047	-99.129745
12133.691489	-3.391667	1995.158203	144.812729
12133.691489	-3.391667	1994.193359	81.318840
12133.691489	-3.391667	1993.228516	69.627846
12133.691489	-3.391667	1992.262695	40.397900
12133.691489	-3.391667	1991.297852	-60.821316
12133.691489	-3.391667	1990.332031	3.615328
12133.691489	-3.391667	1989.366211	28.237570
12133.691489	-3.391667	1988.399414	27.920589
12133.691489	-3.391667	1987.433594	-108.631897
12133.691489	-3.391667	1986.466797	4.467844
12133.691489	-3.391667	1985.500977	-90.354263
12133.691489	-3.391667	1984.534180	-66.646484
12133.691489	-3.391667	1983.567383	35.979862
12133.691489	-3.391667	1982.599609	103.811363
12133.691489	-3.391667	1981.632813	-31.144995
12133.691489	-3.391667	1980.665039	117.885971
12133.691489	-3.391667	1979.697266	237.075470
12133.691489	-3.391667	1978.729492	116.546417
12133.691489	-3.391667	1977.761719	119.371376
12133.691489	-3.391667	1976.792969	3.575714
12133.691489	-3.391667	1975.825195	-3.713748
12133.691489	-3.391667	1974.856445	53.032745
12133.691489	-3.391667	1973.887695	99.768921
12133.691489	-3.391667	1972.918945	37.838840
12133.691489	-3.391667	1971.949219	69.535385
12133.691489	-3.391667	1970.980469	61.659489
12133.691489	-3.391667	1970.010742	-39.998013
12133.691489	-3.391667	1969.041016	-8.618480
12133.691489	-3.391667	1968.071289	52.225216
12133.691489	-3.391667	1967.101563	39.035313
12133.691489	-3.391667	1966.130859	119.372169
12133.691489	-3.391667	1965.161133	105.998825
12133.691489	-3.391667	1964.190430	6.359275
12133.691489	-3.391667	1963.219727	7.621858
12133.691489	-3.391667	1962.249023	11.269380
12133.691489	-3.391667	1961.277344	120.671959
12133.691489	-3.391667	1960.306641	23.265423
12133.691489	-3.391667	1959.334961	127.567322
12133.691489	-3.391667	1958.363281	135.834885
12133.691489	-3.391667	1957.391602	28.449961
12133.691489	-3.391667	1956.419922	26.777727
12133.691489	-3.391667	1955.447266	-14.284663
12133.691489	-3.391667	1954.474609	69.971649
12133.691489	-3.391667	1953.501953	97.623566
12133.691489	-3.391667	1952.529297	36.764011
12133.691489	-3.391667	1951.556641	22.556654
12133.691489	-3.391667	1950.583984	13.224669
12133.691489	-3.391667	1949.610352	21.044416
12133.691489	-3.391667	1948.636719	53.375065
12133.691489	-3.391667	1947.663086	-19.896338
12133.691489	-3.391667	1946.689453	-9.728020
12133.691489	-3.391667	1945.715820	34.759132
12133.691489	-3.391667	1944.741211	-92.538383
12133.691489	-3.391667	1943.767578	101.519897
12133.691489	-3.391667	1942.792969	113.995728
12133.691489	-3.391667	1941.818359	6.294971
12133.691489	-3.391667	1940.842773	-13.132957
12133.691489	-3.391667	1939.868164	-30.120785
12133.691489	-3.391667	1938.892578	31.299595
12133.691489	-3.391667	1937.916992	-22.478771
12133.691489	-3.391667	1936.941406	33.986202
12133.691489	-3.391667	1935.965820	146.750809
12133.691489	-3.391667	1934.990234	-71.129677
12133.691489	-3.391667	1934.013672	-78.380623
12133.691489	-3.391667	1933.037109	90.612022
12133.691489	-3.391667	1932.060547	-41.502388
12133.691489	-3.391667	1931.083984	29.527523
12133.691489	-3.391667	1930.107422	2.664000
12133.691489	-3.391667	1929.129883	7.605734
12133.691489	-3.391667	1928.153320	5.207640
12133.691489	-3.391667	1927.175781	41.931171
12133.691489	-3.391667	1926.198242	-31.371130
12133.691489	-3.391667	1925.219727	71.341049
12133.691489	-3.391667	1924.242188	-6.823635
12133.691489	-3.391667	1923.263672	-33.646084
12133.691489	-3.391667	1922.285156	59.247562
12133.691489	-3.391667	1921.306641	73.953445
12133.691489	-3.391667	1920.328125	235.179993
12133.691489	-3.391667	1919.349609	-123.694046
12133.691489	-3.391667	1918.370117	-28.386372
12133.691489	-3.391667	1917.391602	57.133163
12133.691489	-3.391667	1916.412109	18.180172
12133.691489	-3.391667	1915.431641	45.122581
12133.691489	-3.391667	1914.452148	-162.101410
12133.691489	-3.391667	1913.472656	-79.019272
12133.691489	-3.391667	1912.492188	-112.997795
12133.691489	-3.391667	1911.511719	-83.566452
12133.691489	-3.391667	1910.531250	36.053135
12133.691489	-3.391667	1909.550781	-39.317245
12133.691489	-3.391667	1908.569336	-14.749058
12133.691489	-3.391667	1907.588867	104.832687
12133.691489	-3.391667	1906.607422	-48.405384
12133.691489	-3.391667	1905.625977	24.899561
12133.691489	-3.391667	1904.644531	3.239094
12133.691489	-3.391667	1903.662109	-106.031555
12133.691489	-3.391667	1902.680664	8.665713
12133.691489	-3.391667	1901.698242	-22.664566
12133.691489	-3.391667	1900.715820	-131.818466
12133.691489	-3.391667	1899.733398	-19.563330
12133.691489	-3.391667	1898.750000	-19.204634
12133.691489	-3.391667	1897.767578	-48.005882
12133.691489	-3.391667	1896.784180	-64.623627
12133.691489	-3.391667	1895.800781	-61.773087
12133.691489	-3.391667	1894.817383	40.731377
12133.691489	-3.391667	1893.833984	-29.293268
12133.691489	-3.391667	1892.850586	-14.250287
12133.691489	-3.391667	1891.866211	114.958145
12133.691489	-3.391667	1890.881836	-37.551361
12133.691489	-3.391667	1889.897461	11.529285
12133.691489	-3.391667	1888.913086	46.044777
12133.691489	-3.391667	1887.927734	-55.345535
12133.691489	-3.391667	1886.943359	-15.940972
12133.691489	-3.391667	1885.958008	67.135788
12133.691489	-3.391667	1884.972656	33.769188
12133.691489	-3.391667	1883.987305	-33.518929
12133.691489	-3.391667	1883.001953	-161.381531
12133.691489	-3.391667	1882.015625	-100.087982
12133.691489	-3.391667	1881.029297	75.118568
12133.691489	-3.391667	1880.042969	10.365377
12133.691489	-3.391667	1879.056641	-127.032822
12133.691489	-3.391667	1878.070313	16.639572
12133.691489	-3.391667	1877.083984	-72.235359
12133.691489	-3.391667	1876.096680	-10.926467
12133.691489	-3.391667	1875.109375	-191.731781
12133.691489	-3.391667	1874.122070	-108.606178
12133.691489	-3.391667	1873.134766	-6.134411
12133.691489	-3.391667	1872.146484	118.090935
12133.691489	-3.391667	1871.159180	77.775612
12133.691489	-3.391667	1870.170898	32.651730
12133.691489	-3.391667	1869.182617	-48.716110
12133.691489	-3.391667	1868.194336	-13.980107
12133.691489	-3.391667	1867.205078	-30.010666
12133.691489	-3.391667	1866.216797	106.249321
12133.691489	-3.391667	1865.227539	51.563808
12133.691489	-3.391667	1864.238281	16.240425
12133.691489	-3.391667	1863.249023	-48.045441
12133.691489	-3.391667	1862.259766	-22.933842
12133.691489	-3.391667	1861.269531	-12.308834
12133.691489	-3.391667	1860.279297	-16.162668
12133.691489	-3.391667	1859.290039	-29.659037
12133.691489	-3.391667	1858.298828	65.459961
12133.691489	-3.391667	1857.308594	-63.847668
12133.691489	-3.391667	1856.318359	52.973469
12133.691489	-3.391667	1855.327148	104.635040
12133.691489	-3.391667	1854.335938	62.235020
12133.691489	-3.391667	1853.344727	58.436016
12133.691489	-3.391667	1852.353516	11.254163
12133.691489	-3.391667	1851.362305	-55.184563
12133.691489	-3.391667	1850.370117	-99.904320
12133.691489	-3.391667	1849.377930	134.875900
12133.691489	-3.391667	1848.385742	39.562836
12133.691489	-3.391667	1847.393555	38.217014
12133.691489	-3.391667	1846.401367	34.468792
12133.691489	-3.391667	1845.408203	23.503000
12133.691489	-3.391667	1844.415039	19.765638
12133.691489	-3.391667	1843.421875	-142.801422
12133.691489	-3.391667	1842.428711	-6.945776
12133.691489	-3.391667	1841.435547	162.540070
12133.691489	-3.391667	1840.441406	-50.466171
12133.691489	-3.391667	1839.448242	138.204315
12133.691489	-3.391667	1838.454102	14.243464
12133.691489	-3.391667	1837.459961	166.772552
12133.691489	-3.391667	1836.464844	69.289375
12133.691489	-3.391667	1835.470703	123.227890
12133.691489	-3.391667	1834.475586	167.533951
12133.691489	-3.391667	1833.480469	14.852732
12133.691489	-3.391667	1832.485352	99.984482
12133.691489	-3.391667	1831.490234	-122.265656
12133.691489	-3.391667	1830.495117	-41.949486
12133.691489	-3.391667	1829.499023	160.744247
12133.691489	-3.391667	1828.502930	-27.808283
12133.691489	-3.391667	1827.506836	-101.127159
12133.691489	-3.391667	1826.510742	-52.082039
12133.691489	-3.391667	1825.513672	80.882950
12133.691489	-3.391667	1824.517578	-2.027163
12133.691489	-3.391667	1823.520508	157.236420
12133.691489	-3.391667	1822.523438	31.179758
12133.691489	-3.391667	1821.526367	-44.508698
12133.691489	-3.391667	1820.529297	119.438606
12133.691489	-3.391667	1819.531250	-4.171522
12133.691489	-3.391667	1818.533203	99.804718
12133.691489	-3.391667	1817.535156	76.805786
12133.691489	-3.391667	1816.537109	49.015255
12133.691489	-3.391667	1815.539063	-57.775387
12133.691489	-3.391667	1814.540039	96.348541
12133.691489	-3.391667	1813.541992	49.389179
12133.691489	-3.391667	1812.542969	55.069931
12133.691489	-3.391667	1811.543945	-15.812473
12133.691489	-3.391667	1810.543945	83.124390
12133.691489	-3.391667	1809.544922	86.361763
12133.691489	-3.391667	1808.544922	252.152283
12133.691489	-3.391667	1807.544922	9.124266
12133.691489	-3.391667	1806.544922	127.037994
12133.691489	-3.391667	1805.544922	106.306091
12133.691489	-3.391667	1804.544922	25.840687
12133.691489	-3.391667	1803.543945	157.963074
12133.691489	-3.391667	1802.542969	94.198685
12133.691489	-3.391667	1801.541992	123.555351
12133.691489	-3.391667	1800.541016	119.461838
12133.691489	-3.391667	1799.539063	115.349747
12133.691489	-3.391667	1798.538086	-46.271435
12133.691489	-3.391667	1797.536133	4.481943
12133.691489	-3.391667	1796.534180	105.286797
12133.691489	-3.391667	1795.532227	-22.915396
12133.691489	-3.391667	1794.529297	163.651611
12133.691489	-3.391667	1793.527344	90.274414
12133.691489	-3.391667	1792.524414	16.900913
12133.691489	-3.391667	1791.521484	131.795074
12133.691489	-3.391667	1790.518555	94.134743
12133.691489	-3.391667	1789.514648	49.317654
12133.691489	-3.391667	1788.511719	133.106720
12133.691489	-3.391667	1787.507813	-14.144084
12133.691489	-3.391667	1786.503906	93.382568
12133.691489	-3.391667	1785.500000	117.531036
12133.691489	-3.391667	1784.496094	163.063187
12133.691489	-3.391667	1783.491211	6.297555
12133.691489	-3.391667	1782.486328	113.634598
12133.691489	-3.391667	1781.481445	-14.573004
12133.691489	-3.391667	1780.476563	33.220821
12133.691489	-3.391667	1779.471680	9.639290
12133.691489	-3.391667	1778.465820	47.845085
12133.691489	-3.391667	1777.460938	66.994789
12133.691489	-3.391667	1776.455078	10.066904
12133.691489	-3.391667	1775.449219	-34.989555
12133.691489	-3.391667	1774.442383	-58.680439
12133.691489	-3.391667	1773.436523	145.604691
12133.691489	-3.391667	1772.429688	138.451080
12133.691489	-3.391667	1771.422852	55.300545
12133.691489	-3.391667	1770.416016	57.600597
12133.691489	-3.391667	1769.409180	97.839752
12133.691489	-3.391667	1768.402344	5.162295
12133.691489	-3.391667	1767.394531	52.449436
12133.691489	-3.391667	1766.386719	26.162216
12133.691489	-3.391667	1765.378906	201.416626
12133.691489	-3.391667	1764.371094	56.503475
12133.691489	-3.391667	1763.362305	127.321449
12133.691489	-3.391667	1762.354492	55.882092
12133.691489	-3.391667	1761.345703	46.044502
12133.691489	-3.391667	1760.336914	31.439384
12133.691489	-3.391667	1759.328125	99.709137
12133.691489	-3.391667	1758.318359	-19.168068
12133.691489	-3.391667	1757.308594	-76.472069
12133.691489	-3.391667	1756.299805	29.556021
12133.691489	-3.391667	1755.290039	55.036686
12133.691489	-3.391667	1754.279297	42.609833
12133.691489	-3.391667	1753.269531	70.376007
12133.691489	-3.391667	1752.258789	-3.619666
12133.691489	-3.391667	1751.249023	154.153198
12133.691489	-3.391667	1750.238281	-111.429344
12133.691489	-3.391667	1749.226563	-119.257614
12133.691489	-3.391667	1748.215820	-11.295168
12133.691489	-3.391667	1747.204102	-45.204189
12133.691489	-3.391667	1746.193359	-15.338223
12133.691489	-3.391667	1745.181641	49.914360
12133.691489	-3.391667	1744.168945	-38.417313
12133.691489	-3.391667	1743.157227	-18.122593
12133.691489	-3.391667	1742.144531	70.595512
12133.691489	-3.391667	1741.132813	5.813025
12133.691489	-3.391667	1740.120117	49.580734
12133.691489	-3.391667	1739.106445	72.057205
12133.691489	-3.391667	1738.093750	198.296204
12133.691489	-3.391667	1737.080078	3.662336
12133.691489	-3.391667	1736.067383	18.956083
12133.691489	-3.391667	1735.053711	-102.547440
12133.691489	-3.391667	1734.040039	141.352341
12133.691489	-3.391667	1733.025391	83.435219
12133.691489	-3.391667	1732.011719	6.655299
12133.691489	-3.391667	1730.997070	-77.201309
12133.691489	-3.391667	1729.982422	-135.150177
12133.691489	-3.391667	1728.967773	-131.879257
12133.691489	-3.391667	1727.952148	7.922864
12133.691489	-3.391667	1726.937500	-38.344524
12133.691489	-3.391667	1725.921875	-28.141697
12133.691489	-3.391667	1724.906250	-74.457664
12133.691489	-3.391667	1723.890625	135.671524
12133.691489	-3.391667	1722.875000	11.641455
12133.691489	-3.391667	1721.858398	155.745316
12133.691489	-3.391667	1720.841797	-118.811905
12133.691489	-3.391667	1719.825195	-122.926094
12133.691489	-3.391667	1718.808594	2.210973
12133.691489	-3.391667	1717.791992	136.665817
12133.691489	-3.391667	1716.774414	-64.978951
12133.691489	-3.391667	1715.756836	29.427162
12133.691489	-3.391667	1714.739258	-118.165985
12133.691489	-3.391667	1713.721680	88.867233
12133.691489	-3.391667	1712.704102	96.213013
12133.691489	-3.391667	1711.685547	-81.930939
12133.691489	-3.391667	1710.667969	7.522837
12133.691489	-3.391667	1709.649414	68.745949
12133.691489	-3.391667	1708.630859	-121.122551
12133.691489	-3.391667	1707.611328	-8.363555
12133.691489	-3.391667	1706.592773	-34.046085
12133.691489	-3.391667	1705.573242	48.104279
12133.691489	-3.391667	1704.553711	-198.015442
12133.691489	-3.391667	1703.534180	-132.338150
12133.691489	-3.391667	1702.513672	38.732082
12133.691489	-3.391667	1701.494141	8.211548
12133.691489	-3.391667	1700.473633	-62.155392
12133.691489	-3.391667	1699.453125	43.127575
12133.691489	-3.391667	1698.432617	85.114883
12133.691489	-3.391667	1697.412109	19.360504
12133.691489	-3.391667	1696.390625	58.928482
12133.691489	-3.391667	1695.369141	51.644863
12133.691489	-3.391667	1694.347656	168.343887
12133.691489	-3.391667	1693.326172	128.229462
12133.691489	-3.391667	1692.304688	104.472237
12133.691489	-3.391667	1691.282227	-8.171929
12133.691489	-3.391667	1690.260742	26.497030
12133.691489	-3.391667	1689.238281	-97.836151
12133.691489	-3.391667	1688.214844	-198.783081
12133.691489	-3.391667	1687.192383	-70.722626
12133.691489	-3.391667	1686.168945	-92.262169
12133.691489	-3.391667	1685.146484	16.985153
12133.691489	-3.391667	1684.123047	77.116928
12133.691489	-3.391667	1683.099609	141.866806
12133.691489	-3.391667	1682.075195	57.156960
12133.691489	-3.391667	1681.051758	112.495079
12133.691489	-3.391667	1680.027344	200.450745
12133.691489	-3.391667	1679.002930	-17.288164
12133.691489	-3.391667	1677.978516	-4.039184
12133.691489	-3.391667	1676.953125	58.151009
12133.691489	-3.391667	1675.928711	3.708339
12133.691489	-3.391667	1674.903320	-27.429661
12133.691489	-3.391667	1673.877930	-109.859154
12133.691489	-3.391667	1672.852539	-40.806351
12133.691489	-3.391667	1671.826172	144.688339
12133.691489	-3.391667	1670.800781	120.437317
12133.691489	-3.391667	1669.774414	-66.864273
12133.691489	-3.391667	1668.748047	-60.844215
12133.691489	-3.391667	1667.721680	8.010091
12133.691489	-3.391667	1666.694336	-41.900452
12133.691489	-3.391667	1665.667969	-17.338415
12133.691489	-3.391667	1664.640625	146.795944
12133.691489	-3.391667	1663.613281	31.684069
12133.691489	-3.391667	1662.585938	-11.301585
12133.691489	-3.391667	1661.557617	154.994705
12133.691489	-3.391667	1660.530273	11.986346
12133.691489	-3.391667	1659.501953	120.060036
12133.691489	-3.391667	1658.473633	149.053558
12133.691489	-3.391667	1657.444336	17.680683
12133.691489	-3.391667	1656.416016	-48.606464
12133.691489	-3.391667	1655.386719	-45.207924
12133.691489	-3.391667	1654.358398	-46.468376
12133.691489	-3.391667	1653.328125	54.406822
12133.691489	-3.391667	1652.298828	6.661003
12133.691489	-3.391667	1651.269531	237.430756
12133.691489	-3.391667	1650.239258	187.310150
12133.691489	-3.391667	1649.208984	79.192307
12133.691489	-3.391667	1648.178711	210.020050
12133.691489	-3.391667	1647.148438	127.419792
12133.691489	-3.391667	1646.117188	200.186264
12133.691489	-3.391667	1645.086914	177.866623
12133.691489	-3.391667	1644.055664	127.724167
12133.691489	-3.391667	1643.024414	66.001213
12133.691489	-3.391667	1641.992188	238.292725
12133.691489	-3.391667	1640.960938	125.585442
12133.691489	-3.391667	1639.928711	154.182098
12133.691489	-3.391667	1638.896484	245.276764
12133.691489	-3.391667	1637.864258	285.392822
12133.691489	-3.391667	1636.832031	272.246094
12133.691489	-3.391667	1635.798828	229.004730
12133.691489	-3.391667	1634.766602	215.854813
12133.691489	-3.391667	1633.733398	336.868530
12133.691489	-3.391667	1632.699219	335.240173
12133.691489	-3.391667	1631.666016	201.801346
12133.691489	-3.391667	1630.632813	218.685089
12133.691489	-3.391667	1629.598633	406.602966
12133.691489	-3.391667	1628.564453	379.511841
12133.691489	-3.391667	1627.530273	303.901428
12133.691489	-3.391667	1626.495117	295.305573
12133.691489	-3.391667	1625.460938	233.589172
12133.691489	-3.391667	1624.425781	222.691055
12133.691489	-3.391667	1623.390625	96.351730
12133.691489	-3.391667	1622.355469	205.513107
12133.691489	-3.391667	1621.319336	208.458557
12133.691489	-3.391667	1620.284180	449.076416
12133.691489	-3.391667	1619.248047	456.582825
12133.691489	-3.391667	1618.211914	272.637756
12133.691489	-3.391667	1617.174805	305.535370
12133.691489	-3.391667	1616.138672	451.402710
12133.691489	-3.391667	1615.101563	235.286057
12133.691489	-3.391667	1614.065430	182.898407
12133.691489	-3.391667	1613.027344	347.130493
12133.691489	-3.391667	1611.990234	320.081299
12133.691489	-3.391667	1610.953125	332.203217
12133.691489	-3.391667	1609.915039	394.983734
12133.691489	-3.391667	1608.876953	333.404602
12133.691489	-3.391667	1607.838867	400.770477
12133.691489	-3.391667	1606.800781	251.758118
12133.691489	-3.391667	1605.761719	378.947845
12133.691489	-3.391667	1604.723633	446.277679
12133.691489	-3.391667	1603.684570	387.064941
12133.691489	-3.391667	1602.644531	182.985489
12133.691489	-3.391667	1601.605469	372.194550
12133.691489	-3.391667	1600.566406	313.049316
12133.691489	-3.391667	1599.526367	437.809784
12133.691489	-3.391667	1598.486328	574.019714
12133.691489	-3.391667	1597.446289	411.494904
12133.691489	-3.391667	1596.405273	448.890991
12133.691489	-3.391667	1595.365234	343.889008
12133.691489	-3.391667	1594.324219	395.079376
12133.691489	-3.391667	1593.283203	409.526764
12133.691489	-3.391667	1592.242188	515.793640
12133.691489	-3.391667	1591.200195	486.625458
12133.691489	-3.391667	1590.159180	542.379395
12133.691489	-3.391667	1589.117188	430.655792
12133.691489	-3.391667	1588.075195	415.318054
12133.691489	-3.391667	1587.032227	484.840179
12133.691489	-3.391667	1585.990234	570.402039
12133.691489	-3.391667	1584.947266	328.150391
12133.691489	-3.391667	1583.904297	448.109741
12133.691489	-3.391667	1582.861328	403.060822
12133.691489	-3.391667	1581.818359	445.098297
12133.691489	-3.391667	1580.775391	404.679199
12133.691489	-3.391667	1579.731445	499.397308
12133.691489	-3.391667	1578.687500	330.797913
12133.691489	-3.391667	1577.643555	443.839569
12133.691489	-3.391667	1576.598633	520.231750
12133.691489	-3.391667	1575.554688	463.901489
12133.691489	-3.391667	1574.509766	403.031586
12133.691489	-3.391667	1573.464844	474.868011
12133.691489	-3.391667	1572.419922	420.918976
12133.691489	-3.391667	1571.374023	389.870697
12133.691489	-3.391667	1570.329102	587.454163
12133.691489	-3.391667	1569.283203	387.299164
12133.691489	-3.391667	1568.237305	367.763367
12133.691489	-3.391667	1567.191406	318.557098
12133.691489	-3.391667	1566.144531	260.250977
12133.691489	-3.391667	1565.098633	316.180237
12133.691489	-3.391667	1564.051758	294.475372
12133.691489	-3.391667	1563.004883	332.156006
12133.691489	-3.391667	1561.957031	299.088226
12133.691489	-3.391667	1560.910156	339.082611
12133.691489	-3.391667	1559.862305	290.105347
12133.691489	-3.391667	1558.814453	279.949341
12133.691489	-3.391667	1557.766602	126.146751
12133.691489	-3.391667	1556.718750	309.889404
12133.691489	-3.391667	1555.669922	359.081543
12133.691489	-3.391667	1554.621094	55.000431
12133.691489	-3.391667	1553.573242	263.795746
12133.691489	-3.391667	1552.523438	335.829071
12133.691489	-3.391667	1551.474609	211.967606
12133.691489	-3.391667	1550.424805	256.710144
12133.691489	-3.391667	1549.375000	183.060287
12133.691489	-3.391667	1548.325195	50.279179
12133.691489	-3.391667	1547.275391	327.275879
12133.691489	-3.391667	1546.225586	205.956039
12133.691489	-3.391667	1545.174805	262.176331
12133.691489	-3.391667	1544.124023	175.096466
12133.691489	-3.391667	1543.073242	174.504913
12133.691489	-3.391667	1542.022461	148.933273
12133.691489	-3.391667	1540.970703	121.126511
12133.691489	-3.391667	1539.919922	104.731506
12133.691489	-3.391667	1538.868164	97.462006
12133.691489	-3.391667	1537.815430	215.188568
12133.691489	-3.391667	1536.763672	323.818573
12133.691489	-3.391667	1535.710938	234.845779
12133.691489	-3.391667	1534.659180	245.856628
12133.691489	-3.391667	1533.606445	218.300049
12133.691489	-3.391667	1532.552734	63.675976
12133.691489	-3.391667	1531.500000	61.199070
12133.691489	-3.391667	1530.446289	101.865326
12133.691489	-3.391667	1529.393555	113.064079
12133.691489	-3.391667	1528.338867	42.639500
12133.691489	-3.391667	1527.285156	121.942841
12133.691489	-3.391667	1526.231445	110.566078
12133.691489	-3.391667	1525.176758	49.361568
12133.691489	-3.391667	1524.122070	81.133858
12133.691489	-3.391667	1523.067383	99.336838
12133.691489	-3.391667	1522.012695	-63.655666
12133.691489	-3.391667	1520.957031	27.118694
12133.691489	-3.391667	1519.901367	-253.471741
12133.691489	-3.391667	1518.845703	-58.474049
12133.691489	-3.391667	1517.790039	54.998737
12133.691489	-3.391667	1516.734375	10.048924
12133.691489	-3.391667	1515.677734	-25.795034
12133.691489	-3.391667	1514.621094	60.574249
12133.691489	-3.391667	1513.564453	-72.440147
12133.691489	-3.391667	1512.507813	-90.034271
12133.691489	-3.391667	1511.450195	77.807281
12133.691489	-3.391667	1510.393555	30.886974
12133.691489	-3.391667	1509.335938	-22.755325
12133.691489	-3.391667	1508.278320	154.135956
12133.691489	-3.391667	1507.219727	98.312691
12133.691489	-3.391667	1506.162109	-34.236477
12133.691489	-3.391667	1505.103516	176.549149
12133.691489	-3.391667	1504.044922	-1.034533
12133.691489	-3.391667	1502.986328	-52.097168
12133.691489	-3.391667	1501.926758	136.125015
12133.691489	-3.391667	1500.868164	-131.470108
12133.691489	-3.391667	1499.808594	-46.992352
12133.691489	-3.391667	1498.749023	60.050751
12133.691489	-3.391667	1497.688477	79.147232
12133.691489	-3.391667	1496.628906	-25.719913
12133.691489	-3.391667	1495.568359	-44.845261
12133.691489	-3.391667	1494.507813	-108.992378
12133.691489	-3.391667	1493.447266	-15.341783
12133.691489	-3.391667	1492.386719	-79.378662
12133.691489	-3.391667	1491.325195	27.831545
12133.691489	-3.391667	1490.263672	11.190596
12133.691489	-3.391667	1489.202148	-39.170021
12133.691489	-3.391667	1488.140625	-123.230148
12133.691489	-3.391667	1487.079102	-159.948639
12133.691489	-3.391667	1486.016602	-196.608017
12133.691489	-3.391667	1484.954102	39.003292
12133.691489	-3.391667	1483.891602	36.150051
12133.691489	-3.391667	1482.829102	-126.317032
12133.691489	-3.391667	1481.765625	-12.129561
12133.691489	-3.391667	1480.702148	21.140654
12133.691489	-3.391667	1479.638672	-75.904236
12133.691489	-3.391667	1478.575195	67.541527
12133.691489	-3.391667	1477.511719	152.558105
12133.691489	-3.391667	1476.447266	33.267147
12133.691489	-3.391667	1475.382813	-79.220810
12133.691489	-3.391667	1474.318359	82.286705
12133.691489	-3.391667	1473.253906	73.147179
12133.691489	-3.391667	1472.189453	102.190277
12133.691489	-3.391667	1471.124023	37.089088
12133.691489	-3.391667	1470.058594	-3.193044
12133.691489	-3.391667	1468.993164	86.466980
12133.691489	-3.391667	1467.927734	23.869991
12133.691489	-3.391667	1466.861328	44.198524
12133.691489	-3.391667	1465.794922	87.042679
12133.691489	-3.391667	1464.728516	80.564102
12133.691489	-3.391667	1463.662109	-8.637072
12133.691489	-3.391667	1462.594727	-62.045139
12133.691489	-3.391667	1461.528320	-83.895012
12133.691489	-3.391667	1460.460938	90.536133
12133.691489	-3.391667	1459.393555	-80.872337
12133.691489	-3.391667	1458.326172	-31.082844
12133.691489	-3.391667	1457.257813	-110.723015
12133.691489	-3.391667	1456.189453	57.803631
12133.691489	-3.391667	1455.121094	138.520523
12133.691489	-3.391667	1454.052734	16.832422
12133.691489	-3.391667	1452.984375	133.291565
12133.691489	-3.391667	1451.915039	-5.668929
12133.691489	-3.391667	1450.845703	-121.288780
12133.691489	-3.391667	1449.776367	175.979340
12133.691489	-3.391667	1448.707031	21.071934
12133.691489	-3.391667	1447.636719	-306.556732
12133.691489	-3.391667	1446.567383	2.923963
12133.691489	-3.391667	1445.497070	68.814255
12133.691489	-3.391667	1444.425781	15.988247
12133.691489	-3.391667	1443.355469	146.716232
12133.691489	-3.391667	1442.285156	97.036041
12133.691489	-3.391667	1441.213867	66.851906
12133.691489	-3.391667	1440.142578	37.490501
12133.691489	-3.391667	1439.070313	-0.685369
12133.691489	-3.391667	1437.999023	-138.584595
12133.691489	-3.391667	1436.926758	-32.799332
12133.691489	-3.391667	1435.854492	21.367998
12133.691489	-3.391667	1434.782227	21.493473
12133.691489	-3.391667	1433.709961	-110.259430
12133.691489	-3.391667	1432.636719	-97.081871
12133.691489	-3.391667	1431.563477	45.462803
12133.691489	-3.391667	1430.490234	-41.178745
12133.691489	-3.391667	1429.416992	-132.169235
12133.691489	-3.391667	1428.343750	-95.790016
12133.691489	-3.391667	1427.269531	137.538925
12133.691489	-3.391667	1426.195313	94.561142
12133.691489	-3.391667	1425.121094	-103.213745
12133.691489	-3.391667	1424.046875	13.974874
12133.691489	-3.391667	1422.971680	62.470379
12133.691489	-3.391667	1421.896484	-134.322266
12133.691489	-3.391667	1420.821289	60.351181
12133.691489	-3.391667	1419.746094	130.954926
12133.691489	-3.391667	1418.669922	-44.104992
12133.691489	-3.391667	1417.594727	49.452679
12133.691489	-3.391667	1416.518555	54.497326
12133.691489	-3.391667	1415.442383	107.313995
12133.691489	-3.391667	1414.365234	69.246384
12133.691489	-3.391667	1413.289063	42.954777
12133.691489	-3.391667	1412.211914	-60.533398
12133.691489	-3.391667	1411.134766	15.549150
12133.691489	-3.391667	1410.057617	-5.597084
12133.691489	-3.391667	1408.979492	-12.479297
12133.691489	-3.391667	1407.902344	69.879753
12133.691489	-3.391667	1406.824219	39.130936
12133.691489	-3.391667	1405.746094	117.878708
12133.691489	-3.391667	1404.666992	-19.547544
12133.691489	-3.391667	1403.588867	124.306610
12133.691489	-3.391667	1402.509766	-17.690844
12133.691489	-3.391667	1401.430664	34.799236
12133.691489	-3.391667	1400.351563	76.677025
12133.691489	-3.391667	1399.271484	121.363876
12133.691489	-3.391667	1398.192383	88.500824
12133.691489	-3.391667	1397.112305	261.390808
12133.691489	-3.391667	1396.031250	169.793457
12133.691489	-3.391667	1394.951172	141.538040
12133.691489	-3.391667	1393.871094	235.464935
12133.691489	-3.391667	1392.790039	200.182236
12133.691489	-3.391667	1391.708984	333.797729
12133.691489	-3.391667	1390.626953	233.186676
12133.691489	-3.391667	1389.545898	45.221889
12133.691489	-3.391667	1388.463867	200.998383
12133.691489	-3.391667	1387.381836	195.365509
12133.691489	-3.391667	1386.299805	169.023193
12133.691489	-3.391667	1385.217773	258.435516
12133.691489	-3.391667	1384.134766	295.983337
12133.691489	-3.391667	1383.051758	175.378098
12133.691489	-3.391667	1381.968750	229.649841
12133.691489	-3.391667	1380.885742	317.330963
12133.691489	-3.391667	1379.802734	80.433907
12133.691489	-3.391667	1378.718750	110.771805
12133.691489	-3.391667	1377.634766	113.950935
12133.691489	-3.391667	1376.550781	101.437820
12133.691489	-3.391667	1375.465820	96.504189
12133.691489	-3.391667	1374.381836	127.120880
12133.691489	-3.391667	1373.296875	198.919571
12133.691489	-3.391667	1372.211914	228.610825
12133.691489	-3.391667	1371.126953	200.336472
12133.691489	-3.391667	1370.041016	243.968475
12133.691489	-3.391667	1368.955078	143.363800
12133.691489	-3.391667	1367.869141	183.039719
12133.691489	-3.391667	1366.783203	158.114090
12133.691489	-3.391667	1365.697266	347.106628
12133.691489	-3.391667	1364.610352	169.885559
12133.691489	-3.391667	1363.523438	100.309113
12133.691489	-3.391667	1362.436523	89.700249
12133.691489	-3.391667	1361.349609	141.627960
12133.691489	-3.391667	1360.261719	194.434723
12133.691489	-3.391667	1359.174805	131.418549
12133.691489	-3.391667	1358.086914	141.829651
12133.691489	-3.391667	1356.998047	27.811356
12133.691489	-3.391667	1355.910156	121.824577
12133.691489	-3.391667	1354.821289	104.591873
12133.691489	-3.391667	1353.732422	151.402847
12133.691489	-3.391667	1352.643555	83.758133
12133.691489	-3.391667	1351.554688	-68.717606
12133.691489	-3.391667	1350.464844	125.238266
12133.691489	-3.391667	1349.375000	195.275574
12133.691489	-3.391667	1348.285156	63.190353
12133.691489	-3.391667	1347.195313	-11.631988
12133.691489	-3.391667	1346.105469	104.784760
12133.691489	-3.391667	1345.014648	69.517807
12133.691489	-3.391667	1343.923828	140.448288
12133.691489	-3.391667	1342.833008	133.326340
12133.691489	-3.391667	1341.741211	160.518295
12133.691489	-3.391667	1340.650391	143.085846
12133.691489	-3.391667	1339.558594	167.541840
12133.691489	-3.391667	1338.466797	254.241394
12133.691489	-3.391667	1337.374023	313.318054
12133.691489	-3.391667	1336.282227	195.540268
12133.691489	-3.391667	1335.189453	152.194107
12133.691489	-3.391667	1334.096680	159.346924
12133.691489	-3.391667	1333.003906	325.911469
12133.691489	-3.391667	1331.910156	358.158600
12133.691489	-3.391667	1330.817383	88.943459
12133.691489	-3.391667	1329.723633	159.715881
12133.691489	-3.391667	1328.629883	347.926422
12133.691489	-3.391667	1327.535156	303.947144
12133.691489	-3.391667	1326.441406	126.070946
12133.691489	-3.391667	1325.346680	248.685364
12133.691489	-3.391667	1324.251953	132.969391
12133.691489	-3.391667	1323.156250	250.310272
12133.691489	-3.391667	1322.061523	315.299591
12133.691489	-3.391667	1320.965820	161.655609
12133.691489	-3.391667	1319.870117	165.999115
12133.691489	-3.391667	1318.774414	217.038223
12133.691489	-3.391667	1317.678711	247.004990
12133.691489	-3.391667	1316.582031	203.968903
12133.691489	-3.391667	1315.485352	204.219620
12133.691489	-3.391667	1314.388672	182.960388
12133.691489	-3.391667	1313.291016	213.659653
12133.691489	-3.391667	1312.194336	230.882324
12133.691489	-3.391667	1311.096680	301.838165
12133.691489	-3.391667	1309.999023	209.151718
12133.691489	-3.391667	1308.901367	109.078949
12133.691489	-3.391667	1307.802734	110.195335
12133.691489	-3.391667	1306.705078	219.446472
12133.691489	-3.391667	1305.606445	150.888474
12133.691489	-3.391667	1304.506836	249.998077
12133.691489	-3.391667	1303.408203	195.919006
12133.691489	-3.391667	1302.308594	190.995071
12133.691489	-3.391667	1301.208984	182.938095
12133.691489	-3.391667	1300.109375	259.583649
12133.691489	-3.391667	1299.009766	77.858559
12133.691489	-3.391667	1297.909180	269.545013
12133.691489	-3.391667	1296.808594	175.249756
12133.691489	-3.391667	1295.708008	231.757111
12133.691489	-3.391667	1294.607422	147.928482
12133.691489	-3.391667	1293.506836	146.536469
12133.691489	-3.391667	1292.405273	240.177231
12133.691489	-3.391667	1291.303711	180.422333
12133.691489	-3.391667	1290.202148	291.956451
12133.691489	-3.391667	1289.099609	228.450989
12133.691489	-3.391667	1287.998047	218.069351
12133.691489	-3.391667	1286.895508	150.311966
12133.691489	-3.391667	1285.792969	210.810379
12133.691489	-3.391667	1284.689453	324.513397
12133.691489	-3.391667	1283.586914	210.091644
12133.691489	-3.391667	1282.483398	233.728760
12133.691489	-3.391667	1281.379883	203.326752
12133.691489	-3.391667	1280.276367	134.451172
12133.691489	-3.391667	1279.171875	240.620697
12133.691489	-3.391667	1278.067383	88.526855
12133.691489	-3.391667	1276.962891	136.870972
12133.691489	-3.391667	1275.858398	107.393387
12133.691489	-3.391667	1274.753906	203.163071
12133.691489	-3.391667	1273.648438	100.771965
12133.691489	-3.391667	1272.542969	91.611313
12133.691489	-3.391667	1271.437500	47.051350
12133.691489	-3.391667	1270.331055	60.788525
12133.691489	-3.391667	1269.225586	136.129562
12133.691489	-3.391667	1268.119141	10.109313
12133.691489	-3.391667	1267.012695	69.153183
12133.691489	-3.391667	1265.906250	-64.982841
12133.691489	-3.391667	1264.798828	-4.016353
12133.691489	-3.391667	1263.691406	19.623554
12133.691489	-3.391667	1262.583984	88.226563
12133.691489	-3.391667	1261.476563	-26.345860
12133.691489	-3.391667	1260.368164	-55.539803
12133.691489	-3.391667	1259.260742	-120.806404
12133.691489	-3.391667	1258.152344	16.153902
12133.691489	-3.391667	1257.043945	-34.430759
12133.691489	-3.391667	1255.934570	16.765009
12133.691489	-3.391667	1254.825195	-37.961334
12133.691489	-3.391667	1253.716797	148.409332
12133.691489	-3.391667	1252.606445	-154.820389
12133.691489	-3.391667	1251.497070	-23.117346
12133.691489	-3.391667	1250.387695	-89.025742
12133.691489	-3.391667	1249.277344	-67.793419
12133.691489	-3.391667	1248.166992	-13.054054
12133.691489	-3.391667	1247.055664	-1.218572
12133.691489	-3.391667	1245.945313	-18.577936
12133.691489	-3.391667	1244.833984	71.678192
12133.691489	-3.391667	1243.722656	1.536239
12133.691489	-3.391667	1242.611328	-0.788771
12133.691489	-3.391667	1241.499023	74.579346
12133.691489	-3.391667	1240.387695	-25.872013
12133.691489	-3.391667	1239.275391	-17.216818
12133.691489	-3.391667	1238.162109	63.066586
12133.691489	-3.391667	1237.049805	-65.073936
12133.691489	-3.391667	1235.936523	-11.342733
12133.691489	-3.391667	1234.823242	80.293060
12133.691489	-3.391667	1233.709961	63.490856
12133.691489	-3.391667	1232.596680	34.556995
12133.691489	-3.391667	1231.482422	103.503395
12133.691489	-3.391667	1230.369141	111.081200
12133.691489	-3.391667	1229.253906	114.689537
12133.691489	-3.391667	1228.139648	135.865234
12133.691489	-3.391667	1227.025391	81.782784
12133.691489	-3.391667	1225.910156	84.758301
12133.691489	-3.391667	1224.794922	151.088867
12133.691489	-3.391667	1223.679688	87.432899
12133.691489	-3.391667	1222.563477	-77.267555
12133.691489	-3.391667	1221.447266	25.129845
12133.691489	-3.391667	1220.331055	-45.553886
12133.691489	-3.391667	1219.214844	141.810867
12133.691489	-3.391667	1218.098633	5.399599
12133.691489	-3.391667	1216.981445	-35.605412
12133.691489	-3.391667	1215.864258	-20.965588
12133.691489	-3.391667	1214.747070	-31.593306
12133.691489	-3.391667	1213.629883	6.471138
12133.691489	-3.391667	1212.511719	-4.840996
12133.691489	-3.391667	1211.393555	-47.703194
12133.691489	-3.391667	1210.275391	48.955090
12133.691489	-3.391667	1209.157227	51.356758
12133.691489	-3.391667	1208.038086	-24.346750
12133.691489	-3.391667	1206.918945	-85.255135
12133.691489	-3.391667	1205.799805	-51.069328
12133.691489	-3.391667	1204.680664	28.856920
12133.691489	-3.391667	1203.560547	-11.323509
12133.691489	-3.391667	1202.441406	60.989655
12133.691489	-3.391667	1201.321289	-91.554832
12133.691489	-3.391667	1200.200195	-130.722855
12133.691489	-3.391667	1199.080078	-51.476566
12133.691489	-3.391667	1197.958984	-178.620880
12133.691489	-3.391667	1196.837891	-129.361832
12133.691489	-3.391667	1195.716797	-67.224518
12133.691489	-3.391667	1194.594727	-69.504890
12133.691489	-3.391667	1193.473633	-43.558998
12133.691489	-3.391667	1192.351563	-26.588839
12133.691489	-3.391667	1191.229492	-56.831123
12133.691489	-3.391667	1190.106445	53.223351
12133.691489	-3.391667	1188.984375	-9.895612
12133.691489	-3.391667	1187.861328	-30.134245
12133.691489	-3.391667	1186.738281	2.653612
12133.691489	-3.391667	1185.614258	-75.283615
12133.691489	-3.391667	1184.491211	-65.141106
12133.691489	-3.391667	1183.367188	-20.274370
12133.691489	-3.391667	1182.243164	-66.948311
12133.691489	-3.391667	1181.119141	28.557112
12133.691489	-3.391667	1179.994141	16.444363
12133.691489	-3.391667	1178.869141	-6.839982
12133.691489	-3.391667	1177.744141	-42.702339
12133.691489	-3.391667	1176.619141	-98.718063
12133.691489	-3.391667	1175.493164	-16.837088
12133.691489	-3.391667	1174.368164	-39.602432
12133.691489	-3.391667	1173.242188	-68.082253
12133.691489	-3.391667	1172.115234	-62.754784
12133.691489	-3.391667	1170.989258	-51.214207
12133.691489	-3.391667	1169.862305	-39.582481
12133.691489	-3.391667	1168.735352	-103.348900
12133.691489	-3.391667	1167.608398	-1.030691
12133.691489	-3.391667	1166.481445	-97.708557
12133.691489	-3.391667	1165.353516	-25.962912
12133.691489	-3.391667	1164.225586	-41.497814
12133.691489	-3.391667	1163.097656	-25.409586
12133.691489	-3.391667	1161.968750	-87.652702
12133.691489	-3.391667	1160.840820	-104.984123
12133.691489	-3.391667	1159.711914	-74.354187
12133.691489	-3.391667	1158.583008	-102.167053
12133.691489	-3.391667	1157.453125	-75.471992
12133.691489	-3.391667	1156.324219	-100.374916
12133.691489	-3.391667	1155.194336	-47.792622
12133.691489	-3.391667	1154.064453	-87.048607
12133.691489	-3.391667	1152.933594	-99.225403
12133.691489	-3.391667	1151.803711	-161.179749
12133.691489	-3.391667	1150.672852	-159.989212
12133.691489	-3.391667	1149.541992	-55.629559
12133.691489	-3.391667	1148.411133	-153.005157
12133.691489	-3.391667	1147.279297	-21.821680
12133.691489	-3.391667	1146.147461	-55.553345
12133.691489	-3.391667	1145.015625	-46.960495
12133.691489	-3.391667	1143.883789	-34.673565
12133.691489	-3.391667	1142.750977	-128.691238
12133.691489	-3.391667	1141.619141	-119.373817
12133.691489	-3.391667	1140.486328	-98.007645
12133.691489	-3.391667	1139.352539	4.410578
12133.691489	-3.391667	1138.219727	-0.175622
12133.691489	-3.391667	1137.085938	-98.309532
12133.691489	-3.391667	1135.952148	-71.782593
12133.691489	-3.391667	1134.818359	-12.748653
12133.691489	-3.391667	1133.683594	55.891628
12133.691489	-3.391667	1132.549805	-22.758343
12133.691489	-3.391667	1131.415039	46.855133
12133.691489	-3.391667	1130.279297	147.242218
12133.691489	-3.391667	1129.144531	163.655838
12133.691489	-3.391667	1128.008789	112.509483
12133.691489	-3.391667	1126.873047	157.723785
12133.691489	-3.391667	1125.737305	125.500381
12133.691489	-3.391667	1124.601563	120.807037
12133.691489	-3.391667	1123.464844	139.240494
12133.691489	-3.391667	1122.328125	-9.778483
12133.691489	-3.391667	1121.191406	61.215405
12133.691489	-3.391667	1120.054688	84.669418
12133.691489	-3.391667	1118.916992	87.153893
12133.691489	-3.391667	1117.779297	130.080856
12133.691489	-3.391667	1116.641602	239.523071
12133.691489	-3.391667	1115.503906	126.416565
12133.691489	-3.391667	1114.365234	194.041077
12133.691489	-3.391667	1113.226563	6.041655
12133.691489	-3.391667	1112.087891	97.805016
12133.691489	-3.391667	1110.949219	81.801392
12133.691489	-3.391667	1109.809570	46.763565
12133.691489	-3.391667	1108.669922	80.318123
12133.691489	-3.391667	1107.530273	-19.460701
12133.691489	-3.391667	1106.390625	-71.934700
12133.691489	-3.391667	1105.250000	30.242619
12133.691489	-3.391667	1104.109375	56.479656
12133.691489	-3.391667	1102.968750	102.564049
12133.691489	-3.391667	1101.828125	104.308807
12133.691489	-3.391667	1100.686523	80.768860
12133.691489	-3.391667	1099.544922	88.363434
12133.691489	-3.391667	1098.403320	52.344528
12133.691489	-3.391667	1097.261719	58.912868
12133.691489	-3.391667	1096.120117	185.479141
12133.691489	-3.391667	1094.977539	301.809631
12133.691489	-3.391667	1093.834961	47.775303
12133.691489	-3.391667	1092.691406	10.446130
12133.691489	-3.391667	1091.548828	112.620827
12133.691489	-3.391667	1090.405273	-41.823956
12133.691489	-3.391667	1089.261719	100.863716
12133.691489	-3.391667	1088.118164	173.203445
12133.691489	-3.391667	1086.973633	308.817322
12133.691489	-3.391667	1085.829102	176.954468
12133.691489	-3.391667	1084.684570	84.131500
12133.691489	-3.391667	1083.540039	38.205936
12133.691489	-3.391667	1082.395508	82.099724
12133.691489	-3.391667	1081.250000	45.893391
12133.691489	-3.391667	1080.104492	100.986992
12133.691489	-3.391667	1078.958984	23.127188
12133.691489	-3.391667	1077.812500	200.568771
12133.691489	-3.391667	1076.666016	151.335419
12133.691489	-3.391667	1075.519531	-47.483467
12133.691489	-3.391667	1074.373047	55.421310
12133.691489	-3.391667	1073.226563	38.267120
12133.691489	-3.391667	1072.079102	36.711021
12133.691489	-3.391667	1070.931641	51.305088
12133.691489	-3.391667	1069.784180	-54.057518
12133.691489	-3.391667	1068.635742	33.675236
12133.691489	-3.391667	1067.487305	76.781555
12133.691489	-3.391667	1066.338867	113.712234
12133.691489	-3.391667	1065.190430	51.665600
12133.691489	-3.391667	1064.041992	232.510910
12133.691489	-3.391667	1062.892578	153.289871
12133.691489	-3.391667	1061.743164	129.659668
12133.691489	-3.391667	1060.593750	65.185867
12133.691489	-3.391667	1059.443359	96.363724
12133.691489	-3.391667	1058.292969	178.678635
12133.691489	-3.391667	1057.142578	187.580902
12133.691489	-3.391667	1055.992188	115.701988
12133.691489	-3.391667	1054.841797	53.723663
12133.691489	-3.391667	1053.690430	169.737793
12133.691489	-3.391667	1052.539063	157.203003
12133.691489	-3.391667	1051.387695	117.221947
12133.691489	-3.391667	1050.235352	151.429916
12133.691489	-3.391667	1049.083984	71.257385
12133.691489	-3.391667	1047.931641	-51.311840
12133.691489	-3.391667	1046.778320	69.628571
12133.691489	-3.391667	1045.625977	29.455475
12133.691489	-3.391667	1044.472656	77.327393
12133.691489	-3.391667	1043.319336	160.062469
12133.691489	-3.391667	1042.166016	122.450401
12133.691489	-3.391667	1041.012695	-6.857828
12133.691489	-3.391667	1039.858398	230.587906
12133.691489	-3.391667	1038.704102	48.121895
12133.691489	-3.391667	1037.549805	3.567054
12133.691489	-3.391667	1036.394531	55.279682
12133.691489	-3.391667	1035.239258	77.509666
12133.691489	-3.391667	1034.083984	54.510574
12133.691489	-3.391667	1032.928711	50.314278
12133.691489	-3.391667	1031.773438	16.462421
12133.691489	-3.391667	1030.617188	61.852749
12133.691489	-3.391667	1029.460938	82.787971
12133.691489	-3.391667	1028.304688	176.350739
12133.691489	-3.391667	1027.147461	43.867966
12133.691489	-3.391667	1025.991211	26.746801
12133.691489	-3.391667	1024.833984	-44.370815
12133.691489	-3.391667	1023.675781	93.199783
12133.691489	-3.391667	1022.518555	38.062618
12133.691489	-3.391667	1021.360352	76.867844
12133.691489	-3.391667	1020.202148	34.436836
12133.691489	-3.391667	1019.043945	-18.886997
12133.691489	-3.391667	1017.884766	-56.495117
12133.691489	-3.391667	1016.726563	35.926586
12133.691489	-3.391667	1015.567383	25.938789
12133.691489	-3.391667	1014.407227	7.683688
12133.691489	-3.391667	1013.248047	86.231323
12133.691489	-3.391667	1012.087891	-6.029568
12133.691489	-3.391667	1010.927734	-7.006521
12133.691489	-3.391667	1009.767578	27.869463
12133.691489	-3.391667	1008.606445	29.008591
12133.691489	-3.391667	1007.446289	109.775948
12133.691489	-3.391667	1006.285156	109.291092
12133.691489	-3.391667	1005.123047	213.959412
12133.691489	-3.391667	1003.961914	201.276443
12133.691489	-3.391667	1002.799805	224.754745
12133.691489	-3.391667	1001.637695	124.495674
12133.691489	-3.391667	1000.475586	286.450043
12133.691489	-3.391667	999.312500	80.994324
12133.691489	-3.391667	998.149414	81.296753
12133.691489	-3.391667	996.986328	28.212967
12133.691489	-3.391667	995.823242	196.055618
12133.691489	-3.391667	994.659180	216.821198
12133.691489	-3.391667	993.496094	25.002485
12133.691489	-3.391667	992.332031	111.175827
12133.691489	-3.391667	991.166992	31.023954
12133.691489	-3.391667	990.002930	93.090004
12133.691489	-3.391667	988.837891	-103.218208
12133.691489	-3.391667	987.672852	51.147572
12133.691489	-3.391667	986.506836	53.986019
12133.691489	-3.391667	985.341797	2.602073
12133.691489	-3.391667	984.175781	104.336075
12133.691489	-3.391667	983.009766	51.033207
12133.691489	-3.391667	981.843750	-53.237061
12133.691489	-3.391667	980.676758	-98.461266
12133.691489	-3.391667	979.509766	42.971909
12133.691489	-3.391667	978.342773	96.379982
12133.691489	-3.391667	977.175781	140.140045
12133.691489	-3.391667	976.007813	85.179573
12133.691489	-3.391667	974.839844	63.047920
12133.691489	-3.391667	973.671875	27.180754
12133.691489	-3.391667	972.503906	69.134369
12133.691489	-3.391667	971.334961	36.376736
12133.691489	-3.391667	970.166016	98.231636
12133.691489	-3.391667	968.997070	86.242653
12133.691489	-3.391667	967.828125	88.809814
12133.691489	-3.391667	966.658203	61.975300
12133.691489	-3.391667	965.488281	158.079498
12133.691489	-3.391667	964.318359	-4.957538
12133.691489	-3.391667	963.148438	66.864319
12133.691489	-3.391667	961.977539	32.525177
12133.691489	-3.391667	960.806641	115.458733
12133.691489	-3.391667	959.635742	13.659250
12133.691489	-3.391667	958.463867	22.699589
12133.691489	-3.391667	957.292969	151.164352
12133.691489	-3.391667	956.121094	58.020920
12133.691489	-3.391667	954.948242	26.644388
12133.691489	-3.391667	953.776367	57.057869
12133.691489	-3.391667	952.603516	64.563164
12133.691489	-3.391667	951.430664	9.258081
12133.691489	-3.391667	950.257813	12.258443
12133.691489	-3.391667	949.084961	-28.867769
12133.691489	-3.391667	947.911133	29.467377
12133.691489	-3.391667	946.737305	47.915405
12133.691489	-3.391667	945.563477	18.965675
12133.691489	-3.391667	944.388672	-26.195759
12133.691489	-3.391667	943.213867	31.420044
12133.691489	-3.391667	942.039063	-71.317192
12133.691489	-3.391667	940.864258	-27.309711
12133.691489	-3.391667	939.688477	26.225676
12133.691489	-3.391667	938.513672	24.387409
12133.691489	-3.391667	937.337891	-43.899830
12133.691489	-3.391667	936.161133	30.060806
12133.691489	-3.391667	934.985352	152.039169
12133.691489	-3.391667	933.808594	63.080521
12133.691489	-3.391667	932.631836	139.339828
12133.691489	-3.391667	931.454102	167.282379
12133.691489	-3.391667	930.277344	227.367020
12133.691489	-3.391667	929.099609	81.187767
12133.691489	-3.391667	927.921875	106.839584
12133.691489	-3.391667	926.743164	45.466408
12133.691489	-3.391667	925.565430	32.215603
12133.691489	-3.391667	924.386719	-123.049316
12133.691489	-3.391667	923.208008	-14.930666
12133.691489	-3.391667	922.028320	33.628567
12133.691489	-3.391667	920.849609	89.026260
12133.691489	-3.391667	919.669922	90.568748
12133.691489	-3.391667	919.474609	-59.022499
12133.691489	-3.391667	918.309570	-51.701099
12133.691489	-3.391667	917.143555	12.803900
12133.691489	-3.391667	915.977539	203.070862
12133.691489	-3.391667	914.810547	-77.800262
12133.691489	-3.391667	913.644531	91.822319
12133.691489	-3.391667	912.477539	41.939697
12133.691489	-3.391667	911.310547	17.210815
12133.691489	-3.391667	910.143555	-76.057159
12133.691489	-3.391667	908.975586	-75.632004
12133.691489	-3.391667	907.807617	-152.864517
12133.691489	-3.391667	906.639648	-120.465149
12133.691489	-3.391667	905.471680	67.157959
12133.691489	-3.391667	904.303711	24.167412
12133.691489	-3.391667	903.134766	-114.654289
12133.691489	-3.391667	901.965820	-75.461670
12133.691489	-3.391667	900.796875	54.954769
12133.691489	-3.391667	899.626953	-47.310493
12133.691489	-3.391667	898.457031	-140.417831
12133.691489	-3.391667	897.287109	-92.149467
12133.691489	-3.391667	896.117188	-30.229984
12133.691489	-3.391667	894.947266	-95.951859
12133.691489	-3.391667	893.776367	4.666563
12133.691489	-3.391667	892.605469	55.127029
12133.691489	-3.391667	891.434570	-8.307281
12133.691489	-3.391667	890.262695	-30.733822
12133.691489	-3.391667	889.091797	-16.734053
12133.691489	-3.391667	887.919922	-168.890594
12133.691489	-3.391667	886.748047	-50.201706
12133.691489	-3.391667	885.575195	-45.317596
12133.691489	-3.391667	884.403320	-163.269409
12133.691489	-3.391667	883.230469	125.892891
12133.691489	-3.391667	882.057617	-39.800606
12133.691489	-3.391667	880.883789	-137.234039
12133.691489	-3.391667	879.710938	-155.087448
12133.691489	-3.391667	878.537109	-82.046562
12133.691489	-3.391667	877.362305	-99.910751
12133.691489	-3.391667	876.188477	-95.060226
12133.691489	-3.391667	875.013672	-162.883896
12133.691489	-3.391667	873.839844	-126.246323
12133.691489	-3.391667	872.664063	130.558914
12133.691489	-3.391667	871.489258	-14.446172
12133.691489	-3.391667	870.313477	-100.401016
12133.691489	-3.391667	869.138672	8.769280
12133.691489	-3.391667	867.962891	-24.999046
12133.691489	-3.391667	866.786133	-104.109863
12133.691489	-3.391667	865.610352	75.261734
12133.691489	-3.391667	864.433594	-46.914848
12133.691489	-3.391667	863.256836	30.382200
12133.691489	-3.391667	862.079102	-80.415932
12133.691489	-3.391667	860.902344	-145.869080
12133.691489	-3.391667	859.724609	-57.290600
12133.691489	-3.391667	858.546875	-134.053192
12133.691489	-3.391667	857.368164	85.783554
12133.691489	-3.391667	856.190430	-72.472473
12133.691489	-3.391667	855.011719	-45.103416
12133.691489	-3.391667	853.833008	-40.376526
12133.691489	-3.391667	852.654297	43.513783
12133.691489	-3.391667	851.474609	25.593851
12133.691489	-3.391667	850.294922	82.292244
12133.691489	-3.391667	849.115234	-62.238285
12133.691489	-3.391667	847.935547	3.483124
12133.691489	-3.391667	846.754883	78.211304
12133.691489	-3.391667	845.575195	-73.026077
12133.691489	-3.391667	844.393555	-27.689482
12133.691489	-3.391667	843.212891	17.620817
12133.691489	-3.391667	842.032227	-106.435097
12133.691489	-3.391667	840.850586	-92.743546
12133.691489	-3.391667	839.668945	-54.238735
12133.691489	-3.391667	838.486328	-133.092651
12133.691489	-3.391667	837.304688	36.240028
12133.691489	-3.391667	836.122070	-38.103630
12133.691489	-3.391667	834.939453	-103.403511
12133.691489	-3.391667	833.756836	-13.114811
12133.691489	-3.391667	832.573242	-4.019899
12133.691489	-3.391667	831.389648	-58.039768
12133.691489	-3.391667	830.206055	7.375751
12133.691489	-3.391667	829.022461	95.283669
12133.691489	-3.391667	827.838867	-82.624237
12133.691489	-3.391667	826.654297	45.784161
12133.691489	-3.391667	825.469727	-62.263672
12133.691489	-3.391667	824.284180	61.569458
12133.691489	-3.391667	823.099609	68.318741
12133.691489	-3.391667	821.914063	-14.942410
12133.691489	-3.391667	820.728516	14.298176
12133.691489	-3.391667	819.542969	9.781569
12133.691489	-3.391667	818.356445	-41.962215
12133.691489	-3.391667	817.169922	-32.994244
12133.691489	-3.391667	815.983398	-120.689171
12133.691489	-3.391667	814.796875	-93.750252
12133.691489	-3.391667	813.609375	-15.156801
12133.691489	-3.391667	812.422852	-53.413048
12133.691489	-3.391667	811.235352	16.136301
12133.691489	-3.391667	810.046875	67.684921
12133.691489	-3.391667	808.859375	6.956655
12133.691489	-3.391667	807.670898	-11.112500
12133.691489	-3.391667	806.482422	-65.088432
12133.691489	-3.391667	805.293945	-38.287209
12133.691489	-3.391667	804.104492	-58.610580
12133.691489	-3.391667	802.915039	-49.784077
12133.691489	-3.391667	801.725586	-0.614498
12133.691489	-3.391667	800.536133	59.731007
12133.691489	-3.391667	799.345703	137.969788
12133.691489	-3.391667	798.155273	48.111702
12133.691489	-3.391667	796.964844	34.446621
12133.691489	-3.391667	795.774414	-35.219463
12133.691489	-3.391667	794.583008	116.823433
12133.691489	-3.391667	793.392578	121.025940
12133.691489	-3.391667	792.200195	46.871811
12133.691489	-3.391667	791.008789	35.396492
12133.691489	-3.391667	789.816406	-20.835409
12133.691489	-3.391667	788.625000	115.323105
12133.691489	-3.391667	787.432617	-88.540459
12133.691489	-3.391667	786.239258	-10.587922
12133.691489	-3.391667	785.046875	-10.928081
12133.691489	-3.391667	783.853516	-156.565781
12133.691489	-3.391667	782.660156	-71.985672
12133.691489	-3.391667	781.465820	54.995243
12133.691489	-3.391667	780.272461	-32.531548
12133.691489	-3.391667	779.078125	-12.838077
12133.691489	-3.391667	777.883789	-62.385513
12133.691489	-3.391667	776.688477	-51.653500
12133.691489	-3.391667	775.494141	86.276199
12133.691489	-3.391667	774.298828	-36.943741
12133.691489	-3.391667	773.103516	38.427715
12133.691489	-3.391667	771.907227	-71.378693
12133.691489	-3.391667	770.711914	-105.335236
12133.691489	-3.391667	769.515625	-30.044230
12133.691489	-3.391667	768.318359	-10.528343
12133.691489	-3.391667	767.122070	-17.781261
12133.691489	-3.391667	765.924805	146.522842
12133.691489	-3.391667	764.727539	241.681747
12133.691489	-3.391667	763.530273	91.786079
12133.691489	-3.391667	762.333008	-9.075448
12133.691489	-3.391667	761.134766	99.362938
12133.691489	-3.391667	759.936523	169.898575
12133.691489	-3.391667	758.738281	73.481476
12133.691489	-3.391667	757.540039	-45.162445
12133.691489	-3.391667	756.340820	105.386345
12133.691489	-3.391667	755.141602	51.244579
12133.691489	-3.391667	753.942383	119.402313
12133.691489	-3.391667	752.742188	25.227774
12133.691489	-3.391667	751.541992	99.993004
12133.691489	-3.391667	750.341797	32.489346
12133.691489	-3.391667	749.141602	111.626305
12133.691489	-3.391667	747.941406	64.100494
12133.691489	-3.391667	746.740234	-54.489464
12133.691489	-3.391667	745.539063	48.980610
12133.691489	-3.391667	744.337891	230.082321
12133.691489	-3.391667	743.135742	100.374718
12133.691489	-3.391667	741.933594	183.716873
12133.691489	-3.391667	740.731445	31.847401
12133.691489	-3.391667	739.529297	44.152382
12133.691489	-3.391667	738.326172	74.171257
12133.691489	-3.391667	737.124023	274.871063
12133.691489	-3.391667	735.919922	238.288849
12133.691489	-3.391667	734.716797	378.991760
12133.691489	-3.391667	733.513672	353.438660
12133.691489	-3.391667	732.309570	507.306641
12133.691489	-3.391667	731.105469	446.257629
12133.691489	-3.391667	729.900391	292.211365
12133.691489	-3.391667	728.696289	248.899307
12133.691489	-3.391667	727.491211	247.636566
12133.691489	-3.391667	726.286133	95.874725
12133.691489	-3.391667	725.080078	160.972412
12133.691489	-3.391667	723.874023	-6.237371
12133.691489	-3.391667	722.668945	74.289375
12133.691489	-3.391667	721.461914	79.583206
12133.691489	-3.391667	720.255859	40.640186
12133.691489	-3.391667	719.048828	43.682415
12133.691489	-3.391667	717.841797	168.230972
12133.691489	-3.391667	716.634766	115.967896
12133.691489	-3.391667	715.427734	110.086418
12133.691489	-3.391667	714.219727	-10.646793
12133.691489	-3.391667	713.011719	51.894417
12133.691489	-3.391667	711.803711	105.556137
12133.691489	-3.391667	710.594727	39.999508
12133.691489	-3.391667	709.385742	-98.366524
12133.691489	-3.391667	708.176758	96.400810
12133.691489	-3.391667	706.967773	21.991856
12133.691489	-3.391667	705.758789	123.991486
12133.691489	-3.391667	704.548828	106.876678
12133.691489	-3.391667	703.338867	171.295746
12133.691489	-3.391667	702.127930	46.149452
12133.691489	-3.391667	700.917969	26.783474
12133.691489	-3.391667	699.707031	124.143951
12133.691489	-3.391667	698.496094	95.910042
12133.691489	-3.391667	697.285156	-60.041851
12133.691489	-3.391667	696.073242	136.258789
12133.691489	-3.391667	694.861328	28.731918
12133.691489	-3.391667	693.649414	-45.769489
12133.691489	-3.391667	692.436523	73.329521
12133.691489	-3.391667	691.224609	146.164032
12133.691489	-3.391667	690.011719	-40.542755
12133.691489	-3.391667	688.798828	164.146301
12133.691489	-3.391667	687.584961	137.922821
12133.691489	-3.391667	686.372070	171.021164
12133.691489	-3.391667	685.158203	41.488110
12133.691489	-3.391667	683.943359	-19.919582
12133.691489	-3.391667	682.729492	54.841187
12133.691489	-3.391667	681.514648	54.886425
12133.691489	-3.391667	680.299805	50.515285
12133.691489	-3.391667	679.084961	57.093971
12133.691489	-3.391667	677.869141	72.420387
12133.691489	-3.391667	676.653320	138.174622
12133.691489	-3.391667	675.437500	197.294678
12133.691489	-3.391667	674.221680	-15.569543
12133.691489	-3.391667	673.004883	39.119072
12133.691489	-3.391667	671.789063	95.952362
12133.691489	-3.391667	670.571289	209.714905
12133.691489	-3.391667	669.354492	-49.093163
12133.691489	-3.391667	668.136719	93.079338
12133.691489	-3.391667	666.919922	112.513397
12133.691489	-3.391667	665.701172	-16.994453
12133.691489	-3.391667	664.483398	81.216377
12133.691489	-3.391667	663.264648	58.971809
12133.691489	-3.391667	662.045898	137.376526
12133.691489	-3.391667	660.827148	27.559999
12133.691489	-3.391667	659.608398	79.636551
12133.691489	-3.391667	658.388672	70.427757
12133.691489	-3.391667	657.168945	118.047707
12133.691489	-3.391667	655.949219	23.525774
12133.691489	-3.391667	654.728516	49.226467
12133.691489	-3.391667	653.507813	59.594013
12133.691489	-3.391667	652.287109	-69.888580
12133.691489	-3.391667	651.066406	167.609360
12133.691489	-3.391667	649.844727	94.884407
12133.691489	-3.391667	648.623047	92.030800
12133.691489	-3.391667	647.401367	-70.195007
12133.691489	-3.391667	646.179688	-31.597090
12133.691489	-3.391667	644.957031	24.413074
12133.691489	-3.391667	643.734375	-78.871948
12133.691489	-3.391667	642.511719	-99.260132
12133.691489	-3.391667	641.289063	148.542618
12133.691489	-3.391667	640.065430	19.060303
12133.691489	-3.391667	638.841797	29.104147
12133.691489	-3.391667	637.618164	12.969715
12133.691489	-3.391667	636.393555	53.462227
12133.691489	-3.391667	635.168945	111.340233
12133.691489	-3.391667	633.944336	212.725006
12133.691489	-3.391667	632.719727	33.169449
12133.691489	-3.391667	631.494141	3.867894
12133.691489	-3.391667	630.269531	98.611427
12133.691489	-3.391667	629.042969	45.324898
12133.691489	-3.391667	627.817383	61.655132
12133.691489	-3.391667	626.590820	-35.146671
12133.691489	-3.391667	625.365234	135.541290
12133.691489	-3.391667	624.137695	19.151016
12133.691489	-3.391667	622.911133	13.644979
12133.691489	-3.391667	621.683594	-54.904446
12133.691489	-3.391667	620.456055	-49.574379
12133.691489	-3.391667	619.228516	-35.578941
12133.691489	-3.391667	618.000977	41.370190
12133.691489	-3.391667	616.772461	1.013097
12133.691489	-3.391667	615.543945	82.220016
12133.691489	-3.391667	614.314453	-21.113726
12133.691489	-3.391667	613.085938	-109.232643
12133.691489	-3.391667	611.856445	23.950069
12133.691489	-3.391667	610.626953	50.774933
12133.691489	-3.391667	609.397461	116.603058
12133.691489	-3.391667	608.166992	-4.075060
12133.691489	-3.391667	606.936523	94.210564
12133.691489	-3.391667	605.706055	-41.619381
12133.691489	-3.391667	604.474609	73.926064
12133.691489	-3.391667	603.244141	215.401474
12133.691489	-3.391667	602.012695	62.248905
12133.691489	-3.391667	600.780273	99.690804
12133.691489	-3.391667	599.548828	100.298912
12133.691489	-3.391667	598.316406	204.778427
12133.691489	-3.391667	597.083984	-8.903474
12133.691489	-3.391667	595.851563	4.654902
12133.691489	-3.391667	594.618164	-68.331932
12133.691489	-3.391667	593.384766	57.652584
12133.691489	-3.391667	592.151367	58.165890
12133.691489	-3.391667	590.917969	101.895813
12133.691489	-3.391667	589.683594	18.080282
12133.691489	-3.391667	588.449219	-11.696223
12133.691489	-3.391667	587.214844	-91.160423
12133.691489	-3.391667	585.979492	-79.895699
12133.691489	-3.391667	584.745117	-1.707440
12133.691489	-3.391667	583.509766	-83.325737
12133.691489	-3.391667	582.273438	20.699921
12133.691489	-3.391667	581.038086	-65.230225
12133.691489	-3.391667	579.801758	-95.043098
12133.691489	-3.391667	578.565430	67.121765
12133.691489	-3.391667	577.329102	43.738834
12133.691489	-3.391667	576.091797	-50.799747
12133.691489	-3.391667	574.854492	3.431455
12133.691489	-3.391667	573.617188	-0.561352
12133.691489	-3.391667	572.378906	-41.196095
12133.691489	-3.391667	571.141602	90.521843
12133.691489	-3.391667	569.903320	0.327061
12133.691489	-3.391667	568.664063	172.869781
12133.691489	-3.391667	567.425781	149.417633
12133.691489	-3.391667	566.186523	134.574768
12133.691489	-3.391667	564.947266	61.625587
12133.691489	-3.391667	563.708008	-17.754761
12133.691489	-3.391667	562.467773	-39.032589
12133.691489	-3.391667	561.227539	-58.157883
12133.691489	-3.391667	559.987305	-55.780190
12133.691489	-3.391667	558.747070	28.277594
12133.691489	-3.391667	557.505859	-109.079773
12133.691489	-3.391667	556.264648	39.402336
12133.691489	-3.391667	555.023438	88.992813
12133.691489	-3.391667	553.781250	-76.230255
12133.691489	-3.391667	552.539063	57.099567
12133.691489	-3.391667	551.296875	93.755569
12133.691489	-3.391667	550.054688	38.093555
12133.691489	-3.391667	548.811523	-23.989073
12133.691489	-3.391667	547.569336	-49.571785
12133.691489	-3.391667	546.325195	87.875343
12133.691489	-3.391667	545.082031	36.535431
12133.691489	-3.391667	543.837891	-64.103699
12133.691489	-3.391667	542.593750	-70.378754
12133.691489	-3.391667	541.349609	-10.212276
12133.691489	-3.391667	540.105469	-3.643032
12133.691489	-3.391667	538.860352	-69.919655
12133.691489	-3.391667	537.615234	-74.055130
12133.691489	-3.391667	536.369141	-1.100354
12133.691489	-3.391667	535.124023	-131.566956
12133.691489	-3.391667	533.877930	-32.946190
12133.691489	-3.391667	532.631836	-137.671951
12133.691489	-3.391667	531.384766	3.697508
12133.691489	-3.391667	530.138672	-32.538937
12133.691489	-3.391667	528.891602	61.697773
12133.691489	-3.391667	527.643555	-27.993986
12133.691489	-3.391667	526.396484	-66.337349
12133.691489	-3.391667	525.148438	-85.430046
12133.691489	-3.391667	523.900391	-10.491693
12133.691489	-3.391667	522.652344	-157.767227
12133.691489	-3.391667	521.403320	-52.941898
12133.691489	-3.391667	520.154297	-74.151390
12133.691489	-3.391667	518.905273	-73.999550
12133.691489	-3.391667	517.656250	-95.190826
12133.691489	-3.391667	516.406250	-101.433945
12133.691489	-3.391667	515.156250	3.276474
12133.691489	-3.391667	513.906250	-154.434967
12133.691489	-3.391667	512.655273	-2.835110
12133.691489	-3.391667	511.404297	-77.316116
12133.691489	-3.391667	510.153320	-83.544907
12133.691489	-3.391667	508.902344	-104.687447
12133.691489	-3.391667	507.650391	-138.604889
12133.691489	-3.391667	506.398438	-108.592758
12133.691489	-3.391667	505.146484	-123.319038
12133.691489	-3.391667	503.893555	-78.411987
12133.691489	-3.391667	502.641602	-152.746017
12133.691489	-3.391667	501.388672	-14.187999
12133.691489	-3.391667	500.134766	45.569603
12133.691489	-3.391667	498.881836	179.775360
12133.691489	-3.391667	497.627930	-68.974274
12133.691489	-3.391667	496.374023	86.468826
12133.691489	-3.391667	495.119141	-81.351364
12133.691489	-3.391667	493.865234	-87.531593
12133.691489	-3.391667	492.610352	6.183703
12133.691489	-3.391667	491.355469	-14.885086
12133.691489	-3.391667	490.099609	-59.314663
12133.691489	-3.391667	488.843750	-52.747585
12133.691489	-3.391667	487.587891	2.659114
12133.691489	-3.391667	486.332031	-120.297028
12133.691489	-3.391667	485.075195	-90.372009
12133.691489	-3.391667	483.818359	-79.559578
12133.691489	-3.391667	482.561523	-2.978770
12133.691489	-3.391667	481.304688	-74.920067
12133.691489	-3.391667	480.046875	-17.464750
12133.691489	-3.391667	478.789063	65.408440
12133.691489	-3.391667	477.531250	-36.187237
12133.691489	-3.391667	476.272461	201.365570
12133.691489	-3.391667	475.013672	72.229134
12133.691489	-3.391667	473.754883	53.307648
12133.691489	-3.391667	472.496094	30.153681
12133.691489	-3.391667	471.236328	-5.703939
12133.691489	-3.391667	469.976563	157.460434
12133.691489	-3.391667	468.716797	117.345253
12133.691489	-3.391667	467.456055	45.493397
12133.691489	-3.391667	466.196289	159.855316
12133.691489	-3.391667	464.935547	-11.412240
12133.691489	-3.391667	463.673828	200.172714
12133.691489	-3.391667	462.413086	96.609871
12133.691489	-3.391667	461.151367	98.775536
12133.691489	-3.391667	459.889648	45.975658
12133.691489	-3.391667	458.626953	54.460773
12133.691489	-3.391667	457.364258	141.092407
12133.691489	-3.391667	456.101563	-15.224815
12133.691489	-3.391667	454.838867	65.015228
12133.691489	-3.391667	453.575195	121.975945
12133.691489	-3.391667	452.312500	83.910248
12133.691489	-3.391667	451.047852	73.268204
12133.691489	-3.391667	449.784180	98.477890
12133.691489	-3.391667	448.519531	189.040421
12133.691489	-3.391667	447.254883	18.030428
12133.691489	-3.391667	445.990234	49.480556
12133.691489	-3.391667	444.725586	177.857483
12133.691489	-3.391667	443.459961	242.918304
12133.691489	-3.391667	442.194336	114.064163
12133.691489	-3.391667	440.927734	115.841545
12133.691489	-3.391667	439.662109	107.054016
12133.691489	-3.391667	438.395508	94.017830
12133.691489	-3.391667	437.127930	221.999023
12133.691489	-3.391667	435.861328	229.910553
12133.691489	-3.391667	434.593750	6.289979
12133.691489	-3.391667	433.326172	54.126110
12133.691489	-3.391667	432.058594	82.961700
12133.691489	-3.391667	430.790039	10.787306
12133.691489	-3.391667	429.521484	98.385109
12133.691489	-3.391667	428.252930	99.703430
12133.691489	-3.391667	426.984375	153.503983
12133.691489	-3.391667	425.714844	87.450729
12133.691489	-3.391667	424.445313	145.305695
12133.691489	-3.391667	423.174805	266.075378
12133.691489	-3.391667	421.905273	124.249474
12133.691489	-3.391667	420.634766	18.099758
12133.691489	-3.391667	419.364258	205.769501
12133.691489	-3.391667	418.092773	160.348160
12133.691489	-3.391667	416.822266	272.219635
12133.691489	-3.391667	415.550781	-14.577978
12133.691489	-3.391667	414.278320	115.979744
12133.691489	-3.391667	413.006836	177.205078
12133.691489	-3.391667	411.734375	32.880577
12133.691489	-3.391667	410.461914	89.711380
12133.691489	-3.391667	409.188477	106.603271
12133.691489	-3.391667	407.916016	91.964439
12133.691489	-3.391667	406.642578	6.012039
12133.691489	-3.391667	405.368164	24.675638
12133.691489	-3.391667	404.094727	106.023308
12133.691489	-3.391667	402.820313	63.724068
12133.691489	-3.391667	401.545898	35.966846
12133.691489	-3.391667	400.270508	137.798248
12133.691489	-3.391667	398.996094	70.034264
12133.691489	-3.391667	397.720703	184.090805
12133.691489	-3.391667	396.444336	126.511429
12133.691489	-3.391667	395.168945	98.079239
12133.691489	-3.391667	393.892578	-18.269808
12133.691489	-3.391667	392.616211	59.586315
12133.691489	-3.391667	391.339844	193.647598
12133.691489	-3.391667	390.062500	47.625919
12133.691489	-3.391667	388.785156	91.504135
12133.691489	-3.391667	387.507813	199.900085
12133.691489	-3.391667	386.229492	11.693346
12133.691489	-3.391667	384.951172	123.856079
12133.691489	-3.391667	383.672852	-16.652433
12133.691489	-3.391667	382.394531	17.901873
12133.691489	-3.391667	381.115234	135.640671
12133.691489	-3.391667	379.835938	-26.250914
12133.691489	-3.391667	378.556641	101.437881
12133.691489	-3.391667	377.277344	197.588089
12133.691489	-3.391667	375.997070	128.864639
12133.691489	-3.391667	374.716797	-25.470068
12133.691489	-3.391667	373.435547	182.376205
12133.691489	-3.391667	372.155273	133.788742
12133.691489	-3.391667	370.874023	118.263367
12133.691489	-3.391667	369.591797	33.791527
12133.691489	-3.391667	368.310547	38.563457
12133.691489	-3.391667	367.028320	95.051880
12133.691489	-3.391667	365.746094	40.996593
12133.691489	-3.391667	364.463867	-44.522049
12133.691489	-3.391667	363.180664	-5.580349
12133.691489	-3.391667	361.897461	-62.576984
12133.691489	-3.391667	360.614258	29.748606
12133.691489	-3.391667	359.330078	69.756432
12133.691489	-3.391667	358.045898	-214.621872
12133.691489	-3.391667	356.761719	98.859123
12133.691489	-3.391667	355.477539	87.958870
12133.691489	-3.391667	354.192383	18.566933
12133.691489	-3.391667	352.907227	-82.297775
12133.691489	-3.391667	351.622070	-56.934422
12133.691489	-3.391667	350.336914	57.225357
12133.691489	-3.391667	349.050781	104.555130
12133.691489	-3.391667	347.764648	-12.354966
12133.691489	-3.391667	346.477539	-44.653824
12133.691489	-3.391667	345.191406	-31.761059
12133.691489	-3.391667	343.904297	-162.308136
12133.691489	-3.391667	342.616211	-71.593987
12133.691489	-3.391667	341.329102	-53.864449
12133.691489	-3.391667	340.041016	-53.198387
12133.691489	-3.391667	338.752930	-36.457829
12133.691489	-3.391667	337.463867	-18.167988
12133.691489	-3.391667	336.175781	-89.367493
12133.691489	-3.391667	334.886719	-125.900642
12133.691489	-3.391667	333.596680	-51.268112
12133.691489	-3.391667	332.307617	-82.670860
12133.691489	-3.391667	331.017578	75.585815
12133.691489	-3.391667	329.727539	-196.772476
12133.691489	-3.391667	328.436523	-180.272781
12133.691489	-3.391667	327.146484	-17.655050
12133.691489	-3.391667	325.855469	86.418114
12133.691489	-3.391667	324.563477	-82.828590
12133.691489	-3.391667	323.272461	15.818164
12133.691489	-3.391667	321.980469	-156.697845
12133.691489	-3.391667	320.688477	-123.404305
12133.691489	-3.391667	319.395508	-74.320511
12133.691489	-3.391667	318.103516	-73.386848
12133.691489	-3.391667	316.810547	-33.996994
12133.691489	-3.391667	315.516602	-32.495434
12133.691489	-3.391667	314.223633	-56.457321
12133.691489	-3.391667	312.929688	-31.719736
12133.691489	-3.391667	311.635742	165.343903
12133.691489	-3.391667	310.340820	-1.130157
12133.691489	-3.391667	309.045898	68.555603
12133.691489	-3.391667	307.750977	59.123196
12133.691489	-3.391667	306.456055	217.694778
12133.691489	-3.391667	305.160156	183.857697
12133.691489	-3.391667	303.865234	208.871918
12133.691489	-3.391667	302.568359	459.270203
12133.691489	-3.391667	301.272461	373.338470
12133.691489	-3.391667	299.975586	379.038086
12133.691489	-3.391667	298.678711	626.433228
