#X		#Y		#Wave		#Intensity
11864.235106	1405.673333	1999.980469	34.814789
11864.235106	1405.673333	1999.016602	-46.244205
11864.235106	1405.673333	1998.052734	-143.180191
11864.235106	1405.673333	1997.087891	44.836422
11864.235106	1405.673333	1996.123047	7.248615
11864.235106	1405.673333	1995.158203	24.109911
11864.235106	1405.673333	1994.193359	68.147125
11864.235106	1405.673333	1993.228516	47.724720
11864.235106	1405.673333	1992.262695	-89.111938
11864.235106	1405.673333	1991.297852	-35.350166
11864.235106	1405.673333	1990.332031	-1.460579
11864.235106	1405.673333	1989.366211	128.867615
11864.235106	1405.673333	1988.399414	76.022659
11864.235106	1405.673333	1987.433594	45.410572
11864.235106	1405.673333	1986.466797	14.764251
11864.235106	1405.673333	1985.500977	63.208084
11864.235106	1405.673333	1984.534180	99.230568
11864.235106	1405.673333	1983.567383	19.029268
11864.235106	1405.673333	1982.599609	-1.872329
11864.235106	1405.673333	1981.632813	142.738708
11864.235106	1405.673333	1980.665039	22.935383
11864.235106	1405.673333	1979.697266	-111.677032
11864.235106	1405.673333	1978.729492	-43.781548
11864.235106	1405.673333	1977.761719	-89.513863
11864.235106	1405.673333	1976.792969	-56.268398
11864.235106	1405.673333	1975.825195	-69.955566
11864.235106	1405.673333	1974.856445	-71.327698
11864.235106	1405.673333	1973.887695	-75.192596
11864.235106	1405.673333	1972.918945	76.319221
11864.235106	1405.673333	1971.949219	185.825256
11864.235106	1405.673333	1970.980469	167.050430
11864.235106	1405.673333	1970.010742	37.324043
11864.235106	1405.673333	1969.041016	38.261566
11864.235106	1405.673333	1968.071289	4.679118
11864.235106	1405.673333	1967.101563	-51.083294
11864.235106	1405.673333	1966.130859	43.428913
11864.235106	1405.673333	1965.161133	81.242462
11864.235106	1405.673333	1964.190430	20.525600
11864.235106	1405.673333	1963.219727	55.839046
11864.235106	1405.673333	1962.249023	24.663769
11864.235106	1405.673333	1961.277344	74.706589
11864.235106	1405.673333	1960.306641	21.371151
11864.235106	1405.673333	1959.334961	125.501717
11864.235106	1405.673333	1958.363281	-50.831303
11864.235106	1405.673333	1957.391602	38.501347
11864.235106	1405.673333	1956.419922	73.699219
11864.235106	1405.673333	1955.447266	47.416199
11864.235106	1405.673333	1954.474609	-45.227100
11864.235106	1405.673333	1953.501953	-98.520454
11864.235106	1405.673333	1952.529297	79.164772
11864.235106	1405.673333	1951.556641	-40.467098
11864.235106	1405.673333	1950.583984	75.732056
11864.235106	1405.673333	1949.610352	7.709394
11864.235106	1405.673333	1948.636719	-18.550316
11864.235106	1405.673333	1947.663086	-32.526947
11864.235106	1405.673333	1946.689453	59.036423
11864.235106	1405.673333	1945.715820	0.881553
11864.235106	1405.673333	1944.741211	-15.543522
11864.235106	1405.673333	1943.767578	56.345219
11864.235106	1405.673333	1942.792969	169.900299
11864.235106	1405.673333	1941.818359	38.213737
11864.235106	1405.673333	1940.842773	9.544051
11864.235106	1405.673333	1939.868164	51.971241
11864.235106	1405.673333	1938.892578	13.513797
11864.235106	1405.673333	1937.916992	-54.327175
11864.235106	1405.673333	1936.941406	64.041962
11864.235106	1405.673333	1935.965820	72.153770
11864.235106	1405.673333	1934.990234	214.953400
11864.235106	1405.673333	1934.013672	-53.622017
11864.235106	1405.673333	1933.037109	111.189735
11864.235106	1405.673333	1932.060547	-7.959216
11864.235106	1405.673333	1931.083984	-51.200443
11864.235106	1405.673333	1930.107422	-38.148460
11864.235106	1405.673333	1929.129883	-64.232895
11864.235106	1405.673333	1928.153320	-46.277905
11864.235106	1405.673333	1927.175781	-47.884708
11864.235106	1405.673333	1926.198242	-0.589087
11864.235106	1405.673333	1925.219727	-26.632235
11864.235106	1405.673333	1924.242188	67.089302
11864.235106	1405.673333	1923.263672	31.285353
11864.235106	1405.673333	1922.285156	166.505966
11864.235106	1405.673333	1921.306641	103.845490
11864.235106	1405.673333	1920.328125	141.338669
11864.235106	1405.673333	1919.349609	98.255608
11864.235106	1405.673333	1918.370117	-0.949136
11864.235106	1405.673333	1917.391602	36.567429
11864.235106	1405.673333	1916.412109	64.316910
11864.235106	1405.673333	1915.431641	67.667030
11864.235106	1405.673333	1914.452148	5.164783
11864.235106	1405.673333	1913.472656	-45.111771
11864.235106	1405.673333	1912.492188	155.788010
11864.235106	1405.673333	1911.511719	-48.068462
11864.235106	1405.673333	1910.531250	18.714756
11864.235106	1405.673333	1909.550781	48.926685
11864.235106	1405.673333	1908.569336	6.039446
11864.235106	1405.673333	1907.588867	170.242401
11864.235106	1405.673333	1906.607422	-11.464969
11864.235106	1405.673333	1905.625977	96.687241
11864.235106	1405.673333	1904.644531	-99.531052
11864.235106	1405.673333	1903.662109	37.823467
11864.235106	1405.673333	1902.680664	-97.450104
11864.235106	1405.673333	1901.698242	10.668234
11864.235106	1405.673333	1900.715820	72.528885
11864.235106	1405.673333	1899.733398	231.670776
11864.235106	1405.673333	1898.750000	40.555740
11864.235106	1405.673333	1897.767578	143.733261
11864.235106	1405.673333	1896.784180	-74.021736
11864.235106	1405.673333	1895.800781	-131.268600
11864.235106	1405.673333	1894.817383	30.226847
11864.235106	1405.673333	1893.833984	-82.888107
11864.235106	1405.673333	1892.850586	90.696884
11864.235106	1405.673333	1891.866211	65.061340
11864.235106	1405.673333	1890.881836	-108.687645
11864.235106	1405.673333	1889.897461	47.826660
11864.235106	1405.673333	1888.913086	22.230009
11864.235106	1405.673333	1887.927734	-37.329712
11864.235106	1405.673333	1886.943359	155.496063
11864.235106	1405.673333	1885.958008	122.629791
11864.235106	1405.673333	1884.972656	-80.012924
11864.235106	1405.673333	1883.987305	39.970993
11864.235106	1405.673333	1883.001953	101.720940
11864.235106	1405.673333	1882.015625	97.996109
11864.235106	1405.673333	1881.029297	-70.542305
11864.235106	1405.673333	1880.042969	-18.489801
11864.235106	1405.673333	1879.056641	-116.673302
11864.235106	1405.673333	1878.070313	-42.824535
11864.235106	1405.673333	1877.083984	-29.550707
11864.235106	1405.673333	1876.096680	-13.858733
11864.235106	1405.673333	1875.109375	-12.696856
11864.235106	1405.673333	1874.122070	46.560608
11864.235106	1405.673333	1873.134766	190.502716
11864.235106	1405.673333	1872.146484	0.471203
11864.235106	1405.673333	1871.159180	137.111801
11864.235106	1405.673333	1870.170898	-69.769676
11864.235106	1405.673333	1869.182617	40.231030
11864.235106	1405.673333	1868.194336	96.995926
11864.235106	1405.673333	1867.205078	-39.656704
11864.235106	1405.673333	1866.216797	-86.830154
11864.235106	1405.673333	1865.227539	15.838006
11864.235106	1405.673333	1864.238281	36.318924
11864.235106	1405.673333	1863.249023	-204.098175
11864.235106	1405.673333	1862.259766	-48.337414
11864.235106	1405.673333	1861.269531	-85.816399
11864.235106	1405.673333	1860.279297	23.986307
11864.235106	1405.673333	1859.290039	-20.739378
11864.235106	1405.673333	1858.298828	60.042957
11864.235106	1405.673333	1857.308594	29.797230
11864.235106	1405.673333	1856.318359	-39.041134
11864.235106	1405.673333	1855.327148	39.274315
11864.235106	1405.673333	1854.335938	71.736214
11864.235106	1405.673333	1853.344727	-83.885727
11864.235106	1405.673333	1852.353516	-46.602100
11864.235106	1405.673333	1851.362305	46.095570
11864.235106	1405.673333	1850.370117	18.265223
11864.235106	1405.673333	1849.377930	67.535759
11864.235106	1405.673333	1848.385742	-27.748911
11864.235106	1405.673333	1847.393555	72.073982
11864.235106	1405.673333	1846.401367	8.113005
11864.235106	1405.673333	1845.408203	52.504189
11864.235106	1405.673333	1844.415039	173.895020
11864.235106	1405.673333	1843.421875	44.948765
11864.235106	1405.673333	1842.428711	0.255917
11864.235106	1405.673333	1841.435547	138.401611
11864.235106	1405.673333	1840.441406	194.708359
11864.235106	1405.673333	1839.448242	142.770416
11864.235106	1405.673333	1838.454102	25.925024
11864.235106	1405.673333	1837.459961	94.210358
11864.235106	1405.673333	1836.464844	68.726250
11864.235106	1405.673333	1835.470703	72.076294
11864.235106	1405.673333	1834.475586	-11.076642
11864.235106	1405.673333	1833.480469	37.902828
11864.235106	1405.673333	1832.485352	-74.054932
11864.235106	1405.673333	1831.490234	-77.931664
11864.235106	1405.673333	1830.495117	71.825073
11864.235106	1405.673333	1829.499023	147.104584
11864.235106	1405.673333	1828.502930	80.755226
11864.235106	1405.673333	1827.506836	16.816259
11864.235106	1405.673333	1826.510742	34.449993
11864.235106	1405.673333	1825.513672	47.265430
11864.235106	1405.673333	1824.517578	-4.682861
11864.235106	1405.673333	1823.520508	113.597321
11864.235106	1405.673333	1822.523438	222.229813
11864.235106	1405.673333	1821.526367	-160.500992
11864.235106	1405.673333	1820.529297	51.146339
11864.235106	1405.673333	1819.531250	152.494598
11864.235106	1405.673333	1818.533203	-36.037880
11864.235106	1405.673333	1817.535156	26.939274
11864.235106	1405.673333	1816.537109	159.312515
11864.235106	1405.673333	1815.539063	191.074753
11864.235106	1405.673333	1814.540039	57.658588
11864.235106	1405.673333	1813.541992	27.175591
11864.235106	1405.673333	1812.542969	137.845688
11864.235106	1405.673333	1811.543945	73.833458
11864.235106	1405.673333	1810.543945	72.008934
11864.235106	1405.673333	1809.544922	149.077087
11864.235106	1405.673333	1808.544922	108.950134
11864.235106	1405.673333	1807.544922	68.819557
11864.235106	1405.673333	1806.544922	28.684649
11864.235106	1405.673333	1805.544922	117.572533
11864.235106	1405.673333	1804.544922	84.571861
11864.235106	1405.673333	1803.543945	161.432953
11864.235106	1405.673333	1802.542969	200.036377
11864.235106	1405.673333	1801.541992	30.885347
11864.235106	1405.673333	1800.541016	124.361984
11864.235106	1405.673333	1799.539063	12.527586
11864.235106	1405.673333	1798.538086	17.640306
11864.235106	1405.673333	1797.536133	-48.844078
11864.235106	1405.673333	1796.534180	108.895576
11864.235106	1405.673333	1795.532227	82.919144
11864.235106	1405.673333	1794.529297	95.080322
11864.235106	1405.673333	1793.527344	114.367958
11864.235106	1405.673333	1792.524414	-73.740875
11864.235106	1405.673333	1791.521484	-33.026474
11864.235106	1405.673333	1790.518555	122.015892
11864.235106	1405.673333	1789.514648	43.523026
11864.235106	1405.673333	1788.511719	91.269653
11864.235106	1405.673333	1787.507813	17.529547
11864.235106	1405.673333	1786.503906	19.980534
11864.235106	1405.673333	1785.500000	65.253342
11864.235106	1405.673333	1784.496094	50.987968
11864.235106	1405.673333	1783.491211	150.917313
11864.235106	1405.673333	1782.486328	146.108490
11864.235106	1405.673333	1781.481445	-84.684731
11864.235106	1405.673333	1780.476563	91.241150
11864.235106	1405.673333	1779.471680	-80.061226
11864.235106	1405.673333	1778.465820	67.221016
11864.235106	1405.673333	1777.460938	162.136078
11864.235106	1405.673333	1776.455078	154.807892
11864.235106	1405.673333	1775.449219	76.183128
11864.235106	1405.673333	1774.442383	-4.813581
11864.235106	1405.673333	1773.436523	-12.179723
11864.235106	1405.673333	1772.429688	1.801223
11864.235106	1405.673333	1771.422852	11.003783
11864.235106	1405.673333	1770.416016	36.792637
11864.235106	1405.673333	1769.409180	48.308346
11864.235106	1405.673333	1768.402344	-11.386647
11864.235106	1405.673333	1767.394531	11.942702
11864.235106	1405.673333	1766.386719	70.814613
11864.235106	1405.673333	1765.378906	139.124069
11864.235106	1405.673333	1764.371094	-34.448311
11864.235106	1405.673333	1763.362305	-6.495194
11864.235106	1405.673333	1762.354492	2.464038
11864.235106	1405.673333	1761.345703	82.478447
11864.235106	1405.673333	1760.336914	20.291531
11864.235106	1405.673333	1759.328125	45.742130
11864.235106	1405.673333	1758.318359	85.364929
11864.235106	1405.673333	1757.308594	96.533386
11864.235106	1405.673333	1756.299805	-84.075722
11864.235106	1405.673333	1755.290039	64.345688
11864.235106	1405.673333	1754.279297	32.838081
11864.235106	1405.673333	1753.269531	100.687714
11864.235106	1405.673333	1752.258789	-4.196371
11864.235106	1405.673333	1751.249023	-87.779282
11864.235106	1405.673333	1750.238281	112.391876
11864.235106	1405.673333	1749.226563	76.045570
11864.235106	1405.673333	1748.215820	86.962959
11864.235106	1405.673333	1747.204102	57.673462
11864.235106	1405.673333	1746.193359	170.138504
11864.235106	1405.673333	1745.181641	20.314196
11864.235106	1405.673333	1744.168945	-63.347839
11864.235106	1405.673333	1743.157227	-54.906509
11864.235106	1405.673333	1742.144531	80.996979
11864.235106	1405.673333	1741.132813	-5.063875
11864.235106	1405.673333	1740.120117	-124.161011
11864.235106	1405.673333	1739.106445	-75.707520
11864.235106	1405.673333	1738.093750	-159.408539
11864.235106	1405.673333	1737.080078	75.322037
11864.235106	1405.673333	1736.067383	-76.816521
11864.235106	1405.673333	1735.053711	188.409760
11864.235106	1405.673333	1734.040039	-1.462884
11864.235106	1405.673333	1733.025391	-49.874878
11864.235106	1405.673333	1732.011719	-27.596977
11864.235106	1405.673333	1730.997070	-50.119480
11864.235106	1405.673333	1729.982422	-65.591125
11864.235106	1405.673333	1728.967773	-8.072821
11864.235106	1405.673333	1727.952148	56.460262
11864.235106	1405.673333	1726.937500	-29.723331
11864.235106	1405.673333	1725.921875	128.891769
11864.235106	1405.673333	1724.906250	96.802444
11864.235106	1405.673333	1723.890625	22.350166
11864.235106	1405.673333	1722.875000	-9.754483
11864.235106	1405.673333	1721.858398	7.518599
11864.235106	1405.673333	1720.841797	1.245522
11864.235106	1405.673333	1719.825195	-139.059402
11864.235106	1405.673333	1718.808594	14.493649
11864.235106	1405.673333	1717.791992	57.506870
11864.235106	1405.673333	1716.774414	32.335484
11864.235106	1405.673333	1715.756836	79.978088
11864.235106	1405.673333	1714.739258	17.184856
11864.235106	1405.673333	1713.721680	-24.471281
11864.235106	1405.673333	1712.704102	34.826756
11864.235106	1405.673333	1711.685547	16.610365
11864.235106	1405.673333	1710.667969	-27.435642
11864.235106	1405.673333	1709.649414	106.849480
11864.235106	1405.673333	1708.630859	65.102684
11864.235106	1405.673333	1707.611328	103.099937
11864.235106	1405.673333	1706.592773	-154.433746
11864.235106	1405.673333	1705.573242	-88.314316
11864.235106	1405.673333	1704.553711	22.300833
11864.235106	1405.673333	1703.534180	22.690727
11864.235106	1405.673333	1702.513672	4.309479
11864.235106	1405.673333	1701.494141	112.438461
11864.235106	1405.673333	1700.473633	47.156090
11864.235106	1405.673333	1699.453125	49.798725
11864.235106	1405.673333	1698.432617	164.818756
11864.235106	1405.673333	1697.412109	-3.507224
11864.235106	1405.673333	1696.390625	76.325600
11864.235106	1405.673333	1695.369141	-120.043587
11864.235106	1405.673333	1694.347656	74.394257
11864.235106	1405.673333	1693.326172	-159.366501
11864.235106	1405.673333	1692.304688	-147.469131
11864.235106	1405.673333	1691.282227	39.788334
11864.235106	1405.673333	1690.260742	-119.068642
11864.235106	1405.673333	1689.238281	-27.765217
11864.235106	1405.673333	1688.214844	-15.979395
11864.235106	1405.673333	1687.192383	-4.212496
11864.235106	1405.673333	1686.168945	-78.910454
11864.235106	1405.673333	1685.146484	-83.519836
11864.235106	1405.673333	1684.123047	40.295601
11864.235106	1405.673333	1683.099609	-53.096222
11864.235106	1405.673333	1682.075195	-1.736554
11864.235106	1405.673333	1681.051758	-74.109932
11864.235106	1405.673333	1680.027344	56.542633
11864.235106	1405.673333	1679.002930	-141.834198
11864.235106	1405.673333	1677.978516	147.370209
11864.235106	1405.673333	1676.953125	-81.299019
11864.235106	1405.673333	1675.928711	-55.732048
11864.235106	1405.673333	1674.903320	-20.867260
11864.235106	1405.673333	1673.877930	-69.939125
11864.235106	1405.673333	1672.852539	9.164963
11864.235106	1405.673333	1671.826172	-165.740875
11864.235106	1405.673333	1670.800781	88.037292
11864.235106	1405.673333	1669.774414	97.152802
11864.235106	1405.673333	1668.748047	52.694477
11864.235106	1405.673333	1667.721680	122.320839
11864.235106	1405.673333	1666.694336	49.915791
11864.235106	1405.673333	1665.667969	54.329632
11864.235106	1405.673333	1664.640625	95.956329
11864.235106	1405.673333	1663.613281	46.828609
11864.235106	1405.673333	1662.585938	13.990749
11864.235106	1405.673333	1661.557617	69.518997
11864.235106	1405.673333	1660.530273	71.544518
11864.235106	1405.673333	1659.501953	180.485596
11864.235106	1405.673333	1658.473633	221.976608
11864.235106	1405.673333	1657.444336	84.518089
11864.235106	1405.673333	1656.416016	79.530327
11864.235106	1405.673333	1655.386719	132.601486
11864.235106	1405.673333	1654.358398	136.879440
11864.235106	1405.673333	1653.328125	94.703987
11864.235106	1405.673333	1652.298828	182.540176
11864.235106	1405.673333	1651.269531	40.560932
11864.235106	1405.673333	1650.239258	119.074371
11864.235106	1405.673333	1649.208984	139.549881
11864.235106	1405.673333	1648.178711	162.331085
11864.235106	1405.673333	1647.148438	287.141418
11864.235106	1405.673333	1646.117188	374.794434
11864.235106	1405.673333	1645.086914	174.948792
11864.235106	1405.673333	1644.055664	197.682327
11864.235106	1405.673333	1643.024414	157.834091
11864.235106	1405.673333	1641.992188	231.521759
11864.235106	1405.673333	1640.960938	231.054947
11864.235106	1405.673333	1639.928711	156.468964
11864.235106	1405.673333	1638.896484	218.527679
11864.235106	1405.673333	1637.864258	250.462891
11864.235106	1405.673333	1636.832031	284.698761
11864.235106	1405.673333	1635.798828	207.833008
11864.235106	1405.673333	1634.766602	272.140015
11864.235106	1405.673333	1633.733398	352.609741
11864.235106	1405.673333	1632.699219	278.081909
11864.235106	1405.673333	1631.666016	314.582916
11864.235106	1405.673333	1630.632813	216.975052
11864.235106	1405.673333	1629.598633	239.600662
11864.235106	1405.673333	1628.564453	400.883270
11864.235106	1405.673333	1627.530273	194.714325
11864.235106	1405.673333	1626.495117	249.673492
11864.235106	1405.673333	1625.460938	355.430664
11864.235106	1405.673333	1624.425781	225.598892
11864.235106	1405.673333	1623.390625	176.628998
11864.235106	1405.673333	1622.355469	289.267914
11864.235106	1405.673333	1621.319336	265.694458
11864.235106	1405.673333	1620.284180	260.597534
11864.235106	1405.673333	1619.248047	315.485199
11864.235106	1405.673333	1618.211914	294.238495
11864.235106	1405.673333	1617.174805	328.348694
11864.235106	1405.673333	1616.138672	330.174622
11864.235106	1405.673333	1615.101563	461.094513
11864.235106	1405.673333	1614.065430	356.884644
11864.235106	1405.673333	1613.027344	443.974274
11864.235106	1405.673333	1611.990234	349.032471
11864.235106	1405.673333	1610.953125	456.837677
11864.235106	1405.673333	1609.915039	483.999420
11864.235106	1405.673333	1608.876953	554.906433
11864.235106	1405.673333	1607.838867	480.761200
11864.235106	1405.673333	1606.800781	503.322876
11864.235106	1405.673333	1605.761719	406.217621
11864.235106	1405.673333	1604.723633	401.193207
11864.235106	1405.673333	1603.684570	554.897583
11864.235106	1405.673333	1602.644531	563.656799
11864.235106	1405.673333	1601.605469	420.665405
11864.235106	1405.673333	1600.566406	542.120300
11864.235106	1405.673333	1599.526367	511.833252
11864.235106	1405.673333	1598.486328	578.087463
11864.235106	1405.673333	1597.446289	423.756317
11864.235106	1405.673333	1596.405273	634.742920
11864.235106	1405.673333	1595.365234	689.486267
11864.235106	1405.673333	1594.324219	608.737000
11864.235106	1405.673333	1593.283203	654.302185
11864.235106	1405.673333	1592.242188	672.318420
11864.235106	1405.673333	1591.200195	665.093140
11864.235106	1405.673333	1590.159180	692.304871
11864.235106	1405.673333	1589.117188	591.051758
11864.235106	1405.673333	1588.075195	682.512695
11864.235106	1405.673333	1587.032227	588.206177
11864.235106	1405.673333	1585.990234	473.320953
11864.235106	1405.673333	1584.947266	477.688477
11864.235106	1405.673333	1583.904297	376.648926
11864.235106	1405.673333	1582.861328	413.144440
11864.235106	1405.673333	1581.818359	394.660767
11864.235106	1405.673333	1580.775391	362.458923
11864.235106	1405.673333	1579.731445	348.603363
11864.235106	1405.673333	1578.687500	398.877991
11864.235106	1405.673333	1577.643555	346.141479
11864.235106	1405.673333	1576.598633	334.636627
11864.235106	1405.673333	1575.554688	300.275330
11864.235106	1405.673333	1574.509766	311.698547
11864.235106	1405.673333	1573.464844	416.915649
11864.235106	1405.673333	1572.419922	336.876129
11864.235106	1405.673333	1571.374023	327.762787
11864.235106	1405.673333	1570.329102	243.239822
11864.235106	1405.673333	1569.283203	346.178833
11864.235106	1405.673333	1568.237305	295.999664
11864.235106	1405.673333	1567.191406	426.344757
11864.235106	1405.673333	1566.144531	403.618622
11864.235106	1405.673333	1565.098633	303.280182
11864.235106	1405.673333	1564.051758	451.875519
11864.235106	1405.673333	1563.004883	328.780029
11864.235106	1405.673333	1561.957031	397.471039
11864.235106	1405.673333	1560.910156	342.937073
11864.235106	1405.673333	1559.862305	359.170685
11864.235106	1405.673333	1558.814453	336.644318
11864.235106	1405.673333	1557.766602	343.797668
11864.235106	1405.673333	1556.718750	257.487488
11864.235106	1405.673333	1555.669922	209.987152
11864.235106	1405.673333	1554.621094	308.400818
11864.235106	1405.673333	1553.573242	297.421875
11864.235106	1405.673333	1552.523438	236.343750
11864.235106	1405.673333	1551.474609	43.200706
11864.235106	1405.673333	1550.424805	209.991577
11864.235106	1405.673333	1549.375000	237.846741
11864.235106	1405.673333	1548.325195	99.529617
11864.235106	1405.673333	1547.275391	175.246521
11864.235106	1405.673333	1546.225586	141.729645
11864.235106	1405.673333	1545.174805	194.707718
11864.235106	1405.673333	1544.124023	118.032120
11864.235106	1405.673333	1543.073242	52.786133
11864.235106	1405.673333	1542.022461	128.572037
11864.235106	1405.673333	1540.970703	54.309559
11864.235106	1405.673333	1539.919922	21.020325
11864.235106	1405.673333	1538.868164	85.488411
11864.235106	1405.673333	1537.815430	161.318146
11864.235106	1405.673333	1536.763672	-42.258606
11864.235106	1405.673333	1535.710938	56.336853
11864.235106	1405.673333	1534.659180	250.295273
11864.235106	1405.673333	1533.606445	276.205200
11864.235106	1405.673333	1532.552734	134.166031
11864.235106	1405.673333	1531.500000	350.776581
11864.235106	1405.673333	1530.446289	118.083076
11864.235106	1405.673333	1529.393555	91.945877
11864.235106	1405.673333	1528.338867	172.443481
11864.235106	1405.673333	1527.285156	55.663322
11864.235106	1405.673333	1526.231445	102.193871
11864.235106	1405.673333	1525.176758	98.868835
11864.235106	1405.673333	1524.122070	165.830536
11864.235106	1405.673333	1523.067383	128.572327
11864.235106	1405.673333	1522.012695	147.994293
11864.235106	1405.673333	1520.957031	85.903389
11864.235106	1405.673333	1519.901367	-25.947824
11864.235106	1405.673333	1518.845703	86.413475
11864.235106	1405.673333	1517.790039	60.687157
11864.235106	1405.673333	1516.734375	-91.728645
11864.235106	1405.673333	1515.677734	16.152361
11864.235106	1405.673333	1514.621094	-2.658659
11864.235106	1405.673333	1513.564453	-25.951588
11864.235106	1405.673333	1512.507813	11.854295
11864.235106	1405.673333	1511.450195	8.982233
11864.235106	1405.673333	1510.393555	-57.144142
11864.235106	1405.673333	1509.335938	-5.692729
11864.235106	1405.673333	1508.278320	-78.500244
11864.235106	1405.673333	1507.219727	-15.701237
11864.235106	1405.673333	1506.162109	-34.200966
11864.235106	1405.673333	1505.103516	10.569740
11864.235106	1405.673333	1504.044922	-30.435455
11864.235106	1405.673333	1502.986328	14.388068
11864.235106	1405.673333	1501.926758	-101.006683
11864.235106	1405.673333	1500.868164	34.140202
11864.235106	1405.673333	1499.808594	36.168236
11864.235106	1405.673333	1498.749023	117.173485
11864.235106	1405.673333	1497.688477	33.564629
11864.235106	1405.673333	1496.628906	105.593010
11864.235106	1405.673333	1495.568359	157.341064
11864.235106	1405.673333	1494.507813	125.719162
11864.235106	1405.673333	1493.447266	168.503769
11864.235106	1405.673333	1492.386719	184.274551
11864.235106	1405.673333	1491.325195	170.794891
11864.235106	1405.673333	1490.263672	173.121506
11864.235106	1405.673333	1489.202148	247.530807
11864.235106	1405.673333	1488.140625	285.932068
11864.235106	1405.673333	1487.079102	256.839050
11864.235106	1405.673333	1486.016602	387.552399
11864.235106	1405.673333	1484.954102	392.270203
11864.235106	1405.673333	1483.891602	286.812836
11864.235106	1405.673333	1482.829102	296.121765
11864.235106	1405.673333	1481.765625	100.867401
11864.235106	1405.673333	1480.702148	110.283829
11864.235106	1405.673333	1479.638672	238.843262
11864.235106	1405.673333	1478.575195	178.661957
11864.235106	1405.673333	1477.511719	134.272675
11864.235106	1405.673333	1476.447266	112.373337
11864.235106	1405.673333	1475.382813	332.990295
11864.235106	1405.673333	1474.318359	-25.526834
11864.235106	1405.673333	1473.253906	35.748779
11864.235106	1405.673333	1472.189453	27.540777
11864.235106	1405.673333	1471.124023	-25.469852
11864.235106	1405.673333	1470.058594	67.286018
11864.235106	1405.673333	1468.993164	-55.175961
11864.235106	1405.673333	1467.927734	26.376637
11864.235106	1405.673333	1466.861328	-95.765694
11864.235106	1405.673333	1465.794922	-47.625778
11864.235106	1405.673333	1464.728516	-13.146484
11864.235106	1405.673333	1463.662109	-34.315601
11864.235106	1405.673333	1462.594727	-44.408432
11864.235106	1405.673333	1461.528320	-23.175140
11864.235106	1405.673333	1460.460938	67.397194
11864.235106	1405.673333	1459.393555	-0.738912
11864.235106	1405.673333	1458.326172	5.222682
11864.235106	1405.673333	1457.257813	-24.562006
11864.235106	1405.673333	1456.189453	30.017635
11864.235106	1405.673333	1455.121094	-32.979832
11864.235106	1405.673333	1454.052734	146.965576
11864.235106	1405.673333	1452.984375	38.747887
11864.235106	1405.673333	1451.915039	147.773758
11864.235106	1405.673333	1450.845703	-0.186254
11864.235106	1405.673333	1449.776367	157.297028
11864.235106	1405.673333	1448.707031	154.638092
11864.235106	1405.673333	1447.636719	-79.404213
11864.235106	1405.673333	1446.567383	51.832478
11864.235106	1405.673333	1445.497070	75.031952
11864.235106	1405.673333	1444.425781	-10.233953
11864.235106	1405.673333	1443.355469	42.837498
11864.235106	1405.673333	1442.285156	107.250824
11864.235106	1405.673333	1441.213867	-11.649971
11864.235106	1405.673333	1440.142578	94.188011
11864.235106	1405.673333	1439.070313	56.758732
11864.235106	1405.673333	1437.999023	-6.456708
11864.235106	1405.673333	1436.926758	83.312943
11864.235106	1405.673333	1435.854492	10.911440
11864.235106	1405.673333	1434.782227	132.135071
11864.235106	1405.673333	1433.709961	-28.661266
11864.235106	1405.673333	1432.636719	10.467268
11864.235106	1405.673333	1431.563477	124.555191
11864.235106	1405.673333	1430.490234	41.869492
11864.235106	1405.673333	1429.416992	70.730377
11864.235106	1405.673333	1428.343750	124.120636
11864.235106	1405.673333	1427.269531	-154.042542
11864.235106	1405.673333	1426.195313	-25.038321
11864.235106	1405.673333	1425.121094	-31.177847
11864.235106	1405.673333	1424.046875	70.829285
11864.235106	1405.673333	1422.971680	-71.154808
11864.235106	1405.673333	1421.896484	-26.763914
11864.235106	1405.673333	1420.821289	34.426636
11864.235106	1405.673333	1419.746094	-29.665812
11864.235106	1405.673333	1418.669922	-32.119923
11864.235106	1405.673333	1417.594727	-60.614685
11864.235106	1405.673333	1416.518555	-98.561172
11864.235106	1405.673333	1415.442383	131.767441
11864.235106	1405.673333	1414.365234	37.873161
11864.235106	1405.673333	1413.289063	-115.998947
11864.235106	1405.673333	1412.211914	-60.464302
11864.235106	1405.673333	1411.134766	104.739418
11864.235106	1405.673333	1410.057617	-78.802002
11864.235106	1405.673333	1408.979492	47.281761
11864.235106	1405.673333	1407.902344	10.023506
11864.235106	1405.673333	1406.824219	67.895538
11864.235106	1405.673333	1405.746094	-18.318518
11864.235106	1405.673333	1404.666992	53.406574
11864.235106	1405.673333	1403.588867	-45.116871
11864.235106	1405.673333	1402.509766	43.525101
11864.235106	1405.673333	1401.430664	72.060310
11864.235106	1405.673333	1400.351563	132.924606
11864.235106	1405.673333	1399.271484	213.078918
11864.235106	1405.673333	1398.192383	75.947540
11864.235106	1405.673333	1397.112305	111.452538
11864.235106	1405.673333	1396.031250	106.075729
11864.235106	1405.673333	1394.951172	70.939949
11864.235106	1405.673333	1393.871094	65.150703
11864.235106	1405.673333	1392.790039	164.077286
11864.235106	1405.673333	1391.708984	187.124954
11864.235106	1405.673333	1390.626953	102.427719
11864.235106	1405.673333	1389.545898	126.652512
11864.235106	1405.673333	1388.463867	255.493347
11864.235106	1405.673333	1387.381836	166.852432
11864.235106	1405.673333	1386.299805	92.816452
11864.235106	1405.673333	1385.217773	224.643005
11864.235106	1405.673333	1384.134766	274.341736
11864.235106	1405.673333	1383.051758	202.201431
11864.235106	1405.673333	1381.968750	194.457214
11864.235106	1405.673333	1380.885742	177.067856
11864.235106	1405.673333	1379.802734	118.454475
11864.235106	1405.673333	1378.718750	166.136642
11864.235106	1405.673333	1377.634766	60.671055
11864.235106	1405.673333	1376.550781	155.181000
11864.235106	1405.673333	1375.465820	286.558655
11864.235106	1405.673333	1374.381836	289.238708
11864.235106	1405.673333	1373.296875	186.037521
11864.235106	1405.673333	1372.211914	160.117569
11864.235106	1405.673333	1371.126953	101.545517
11864.235106	1405.673333	1370.041016	200.884079
11864.235106	1405.673333	1368.955078	186.850357
11864.235106	1405.673333	1367.869141	172.017822
11864.235106	1405.673333	1366.783203	146.163101
11864.235106	1405.673333	1365.697266	163.709244
11864.235106	1405.673333	1364.610352	249.867035
11864.235106	1405.673333	1363.523438	239.561951
11864.235106	1405.673333	1362.436523	214.880630
11864.235106	1405.673333	1361.349609	295.861877
11864.235106	1405.673333	1360.261719	241.208237
11864.235106	1405.673333	1359.174805	225.993820
11864.235106	1405.673333	1358.086914	318.785645
11864.235106	1405.673333	1356.998047	251.262680
11864.235106	1405.673333	1355.910156	168.608261
11864.235106	1405.673333	1354.821289	288.040405
11864.235106	1405.673333	1353.732422	293.268097
11864.235106	1405.673333	1352.643555	248.017563
11864.235106	1405.673333	1351.554688	293.395477
11864.235106	1405.673333	1350.464844	338.065063
11864.235106	1405.673333	1349.375000	224.568130
11864.235106	1405.673333	1348.285156	305.139252
11864.235106	1405.673333	1347.195313	214.763046
11864.235106	1405.673333	1346.105469	134.866928
11864.235106	1405.673333	1345.014648	299.137146
11864.235106	1405.673333	1343.923828	166.482147
11864.235106	1405.673333	1342.833008	297.576935
11864.235106	1405.673333	1341.741211	167.626312
11864.235106	1405.673333	1340.650391	194.488327
11864.235106	1405.673333	1339.558594	268.588104
11864.235106	1405.673333	1338.466797	190.692871
11864.235106	1405.673333	1337.374023	273.342987
11864.235106	1405.673333	1336.282227	270.394348
11864.235106	1405.673333	1335.189453	281.928986
11864.235106	1405.673333	1334.096680	222.505524
11864.235106	1405.673333	1333.003906	282.444946
11864.235106	1405.673333	1331.910156	309.410797
11864.235106	1405.673333	1330.817383	247.735275
11864.235106	1405.673333	1329.723633	155.398590
11864.235106	1405.673333	1328.629883	189.834259
11864.235106	1405.673333	1327.535156	335.468536
11864.235106	1405.673333	1326.441406	251.324997
11864.235106	1405.673333	1325.346680	252.587967
11864.235106	1405.673333	1324.251953	355.623596
11864.235106	1405.673333	1323.156250	284.410889
11864.235106	1405.673333	1322.061523	252.052368
11864.235106	1405.673333	1320.965820	357.521606
11864.235106	1405.673333	1319.870117	201.258347
11864.235106	1405.673333	1318.774414	324.692474
11864.235106	1405.673333	1317.678711	221.574661
11864.235106	1405.673333	1316.582031	251.689682
11864.235106	1405.673333	1315.485352	462.559296
11864.235106	1405.673333	1314.388672	211.614304
11864.235106	1405.673333	1313.291016	245.082932
11864.235106	1405.673333	1312.194336	219.786652
11864.235106	1405.673333	1311.096680	311.117737
11864.235106	1405.673333	1309.999023	242.652069
11864.235106	1405.673333	1308.901367	169.314102
11864.235106	1405.673333	1307.802734	184.447342
11864.235106	1405.673333	1306.705078	199.572388
11864.235106	1405.673333	1305.606445	336.484436
11864.235106	1405.673333	1304.506836	267.248138
11864.235106	1405.673333	1303.408203	100.893295
11864.235106	1405.673333	1302.308594	229.975449
11864.235106	1405.673333	1301.208984	339.784241
11864.235106	1405.673333	1300.109375	273.659668
11864.235106	1405.673333	1299.009766	281.890961
11864.235106	1405.673333	1297.909180	333.974091
11864.235106	1405.673333	1296.808594	338.335785
11864.235106	1405.673333	1295.708008	305.733124
11864.235106	1405.673333	1294.607422	248.121811
11864.235106	1405.673333	1293.506836	313.915619
11864.235106	1405.673333	1292.405273	281.680267
11864.235106	1405.673333	1291.303711	158.022308
11864.235106	1405.673333	1290.202148	137.443787
11864.235106	1405.673333	1289.099609	195.859177
11864.235106	1405.673333	1287.998047	146.214554
11864.235106	1405.673333	1286.895508	-1.430925
11864.235106	1405.673333	1285.792969	101.092644
11864.235106	1405.673333	1284.689453	154.042511
11864.235106	1405.673333	1283.586914	199.862717
11864.235106	1405.673333	1282.483398	96.146202
11864.235106	1405.673333	1281.379883	-8.102697
11864.235106	1405.673333	1280.276367	169.160141
11864.235106	1405.673333	1279.171875	102.241310
11864.235106	1405.673333	1278.067383	212.074341
11864.235106	1405.673333	1276.962891	78.762421
11864.235106	1405.673333	1275.858398	143.047440
11864.235106	1405.673333	1274.753906	243.798737
11864.235106	1405.673333	1273.648438	184.035782
11864.235106	1405.673333	1272.542969	124.403038
11864.235106	1405.673333	1271.437500	138.701462
11864.235106	1405.673333	1270.331055	69.493538
11864.235106	1405.673333	1269.225586	-15.498438
11864.235106	1405.673333	1268.119141	75.360535
11864.235106	1405.673333	1267.012695	134.739319
11864.235106	1405.673333	1265.906250	-15.489820
11864.235106	1405.673333	1264.798828	36.187737
11864.235106	1405.673333	1263.691406	72.315857
11864.235106	1405.673333	1262.583984	43.132030
11864.235106	1405.673333	1261.476563	-14.462668
11864.235106	1405.673333	1260.368164	58.390629
11864.235106	1405.673333	1259.260742	-50.302574
11864.235106	1405.673333	1258.152344	-3.691434
11864.235106	1405.673333	1257.043945	64.601898
11864.235106	1405.673333	1255.934570	5.391861
11864.235106	1405.673333	1254.825195	128.112946
11864.235106	1405.673333	1253.716797	168.268021
11864.235106	1405.673333	1252.606445	105.391296
11864.235106	1405.673333	1251.497070	136.560287
11864.235106	1405.673333	1250.387695	91.222252
11864.235106	1405.673333	1249.277344	126.222870
11864.235106	1405.673333	1248.166992	145.675369
11864.235106	1405.673333	1247.055664	171.022568
11864.235106	1405.673333	1245.945313	103.985405
11864.235106	1405.673333	1244.833984	179.277939
11864.235106	1405.673333	1243.722656	35.891850
11864.235106	1405.673333	1242.611328	26.783398
11864.235106	1405.673333	1241.499023	86.712791
11864.235106	1405.673333	1240.387695	-19.139538
11864.235106	1405.673333	1239.275391	39.343773
11864.235106	1405.673333	1238.162109	6.381681
11864.235106	1405.673333	1237.049805	4.159045
11864.235106	1405.673333	1235.936523	81.994858
11864.235106	1405.673333	1234.823242	3.824693
11864.235106	1405.673333	1233.709961	1.313323
11864.235106	1405.673333	1232.596680	-25.683064
11864.235106	1405.673333	1231.482422	-12.796873
11864.235106	1405.673333	1230.369141	-32.575584
11864.235106	1405.673333	1229.253906	-139.160065
11864.235106	1405.673333	1228.139648	-41.440723
11864.235106	1405.673333	1227.025391	-19.672997
11864.235106	1405.673333	1225.910156	-78.349678
11864.235106	1405.673333	1224.794922	-131.994598
11864.235106	1405.673333	1223.679688	102.816795
11864.235106	1405.673333	1222.563477	-51.880947
11864.235106	1405.673333	1221.447266	70.209656
11864.235106	1405.673333	1220.331055	21.423817
11864.235106	1405.673333	1219.214844	-54.580006
11864.235106	1405.673333	1218.098633	4.243851
11864.235106	1405.673333	1216.981445	-24.929974
11864.235106	1405.673333	1215.864258	-79.615952
11864.235106	1405.673333	1214.747070	-20.892914
11864.235106	1405.673333	1213.629883	-17.445173
11864.235106	1405.673333	1212.511719	13.781270
11864.235106	1405.673333	1211.393555	27.456078
11864.235106	1405.673333	1210.275391	10.671804
11864.235106	1405.673333	1209.157227	28.433609
11864.235106	1405.673333	1208.038086	44.319870
11864.235106	1405.673333	1206.918945	-14.689646
11864.235106	1405.673333	1205.799805	-105.949150
11864.235106	1405.673333	1204.680664	-34.118996
11864.235106	1405.673333	1203.560547	-3.771731
11864.235106	1405.673333	1202.441406	69.266403
11864.235106	1405.673333	1201.321289	39.236263
11864.235106	1405.673333	1200.200195	23.223558
11864.235106	1405.673333	1199.080078	0.099877
11864.235106	1405.673333	1197.958984	-36.033150
11864.235106	1405.673333	1196.837891	-37.236637
11864.235106	1405.673333	1195.716797	-52.082058
11864.235106	1405.673333	1194.594727	-45.471142
11864.235106	1405.673333	1193.473633	-0.168385
11864.235106	1405.673333	1192.351563	-5.240241
11864.235106	1405.673333	1191.229492	-24.238472
11864.235106	1405.673333	1190.106445	-49.544827
11864.235106	1405.673333	1188.984375	86.645645
11864.235106	1405.673333	1187.861328	-41.976761
11864.235106	1405.673333	1186.738281	-11.745006
11864.235106	1405.673333	1185.614258	-35.636093
11864.235106	1405.673333	1184.491211	-81.757545
11864.235106	1405.673333	1183.367188	-116.521225
11864.235106	1405.673333	1182.243164	-43.739521
11864.235106	1405.673333	1181.119141	12.514182
11864.235106	1405.673333	1179.994141	-54.444710
11864.235106	1405.673333	1178.869141	-33.585739
11864.235106	1405.673333	1177.744141	-53.899288
11864.235106	1405.673333	1176.619141	41.264889
11864.235106	1405.673333	1175.493164	-27.584002
11864.235106	1405.673333	1174.368164	-13.312456
11864.235106	1405.673333	1173.242188	-21.004965
11864.235106	1405.673333	1172.115234	-60.860435
11864.235106	1405.673333	1170.989258	-14.780912
11864.235106	1405.673333	1169.862305	-35.456436
11864.235106	1405.673333	1168.735352	-20.695745
11864.235106	1405.673333	1167.608398	-91.568787
11864.235106	1405.673333	1166.481445	-147.639633
11864.235106	1405.673333	1165.353516	-44.106739
11864.235106	1405.673333	1164.225586	13.499571
11864.235106	1405.673333	1163.097656	-105.391136
11864.235106	1405.673333	1161.968750	-29.221954
11864.235106	1405.673333	1160.840820	25.802650
11864.235106	1405.673333	1159.711914	-25.152164
11864.235106	1405.673333	1158.583008	32.756889
11864.235106	1405.673333	1157.453125	25.111065
11864.235106	1405.673333	1156.324219	-25.207029
11864.235106	1405.673333	1155.194336	-91.134911
11864.235106	1405.673333	1154.064453	-12.425881
11864.235106	1405.673333	1152.933594	47.842064
11864.235106	1405.673333	1151.803711	14.951103
11864.235106	1405.673333	1150.672852	51.191620
11864.235106	1405.673333	1149.541992	5.722981
11864.235106	1405.673333	1148.411133	-14.404099
11864.235106	1405.673333	1147.279297	13.162486
11864.235106	1405.673333	1146.147461	-10.946636
11864.235106	1405.673333	1145.015625	-58.848228
11864.235106	1405.673333	1143.883789	7.455689
11864.235106	1405.673333	1142.750977	10.238070
11864.235106	1405.673333	1141.619141	-78.132133
11864.235106	1405.673333	1140.486328	-54.635357
11864.235106	1405.673333	1139.352539	-59.685272
11864.235106	1405.673333	1138.219727	-16.399136
11864.235106	1405.673333	1137.085938	-82.145660
11864.235106	1405.673333	1135.952148	9.954011
11864.235106	1405.673333	1134.818359	62.236271
11864.235106	1405.673333	1133.683594	73.574036
11864.235106	1405.673333	1132.549805	81.628082
11864.235106	1405.673333	1131.415039	94.622780
11864.235106	1405.673333	1130.279297	104.921829
11864.235106	1405.673333	1129.144531	80.395592
11864.235106	1405.673333	1128.008789	186.897232
11864.235106	1405.673333	1126.873047	145.934235
11864.235106	1405.673333	1125.737305	155.601761
11864.235106	1405.673333	1124.601563	85.652267
11864.235106	1405.673333	1123.464844	108.176781
11864.235106	1405.673333	1122.328125	150.133026
11864.235106	1405.673333	1121.191406	154.038589
11864.235106	1405.673333	1120.054688	147.197174
11864.235106	1405.673333	1118.916992	157.332565
11864.235106	1405.673333	1117.779297	138.518311
11864.235106	1405.673333	1116.641602	99.973145
11864.235106	1405.673333	1115.503906	149.643875
11864.235106	1405.673333	1114.365234	173.304504
11864.235106	1405.673333	1113.226563	123.627800
11864.235106	1405.673333	1112.087891	147.107895
11864.235106	1405.673333	1110.949219	111.683792
11864.235106	1405.673333	1109.809570	127.873077
11864.235106	1405.673333	1108.669922	-88.179230
11864.235106	1405.673333	1107.530273	95.608910
11864.235106	1405.673333	1106.390625	64.896729
11864.235106	1405.673333	1105.250000	90.615318
11864.235106	1405.673333	1104.109375	138.233017
11864.235106	1405.673333	1102.968750	121.739624
11864.235106	1405.673333	1101.828125	141.564346
11864.235106	1405.673333	1100.686523	83.777428
11864.235106	1405.673333	1099.544922	50.883881
11864.235106	1405.673333	1098.403320	167.123505
11864.235106	1405.673333	1097.261719	98.451920
11864.235106	1405.673333	1096.120117	26.495644
11864.235106	1405.673333	1094.977539	108.205177
11864.235106	1405.673333	1093.834961	143.197968
11864.235106	1405.673333	1092.691406	136.329742
11864.235106	1405.673333	1091.548828	179.811569
11864.235106	1405.673333	1090.405273	74.132187
11864.235106	1405.673333	1089.261719	99.886665
11864.235106	1405.673333	1088.118164	107.799698
11864.235106	1405.673333	1086.973633	140.256226
11864.235106	1405.673333	1085.829102	61.442703
11864.235106	1405.673333	1084.684570	136.981766
11864.235106	1405.673333	1083.540039	160.780212
11864.235106	1405.673333	1082.395508	104.499275
11864.235106	1405.673333	1081.250000	-0.024013
11864.235106	1405.673333	1080.104492	130.296783
11864.235106	1405.673333	1078.958984	37.419273
11864.235106	1405.673333	1077.812500	-23.833223
11864.235106	1405.673333	1076.666016	27.488585
11864.235106	1405.673333	1075.519531	151.431671
11864.235106	1405.673333	1074.373047	99.147491
11864.235106	1405.673333	1073.226563	86.483810
11864.235106	1405.673333	1072.079102	-3.353814
11864.235106	1405.673333	1070.931641	-34.492157
11864.235106	1405.673333	1069.784180	143.733932
11864.235106	1405.673333	1068.635742	11.030937
11864.235106	1405.673333	1067.487305	-66.777657
11864.235106	1405.673333	1066.338867	73.254051
11864.235106	1405.673333	1065.190430	172.596893
11864.235106	1405.673333	1064.041992	140.826157
11864.235106	1405.673333	1062.892578	84.249855
11864.235106	1405.673333	1061.743164	4.811663
11864.235106	1405.673333	1060.593750	64.907692
11864.235106	1405.673333	1059.443359	204.131042
11864.235106	1405.673333	1058.292969	155.285812
11864.235106	1405.673333	1057.142578	159.311584
11864.235106	1405.673333	1055.992188	75.478493
11864.235106	1405.673333	1054.841797	50.113342
11864.235106	1405.673333	1053.690430	-13.557544
11864.235106	1405.673333	1052.539063	76.773438
11864.235106	1405.673333	1051.387695	87.968224
11864.235106	1405.673333	1050.235352	-0.721481
11864.235106	1405.673333	1049.083984	155.491379
11864.235106	1405.673333	1047.931641	50.723804
11864.235106	1405.673333	1046.778320	-14.480175
11864.235106	1405.673333	1045.625977	-45.195202
11864.235106	1405.673333	1044.472656	25.460764
11864.235106	1405.673333	1043.319336	51.482948
11864.235106	1405.673333	1042.166016	55.546795
11864.235106	1405.673333	1041.012695	124.412216
11864.235106	1405.673333	1039.858398	56.406952
11864.235106	1405.673333	1038.704102	67.221611
11864.235106	1405.673333	1037.549805	73.759659
11864.235106	1405.673333	1036.394531	29.742849
11864.235106	1405.673333	1035.239258	133.440933
11864.235106	1405.673333	1034.083984	199.203171
11864.235106	1405.673333	1032.928711	249.253876
11864.235106	1405.673333	1031.773438	88.059494
11864.235106	1405.673333	1030.617188	131.206955
11864.235106	1405.673333	1029.460938	80.183357
11864.235106	1405.673333	1028.304688	-49.362202
11864.235106	1405.673333	1027.147461	68.961853
11864.235106	1405.673333	1025.991211	236.837692
11864.235106	1405.673333	1024.833984	210.797333
11864.235106	1405.673333	1023.675781	167.579147
11864.235106	1405.673333	1022.518555	139.968948
11864.235106	1405.673333	1021.360352	187.858017
11864.235106	1405.673333	1020.202148	159.985535
11864.235106	1405.673333	1019.043945	161.371689
11864.235106	1405.673333	1017.884766	81.213615
11864.235106	1405.673333	1016.726563	34.855324
11864.235106	1405.673333	1015.567383	224.732925
11864.235106	1405.673333	1014.407227	220.384644
11864.235106	1405.673333	1013.248047	74.771744
11864.235106	1405.673333	1012.087891	110.895699
11864.235106	1405.673333	1010.927734	127.738441
11864.235106	1405.673333	1009.767578	-41.157364
11864.235106	1405.673333	1008.606445	31.234451
11864.235106	1405.673333	1007.446289	129.467056
11864.235106	1405.673333	1006.285156	155.313797
11864.235106	1405.673333	1005.123047	61.765034
11864.235106	1405.673333	1003.961914	181.584473
11864.235106	1405.673333	1002.799805	168.809540
11864.235106	1405.673333	1001.637695	90.166412
11864.235106	1405.673333	1000.475586	184.297852
11864.235106	1405.673333	999.312500	-15.970246
11864.235106	1405.673333	998.149414	102.314880
11864.235106	1405.673333	996.986328	46.604107
11864.235106	1405.673333	995.823242	-66.919777
11864.235106	1405.673333	994.659180	-7.659428
11864.235106	1405.673333	993.496094	69.455162
11864.235106	1405.673333	992.332031	-40.844391
11864.235106	1405.673333	991.166992	-93.821121
11864.235106	1405.673333	990.002930	99.115051
11864.235106	1405.673333	988.837891	131.349976
11864.235106	1405.673333	987.672852	162.818436
11864.235106	1405.673333	986.506836	30.143126
11864.235106	1405.673333	985.341797	-21.784571
11864.235106	1405.673333	984.175781	-69.428452
11864.235106	1405.673333	983.009766	-74.105179
11864.235106	1405.673333	981.843750	-182.907349
11864.235106	1405.673333	980.676758	-46.971581
11864.235106	1405.673333	979.509766	-44.966576
11864.235106	1405.673333	978.342773	100.613716
11864.235106	1405.673333	977.175781	78.510674
11864.235106	1405.673333	976.007813	52.712646
11864.235106	1405.673333	974.839844	4.844911
11864.235106	1405.673333	973.671875	78.810478
11864.235106	1405.673333	972.503906	5.965487
11864.235106	1405.673333	971.334961	-16.859467
11864.235106	1405.673333	970.166016	-9.313494
11864.235106	1405.673333	968.997070	24.826727
11864.235106	1405.673333	967.828125	-53.851227
11864.235106	1405.673333	966.658203	12.978824
11864.235106	1405.673333	965.488281	-18.096859
11864.235106	1405.673333	964.318359	-32.023415
11864.235106	1405.673333	963.148438	75.576767
11864.235106	1405.673333	961.977539	-52.448181
11864.235106	1405.673333	960.806641	43.836655
11864.235106	1405.673333	959.635742	39.650677
11864.235106	1405.673333	958.463867	53.274620
11864.235106	1405.673333	957.292969	1.912642
11864.235106	1405.673333	956.121094	132.427322
11864.235106	1405.673333	954.948242	42.149357
11864.235106	1405.673333	953.776367	19.489979
11864.235106	1405.673333	952.603516	10.385449
11864.235106	1405.673333	951.430664	11.155472
11864.235106	1405.673333	950.257813	71.985260
11864.235106	1405.673333	949.084961	123.610817
11864.235106	1405.673333	947.911133	31.317709
11864.235106	1405.673333	946.737305	-18.012827
11864.235106	1405.673333	945.563477	170.584702
11864.235106	1405.673333	944.388672	91.827965
11864.235106	1405.673333	943.213867	150.094803
11864.235106	1405.673333	942.039063	82.628036
11864.235106	1405.673333	940.864258	129.791077
11864.235106	1405.673333	939.688477	154.458374
11864.235106	1405.673333	938.513672	102.714005
11864.235106	1405.673333	937.337891	14.970739
11864.235106	1405.673333	936.161133	-39.112598
11864.235106	1405.673333	934.985352	12.558364
11864.235106	1405.673333	933.808594	48.331909
11864.235106	1405.673333	932.631836	111.095131
11864.235106	1405.673333	931.454102	36.974865
11864.235106	1405.673333	930.277344	-32.793392
11864.235106	1405.673333	929.099609	-86.725151
11864.235106	1405.673333	927.921875	117.387978
11864.235106	1405.673333	926.743164	32.019005
11864.235106	1405.673333	925.565430	0.498640
11864.235106	1405.673333	924.386719	65.438316
11864.235106	1405.673333	923.208008	85.511253
11864.235106	1405.673333	922.028320	20.379911
11864.235106	1405.673333	920.849609	15.798822
11864.235106	1405.673333	919.669922	16.673353
11864.235106	1405.673333	919.474609	85.320168
11864.235106	1405.673333	918.309570	91.921555
11864.235106	1405.673333	917.143555	100.761513
11864.235106	1405.673333	915.977539	73.762268
11864.235106	1405.673333	914.810547	-2.487463
11864.235106	1405.673333	913.644531	-42.886002
11864.235106	1405.673333	912.477539	12.980304
11864.235106	1405.673333	911.310547	3.926255
11864.235106	1405.673333	910.143555	173.868927
11864.235106	1405.673333	908.975586	162.551346
11864.235106	1405.673333	907.807617	117.691597
11864.235106	1405.673333	906.639648	-34.479271
11864.235106	1405.673333	905.471680	-137.404037
11864.235106	1405.673333	904.303711	106.159058
11864.235106	1405.673333	903.134766	88.167877
11864.235106	1405.673333	901.965820	67.951340
11864.235106	1405.673333	900.796875	41.042728
11864.235106	1405.673333	899.626953	-61.785671
11864.235106	1405.673333	898.457031	-90.886086
11864.235106	1405.673333	897.287109	11.738136
11864.235106	1405.673333	896.117188	-17.362658
11864.235106	1405.673333	894.947266	-28.597582
11864.235106	1405.673333	893.776367	-171.457047
11864.235106	1405.673333	892.605469	-106.812843
11864.235106	1405.673333	891.434570	-89.025253
11864.235106	1405.673333	890.262695	-31.108625
11864.235106	1405.673333	889.091797	64.682175
11864.235106	1405.673333	887.919922	37.854553
11864.235106	1405.673333	886.748047	-51.352455
11864.235106	1405.673333	885.575195	155.783615
11864.235106	1405.673333	884.403320	-84.869537
11864.235106	1405.673333	883.230469	122.192528
11864.235106	1405.673333	882.057617	-18.158831
11864.235106	1405.673333	880.883789	59.700714
11864.235106	1405.673333	879.710938	-109.509140
11864.235106	1405.673333	878.537109	8.393807
11864.235106	1405.673333	877.362305	26.141525
11864.235106	1405.673333	876.188477	-38.412525
11864.235106	1405.673333	875.013672	34.935844
11864.235106	1405.673333	873.839844	-11.802199
11864.235106	1405.673333	872.664063	37.064629
11864.235106	1405.673333	871.489258	97.024750
11864.235106	1405.673333	870.313477	-65.229378
11864.235106	1405.673333	869.138672	32.496506
11864.235106	1405.673333	867.962891	-14.180333
11864.235106	1405.673333	866.786133	76.839714
11864.235106	1405.673333	865.610352	-76.387787
11864.235106	1405.673333	864.433594	-47.538044
11864.235106	1405.673333	863.256836	-51.985882
11864.235106	1405.673333	862.079102	-94.147522
11864.235106	1405.673333	860.902344	10.116561
11864.235106	1405.673333	859.724609	36.717094
11864.235106	1405.673333	858.546875	-56.430229
11864.235106	1405.673333	857.368164	-51.991634
11864.235106	1405.673333	856.190430	-87.449707
11864.235106	1405.673333	855.011719	34.447117
11864.235106	1405.673333	853.833008	-29.811768
11864.235106	1405.673333	852.654297	-43.095051
11864.235106	1405.673333	851.474609	3.426152
11864.235106	1405.673333	850.294922	-62.994617
11864.235106	1405.673333	849.115234	32.217793
11864.235106	1405.673333	847.935547	-82.870270
11864.235106	1405.673333	846.754883	-47.435295
11864.235106	1405.673333	845.575195	-34.138142
11864.235106	1405.673333	844.393555	5.700320
11864.235106	1405.673333	843.212891	-96.011276
11864.235106	1405.673333	842.032227	-0.899140
11864.235106	1405.673333	840.850586	58.807003
11864.235106	1405.673333	839.668945	-177.663757
11864.235106	1405.673333	838.486328	5.798225
11864.235106	1405.673333	837.304688	-113.474800
11864.235106	1405.673333	836.122070	-51.579910
11864.235106	1405.673333	834.939453	-119.998474
11864.235106	1405.673333	833.756836	-38.254990
11864.235106	1405.673333	832.573242	-91.193947
11864.235106	1405.673333	831.389648	32.443996
11864.235106	1405.673333	830.206055	-27.105423
11864.235106	1405.673333	829.022461	19.258774
11864.235106	1405.673333	827.838867	25.904644
11864.235106	1405.673333	826.654297	-26.989355
11864.235106	1405.673333	825.469727	-86.474937
11864.235106	1405.673333	824.284180	3.950065
11864.235106	1405.673333	823.099609	-86.369911
11864.235106	1405.673333	821.914063	59.100361
11864.235106	1405.673333	820.728516	103.179749
11864.235106	1405.673333	819.542969	-6.925803
11864.235106	1405.673333	818.356445	-81.755157
11864.235106	1405.673333	817.169922	12.959294
11864.235106	1405.673333	815.983398	-4.617544
11864.235106	1405.673333	814.796875	24.023474
11864.235106	1405.673333	813.609375	-48.552517
11864.235106	1405.673333	812.422852	-11.117806
11864.235106	1405.673333	811.235352	-96.853996
11864.235106	1405.673333	810.046875	-79.214363
11864.235106	1405.673333	808.859375	-131.930191
11864.235106	1405.673333	807.670898	-136.271942
11864.235106	1405.673333	806.482422	85.715935
11864.235106	1405.673333	805.293945	101.099205
11864.235106	1405.673333	804.104492	28.615828
11864.235106	1405.673333	802.915039	-98.740540
11864.235106	1405.673333	801.725586	-37.228355
11864.235106	1405.673333	800.536133	-127.206673
11864.235106	1405.673333	799.345703	15.483825
11864.235106	1405.673333	798.155273	87.897346
11864.235106	1405.673333	796.964844	-41.546844
11864.235106	1405.673333	795.774414	0.136429
11864.235106	1405.673333	794.583008	114.163109
11864.235106	1405.673333	793.392578	171.135925
11864.235106	1405.673333	792.200195	98.758728
11864.235106	1405.673333	791.008789	212.682770
11864.235106	1405.673333	789.816406	4.475366
11864.235106	1405.673333	788.625000	-2.118663
11864.235106	1405.673333	787.432617	19.757519
11864.235106	1405.673333	786.239258	78.844917
11864.235106	1405.673333	785.046875	45.955292
11864.235106	1405.673333	783.853516	32.773552
11864.235106	1405.673333	782.660156	-70.128494
11864.235106	1405.673333	781.465820	45.791679
11864.235106	1405.673333	780.272461	41.350742
11864.235106	1405.673333	779.078125	80.645195
11864.235106	1405.673333	777.883789	1.846936
11864.235106	1405.673333	776.688477	93.585396
11864.235106	1405.673333	775.494141	71.628922
11864.235106	1405.673333	774.298828	32.194580
11864.235106	1405.673333	773.103516	69.232597
11864.235106	1405.673333	771.907227	42.906075
11864.235106	1405.673333	770.711914	-62.032719
11864.235106	1405.673333	769.515625	-44.669994
11864.235106	1405.673333	768.318359	64.357780
11864.235106	1405.673333	767.122070	107.859558
11864.235106	1405.673333	765.924805	0.781312
11864.235106	1405.673333	764.727539	0.631895
11864.235106	1405.673333	763.530273	83.352982
11864.235106	1405.673333	762.333008	-28.040993
11864.235106	1405.673333	761.134766	106.956726
11864.235106	1405.673333	759.936523	36.999069
11864.235106	1405.673333	758.738281	86.918327
11864.235106	1405.673333	757.540039	40.940849
11864.235106	1405.673333	756.340820	8.042586
11864.235106	1405.673333	755.141602	60.084023
11864.235106	1405.673333	753.942383	75.077133
11864.235106	1405.673333	752.742188	55.221977
11864.235106	1405.673333	751.541992	33.187645
11864.235106	1405.673333	750.341797	-65.010468
11864.235106	1405.673333	749.141602	71.784149
11864.235106	1405.673333	747.941406	167.182098
11864.235106	1405.673333	746.740234	5.916112
11864.235106	1405.673333	745.539063	77.347694
11864.235106	1405.673333	744.337891	59.611393
11864.235106	1405.673333	743.135742	15.790473
11864.235106	1405.673333	741.933594	28.469633
11864.235106	1405.673333	740.731445	162.784866
11864.235106	1405.673333	739.529297	194.947861
11864.235106	1405.673333	738.326172	211.883636
11864.235106	1405.673333	737.124023	178.863495
11864.235106	1405.673333	735.919922	293.444702
11864.235106	1405.673333	734.716797	305.965515
11864.235106	1405.673333	733.513672	214.321198
11864.235106	1405.673333	732.309570	231.162277
11864.235106	1405.673333	731.105469	289.187805
11864.235106	1405.673333	729.900391	312.480438
11864.235106	1405.673333	728.696289	194.834641
11864.235106	1405.673333	727.491211	59.883198
11864.235106	1405.673333	726.286133	252.184601
11864.235106	1405.673333	725.080078	95.579750
11864.235106	1405.673333	723.874023	8.337131
11864.235106	1405.673333	722.668945	31.560217
11864.235106	1405.673333	721.461914	113.216461
11864.235106	1405.673333	720.255859	38.961491
11864.235106	1405.673333	719.048828	114.053444
11864.235106	1405.673333	717.841797	80.905876
11864.235106	1405.673333	716.634766	56.407246
11864.235106	1405.673333	715.427734	-71.918755
11864.235106	1405.673333	714.219727	147.943970
11864.235106	1405.673333	713.011719	145.010605
11864.235106	1405.673333	711.803711	100.989914
11864.235106	1405.673333	710.594727	72.096184
11864.235106	1405.673333	709.385742	92.889084
11864.235106	1405.673333	708.176758	126.614502
11864.235106	1405.673333	706.967773	117.111084
11864.235106	1405.673333	705.758789	116.228241
11864.235106	1405.673333	704.548828	59.196297
11864.235106	1405.673333	703.338867	58.284485
11864.235106	1405.673333	702.127930	-57.017136
11864.235106	1405.673333	700.917969	-23.426613
11864.235106	1405.673333	699.707031	-33.011974
11864.235106	1405.673333	698.496094	138.535156
11864.235106	1405.673333	697.285156	113.783424
11864.235106	1405.673333	696.073242	201.113937
11864.235106	1405.673333	694.861328	-17.652678
11864.235106	1405.673333	693.649414	71.778328
11864.235106	1405.673333	692.436523	27.583408
11864.235106	1405.673333	691.224609	69.537498
11864.235106	1405.673333	690.011719	124.370644
11864.235106	1405.673333	688.798828	157.628677
11864.235106	1405.673333	687.584961	169.323959
11864.235106	1405.673333	686.372070	165.926376
11864.235106	1405.673333	685.158203	-24.680344
11864.235106	1405.673333	683.943359	118.192558
11864.235106	1405.673333	682.729492	114.735802
11864.235106	1405.673333	681.514648	134.908218
11864.235106	1405.673333	680.299805	71.206963
11864.235106	1405.673333	679.084961	69.837448
11864.235106	1405.673333	677.869141	-17.510862
11864.235106	1405.673333	676.653320	11.166584
11864.235106	1405.673333	675.437500	3.291525
11864.235106	1405.673333	674.221680	25.459530
11864.235106	1405.673333	673.004883	84.091927
11864.235106	1405.673333	671.789063	-52.666058
11864.235106	1405.673333	670.571289	81.021049
11864.235106	1405.673333	669.354492	111.633446
11864.235106	1405.673333	668.136719	157.222824
11864.235106	1405.673333	666.919922	140.568375
11864.235106	1405.673333	665.701172	55.274860
11864.235106	1405.673333	664.483398	145.790054
11864.235106	1405.673333	663.264648	159.076111
11864.235106	1405.673333	662.045898	71.610069
11864.235106	1405.673333	660.827148	1.294171
11864.235106	1405.673333	659.608398	27.374428
11864.235106	1405.673333	658.388672	-4.407712
11864.235106	1405.673333	657.168945	184.336487
11864.235106	1405.673333	655.949219	105.384773
11864.235106	1405.673333	654.728516	5.035691
11864.235106	1405.673333	653.507813	-11.845884
11864.235106	1405.673333	652.287109	69.662849
11864.235106	1405.673333	651.066406	155.387024
11864.235106	1405.673333	649.844727	65.693977
11864.235106	1405.673333	648.623047	168.431091
11864.235106	1405.673333	647.401367	74.442093
11864.235106	1405.673333	646.179688	142.885162
11864.235106	1405.673333	644.957031	98.027924
11864.235106	1405.673333	643.734375	18.983042
11864.235106	1405.673333	642.511719	236.812027
11864.235106	1405.673333	641.289063	115.008995
11864.235106	1405.673333	640.065430	53.004623
11864.235106	1405.673333	638.841797	140.405807
11864.235106	1405.673333	637.618164	42.089500
11864.235106	1405.673333	636.393555	135.799316
11864.235106	1405.673333	635.168945	-3.058954
11864.235106	1405.673333	633.944336	79.901939
11864.235106	1405.673333	632.719727	167.063858
11864.235106	1405.673333	631.494141	100.679131
11864.235106	1405.673333	630.269531	72.657761
11864.235106	1405.673333	629.042969	4.133523
11864.235106	1405.673333	627.817383	69.821877
11864.235106	1405.673333	626.590820	105.635529
11864.235106	1405.673333	625.365234	115.853836
11864.235106	1405.673333	624.137695	68.555656
11864.235106	1405.673333	622.911133	104.263351
11864.235106	1405.673333	621.683594	163.335785
11864.235106	1405.673333	620.456055	77.677643
11864.235106	1405.673333	619.228516	55.843697
11864.235106	1405.673333	618.000977	97.792549
11864.235106	1405.673333	616.772461	-38.910667
11864.235106	1405.673333	615.543945	-1.266939
11864.235106	1405.673333	614.314453	40.583267
11864.235106	1405.673333	613.085938	-110.976707
11864.235106	1405.673333	611.856445	-79.797272
11864.235106	1405.673333	610.626953	44.798443
11864.235106	1405.673333	609.397461	-28.176241
11864.235106	1405.673333	608.166992	-56.562057
11864.235106	1405.673333	606.936523	-61.613701
11864.235106	1405.673333	605.706055	54.275921
11864.235106	1405.673333	604.474609	-103.616295
11864.235106	1405.673333	603.244141	16.423449
11864.235106	1405.673333	602.012695	117.297882
11864.235106	1405.673333	600.780273	69.674126
11864.235106	1405.673333	599.548828	39.006344
11864.235106	1405.673333	598.316406	-59.499115
11864.235106	1405.673333	597.083984	-85.940002
11864.235106	1405.673333	595.851563	158.784958
11864.235106	1405.673333	594.618164	-282.898010
11864.235106	1405.673333	593.384766	-44.639347
11864.235106	1405.673333	592.151367	-30.933435
11864.235106	1405.673333	590.917969	-27.841568
11864.235106	1405.673333	589.683594	-9.962008
11864.235106	1405.673333	588.449219	-25.968508
11864.235106	1405.673333	587.214844	-16.605938
11864.235106	1405.673333	585.979492	-49.571712
11864.235106	1405.673333	584.745117	59.128876
11864.235106	1405.673333	583.509766	53.598286
11864.235106	1405.673333	582.273438	5.772780
11864.235106	1405.673333	581.038086	44.588093
11864.235106	1405.673333	579.801758	28.431763
11864.235106	1405.673333	578.565430	86.190758
11864.235106	1405.673333	577.329102	34.088520
11864.235106	1405.673333	576.091797	-121.471878
11864.235106	1405.673333	574.854492	-36.341198
11864.235106	1405.673333	573.617188	-48.349209
11864.235106	1405.673333	572.378906	15.586820
11864.235106	1405.673333	571.141602	-51.316322
11864.235106	1405.673333	569.903320	-57.047771
11864.235106	1405.673333	568.664063	103.787277
11864.235106	1405.673333	567.425781	171.774353
11864.235106	1405.673333	566.186523	-23.759817
11864.235106	1405.673333	564.947266	48.401031
11864.235106	1405.673333	563.708008	-5.899496
11864.235106	1405.673333	562.467773	-58.089977
11864.235106	1405.673333	561.227539	-63.944313
11864.235106	1405.673333	559.987305	22.829832
11864.235106	1405.673333	558.747070	52.713272
11864.235106	1405.673333	557.505859	4.693896
11864.235106	1405.673333	556.264648	36.637516
11864.235106	1405.673333	555.023438	1.232962
11864.235106	1405.673333	553.781250	-86.756516
11864.235106	1405.673333	552.539063	-44.347878
11864.235106	1405.673333	551.296875	98.942146
11864.235106	1405.673333	550.054688	109.735001
11864.235106	1405.673333	548.811523	78.477013
11864.235106	1405.673333	547.569336	-22.112560
11864.235106	1405.673333	546.325195	15.960765
11864.235106	1405.673333	545.082031	-4.796289
11864.235106	1405.673333	543.837891	79.424545
11864.235106	1405.673333	542.593750	-58.920959
11864.235106	1405.673333	541.349609	-56.601482
11864.235106	1405.673333	540.105469	31.737337
11864.235106	1405.673333	538.860352	-75.078362
11864.235106	1405.673333	537.615234	-41.331051
11864.235106	1405.673333	536.369141	-39.066193
11864.235106	1405.673333	535.124023	-78.740158
11864.235106	1405.673333	533.877930	-42.951057
11864.235106	1405.673333	532.631836	-93.107330
11864.235106	1405.673333	531.384766	-103.445381
11864.235106	1405.673333	530.138672	18.182943
11864.235106	1405.673333	528.891602	35.033474
11864.235106	1405.673333	527.643555	-77.951096
11864.235106	1405.673333	526.396484	31.005842
11864.235106	1405.673333	525.148438	-79.852150
11864.235106	1405.673333	523.900391	-81.860237
11864.235106	1405.673333	522.652344	-23.205622
11864.235106	1405.673333	521.403320	-10.599876
11864.235106	1405.673333	520.154297	-131.839127
11864.235106	1405.673333	518.905273	-108.774635
11864.235106	1405.673333	517.656250	-35.559937
11864.235106	1405.673333	516.406250	-110.759674
11864.235106	1405.673333	515.156250	-71.018623
11864.235106	1405.673333	513.906250	58.522854
11864.235106	1405.673333	512.655273	-6.224338
11864.235106	1405.673333	511.404297	-31.276085
11864.235106	1405.673333	510.153320	-4.132156
11864.235106	1405.673333	508.902344	-8.310884
11864.235106	1405.673333	507.650391	91.838814
11864.235106	1405.673333	506.398438	-68.834229
11864.235106	1405.673333	505.146484	-35.466061
11864.235106	1405.673333	503.893555	20.820438
11864.235106	1405.673333	502.641602	29.130417
11864.235106	1405.673333	501.388672	-29.270369
11864.235106	1405.673333	500.134766	31.135300
11864.235106	1405.673333	498.881836	35.259174
11864.235106	1405.673333	497.627930	-66.860092
11864.235106	1405.673333	496.374023	-50.228748
11864.235106	1405.673333	495.119141	-12.787671
11864.235106	1405.673333	493.865234	-19.078775
11864.235106	1405.673333	492.610352	116.154289
11864.235106	1405.673333	491.355469	45.325123
11864.235106	1405.673333	490.099609	-19.237690
11864.235106	1405.673333	488.843750	20.221693
11864.235106	1405.673333	487.587891	53.422947
11864.235106	1405.673333	486.332031	-27.739470
11864.235106	1405.673333	485.075195	-9.100145
11864.235106	1405.673333	483.818359	67.716309
11864.235106	1405.673333	482.561523	117.486595
11864.235106	1405.673333	481.304688	148.537201
11864.235106	1405.673333	480.046875	129.725845
11864.235106	1405.673333	478.789063	88.078651
11864.235106	1405.673333	477.531250	77.584663
11864.235106	1405.673333	476.272461	40.107330
11864.235106	1405.673333	475.013672	170.717163
11864.235106	1405.673333	473.754883	25.349876
11864.235106	1405.673333	472.496094	0.338582
11864.235106	1405.673333	471.236328	124.633530
11864.235106	1405.673333	469.976563	76.792419
11864.235106	1405.673333	468.716797	20.674170
11864.235106	1405.673333	467.456055	28.812885
11864.235106	1405.673333	466.196289	-52.147831
11864.235106	1405.673333	464.935547	-10.869791
11864.235106	1405.673333	463.673828	17.953508
11864.235106	1405.673333	462.413086	48.827396
11864.235106	1405.673333	461.151367	135.568420
11864.235106	1405.673333	459.889648	-17.816744
11864.235106	1405.673333	458.626953	-15.960818
11864.235106	1405.673333	457.364258	85.181358
11864.235106	1405.673333	456.101563	109.739784
11864.235106	1405.673333	454.838867	70.170586
11864.235106	1405.673333	453.575195	14.061048
11864.235106	1405.673333	452.312500	15.837180
11864.235106	1405.673333	451.047852	114.715767
11864.235106	1405.673333	449.784180	141.223969
11864.235106	1405.673333	448.519531	147.041931
11864.235106	1405.673333	447.254883	35.122726
11864.235106	1405.673333	445.990234	59.501213
11864.235106	1405.673333	444.725586	-19.367867
11864.235106	1405.673333	443.459961	184.513870
11864.235106	1405.673333	442.194336	95.281425
11864.235106	1405.673333	440.927734	100.951584
11864.235106	1405.673333	439.662109	96.280670
11864.235106	1405.673333	438.395508	237.983276
11864.235106	1405.673333	437.127930	130.135773
11864.235106	1405.673333	435.861328	86.199013
11864.235106	1405.673333	434.593750	139.095276
11864.235106	1405.673333	433.326172	107.460220
11864.235106	1405.673333	432.058594	24.303144
11864.235106	1405.673333	430.790039	56.461369
11864.235106	1405.673333	429.521484	107.091934
11864.235106	1405.673333	428.252930	328.507111
11864.235106	1405.673333	426.984375	280.175873
11864.235106	1405.673333	425.714844	19.880909
11864.235106	1405.673333	424.445313	230.728760
11864.235106	1405.673333	423.174805	13.634671
11864.235106	1405.673333	421.905273	125.577980
11864.235106	1405.673333	420.634766	-9.287269
11864.235106	1405.673333	419.364258	194.974426
11864.235106	1405.673333	418.092773	88.786552
11864.235106	1405.673333	416.822266	243.494186
11864.235106	1405.673333	415.550781	194.711105
11864.235106	1405.673333	414.278320	156.137131
11864.235106	1405.673333	413.006836	123.662804
11864.235106	1405.673333	411.734375	80.852913
11864.235106	1405.673333	410.461914	122.117249
11864.235106	1405.673333	409.188477	159.165833
11864.235106	1405.673333	407.916016	124.311646
11864.235106	1405.673333	406.642578	79.117073
11864.235106	1405.673333	405.368164	128.157181
11864.235106	1405.673333	404.094727	41.774364
11864.235106	1405.673333	402.820313	94.685989
11864.235106	1405.673333	401.545898	174.099442
11864.235106	1405.673333	400.270508	177.554916
11864.235106	1405.673333	398.996094	47.756367
11864.235106	1405.673333	397.720703	106.278374
11864.235106	1405.673333	396.444336	47.940254
11864.235106	1405.673333	395.168945	75.465164
11864.235106	1405.673333	393.892578	225.618149
11864.235106	1405.673333	392.616211	56.382713
11864.235106	1405.673333	391.339844	-8.608101
11864.235106	1405.673333	390.062500	-43.056175
11864.235106	1405.673333	388.785156	75.697212
11864.235106	1405.673333	387.507813	12.294941
11864.235106	1405.673333	386.229492	26.402969
11864.235106	1405.673333	384.951172	48.497822
11864.235106	1405.673333	383.672852	90.825455
11864.235106	1405.673333	382.394531	-46.794113
11864.235106	1405.673333	381.115234	107.446976
11864.235106	1405.673333	379.835938	-73.400604
11864.235106	1405.673333	378.556641	51.784462
11864.235106	1405.673333	377.277344	95.068634
11864.235106	1405.673333	375.997070	52.410328
11864.235106	1405.673333	374.716797	-45.537773
11864.235106	1405.673333	373.435547	29.651766
11864.235106	1405.673333	372.155273	133.110184
11864.235106	1405.673333	370.874023	32.414410
11864.235106	1405.673333	369.591797	51.731331
11864.235106	1405.673333	368.310547	19.834902
11864.235106	1405.673333	367.028320	-30.671867
11864.235106	1405.673333	365.746094	140.550262
11864.235106	1405.673333	364.463867	-18.471130
11864.235106	1405.673333	363.180664	-75.950951
11864.235106	1405.673333	361.897461	-33.991795
11864.235106	1405.673333	360.614258	-69.704384
11864.235106	1405.673333	359.330078	-97.609673
11864.235106	1405.673333	358.045898	-70.931259
11864.235106	1405.673333	356.761719	2.150646
11864.235106	1405.673333	355.477539	-24.789488
11864.235106	1405.673333	354.192383	59.691753
11864.235106	1405.673333	352.907227	-102.154465
11864.235106	1405.673333	351.622070	-8.322225
11864.235106	1405.673333	350.336914	-134.327789
11864.235106	1405.673333	349.050781	-0.755292
11864.235106	1405.673333	347.764648	-44.326466
11864.235106	1405.673333	346.477539	-11.195434
11864.235106	1405.673333	345.191406	13.356881
11864.235106	1405.673333	343.904297	-31.575872
11864.235106	1405.673333	342.616211	67.051453
11864.235106	1405.673333	341.329102	27.231249
11864.235106	1405.673333	340.041016	-53.651833
11864.235106	1405.673333	338.752930	94.070694
11864.235106	1405.673333	337.463867	12.132353
11864.235106	1405.673333	336.175781	41.150116
11864.235106	1405.673333	334.886719	14.871070
11864.235106	1405.673333	333.596680	-3.891723
11864.235106	1405.673333	332.307617	39.554111
11864.235106	1405.673333	331.017578	60.081100
11864.235106	1405.673333	329.727539	-23.265923
11864.235106	1405.673333	328.436523	26.335155
11864.235106	1405.673333	327.146484	69.203712
11864.235106	1405.673333	325.855469	-5.971910
11864.235106	1405.673333	324.563477	-83.850250
11864.235106	1405.673333	323.272461	-178.561523
11864.235106	1405.673333	321.980469	-180.984451
11864.235106	1405.673333	320.688477	50.305428
11864.235106	1405.673333	319.395508	-153.752258
11864.235106	1405.673333	318.103516	-4.927717
11864.235106	1405.673333	316.810547	13.735809
11864.235106	1405.673333	315.516602	-73.463860
11864.235106	1405.673333	314.223633	-10.019047
11864.235106	1405.673333	312.929688	-22.174004
11864.235106	1405.673333	311.635742	-4.933884
11864.235106	1405.673333	310.340820	39.616962
11864.235106	1405.673333	309.045898	46.913349
11864.235106	1405.673333	307.750977	-27.410419
11864.235106	1405.673333	306.456055	44.522274
11864.235106	1405.673333	305.160156	26.705185
11864.235106	1405.673333	303.865234	142.946808
11864.235106	1405.673333	302.568359	175.424500
11864.235106	1405.673333	301.272461	184.697632
11864.235106	1405.673333	299.975586	164.651764
11864.235106	1405.673333	298.678711	284.463013
