#X		#Y		#Wave		#Intensity
11466.760638	2888.901667	1999.980469	-105.863487
11466.760638	2888.901667	1999.016602	18.740398
11466.760638	2888.901667	1998.052734	-8.740694
11466.760638	2888.901667	1997.087891	-65.994431
11466.760638	2888.901667	1996.123047	-43.985085
11466.760638	2888.901667	1995.158203	0.268039
11466.760638	2888.901667	1994.193359	41.986328
11466.760638	2888.901667	1993.228516	-32.737263
11466.760638	2888.901667	1992.262695	16.319441
11466.760638	2888.901667	1991.297852	13.336527
11466.760638	2888.901667	1990.332031	32.592094
11466.760638	2888.901667	1989.366211	86.446266
11466.760638	2888.901667	1988.399414	93.239639
11466.760638	2888.901667	1987.433594	43.104679
11466.760638	2888.901667	1986.466797	-76.290741
11466.760638	2888.901667	1985.500977	-15.172947
11466.760638	2888.901667	1984.534180	23.641386
11466.760638	2888.901667	1983.567383	22.863554
11466.760638	2888.901667	1982.599609	-49.609009
11466.760638	2888.901667	1981.632813	-114.671402
11466.760638	2888.901667	1980.665039	82.117699
11466.760638	2888.901667	1979.697266	-116.371666
11466.760638	2888.901667	1978.729492	38.312054
11466.760638	2888.901667	1977.761719	-68.795601
11466.760638	2888.901667	1976.792969	9.249413
11466.760638	2888.901667	1975.825195	65.029762
11466.760638	2888.901667	1974.856445	-14.949690
11466.760638	2888.901667	1973.887695	-25.842281
11466.760638	2888.901667	1972.918945	2.714582
11466.760638	2888.901667	1971.949219	149.617889
11466.760638	2888.901667	1970.980469	89.324936
11466.760638	2888.901667	1970.010742	46.292469
11466.760638	2888.901667	1969.041016	8.187474
11466.760638	2888.901667	1968.071289	41.545811
11466.760638	2888.901667	1967.101563	15.741208
11466.760638	2888.901667	1966.130859	71.223686
11466.760638	2888.901667	1965.161133	10.909153
11466.760638	2888.901667	1964.190430	-24.772308
11466.760638	2888.901667	1963.219727	126.663200
11466.760638	2888.901667	1962.249023	29.404764
11466.760638	2888.901667	1961.277344	104.450600
11466.760638	2888.901667	1960.306641	4.746470
11466.760638	2888.901667	1959.334961	-58.029213
11466.760638	2888.901667	1958.363281	16.955101
11466.760638	2888.901667	1957.391602	5.823978
11466.760638	2888.901667	1956.419922	-7.771664
11466.760638	2888.901667	1955.447266	8.128155
11466.760638	2888.901667	1954.474609	83.003418
11466.760638	2888.901667	1953.501953	25.137325
11466.760638	2888.901667	1952.529297	40.995686
11466.760638	2888.901667	1951.556641	103.514999
11466.760638	2888.901667	1950.583984	43.197178
11466.760638	2888.901667	1949.610352	14.818482
11466.760638	2888.901667	1948.636719	-67.571793
11466.760638	2888.901667	1947.663086	-46.837490
11466.760638	2888.901667	1946.689453	72.055969
11466.760638	2888.901667	1945.715820	-15.224039
11466.760638	2888.901667	1944.741211	-92.663055
11466.760638	2888.901667	1943.767578	-128.378235
11466.760638	2888.901667	1942.792969	-68.437737
11466.760638	2888.901667	1941.818359	40.516750
11466.760638	2888.901667	1940.842773	-19.731810
11466.760638	2888.901667	1939.868164	-62.803032
11466.760638	2888.901667	1938.892578	4.417950
11466.760638	2888.901667	1937.916992	15.256233
11466.760638	2888.901667	1936.941406	48.135445
11466.760638	2888.901667	1935.965820	-19.419722
11466.760638	2888.901667	1934.990234	28.142756
11466.760638	2888.901667	1934.013672	14.475858
11466.760638	2888.901667	1933.037109	84.041847
11466.760638	2888.901667	1932.060547	14.075830
11466.760638	2888.901667	1931.083984	2.862696
11466.760638	2888.901667	1930.107422	67.495926
11466.760638	2888.901667	1929.129883	92.966331
11466.760638	2888.901667	1928.153320	-6.299882
11466.760638	2888.901667	1927.175781	41.181141
11466.760638	2888.901667	1926.198242	5.523457
11466.760638	2888.901667	1925.219727	28.541582
11466.760638	2888.901667	1924.242188	85.765190
11466.760638	2888.901667	1923.263672	23.243046
11466.760638	2888.901667	1922.285156	21.817198
11466.760638	2888.901667	1921.306641	-104.172371
11466.760638	2888.901667	1920.328125	9.201214
11466.760638	2888.901667	1919.349609	17.547455
11466.760638	2888.901667	1918.370117	6.362942
11466.760638	2888.901667	1917.391602	-7.256809
11466.760638	2888.901667	1916.412109	93.817497
11466.760638	2888.901667	1915.431641	-117.428215
11466.760638	2888.901667	1914.452148	-26.125504
11466.760638	2888.901667	1913.472656	-0.702622
11466.760638	2888.901667	1912.492188	114.930252
11466.760638	2888.901667	1911.511719	-71.776543
11466.760638	2888.901667	1910.531250	26.767872
11466.760638	2888.901667	1909.550781	-11.193304
11466.760638	2888.901667	1908.569336	70.250534
11466.760638	2888.901667	1907.588867	27.426716
11466.760638	2888.901667	1906.607422	-10.508635
11466.760638	2888.901667	1905.625977	-21.641363
11466.760638	2888.901667	1904.644531	-76.592064
11466.760638	2888.901667	1903.662109	-82.836395
11466.760638	2888.901667	1902.680664	-74.473335
11466.760638	2888.901667	1901.698242	-100.178329
11466.760638	2888.901667	1900.715820	-65.049950
11466.760638	2888.901667	1899.733398	-27.500338
11466.760638	2888.901667	1898.750000	-121.290306
11466.760638	2888.901667	1897.767578	25.677870
11466.760638	2888.901667	1896.784180	26.727777
11466.760638	2888.901667	1895.800781	-18.401800
11466.760638	2888.901667	1894.817383	92.016624
11466.760638	2888.901667	1893.833984	85.770103
11466.760638	2888.901667	1892.850586	-71.086739
11466.760638	2888.901667	1891.866211	24.711624
11466.760638	2888.901667	1890.881836	16.056278
11466.760638	2888.901667	1889.897461	-60.575314
11466.760638	2888.901667	1888.913086	-57.071415
11466.760638	2888.901667	1887.927734	-43.860363
11466.760638	2888.901667	1886.943359	0.892289
11466.760638	2888.901667	1885.958008	-133.900528
11466.760638	2888.901667	1884.972656	124.307510
11466.760638	2888.901667	1883.987305	-0.755676
11466.760638	2888.901667	1883.001953	48.807762
11466.760638	2888.901667	1882.015625	83.806770
11466.760638	2888.901667	1881.029297	121.217331
11466.760638	2888.901667	1880.042969	-64.333717
11466.760638	2888.901667	1879.056641	-87.481255
11466.760638	2888.901667	1878.070313	-59.748848
11466.760638	2888.901667	1877.083984	-78.044830
11466.760638	2888.901667	1876.096680	-60.011444
11466.760638	2888.901667	1875.109375	-12.932008
11466.760638	2888.901667	1874.122070	89.803696
11466.760638	2888.901667	1873.134766	6.147186
11466.760638	2888.901667	1872.146484	-4.888036
11466.760638	2888.901667	1871.159180	-1.403632
11466.760638	2888.901667	1870.170898	127.856056
11466.760638	2888.901667	1869.182617	78.107704
11466.760638	2888.901667	1868.194336	-99.771896
11466.760638	2888.901667	1867.205078	-6.832743
11466.760638	2888.901667	1866.216797	-27.528057
11466.760638	2888.901667	1865.227539	-40.968903
11466.760638	2888.901667	1864.238281	47.069683
11466.760638	2888.901667	1863.249023	-60.593624
11466.760638	2888.901667	1862.259766	90.205559
11466.760638	2888.901667	1861.269531	-77.799095
11466.760638	2888.901667	1860.279297	-79.158508
11466.760638	2888.901667	1859.290039	-32.242924
11466.760638	2888.901667	1858.298828	-7.069743
11466.760638	2888.901667	1857.308594	95.304832
11466.760638	2888.901667	1856.318359	38.415237
11466.760638	2888.901667	1855.327148	201.035172
11466.760638	2888.901667	1854.335938	103.143013
11466.760638	2888.901667	1853.344727	-21.238974
11466.760638	2888.901667	1852.353516	18.345577
11466.760638	2888.901667	1851.362305	-67.418953
11466.760638	2888.901667	1850.370117	-15.800903
11466.760638	2888.901667	1849.377930	50.248436
11466.760638	2888.901667	1848.385742	89.771355
11466.760638	2888.901667	1847.393555	32.938553
11466.760638	2888.901667	1846.401367	57.991051
11466.760638	2888.901667	1845.408203	44.509121
11466.760638	2888.901667	1844.415039	11.770000
11466.760638	2888.901667	1843.421875	101.772514
11466.760638	2888.901667	1842.428711	30.524761
11466.760638	2888.901667	1841.435547	-26.268370
11466.760638	2888.901667	1840.441406	85.318085
11466.760638	2888.901667	1839.448242	83.832031
11466.760638	2888.901667	1838.454102	176.107468
11466.760638	2888.901667	1837.459961	-53.775578
11466.760638	2888.901667	1836.464844	-52.853607
11466.760638	2888.901667	1835.470703	22.552683
11466.760638	2888.901667	1834.475586	-34.215424
11466.760638	2888.901667	1833.480469	74.771225
11466.760638	2888.901667	1832.485352	-104.482689
11466.760638	2888.901667	1831.490234	-7.546209
11466.760638	2888.901667	1830.495117	12.523328
11466.760638	2888.901667	1829.499023	-63.433655
11466.760638	2888.901667	1828.502930	19.014469
11466.760638	2888.901667	1827.506836	58.234688
11466.760638	2888.901667	1826.510742	133.413818
11466.760638	2888.901667	1825.513672	194.163223
11466.760638	2888.901667	1824.517578	-30.477734
11466.760638	2888.901667	1823.520508	49.440437
11466.760638	2888.901667	1822.523438	74.185356
11466.760638	2888.901667	1821.526367	65.358398
11466.760638	2888.901667	1820.529297	97.258682
11466.760638	2888.901667	1819.531250	136.322235
11466.760638	2888.901667	1818.533203	158.593094
11466.760638	2888.901667	1817.535156	37.156021
11466.760638	2888.901667	1816.537109	47.442951
11466.760638	2888.901667	1815.539063	-42.829502
11466.760638	2888.901667	1814.540039	79.936745
11466.760638	2888.901667	1813.541992	56.672375
11466.760638	2888.901667	1812.542969	11.870626
11466.760638	2888.901667	1811.543945	-23.358473
11466.760638	2888.901667	1810.543945	20.337036
11466.760638	2888.901667	1809.544922	-60.338642
11466.760638	2888.901667	1808.544922	88.514389
11466.760638	2888.901667	1807.544922	-25.634415
11466.760638	2888.901667	1806.544922	104.010170
11466.760638	2888.901667	1805.544922	4.210662
11466.760638	2888.901667	1804.544922	57.327236
11466.760638	2888.901667	1803.543945	81.746925
11466.760638	2888.901667	1802.542969	67.934868
11466.760638	2888.901667	1801.541992	-105.854240
11466.760638	2888.901667	1800.541016	80.864304
11466.760638	2888.901667	1799.539063	-2.197809
11466.760638	2888.901667	1798.538086	105.655624
11466.760638	2888.901667	1797.536133	1.118186
11466.760638	2888.901667	1796.534180	13.485648
11466.760638	2888.901667	1795.532227	-14.709434
11466.760638	2888.901667	1794.529297	52.466255
11466.760638	2888.901667	1793.527344	40.931240
11466.760638	2888.901667	1792.524414	-15.903758
11466.760638	2888.901667	1791.521484	8.291305
11466.760638	2888.901667	1790.518555	1.486489
11466.760638	2888.901667	1789.514648	35.163876
11466.760638	2888.901667	1788.511719	166.463333
11466.760638	2888.901667	1787.507813	173.869675
11466.760638	2888.901667	1786.503906	-18.731813
11466.760638	2888.901667	1785.500000	-8.947217
11466.760638	2888.901667	1784.496094	126.952324
11466.760638	2888.901667	1783.491211	93.839920
11466.760638	2888.901667	1782.486328	44.069214
11466.760638	2888.901667	1781.481445	6.193285
11466.760638	2888.901667	1780.476563	58.681248
11466.760638	2888.901667	1779.471680	165.817642
11466.760638	2888.901667	1778.465820	-14.747153
11466.760638	2888.901667	1777.460938	6.763348
11466.760638	2888.901667	1776.455078	82.900993
11466.760638	2888.901667	1775.449219	113.850128
11466.760638	2888.901667	1774.442383	-57.141281
11466.760638	2888.901667	1773.436523	45.033485
11466.760638	2888.901667	1772.429688	-80.801888
11466.760638	2888.901667	1771.422852	-111.647049
11466.760638	2888.901667	1770.416016	-4.830739
11466.760638	2888.901667	1769.409180	18.865704
11466.760638	2888.901667	1768.402344	-38.137905
11466.760638	2888.901667	1767.394531	59.055237
11466.760638	2888.901667	1766.386719	-28.807859
11466.760638	2888.901667	1765.378906	-71.601791
11466.760638	2888.901667	1764.371094	34.966797
11466.760638	2888.901667	1763.362305	-76.606712
11466.760638	2888.901667	1762.354492	-0.927598
11466.760638	2888.901667	1761.345703	-36.666668
11466.760638	2888.901667	1760.336914	-6.077760
11466.760638	2888.901667	1759.328125	-53.685848
11466.760638	2888.901667	1758.318359	64.475052
11466.760638	2888.901667	1757.308594	106.803040
11466.760638	2888.901667	1756.299805	94.648415
11466.760638	2888.901667	1755.290039	115.612129
11466.760638	2888.901667	1754.279297	-62.230244
11466.760638	2888.901667	1753.269531	129.060822
11466.760638	2888.901667	1752.258789	-1.448507
11466.760638	2888.901667	1751.249023	-44.421146
11466.760638	2888.901667	1750.238281	-94.494118
11466.760638	2888.901667	1749.226563	23.282185
11466.760638	2888.901667	1748.215820	58.265945
11466.760638	2888.901667	1747.204102	-15.494899
11466.760638	2888.901667	1746.193359	-51.442368
11466.760638	2888.901667	1745.181641	-82.675079
11466.760638	2888.901667	1744.168945	-2.910408
11466.760638	2888.901667	1743.157227	-8.206954
11466.760638	2888.901667	1742.144531	54.943005
11466.760638	2888.901667	1741.132813	66.118652
11466.760638	2888.901667	1740.120117	34.784660
11466.760638	2888.901667	1739.106445	-8.358356
11466.760638	2888.901667	1738.093750	87.686394
11466.760638	2888.901667	1737.080078	6.766773
11466.760638	2888.901667	1736.067383	-50.558327
11466.760638	2888.901667	1735.053711	-44.224308
11466.760638	2888.901667	1734.040039	-2.553773
11466.760638	2888.901667	1733.025391	39.077065
11466.760638	2888.901667	1732.011719	156.079803
11466.760638	2888.901667	1730.997070	4.427580
11466.760638	2888.901667	1729.982422	-5.853964
11466.760638	2888.901667	1728.967773	61.565750
11466.760638	2888.901667	1727.952148	77.133179
11466.760638	2888.901667	1726.937500	-22.681772
11466.760638	2888.901667	1725.921875	87.003044
11466.760638	2888.901667	1724.906250	71.898430
11466.760638	2888.901667	1723.890625	148.540070
11466.760638	2888.901667	1722.875000	18.117928
11466.760638	2888.901667	1721.858398	-6.439706
11466.760638	2888.901667	1720.841797	121.839302
11466.760638	2888.901667	1719.825195	-64.996185
11466.760638	2888.901667	1718.808594	16.189625
11466.760638	2888.901667	1717.791992	-1.384479
11466.760638	2888.901667	1716.774414	32.718014
11466.760638	2888.901667	1715.756836	-22.486216
11466.760638	2888.901667	1714.739258	-105.876022
11466.760638	2888.901667	1713.721680	-64.792168
11466.760638	2888.901667	1712.704102	-134.097397
11466.760638	2888.901667	1711.685547	-3.864531
11466.760638	2888.901667	1710.667969	-12.174771
11466.760638	2888.901667	1709.649414	-102.635803
11466.760638	2888.901667	1708.630859	-31.200026
11466.760638	2888.901667	1707.611328	2.653393
11466.760638	2888.901667	1706.592773	-69.059395
11466.760638	2888.901667	1705.573242	-32.908615
11466.760638	2888.901667	1704.553711	-92.910065
11466.760638	2888.901667	1703.534180	60.383606
11466.760638	2888.901667	1702.513672	14.403800
11466.760638	2888.901667	1701.494141	-101.864861
11466.760638	2888.901667	1700.473633	-68.191032
11466.760638	2888.901667	1699.453125	-53.287163
11466.760638	2888.901667	1698.432617	-29.043301
11466.760638	2888.901667	1697.412109	-18.875353
11466.760638	2888.901667	1696.390625	-102.363731
11466.760638	2888.901667	1695.369141	-148.395126
11466.760638	2888.901667	1694.347656	-28.301943
11466.760638	2888.901667	1693.326172	70.671295
11466.760638	2888.901667	1692.304688	-22.205267
11466.760638	2888.901667	1691.282227	-16.852936
11466.760638	2888.901667	1690.260742	-55.941452
11466.760638	2888.901667	1689.238281	33.529217
11466.760638	2888.901667	1688.214844	1.412671
11466.760638	2888.901667	1687.192383	-98.471466
11466.760638	2888.901667	1686.168945	-9.105193
11466.760638	2888.901667	1685.146484	35.831684
11466.760638	2888.901667	1684.123047	15.339536
11466.760638	2888.901667	1683.099609	-51.860676
11466.760638	2888.901667	1682.075195	-39.685982
11466.760638	2888.901667	1681.051758	28.484236
11466.760638	2888.901667	1680.027344	52.269367
11466.760638	2888.901667	1679.002930	85.359695
11466.760638	2888.901667	1677.978516	148.743179
11466.760638	2888.901667	1676.953125	104.801033
11466.760638	2888.901667	1675.928711	128.481705
11466.760638	2888.901667	1674.903320	42.561657
11466.760638	2888.901667	1673.877930	12.597483
11466.760638	2888.901667	1672.852539	92.155746
11466.760638	2888.901667	1671.826172	22.546835
11466.760638	2888.901667	1670.800781	225.501068
11466.760638	2888.901667	1669.774414	65.027206
11466.760638	2888.901667	1668.748047	90.885536
11466.760638	2888.901667	1667.721680	51.529850
11466.760638	2888.901667	1666.694336	-78.610397
11466.760638	2888.901667	1665.667969	40.301235
11466.760638	2888.901667	1664.640625	119.592712
11466.760638	2888.901667	1663.613281	84.846664
11466.760638	2888.901667	1662.585938	71.031555
11466.760638	2888.901667	1661.557617	180.451767
11466.760638	2888.901667	1660.530273	103.817924
11466.760638	2888.901667	1659.501953	76.010605
11466.760638	2888.901667	1658.473633	178.348846
11466.760638	2888.901667	1657.444336	159.799591
11466.760638	2888.901667	1656.416016	171.448090
11466.760638	2888.901667	1655.386719	296.889160
11466.760638	2888.901667	1654.358398	203.974731
11466.760638	2888.901667	1653.328125	266.639313
11466.760638	2888.901667	1652.298828	106.415108
11466.760638	2888.901667	1651.269531	199.222656
11466.760638	2888.901667	1650.239258	331.426788
11466.760638	2888.901667	1649.208984	266.361359
11466.760638	2888.901667	1648.178711	277.855621
11466.760638	2888.901667	1647.148438	275.418152
11466.760638	2888.901667	1646.117188	414.405945
11466.760638	2888.901667	1645.086914	214.866364
11466.760638	2888.901667	1644.055664	335.245636
11466.760638	2888.901667	1643.024414	249.321503
11466.760638	2888.901667	1641.992188	406.691162
11466.760638	2888.901667	1640.960938	374.042206
11466.760638	2888.901667	1639.928711	313.599091
11466.760638	2888.901667	1638.896484	482.409149
11466.760638	2888.901667	1637.864258	505.290955
11466.760638	2888.901667	1636.832031	474.916138
11466.760638	2888.901667	1635.798828	428.339386
11466.760638	2888.901667	1634.766602	571.503845
11466.760638	2888.901667	1633.733398	545.726563
11466.760638	2888.901667	1632.699219	536.136658
11466.760638	2888.901667	1631.666016	644.478210
11466.760638	2888.901667	1630.632813	535.442993
11466.760638	2888.901667	1629.598633	470.356628
11466.760638	2888.901667	1628.564453	347.510712
11466.760638	2888.901667	1627.530273	374.894287
11466.760638	2888.901667	1626.495117	293.677155
11466.760638	2888.901667	1625.460938	263.302124
11466.760638	2888.901667	1624.425781	433.834229
11466.760638	2888.901667	1623.390625	207.174469
11466.760638	2888.901667	1622.355469	409.954407
11466.760638	2888.901667	1621.319336	250.299469
11466.760638	2888.901667	1620.284180	252.228165
11466.760638	2888.901667	1619.248047	471.007172
11466.760638	2888.901667	1618.211914	265.283112
11466.760638	2888.901667	1617.174805	255.651550
11466.760638	2888.901667	1616.138672	188.379578
11466.760638	2888.901667	1615.101563	487.657715
11466.760638	2888.901667	1614.065430	203.706604
11466.760638	2888.901667	1613.027344	242.461044
11466.760638	2888.901667	1611.990234	306.542938
11466.760638	2888.901667	1610.953125	488.071869
11466.760638	2888.901667	1609.915039	413.889008
11466.760638	2888.901667	1608.876953	353.547272
11466.760638	2888.901667	1607.838867	403.726105
11466.760638	2888.901667	1606.800781	403.246613
11466.760638	2888.901667	1605.761719	444.181915
11466.760638	2888.901667	1604.723633	607.042297
11466.760638	2888.901667	1603.684570	615.712585
11466.760638	2888.901667	1602.644531	601.375671
11466.760638	2888.901667	1601.605469	557.154114
11466.760638	2888.901667	1600.566406	662.380371
11466.760638	2888.901667	1599.526367	638.843872
11466.760638	2888.901667	1598.486328	856.612732
11466.760638	2888.901667	1597.446289	865.212524
11466.760638	2888.901667	1596.405273	919.748657
11466.760638	2888.901667	1595.365234	870.915039
11466.760638	2888.901667	1594.324219	1042.538330
11466.760638	2888.901667	1593.283203	1338.068970
11466.760638	2888.901667	1592.242188	1353.450073
11466.760638	2888.901667	1591.200195	1322.924194
11466.760638	2888.901667	1590.159180	1455.322876
11466.760638	2888.901667	1589.117188	1326.148682
11466.760638	2888.901667	1588.075195	1192.439941
11466.760638	2888.901667	1587.032227	1047.316040
11466.760638	2888.901667	1585.990234	838.060303
11466.760638	2888.901667	1584.947266	837.477905
11466.760638	2888.901667	1583.904297	720.018311
11466.760638	2888.901667	1582.861328	611.773499
11466.760638	2888.901667	1581.818359	574.591980
11466.760638	2888.901667	1580.775391	686.307495
11466.760638	2888.901667	1579.731445	639.970764
11466.760638	2888.901667	1578.687500	696.685547
11466.760638	2888.901667	1577.643555	648.084778
11466.760638	2888.901667	1576.598633	764.287231
11466.760638	2888.901667	1575.554688	786.636414
11466.760638	2888.901667	1574.509766	859.309937
11466.760638	2888.901667	1573.464844	966.270203
11466.760638	2888.901667	1572.419922	997.728882
11466.760638	2888.901667	1571.374023	1113.774414
11466.760638	2888.901667	1570.329102	1035.479492
11466.760638	2888.901667	1569.283203	1057.780640
11466.760638	2888.901667	1568.237305	1016.098633
11466.760638	2888.901667	1567.191406	935.602966
11466.760638	2888.901667	1566.144531	800.322571
11466.760638	2888.901667	1565.098633	687.944702
11466.760638	2888.901667	1564.051758	541.367249
11466.760638	2888.901667	1563.004883	461.057343
11466.760638	2888.901667	1561.957031	355.678802
11466.760638	2888.901667	1560.910156	371.296143
11466.760638	2888.901667	1559.862305	142.796082
11466.760638	2888.901667	1558.814453	473.246429
11466.760638	2888.901667	1557.766602	283.606445
11466.760638	2888.901667	1556.718750	258.220612
11466.760638	2888.901667	1555.669922	355.954407
11466.760638	2888.901667	1554.621094	337.420532
11466.760638	2888.901667	1553.573242	380.435669
11466.760638	2888.901667	1552.523438	332.305603
11466.760638	2888.901667	1551.474609	354.824219
11466.760638	2888.901667	1550.424805	327.239319
11466.760638	2888.901667	1549.375000	219.983337
11466.760638	2888.901667	1548.325195	429.221558
11466.760638	2888.901667	1547.275391	481.339996
11466.760638	2888.901667	1546.225586	446.976654
11466.760638	2888.901667	1545.174805	285.226532
11466.760638	2888.901667	1544.124023	382.875549
11466.760638	2888.901667	1543.073242	412.270630
11466.760638	2888.901667	1542.022461	566.730896
11466.760638	2888.901667	1540.970703	566.550659
11466.760638	2888.901667	1539.919922	580.025940
11466.760638	2888.901667	1538.868164	484.428101
11466.760638	2888.901667	1537.815430	638.806396
11466.760638	2888.901667	1536.763672	752.254517
11466.760638	2888.901667	1535.710938	913.364807
11466.760638	2888.901667	1534.659180	999.497498
11466.760638	2888.901667	1533.606445	969.826172
11466.760638	2888.901667	1532.552734	1008.274963
11466.760638	2888.901667	1531.500000	1073.961182
11466.760638	2888.901667	1530.446289	1116.946777
11466.760638	2888.901667	1529.393555	1166.741699
11466.760638	2888.901667	1528.338867	1284.569214
11466.760638	2888.901667	1527.285156	1139.332520
11466.760638	2888.901667	1526.231445	1225.419312
11466.760638	2888.901667	1525.176758	1136.952881
11466.760638	2888.901667	1524.122070	1209.443237
11466.760638	2888.901667	1523.067383	1003.232971
11466.760638	2888.901667	1522.012695	973.819397
11466.760638	2888.901667	1520.957031	831.190063
11466.760638	2888.901667	1519.901367	697.695374
11466.760638	2888.901667	1518.845703	627.665527
11466.760638	2888.901667	1517.790039	639.171265
11466.760638	2888.901667	1516.734375	745.743408
11466.760638	2888.901667	1515.677734	524.207520
11466.760638	2888.901667	1514.621094	560.671753
11466.760638	2888.901667	1513.564453	508.934601
11466.760638	2888.901667	1512.507813	506.988525
11466.760638	2888.901667	1511.450195	421.411041
11466.760638	2888.901667	1510.393555	509.943817
11466.760638	2888.901667	1509.335938	401.844666
11466.760638	2888.901667	1508.278320	372.894440
11466.760638	2888.901667	1507.219727	282.980804
11466.760638	2888.901667	1506.162109	132.146515
11466.760638	2888.901667	1505.103516	435.284821
11466.760638	2888.901667	1504.044922	494.492920
11466.760638	2888.901667	1502.986328	504.040955
11466.760638	2888.901667	1501.926758	617.421265
11466.760638	2888.901667	1500.868164	694.681702
11466.760638	2888.901667	1499.808594	559.875427
11466.760638	2888.901667	1498.749023	941.653625
11466.760638	2888.901667	1497.688477	881.315857
11466.760638	2888.901667	1496.628906	888.666992
11466.760638	2888.901667	1495.568359	920.834290
11466.760638	2888.901667	1494.507813	880.896423
11466.760638	2888.901667	1493.447266	708.058289
11466.760638	2888.901667	1492.386719	591.635437
11466.760638	2888.901667	1491.325195	436.992523
11466.760638	2888.901667	1490.263672	372.513855
11466.760638	2888.901667	1489.202148	420.660583
11466.760638	2888.901667	1488.140625	426.045654
11466.760638	2888.901667	1487.079102	327.930542
11466.760638	2888.901667	1486.016602	389.636902
11466.760638	2888.901667	1484.954102	379.357605
11466.760638	2888.901667	1483.891602	414.094299
11466.760638	2888.901667	1482.829102	433.102997
11466.760638	2888.901667	1481.765625	384.681580
11466.760638	2888.901667	1480.702148	450.943237
11466.760638	2888.901667	1479.638672	386.853882
11466.760638	2888.901667	1478.575195	286.873688
11466.760638	2888.901667	1477.511719	247.633667
11466.760638	2888.901667	1476.447266	138.817062
11466.760638	2888.901667	1475.382813	144.538345
11466.760638	2888.901667	1474.318359	103.251297
11466.760638	2888.901667	1473.253906	113.577637
11466.760638	2888.901667	1472.189453	87.894455
11466.760638	2888.901667	1471.124023	129.690826
11466.760638	2888.901667	1470.058594	-39.196289
11466.760638	2888.901667	1468.993164	74.279633
11466.760638	2888.901667	1467.927734	-18.395432
11466.760638	2888.901667	1466.861328	153.565536
11466.760638	2888.901667	1465.794922	107.914429
11466.760638	2888.901667	1464.728516	203.514145
11466.760638	2888.901667	1463.662109	70.918053
11466.760638	2888.901667	1462.594727	41.064144
11466.760638	2888.901667	1461.528320	69.593903
11466.760638	2888.901667	1460.460938	151.567825
11466.760638	2888.901667	1459.393555	-45.337627
11466.760638	2888.901667	1458.326172	-148.904053
11466.760638	2888.901667	1457.257813	51.751019
11466.760638	2888.901667	1456.189453	105.052025
11466.760638	2888.901667	1455.121094	104.773979
11466.760638	2888.901667	1454.052734	-34.157230
11466.760638	2888.901667	1452.984375	-0.674129
11466.760638	2888.901667	1451.915039	112.758743
11466.760638	2888.901667	1450.845703	-65.771263
11466.760638	2888.901667	1449.776367	72.020622
11466.760638	2888.901667	1448.707031	78.870331
11466.760638	2888.901667	1447.636719	-8.999083
11466.760638	2888.901667	1446.567383	-39.734135
11466.760638	2888.901667	1445.497070	13.566813
11466.760638	2888.901667	1444.425781	-26.339237
11466.760638	2888.901667	1443.355469	52.050411
11466.760638	2888.901667	1442.285156	56.787979
11466.760638	2888.901667	1441.213867	87.473160
11466.760638	2888.901667	1440.142578	182.733521
11466.760638	2888.901667	1439.070313	34.113621
11466.760638	2888.901667	1437.999023	183.283813
11466.760638	2888.901667	1436.926758	118.005104
11466.760638	2888.901667	1435.854492	205.467392
11466.760638	2888.901667	1434.782227	11.907570
11466.760638	2888.901667	1433.709961	-162.730972
11466.760638	2888.901667	1432.636719	-39.696918
11466.760638	2888.901667	1431.563477	-90.953819
11466.760638	2888.901667	1430.490234	2.286455
11466.760638	2888.901667	1429.416992	-53.479473
11466.760638	2888.901667	1428.343750	51.436428
11466.760638	2888.901667	1427.269531	-52.788128
11466.760638	2888.901667	1426.195313	-108.799477
11466.760638	2888.901667	1425.121094	52.873604
11466.760638	2888.901667	1424.046875	3.733580
11466.760638	2888.901667	1422.971680	-77.583702
11466.760638	2888.901667	1421.896484	-48.792099
11466.760638	2888.901667	1420.821289	5.906746
11466.760638	2888.901667	1419.746094	50.150543
11466.760638	2888.901667	1418.669922	-111.539490
11466.760638	2888.901667	1417.594727	-12.801911
11466.760638	2888.901667	1416.518555	-93.517120
11466.760638	2888.901667	1415.442383	58.453342
11466.760638	2888.901667	1414.365234	37.610317
11466.760638	2888.901667	1413.289063	-39.182102
11466.760638	2888.901667	1412.211914	-100.964714
11466.760638	2888.901667	1411.134766	-114.688545
11466.760638	2888.901667	1410.057617	-48.375088
11466.760638	2888.901667	1408.979492	-79.706963
11466.760638	2888.901667	1407.902344	-70.343834
11466.760638	2888.901667	1406.824219	0.526819
11466.760638	2888.901667	1405.746094	-10.406057
11466.760638	2888.901667	1404.666992	85.305893
11466.760638	2888.901667	1403.588867	85.143349
11466.760638	2888.901667	1402.509766	47.373695
11466.760638	2888.901667	1401.430664	13.600263
11466.760638	2888.901667	1400.351563	-92.199921
11466.760638	2888.901667	1399.271484	112.570564
11466.760638	2888.901667	1398.192383	35.453602
11466.760638	2888.901667	1397.112305	175.904846
11466.760638	2888.901667	1396.031250	-21.581486
11466.760638	2888.901667	1394.951172	3.352659
11466.760638	2888.901667	1393.871094	-9.921304
11466.760638	2888.901667	1392.790039	10.966208
11466.760638	2888.901667	1391.708984	24.459044
11466.760638	2888.901667	1390.626953	127.774986
11466.760638	2888.901667	1389.545898	64.427055
11466.760638	2888.901667	1388.463867	277.589172
11466.760638	2888.901667	1387.381836	241.720200
11466.760638	2888.901667	1386.299805	109.273682
11466.760638	2888.901667	1385.217773	176.196793
11466.760638	2888.901667	1384.134766	182.817383
11466.760638	2888.901667	1383.051758	179.247452
11466.760638	2888.901667	1381.968750	506.540649
11466.760638	2888.901667	1380.885742	354.622681
11466.760638	2888.901667	1379.802734	430.555450
11466.760638	2888.901667	1378.718750	314.210876
11466.760638	2888.901667	1377.634766	299.407837
11466.760638	2888.901667	1376.550781	251.485641
11466.760638	2888.901667	1375.465820	318.685852
11466.760638	2888.901667	1374.381836	270.696411
11466.760638	2888.901667	1373.296875	334.449829
11466.760638	2888.901667	1372.211914	344.567169
11466.760638	2888.901667	1371.126953	224.134659
11466.760638	2888.901667	1370.041016	284.327728
11466.760638	2888.901667	1368.955078	207.405365
11466.760638	2888.901667	1367.869141	235.323563
11466.760638	2888.901667	1366.783203	208.167633
11466.760638	2888.901667	1365.697266	310.671356
11466.760638	2888.901667	1364.610352	193.523880
11466.760638	2888.901667	1363.523438	172.313202
11466.760638	2888.901667	1362.436523	243.436172
11466.760638	2888.901667	1361.349609	142.803299
11466.760638	2888.901667	1360.261719	135.714233
11466.760638	2888.901667	1359.174805	68.954079
11466.760638	2888.901667	1358.086914	216.553925
11466.760638	2888.901667	1356.998047	60.723667
11466.760638	2888.901667	1355.910156	164.428925
11466.760638	2888.901667	1354.821289	83.468987
11466.760638	2888.901667	1353.732422	187.125412
11466.760638	2888.901667	1352.643555	126.936119
11466.760638	2888.901667	1351.554688	44.670013
11466.760638	2888.901667	1350.464844	116.478043
11466.760638	2888.901667	1349.375000	40.235855
11466.760638	2888.901667	1348.285156	95.204048
11466.760638	2888.901667	1347.195313	70.172493
11466.760638	2888.901667	1346.105469	-17.103605
11466.760638	2888.901667	1345.014648	-83.292496
11466.760638	2888.901667	1343.923828	-57.973270
11466.760638	2888.901667	1342.833008	37.910545
11466.760638	2888.901667	1341.741211	-6.811671
11466.760638	2888.901667	1340.650391	70.403473
11466.760638	2888.901667	1339.558594	-46.866131
11466.760638	2888.901667	1338.466797	-0.500006
11466.760638	2888.901667	1337.374023	85.973900
11466.760638	2888.901667	1336.282227	35.917110
11466.760638	2888.901667	1335.189453	83.376480
11466.760638	2888.901667	1334.096680	17.769241
11466.760638	2888.901667	1333.003906	0.593250
11466.760638	2888.901667	1331.910156	65.828491
11466.760638	2888.901667	1330.817383	107.224899
11466.760638	2888.901667	1329.723633	19.766100
11466.760638	2888.901667	1328.629883	-31.327602
11466.760638	2888.901667	1327.535156	24.041065
11466.760638	2888.901667	1326.441406	-8.262461
11466.760638	2888.901667	1325.346680	17.617714
11466.760638	2888.901667	1324.251953	69.973076
11466.760638	2888.901667	1323.156250	118.417107
11466.760638	2888.901667	1322.061523	220.774490
11466.760638	2888.901667	1320.965820	241.191376
11466.760638	2888.901667	1319.870117	174.890778
11466.760638	2888.901667	1318.774414	267.190338
11466.760638	2888.901667	1317.678711	208.198746
11466.760638	2888.901667	1316.582031	356.801575
11466.760638	2888.901667	1315.485352	273.112396
11466.760638	2888.901667	1314.388672	469.328217
11466.760638	2888.901667	1313.291016	464.040253
11466.760638	2888.901667	1312.194336	339.384796
11466.760638	2888.901667	1311.096680	364.979065
11466.760638	2888.901667	1309.999023	401.502411
11466.760638	2888.901667	1308.901367	453.752472
11466.760638	2888.901667	1307.802734	435.790253
11466.760638	2888.901667	1306.705078	516.353394
11466.760638	2888.901667	1305.606445	455.195496
11466.760638	2888.901667	1304.506836	673.597778
11466.760638	2888.901667	1303.408203	626.249695
11466.760638	2888.901667	1302.308594	719.605835
11466.760638	2888.901667	1301.208984	736.805298
11466.760638	2888.901667	1300.109375	967.561279
11466.760638	2888.901667	1299.009766	955.223450
11466.760638	2888.901667	1297.909180	1194.674561
11466.760638	2888.901667	1296.808594	1028.515381
11466.760638	2888.901667	1295.708008	1238.556152
11466.760638	2888.901667	1294.607422	1102.445313
11466.760638	2888.901667	1293.506836	1015.799072
11466.760638	2888.901667	1292.405273	1079.613403
11466.760638	2888.901667	1291.303711	1026.599121
11466.760638	2888.901667	1290.202148	982.077576
11466.760638	2888.901667	1289.099609	869.913879
11466.760638	2888.901667	1287.998047	805.335693
11466.760638	2888.901667	1286.895508	729.975220
11466.760638	2888.901667	1285.792969	691.883972
11466.760638	2888.901667	1284.689453	555.963623
11466.760638	2888.901667	1283.586914	617.741455
11466.760638	2888.901667	1282.483398	415.242462
11466.760638	2888.901667	1281.379883	378.457001
11466.760638	2888.901667	1280.276367	258.990204
11466.760638	2888.901667	1279.171875	161.010040
11466.760638	2888.901667	1278.067383	151.672318
11466.760638	2888.901667	1276.962891	199.652527
11466.760638	2888.901667	1275.858398	164.774155
11466.760638	2888.901667	1274.753906	136.067673
11466.760638	2888.901667	1273.648438	133.675262
11466.760638	2888.901667	1272.542969	108.785789
11466.760638	2888.901667	1271.437500	156.937576
11466.760638	2888.901667	1270.331055	126.922226
11466.760638	2888.901667	1269.225586	172.596664
11466.760638	2888.901667	1268.119141	137.871033
11466.760638	2888.901667	1267.012695	65.064514
11466.760638	2888.901667	1265.906250	54.794525
11466.760638	2888.901667	1264.798828	150.862503
11466.760638	2888.901667	1263.691406	207.037781
11466.760638	2888.901667	1262.583984	81.539330
11466.760638	2888.901667	1261.476563	205.760422
11466.760638	2888.901667	1260.368164	183.834595
11466.760638	2888.901667	1259.260742	390.541351
11466.760638	2888.901667	1258.152344	282.414642
11466.760638	2888.901667	1257.043945	503.208527
11466.760638	2888.901667	1255.934570	637.233887
11466.760638	2888.901667	1254.825195	644.876160
11466.760638	2888.901667	1253.716797	934.416626
11466.760638	2888.901667	1252.606445	883.101990
11466.760638	2888.901667	1251.497070	846.508240
11466.760638	2888.901667	1250.387695	1049.138794
11466.760638	2888.901667	1249.277344	1001.581116
11466.760638	2888.901667	1248.166992	771.420044
11466.760638	2888.901667	1247.055664	724.316406
11466.760638	2888.901667	1245.945313	529.365479
11466.760638	2888.901667	1244.833984	282.809418
11466.760638	2888.901667	1243.722656	199.463699
11466.760638	2888.901667	1242.611328	154.808548
11466.760638	2888.901667	1241.499023	53.371204
11466.760638	2888.901667	1240.387695	103.414223
11466.760638	2888.901667	1239.275391	33.988476
11466.760638	2888.901667	1238.162109	22.374958
11466.760638	2888.901667	1237.049805	75.631111
11466.760638	2888.901667	1235.936523	3.571520
11466.760638	2888.901667	1234.823242	49.214260
11466.760638	2888.901667	1233.709961	-96.966331
11466.760638	2888.901667	1232.596680	29.862972
11466.760638	2888.901667	1231.482422	-4.824238
11466.760638	2888.901667	1230.369141	35.719337
11466.760638	2888.901667	1229.253906	7.730496
11466.760638	2888.901667	1228.139648	41.967010
11466.760638	2888.901667	1227.025391	75.972801
11466.760638	2888.901667	1225.910156	41.206852
11466.760638	2888.901667	1224.794922	154.946945
11466.760638	2888.901667	1223.679688	28.254339
11466.760638	2888.901667	1222.563477	-8.540882
11466.760638	2888.901667	1221.447266	115.619331
11466.760638	2888.901667	1220.331055	46.917332
11466.760638	2888.901667	1219.214844	89.077454
11466.760638	2888.901667	1218.098633	85.863586
11466.760638	2888.901667	1216.981445	-8.426867
11466.760638	2888.901667	1215.864258	52.690876
11466.760638	2888.901667	1214.747070	-13.612062
11466.760638	2888.901667	1213.629883	-22.608898
11466.760638	2888.901667	1212.511719	-70.832794
11466.760638	2888.901667	1211.393555	-35.936653
11466.760638	2888.901667	1210.275391	17.333153
11466.760638	2888.901667	1209.157227	-47.750683
11466.760638	2888.901667	1208.038086	68.588745
11466.760638	2888.901667	1206.918945	112.729774
11466.760638	2888.901667	1205.799805	16.377705
11466.760638	2888.901667	1204.680664	92.189011
11466.760638	2888.901667	1203.560547	74.667671
11466.760638	2888.901667	1202.441406	135.376740
11466.760638	2888.901667	1201.321289	137.373734
11466.760638	2888.901667	1200.200195	113.302933
11466.760638	2888.901667	1199.080078	35.468121
11466.760638	2888.901667	1197.958984	74.559143
11466.760638	2888.901667	1196.837891	-8.095482
11466.760638	2888.901667	1195.716797	-10.780663
11466.760638	2888.901667	1194.594727	76.488518
11466.760638	2888.901667	1193.473633	47.987072
11466.760638	2888.901667	1192.351563	-62.473602
11466.760638	2888.901667	1191.229492	2.567370
11466.760638	2888.901667	1190.106445	-40.263004
11466.760638	2888.901667	1188.984375	-74.594490
11466.760638	2888.901667	1187.861328	-125.613724
11466.760638	2888.901667	1186.738281	-148.075180
11466.760638	2888.901667	1185.614258	-265.332794
11466.760638	2888.901667	1184.491211	-185.556335
11466.760638	2888.901667	1183.367188	-175.227890
11466.760638	2888.901667	1182.243164	-124.046242
11466.760638	2888.901667	1181.119141	-72.061409
11466.760638	2888.901667	1179.994141	-133.601501
11466.760638	2888.901667	1178.869141	-38.417980
11466.760638	2888.901667	1177.744141	-48.500359
11466.760638	2888.901667	1176.619141	-141.931381
11466.760638	2888.901667	1175.493164	-128.115799
11466.760638	2888.901667	1174.368164	-83.153969
11466.760638	2888.901667	1173.242188	-143.265823
11466.760638	2888.901667	1172.115234	-100.150330
11466.760638	2888.901667	1170.989258	-68.090919
11466.760638	2888.901667	1169.862305	-91.037521
11466.760638	2888.901667	1168.735352	-88.379768
11466.760638	2888.901667	1167.608398	26.004208
11466.760638	2888.901667	1166.481445	-19.354570
11466.760638	2888.901667	1165.353516	50.956978
11466.760638	2888.901667	1164.225586	66.977974
11466.760638	2888.901667	1163.097656	180.262405
11466.760638	2888.901667	1161.968750	261.453339
11466.760638	2888.901667	1160.840820	210.820648
11466.760638	2888.901667	1159.711914	184.787872
11466.760638	2888.901667	1158.583008	71.150497
11466.760638	2888.901667	1157.453125	128.950974
11466.760638	2888.901667	1156.324219	113.297188
11466.760638	2888.901667	1155.194336	55.114517
11466.760638	2888.901667	1154.064453	46.548618
11466.760638	2888.901667	1152.933594	-35.116894
11466.760638	2888.901667	1151.803711	-97.906380
11466.760638	2888.901667	1150.672852	-83.608376
11466.760638	2888.901667	1149.541992	-104.849159
11466.760638	2888.901667	1148.411133	-53.010765
11466.760638	2888.901667	1147.279297	39.587364
11466.760638	2888.901667	1146.147461	-97.481796
11466.760638	2888.901667	1145.015625	-124.926437
11466.760638	2888.901667	1143.883789	-52.756012
11466.760638	2888.901667	1142.750977	-165.238251
11466.760638	2888.901667	1141.619141	-22.166351
11466.760638	2888.901667	1140.486328	-76.143967
11466.760638	2888.901667	1139.352539	-54.518448
11466.760638	2888.901667	1138.219727	-96.866165
11466.760638	2888.901667	1137.085938	-103.499771
11466.760638	2888.901667	1135.952148	9.228500
11466.760638	2888.901667	1134.818359	5.962543
11466.760638	2888.901667	1133.683594	-20.486336
11466.760638	2888.901667	1132.549805	24.717743
11466.760638	2888.901667	1131.415039	80.948044
11466.760638	2888.901667	1130.279297	76.929962
11466.760638	2888.901667	1129.144531	71.638611
11466.760638	2888.901667	1128.008789	57.923264
11466.760638	2888.901667	1126.873047	-47.344063
11466.760638	2888.901667	1125.737305	156.023987
11466.760638	2888.901667	1124.601563	13.903251
11466.760638	2888.901667	1123.464844	25.442354
11466.760638	2888.901667	1122.328125	26.704283
11466.760638	2888.901667	1121.191406	82.757759
11466.760638	2888.901667	1120.054688	71.900490
11466.760638	2888.901667	1118.916992	130.839172
11466.760638	2888.901667	1117.779297	58.772121
11466.760638	2888.901667	1116.641602	71.058571
11466.760638	2888.901667	1115.503906	39.791172
11466.760638	2888.901667	1114.365234	42.808418
11466.760638	2888.901667	1113.226563	51.702225
11466.760638	2888.901667	1112.087891	-24.160830
11466.760638	2888.901667	1110.949219	-77.544037
11466.760638	2888.901667	1109.809570	-5.603585
11466.760638	2888.901667	1108.669922	57.447815
11466.760638	2888.901667	1107.530273	10.375687
11466.760638	2888.901667	1106.390625	-48.303963
11466.760638	2888.901667	1105.250000	99.478706
11466.760638	2888.901667	1104.109375	36.509102
11466.760638	2888.901667	1102.968750	-53.235340
11466.760638	2888.901667	1101.828125	202.684753
11466.760638	2888.901667	1100.686523	206.020309
11466.760638	2888.901667	1099.544922	212.043137
11466.760638	2888.901667	1098.403320	118.577858
11466.760638	2888.901667	1097.261719	98.901237
11466.760638	2888.901667	1096.120117	96.370140
11466.760638	2888.901667	1094.977539	119.030357
11466.760638	2888.901667	1093.834961	199.460907
11466.760638	2888.901667	1092.691406	206.827698
11466.760638	2888.901667	1091.548828	182.383163
11466.760638	2888.901667	1090.405273	318.721375
11466.760638	2888.901667	1089.261719	332.531738
11466.760638	2888.901667	1088.118164	182.337677
11466.760638	2888.901667	1086.973633	250.582809
11466.760638	2888.901667	1085.829102	333.746704
11466.760638	2888.901667	1084.684570	296.303375
11466.760638	2888.901667	1083.540039	262.238190
11466.760638	2888.901667	1082.395508	262.683838
11466.760638	2888.901667	1081.250000	252.051727
11466.760638	2888.901667	1080.104492	255.446487
11466.760638	2888.901667	1078.958984	235.849487
11466.760638	2888.901667	1077.812500	75.179909
11466.760638	2888.901667	1076.666016	184.780670
11466.760638	2888.901667	1075.519531	95.557518
11466.760638	2888.901667	1074.373047	72.736977
11466.760638	2888.901667	1073.226563	140.292633
11466.760638	2888.901667	1072.079102	-22.310509
11466.760638	2888.901667	1070.931641	1.215889
11466.760638	2888.901667	1069.784180	131.129135
11466.760638	2888.901667	1068.635742	72.607048
11466.760638	2888.901667	1067.487305	26.273981
11466.760638	2888.901667	1066.338867	66.474648
11466.760638	2888.901667	1065.190430	115.964882
11466.760638	2888.901667	1064.041992	136.935608
11466.760638	2888.901667	1062.892578	160.301392
11466.760638	2888.901667	1061.743164	89.172508
11466.760638	2888.901667	1060.593750	33.291634
11466.760638	2888.901667	1059.443359	24.216383
11466.760638	2888.901667	1058.292969	26.126898
11466.760638	2888.901667	1057.142578	13.502192
11466.760638	2888.901667	1055.992188	30.058086
11466.760638	2888.901667	1054.841797	52.885902
11466.760638	2888.901667	1053.690430	33.743858
11466.760638	2888.901667	1052.539063	-8.356738
11466.760638	2888.901667	1051.387695	32.811172
11466.760638	2888.901667	1050.235352	22.460363
11466.760638	2888.901667	1049.083984	-29.016802
11466.760638	2888.901667	1047.931641	13.340843
11466.760638	2888.901667	1046.778320	-75.198174
11466.760638	2888.901667	1045.625977	74.938301
11466.760638	2888.901667	1044.472656	54.821701
11466.760638	2888.901667	1043.319336	179.604568
11466.760638	2888.901667	1042.166016	228.012054
11466.760638	2888.901667	1041.012695	174.584702
11466.760638	2888.901667	1039.858398	43.709480
11466.760638	2888.901667	1038.704102	0.930151
11466.760638	2888.901667	1037.549805	91.140297
11466.760638	2888.901667	1036.394531	76.324509
11466.760638	2888.901667	1035.239258	84.768280
11466.760638	2888.901667	1034.083984	15.167946
11466.760638	2888.901667	1032.928711	22.561157
11466.760638	2888.901667	1031.773438	-14.321567
11466.760638	2888.901667	1030.617188	64.800201
11466.760638	2888.901667	1029.460938	17.283808
11466.760638	2888.901667	1028.304688	49.440357
11466.760638	2888.901667	1027.147461	-33.211491
11466.760638	2888.901667	1025.991211	83.610931
11466.760638	2888.901667	1024.833984	-3.450140
11466.760638	2888.901667	1023.675781	131.667328
11466.760638	2888.901667	1022.518555	115.750992
11466.760638	2888.901667	1021.360352	145.713013
11466.760638	2888.901667	1020.202148	5.102774
11466.760638	2888.901667	1019.043945	-50.150436
11466.760638	2888.901667	1017.884766	-29.712149
11466.760638	2888.901667	1016.726563	63.153690
11466.760638	2888.901667	1015.567383	-32.268330
11466.760638	2888.901667	1014.407227	-38.414696
11466.760638	2888.901667	1013.248047	27.885798
11466.760638	2888.901667	1012.087891	-24.769356
11466.760638	2888.901667	1010.927734	-21.106026
11466.760638	2888.901667	1009.767578	76.108299
11466.760638	2888.901667	1008.606445	97.911125
11466.760638	2888.901667	1007.446289	43.922535
11466.760638	2888.901667	1006.285156	65.355614
11466.760638	2888.901667	1005.123047	107.349091
11466.760638	2888.901667	1003.961914	44.052914
11466.760638	2888.901667	1002.799805	-49.892162
11466.760638	2888.901667	1001.637695	-1.480444
11466.760638	2888.901667	1000.475586	-0.712799
11466.760638	2888.901667	999.312500	68.402283
11466.760638	2888.901667	998.149414	80.016045
11466.760638	2888.901667	996.986328	6.133493
11466.760638	2888.901667	995.823242	80.073090
11466.760638	2888.901667	994.659180	103.000122
11466.760638	2888.901667	993.496094	-5.524056
11466.760638	2888.901667	992.332031	-6.084034
11466.760638	2888.901667	991.166992	34.072220
11466.760638	2888.901667	990.002930	9.149690
11466.760638	2888.901667	988.837891	16.815672
11466.760638	2888.901667	987.672852	4.380245
11466.760638	2888.901667	986.506836	35.909500
11466.760638	2888.901667	985.341797	7.169067
11466.760638	2888.901667	984.175781	0.414533
11466.760638	2888.901667	983.009766	-91.895531
11466.760638	2888.901667	981.843750	-75.741470
11466.760638	2888.901667	980.676758	-87.801880
11466.760638	2888.901667	979.509766	20.342789
11466.760638	2888.901667	978.342773	120.044228
11466.760638	2888.901667	977.175781	-59.125648
11466.760638	2888.901667	976.007813	-18.684843
11466.760638	2888.901667	974.839844	63.839474
11466.760638	2888.901667	973.671875	-14.558915
11466.760638	2888.901667	972.503906	-59.185539
11466.760638	2888.901667	971.334961	46.048016
11466.760638	2888.901667	970.166016	1.702510
11466.760638	2888.901667	968.997070	-36.569088
11466.760638	2888.901667	967.828125	87.144012
11466.760638	2888.901667	966.658203	-52.050301
11466.760638	2888.901667	965.488281	101.674904
11466.760638	2888.901667	964.318359	174.584915
11466.760638	2888.901667	963.148438	-44.643883
11466.760638	2888.901667	961.977539	17.592976
11466.760638	2888.901667	960.806641	-75.173439
11466.760638	2888.901667	959.635742	12.183957
11466.760638	2888.901667	958.463867	-11.935973
11466.760638	2888.901667	957.292969	8.708055
11466.760638	2888.901667	956.121094	18.552269
11466.760638	2888.901667	954.948242	32.291119
11466.760638	2888.901667	953.776367	12.094666
11466.760638	2888.901667	952.603516	31.197416
11466.760638	2888.901667	951.430664	35.382969
11466.760638	2888.901667	950.257813	88.045021
11466.760638	2888.901667	949.084961	122.767212
11466.760638	2888.901667	947.911133	5.688558
11466.760638	2888.901667	946.737305	160.051666
11466.760638	2888.901667	945.563477	106.141365
11466.760638	2888.901667	944.388672	27.452578
11466.760638	2888.901667	943.213867	113.429131
11466.760638	2888.901667	942.039063	132.174194
11466.760638	2888.901667	940.864258	211.694260
11466.760638	2888.901667	939.688477	168.950546
11466.760638	2888.901667	938.513672	158.204666
11466.760638	2888.901667	937.337891	126.874962
11466.760638	2888.901667	936.161133	106.965485
11466.760638	2888.901667	934.985352	3.336018
11466.760638	2888.901667	933.808594	78.213966
11466.760638	2888.901667	932.631836	17.642332
11466.760638	2888.901667	931.454102	74.526619
11466.760638	2888.901667	930.277344	147.196899
11466.760638	2888.901667	929.099609	152.105591
11466.760638	2888.901667	927.921875	104.979347
11466.760638	2888.901667	926.743164	112.110359
11466.760638	2888.901667	925.565430	150.846786
11466.760638	2888.901667	924.386719	67.599045
11466.760638	2888.901667	923.208008	79.215851
11466.760638	2888.901667	922.028320	-141.717178
11466.760638	2888.901667	920.849609	-69.124748
11466.760638	2888.901667	919.669922	-67.921722
11466.760638	2888.901667	919.474609	-23.448154
11466.760638	2888.901667	918.309570	33.272007
11466.760638	2888.901667	917.143555	-56.671684
11466.760638	2888.901667	915.977539	45.129097
11466.760638	2888.901667	914.810547	-44.791824
11466.760638	2888.901667	913.644531	-35.483631
11466.760638	2888.901667	912.477539	41.438560
11466.760638	2888.901667	911.310547	-73.234581
11466.760638	2888.901667	910.143555	10.411628
11466.760638	2888.901667	908.975586	-45.648594
11466.760638	2888.901667	907.807617	-54.394096
11466.760638	2888.901667	906.639648	-31.616255
11466.760638	2888.901667	905.471680	9.157714
11466.760638	2888.901667	904.303711	-33.372353
11466.760638	2888.901667	903.134766	-111.896324
11466.760638	2888.901667	901.965820	21.103544
11466.760638	2888.901667	900.796875	91.058533
11466.760638	2888.901667	899.626953	71.019485
11466.760638	2888.901667	898.457031	-23.219477
11466.760638	2888.901667	897.287109	33.200649
11466.760638	2888.901667	896.117188	-52.010048
11466.760638	2888.901667	894.947266	89.777939
11466.760638	2888.901667	893.776367	175.336624
11466.760638	2888.901667	892.605469	157.526535
11466.760638	2888.901667	891.434570	108.278473
11466.760638	2888.901667	890.262695	274.604156
11466.760638	2888.901667	889.091797	113.099113
11466.760638	2888.901667	887.919922	229.970276
11466.760638	2888.901667	886.748047	279.470306
11466.760638	2888.901667	885.575195	189.848236
11466.760638	2888.901667	884.403320	46.424183
11466.760638	2888.901667	883.230469	89.195114
11466.760638	2888.901667	882.057617	15.352651
11466.760638	2888.901667	880.883789	-69.670609
11466.760638	2888.901667	879.710938	-20.186832
11466.760638	2888.901667	878.537109	-6.578482
11466.760638	2888.901667	877.362305	58.551018
11466.760638	2888.901667	876.188477	76.612648
11466.760638	2888.901667	875.013672	47.637505
11466.760638	2888.901667	873.839844	63.450638
11466.760638	2888.901667	872.664063	-1.329592
11466.760638	2888.901667	871.489258	-52.658283
11466.760638	2888.901667	870.313477	-16.700651
11466.760638	2888.901667	869.138672	-45.637497
11466.760638	2888.901667	867.962891	-54.433849
11466.760638	2888.901667	866.786133	59.764858
11466.760638	2888.901667	865.610352	-4.946784
11466.760638	2888.901667	864.433594	-18.220831
11466.760638	2888.901667	863.256836	-87.361763
11466.760638	2888.901667	862.079102	-51.458992
11466.760638	2888.901667	860.902344	76.017609
11466.760638	2888.901667	859.724609	-44.473686
11466.760638	2888.901667	858.546875	125.374474
11466.760638	2888.901667	857.368164	103.153305
11466.760638	2888.901667	856.190430	114.420784
11466.760638	2888.901667	855.011719	159.157135
11466.760638	2888.901667	853.833008	107.934364
11466.760638	2888.901667	852.654297	277.572327
11466.760638	2888.901667	851.474609	288.791626
11466.760638	2888.901667	850.294922	85.945023
11466.760638	2888.901667	849.115234	204.206375
11466.760638	2888.901667	847.935547	126.275940
11466.760638	2888.901667	846.754883	104.088654
11466.760638	2888.901667	845.575195	193.306976
11466.760638	2888.901667	844.393555	53.056461
11466.760638	2888.901667	843.212891	189.016327
11466.760638	2888.901667	842.032227	55.501869
11466.760638	2888.901667	840.850586	95.680946
11466.760638	2888.901667	839.668945	33.461933
11466.760638	2888.901667	838.486328	124.809067
11466.760638	2888.901667	837.304688	138.250992
11466.760638	2888.901667	836.122070	104.976410
11466.760638	2888.901667	834.939453	140.654892
11466.760638	2888.901667	833.756836	165.201523
11466.760638	2888.901667	832.573242	107.489204
11466.760638	2888.901667	831.389648	229.821320
11466.760638	2888.901667	830.206055	145.454712
11466.760638	2888.901667	829.022461	10.026597
11466.760638	2888.901667	827.838867	98.985229
11466.760638	2888.901667	826.654297	16.917847
11466.760638	2888.901667	825.469727	48.113674
11466.760638	2888.901667	824.284180	-47.227264
11466.760638	2888.901667	823.099609	12.818209
11466.760638	2888.901667	821.914063	-115.759521
11466.760638	2888.901667	820.728516	-164.423691
11466.760638	2888.901667	819.542969	-99.955544
11466.760638	2888.901667	818.356445	-84.297165
11466.760638	2888.901667	817.169922	-42.042168
11466.760638	2888.901667	815.983398	-26.402969
11466.760638	2888.901667	814.796875	-55.092487
11466.760638	2888.901667	813.609375	-81.554268
11466.760638	2888.901667	812.422852	-147.879089
11466.760638	2888.901667	811.235352	-196.458893
11466.760638	2888.901667	810.046875	-10.308880
11466.760638	2888.901667	808.859375	-85.463890
11466.760638	2888.901667	807.670898	-12.294674
11466.760638	2888.901667	806.482422	-74.141434
11466.760638	2888.901667	805.293945	-9.856262
11466.760638	2888.901667	804.104492	98.641182
11466.760638	2888.901667	802.915039	-5.210511
11466.760638	2888.901667	801.725586	-44.899670
11466.760638	2888.901667	800.536133	12.691323
11466.760638	2888.901667	799.345703	-55.718040
11466.760638	2888.901667	798.155273	-62.230194
11466.760638	2888.901667	796.964844	-93.041969
11466.760638	2888.901667	795.774414	39.605339
11466.760638	2888.901667	794.583008	130.239334
11466.760638	2888.901667	793.392578	35.375900
11466.760638	2888.901667	792.200195	106.104767
11466.760638	2888.901667	791.008789	-94.649284
11466.760638	2888.901667	789.816406	-57.022942
11466.760638	2888.901667	788.625000	7.057334
11466.760638	2888.901667	787.432617	-47.989491
11466.760638	2888.901667	786.239258	5.034733
11466.760638	2888.901667	785.046875	-8.105057
11466.760638	2888.901667	783.853516	-30.057289
11466.760638	2888.901667	782.660156	-204.058929
11466.760638	2888.901667	781.465820	-56.314137
11466.760638	2888.901667	780.272461	3.254287
11466.760638	2888.901667	779.078125	-122.201324
11466.760638	2888.901667	777.883789	29.831070
11466.760638	2888.901667	776.688477	-36.143711
11466.760638	2888.901667	775.494141	-66.879517
11466.760638	2888.901667	774.298828	-22.786558
11466.760638	2888.901667	773.103516	129.087418
11466.760638	2888.901667	771.907227	-13.850723
11466.760638	2888.901667	770.711914	1.604916
11466.760638	2888.901667	769.515625	-0.537935
11466.760638	2888.901667	768.318359	-33.458122
11466.760638	2888.901667	767.122070	6.157169
11466.760638	2888.901667	765.924805	-37.744892
11466.760638	2888.901667	764.727539	56.769379
11466.760638	2888.901667	763.530273	1.884416
11466.760638	2888.901667	762.333008	-158.386978
11466.760638	2888.901667	761.134766	-83.678268
11466.760638	2888.901667	759.936523	-77.051346
11466.760638	2888.901667	758.738281	-77.015404
11466.760638	2888.901667	757.540039	50.274136
11466.760638	2888.901667	756.340820	113.890594
11466.760638	2888.901667	755.141602	111.679039
11466.760638	2888.901667	753.942383	-41.836758
11466.760638	2888.901667	752.742188	-17.717779
11466.760638	2888.901667	751.541992	58.989212
11466.760638	2888.901667	750.341797	21.706902
11466.760638	2888.901667	749.141602	-11.183526
11466.760638	2888.901667	747.941406	1.932510
11466.760638	2888.901667	746.740234	91.687843
11466.760638	2888.901667	745.539063	43.457588
11466.760638	2888.901667	744.337891	-17.893671
11466.760638	2888.901667	743.135742	25.828880
11466.760638	2888.901667	741.933594	-68.329460
11466.760638	2888.901667	740.731445	30.063995
11466.760638	2888.901667	739.529297	89.038116
11466.760638	2888.901667	738.326172	47.387550
11466.760638	2888.901667	737.124023	117.249504
11466.760638	2888.901667	735.919922	82.152542
11466.760638	2888.901667	734.716797	106.068230
11466.760638	2888.901667	733.513672	136.520920
11466.760638	2888.901667	732.309570	51.172661
11466.760638	2888.901667	731.105469	114.367851
11466.760638	2888.901667	729.900391	175.344696
11466.760638	2888.901667	728.696289	-6.044199
11466.760638	2888.901667	727.491211	116.029305
11466.760638	2888.901667	726.286133	2.359831
11466.760638	2888.901667	725.080078	30.544905
11466.760638	2888.901667	723.874023	56.526630
11466.760638	2888.901667	722.668945	-30.918390
11466.760638	2888.901667	721.461914	101.885582
11466.760638	2888.901667	720.255859	31.886429
11466.760638	2888.901667	719.048828	27.291548
11466.760638	2888.901667	717.841797	24.866808
11466.760638	2888.901667	716.634766	68.181824
11466.760638	2888.901667	715.427734	30.876049
11466.760638	2888.901667	714.219727	-41.268028
11466.760638	2888.901667	713.011719	-56.785774
11466.760638	2888.901667	711.803711	106.185890
11466.760638	2888.901667	710.594727	60.151100
11466.760638	2888.901667	709.385742	-11.987003
11466.760638	2888.901667	708.176758	29.012583
11466.760638	2888.901667	706.967773	98.256577
11466.760638	2888.901667	705.758789	145.713531
11466.760638	2888.901667	704.548828	64.869461
11466.760638	2888.901667	703.338867	92.724716
11466.760638	2888.901667	702.127930	111.861977
11466.760638	2888.901667	700.917969	72.314957
11466.760638	2888.901667	699.707031	-88.873352
11466.760638	2888.901667	698.496094	90.956627
11466.760638	2888.901667	697.285156	42.709961
11466.760638	2888.901667	696.073242	50.911160
11466.760638	2888.901667	694.861328	78.627060
11466.760638	2888.901667	693.649414	58.577187
11466.760638	2888.901667	692.436523	45.029175
11466.760638	2888.901667	691.224609	3.272783
11466.760638	2888.901667	690.011719	137.172104
11466.760638	2888.901667	688.798828	-6.518938
11466.760638	2888.901667	687.584961	-17.939011
11466.760638	2888.901667	686.372070	57.316006
11466.760638	2888.901667	685.158203	41.519775
11466.760638	2888.901667	683.943359	88.535339
11466.760638	2888.901667	682.729492	46.714642
11466.760638	2888.901667	681.514648	93.674049
11466.760638	2888.901667	680.299805	108.122162
11466.760638	2888.901667	679.084961	187.479660
11466.760638	2888.901667	677.869141	149.930069
11466.760638	2888.901667	676.653320	190.265030
11466.760638	2888.901667	675.437500	230.563934
11466.760638	2888.901667	674.221680	214.598557
11466.760638	2888.901667	673.004883	276.459595
11466.760638	2888.901667	671.789063	258.290741
11466.760638	2888.901667	670.571289	235.787720
11466.760638	2888.901667	669.354492	161.415100
11466.760638	2888.901667	668.136719	246.920258
11466.760638	2888.901667	666.919922	252.452423
11466.760638	2888.901667	665.701172	173.743759
11466.760638	2888.901667	664.483398	209.473846
11466.760638	2888.901667	663.264648	137.241531
11466.760638	2888.901667	662.045898	114.654083
11466.760638	2888.901667	660.827148	256.034576
11466.760638	2888.901667	659.608398	138.474121
11466.760638	2888.901667	658.388672	372.485138
11466.760638	2888.901667	657.168945	379.968872
11466.760638	2888.901667	655.949219	288.260681
11466.760638	2888.901667	654.728516	220.277618
11466.760638	2888.901667	653.507813	81.189629
11466.760638	2888.901667	652.287109	60.631313
11466.760638	2888.901667	651.066406	65.907196
11466.760638	2888.901667	649.844727	142.223892
11466.760638	2888.901667	648.623047	119.444275
11466.760638	2888.901667	647.401367	120.329407
11466.760638	2888.901667	646.179688	73.843513
11466.760638	2888.901667	644.957031	1.533469
11466.760638	2888.901667	643.734375	45.396992
11466.760638	2888.901667	642.511719	50.504253
11466.760638	2888.901667	641.289063	19.029442
11466.760638	2888.901667	640.065430	82.138023
11466.760638	2888.901667	638.841797	-20.309895
11466.760638	2888.901667	637.618164	42.731468
11466.760638	2888.901667	636.393555	52.008583
11466.760638	2888.901667	635.168945	104.218063
11466.760638	2888.901667	633.944336	-24.018637
11466.760638	2888.901667	632.719727	-1.925250
11466.760638	2888.901667	631.494141	110.294441
11466.760638	2888.901667	630.269531	65.766403
11466.760638	2888.901667	629.042969	-2.372972
11466.760638	2888.901667	627.817383	56.065907
11466.760638	2888.901667	626.590820	187.380096
11466.760638	2888.901667	625.365234	95.593193
11466.760638	2888.901667	624.137695	85.288635
11466.760638	2888.901667	622.911133	96.398949
11466.760638	2888.901667	621.683594	15.325532
11466.760638	2888.901667	620.456055	-72.166862
11466.760638	2888.901667	619.228516	103.836266
11466.760638	2888.901667	618.000977	80.560425
11466.760638	2888.901667	616.772461	20.866100
11466.760638	2888.901667	615.543945	63.928795
11466.760638	2888.901667	614.314453	-27.895433
11466.760638	2888.901667	613.085938	17.246082
11466.760638	2888.901667	611.856445	-27.515074
11466.760638	2888.901667	610.626953	17.553335
11466.760638	2888.901667	609.397461	109.622673
11466.760638	2888.901667	608.166992	75.479568
11466.760638	2888.901667	606.936523	-57.005463
11466.760638	2888.901667	605.706055	-56.957447
11466.760638	2888.901667	604.474609	11.436578
11466.760638	2888.901667	603.244141	41.323601
11466.760638	2888.901667	602.012695	32.725533
11466.760638	2888.901667	600.780273	-44.227802
11466.760638	2888.901667	599.548828	88.044312
11466.760638	2888.901667	598.316406	72.956268
11466.760638	2888.901667	597.083984	25.838722
11466.760638	2888.901667	595.851563	76.855278
11466.760638	2888.901667	594.618164	115.024338
11466.760638	2888.901667	593.384766	50.784554
11466.760638	2888.901667	592.151367	101.681381
11466.760638	2888.901667	590.917969	233.534683
11466.760638	2888.901667	589.683594	250.216324
11466.760638	2888.901667	588.449219	196.547379
11466.760638	2888.901667	587.214844	323.953674
11466.760638	2888.901667	585.979492	253.198166
11466.760638	2888.901667	584.745117	263.366028
11466.760638	2888.901667	583.509766	301.177826
11466.760638	2888.901667	582.273438	419.829865
11466.760638	2888.901667	581.038086	538.405579
11466.760638	2888.901667	579.801758	644.137573
11466.760638	2888.901667	578.565430	824.248535
11466.760638	2888.901667	577.329102	1023.397278
11466.760638	2888.901667	576.091797	1048.079468
11466.760638	2888.901667	574.854492	979.190308
11466.760638	2888.901667	573.617188	712.646301
11466.760638	2888.901667	572.378906	567.307922
11466.760638	2888.901667	571.141602	339.153900
11466.760638	2888.901667	569.903320	391.436646
11466.760638	2888.901667	568.664063	307.763184
11466.760638	2888.901667	567.425781	253.824829
11466.760638	2888.901667	566.186523	242.335297
11466.760638	2888.901667	564.947266	339.056610
11466.760638	2888.901667	563.708008	138.670029
11466.760638	2888.901667	562.467773	99.558861
11466.760638	2888.901667	561.227539	121.943146
11466.760638	2888.901667	559.987305	116.728821
11466.760638	2888.901667	558.747070	94.532753
11466.760638	2888.901667	557.505859	167.695663
11466.760638	2888.901667	556.264648	-0.763458
11466.760638	2888.901667	555.023438	2.428032
11466.760638	2888.901667	553.781250	62.781219
11466.760638	2888.901667	552.539063	76.496803
11466.760638	2888.901667	551.296875	-60.137428
11466.760638	2888.901667	550.054688	61.505688
11466.760638	2888.901667	548.811523	13.768723
11466.760638	2888.901667	547.569336	14.695168
11466.760638	2888.901667	546.325195	81.171661
11466.760638	2888.901667	545.082031	16.473610
11466.760638	2888.901667	543.837891	-10.160398
11466.760638	2888.901667	542.593750	-169.988495
11466.760638	2888.901667	541.349609	-183.934021
11466.760638	2888.901667	540.105469	-73.221130
11466.760638	2888.901667	538.860352	-97.789818
11466.760638	2888.901667	537.615234	-287.121277
11466.760638	2888.901667	536.369141	13.532924
11466.760638	2888.901667	535.124023	-76.552155
11466.760638	2888.901667	533.877930	-82.186752
11466.760638	2888.901667	532.631836	-22.417437
11466.760638	2888.901667	531.384766	-57.643017
11466.760638	2888.901667	530.138672	-137.171097
11466.760638	2888.901667	528.891602	-125.997810
11466.760638	2888.901667	527.643555	-19.964767
11466.760638	2888.901667	526.396484	-84.752998
11466.760638	2888.901667	525.148438	-23.073576
11466.760638	2888.901667	523.900391	-60.479782
11466.760638	2888.901667	522.652344	-137.916687
11466.760638	2888.901667	521.403320	-97.386734
11466.760638	2888.901667	520.154297	-128.491989
11466.760638	2888.901667	518.905273	-10.116493
11466.760638	2888.901667	517.656250	9.256602
11466.760638	2888.901667	516.406250	-0.861534
11466.760638	2888.901667	515.156250	-19.408863
11466.760638	2888.901667	513.906250	-25.343157
11466.760638	2888.901667	512.655273	-142.761688
11466.760638	2888.901667	511.404297	-51.977871
11466.760638	2888.901667	510.153320	-78.975861
11466.760638	2888.901667	508.902344	-143.810608
11466.760638	2888.901667	507.650391	108.668617
11466.760638	2888.901667	506.398438	-0.331575
11466.760638	2888.901667	505.146484	-86.195724
11466.760638	2888.901667	503.893555	-90.140358
11466.760638	2888.901667	502.641602	-39.507717
11466.760638	2888.901667	501.388672	-83.373634
11466.760638	2888.901667	500.134766	-68.475754
11466.760638	2888.901667	498.881836	19.840796
11466.760638	2888.901667	497.627930	9.507906
11466.760638	2888.901667	496.374023	-55.363949
11466.760638	2888.901667	495.119141	-46.835152
11466.760638	2888.901667	493.865234	-21.550104
11466.760638	2888.901667	492.610352	-2.580448
11466.760638	2888.901667	491.355469	-25.542265
11466.760638	2888.901667	490.099609	-29.655193
11466.760638	2888.901667	488.843750	-136.414230
11466.760638	2888.901667	487.587891	-42.103943
11466.760638	2888.901667	486.332031	-25.313602
11466.760638	2888.901667	485.075195	4.012949
11466.760638	2888.901667	483.818359	-52.490875
11466.760638	2888.901667	482.561523	-67.136559
11466.760638	2888.901667	481.304688	81.377708
11466.760638	2888.901667	480.046875	91.777405
11466.760638	2888.901667	478.789063	93.796021
11466.760638	2888.901667	477.531250	33.084438
11466.760638	2888.901667	476.272461	47.626366
11466.760638	2888.901667	475.013672	70.506836
11466.760638	2888.901667	473.754883	218.714554
11466.760638	2888.901667	472.496094	-0.770586
11466.760638	2888.901667	471.236328	63.828487
11466.760638	2888.901667	469.976563	-36.552654
11466.760638	2888.901667	468.716797	7.124419
11466.760638	2888.901667	467.456055	178.068329
11466.760638	2888.901667	466.196289	63.080044
11466.760638	2888.901667	464.935547	77.457779
11466.760638	2888.901667	463.673828	-20.808983
11466.760638	2888.901667	462.413086	14.402490
11466.760638	2888.901667	461.151367	57.918598
11466.760638	2888.901667	459.889648	-100.768562
11466.760638	2888.901667	458.626953	55.243225
11466.760638	2888.901667	457.364258	17.422590
11466.760638	2888.901667	456.101563	50.419033
11466.760638	2888.901667	454.838867	150.021667
11466.760638	2888.901667	453.575195	89.248756
11466.760638	2888.901667	452.312500	20.160978
11466.760638	2888.901667	451.047852	36.402313
11466.760638	2888.901667	449.784180	31.813526
11466.760638	2888.901667	448.519531	75.048096
11466.760638	2888.901667	447.254883	55.851826
11466.760638	2888.901667	445.990234	-29.894125
11466.760638	2888.901667	444.725586	104.729942
11466.760638	2888.901667	443.459961	35.590031
11466.760638	2888.901667	442.194336	5.936723
11466.760638	2888.901667	440.927734	119.614418
11466.760638	2888.901667	439.662109	-5.637101
11466.760638	2888.901667	438.395508	89.252556
11466.760638	2888.901667	437.127930	198.604126
11466.760638	2888.901667	435.861328	108.618332
11466.760638	2888.901667	434.593750	105.798378
11466.760638	2888.901667	433.326172	105.024063
11466.760638	2888.901667	432.058594	104.218048
11466.760638	2888.901667	430.790039	72.268112
11466.760638	2888.901667	429.521484	98.353760
11466.760638	2888.901667	428.252930	89.151390
11466.760638	2888.901667	426.984375	84.061478
11466.760638	2888.901667	425.714844	136.949997
11466.760638	2888.901667	424.445313	36.474834
11466.760638	2888.901667	423.174805	39.557442
11466.760638	2888.901667	421.905273	34.315933
11466.760638	2888.901667	420.634766	26.957430
11466.760638	2888.901667	419.364258	36.114281
11466.760638	2888.901667	418.092773	47.284698
11466.760638	2888.901667	416.822266	85.298714
11466.760638	2888.901667	415.550781	-7.074604
11466.760638	2888.901667	414.278320	-2.268077
11466.760638	2888.901667	413.006836	134.808609
11466.760638	2888.901667	411.734375	-73.449509
11466.760638	2888.901667	410.461914	146.126816
11466.760638	2888.901667	409.188477	51.470974
11466.760638	2888.901667	407.916016	53.886227
11466.760638	2888.901667	406.642578	83.076996
11466.760638	2888.901667	405.368164	66.751968
11466.760638	2888.901667	404.094727	-7.440854
11466.760638	2888.901667	402.820313	114.397697
11466.760638	2888.901667	401.545898	-79.620544
11466.760638	2888.901667	400.270508	29.635067
11466.760638	2888.901667	398.996094	10.876137
11466.760638	2888.901667	397.720703	167.319809
11466.760638	2888.901667	396.444336	10.210694
11466.760638	2888.901667	395.168945	7.676491
11466.760638	2888.901667	393.892578	13.282754
11466.760638	2888.901667	392.616211	95.018982
11466.760638	2888.901667	391.339844	61.254070
11466.760638	2888.901667	390.062500	4.733486
11466.760638	2888.901667	388.785156	127.262047
11466.760638	2888.901667	387.507813	72.576485
11466.760638	2888.901667	386.229492	110.405029
11466.760638	2888.901667	384.951172	20.509443
11466.760638	2888.901667	383.672852	154.765244
11466.760638	2888.901667	382.394531	15.266580
11466.760638	2888.901667	381.115234	182.084549
11466.760638	2888.901667	379.835938	7.396297
11466.760638	2888.901667	378.556641	38.183285
11466.760638	2888.901667	377.277344	60.579659
11466.760638	2888.901667	375.997070	33.489014
11466.760638	2888.901667	374.716797	100.733894
11466.760638	2888.901667	373.435547	212.952698
11466.760638	2888.901667	372.155273	78.558609
11466.760638	2888.901667	370.874023	130.838776
11466.760638	2888.901667	369.591797	72.071564
11466.760638	2888.901667	368.310547	72.645622
11466.760638	2888.901667	367.028320	7.362898
11466.760638	2888.901667	365.746094	13.684953
11466.760638	2888.901667	364.463867	9.535440
11466.760638	2888.901667	363.180664	31.809074
11466.760638	2888.901667	361.897461	-56.840244
11466.760638	2888.901667	360.614258	-145.688110
11466.760638	2888.901667	359.330078	-66.748589
11466.760638	2888.901667	358.045898	-86.416634
11466.760638	2888.901667	356.761719	90.262573
11466.760638	2888.901667	355.477539	53.661144
11466.760638	2888.901667	354.192383	137.564255
11466.760638	2888.901667	352.907227	131.097458
11466.760638	2888.901667	351.622070	85.463814
11466.760638	2888.901667	350.336914	35.457020
11466.760638	2888.901667	349.050781	107.864952
11466.760638	2888.901667	347.764648	128.801468
11466.760638	2888.901667	346.477539	63.527149
11466.760638	2888.901667	345.191406	102.190086
11466.760638	2888.901667	343.904297	3.565525
11466.760638	2888.901667	342.616211	-99.471924
11466.760638	2888.901667	341.329102	-112.951981
11466.760638	2888.901667	340.041016	-110.480141
11466.760638	2888.901667	338.752930	-18.568327
11466.760638	2888.901667	337.463867	-55.708073
11466.760638	2888.901667	336.175781	-176.904327
11466.760638	2888.901667	334.886719	-65.888939
11466.760638	2888.901667	333.596680	-98.164169
11466.760638	2888.901667	332.307617	-96.191841
11466.760638	2888.901667	331.017578	37.838860
11466.760638	2888.901667	329.727539	-89.597824
11466.760638	2888.901667	328.436523	-160.414108
11466.760638	2888.901667	327.146484	-82.937782
11466.760638	2888.901667	325.855469	-24.359552
11466.760638	2888.901667	324.563477	-58.005566
11466.760638	2888.901667	323.272461	-126.781761
11466.760638	2888.901667	321.980469	76.705803
11466.760638	2888.901667	320.688477	-37.994820
11466.760638	2888.901667	319.395508	-191.914536
11466.760638	2888.901667	318.103516	17.829971
11466.760638	2888.901667	316.810547	37.675812
11466.760638	2888.901667	315.516602	18.220238
11466.760638	2888.901667	314.223633	-18.125769
11466.760638	2888.901667	312.929688	87.150673
11466.760638	2888.901667	311.635742	2.689756
11466.760638	2888.901667	310.340820	-13.373269
11466.760638	2888.901667	309.045898	-26.088356
11466.760638	2888.901667	307.750977	82.322235
11466.760638	2888.901667	306.456055	122.919594
11466.760638	2888.901667	305.160156	264.204926
11466.760638	2888.901667	303.865234	252.431244
11466.760638	2888.901667	302.568359	211.390244
11466.760638	2888.901667	301.272461	226.360489
11466.760638	2888.901667	299.975586	418.934814
11466.760638	2888.901667	298.678711	440.204834
