#X		#Y		#Wave		#Intensity
-7424.446596	4210.008833	1999.946289	-77.704056
-7424.446596	4210.008833	1998.981445	109.938805
-7424.446596	4210.008833	1998.017578	140.950089
-7424.446596	4210.008833	1997.052734	-158.009811
-7424.446596	4210.008833	1996.088867	-85.585915
-7424.446596	4210.008833	1995.124023	-236.487961
-7424.446596	4210.008833	1994.159180	-144.961105
-7424.446596	4210.008833	1993.193359	18.012495
-7424.446596	4210.008833	1992.228516	69.177582
-7424.446596	4210.008833	1991.262695	-1.281696
-7424.446596	4210.008833	1990.296875	-62.125473
-7424.446596	4210.008833	1989.331055	-49.015427
-7424.446596	4210.008833	1988.365234	198.826035
-7424.446596	4210.008833	1987.398438	87.635452
-7424.446596	4210.008833	1986.432617	178.998062
-7424.446596	4210.008833	1985.465820	62.364754
-7424.446596	4210.008833	1984.499023	113.621635
-7424.446596	4210.008833	1983.532227	21.250475
-7424.446596	4210.008833	1982.565430	165.908661
-7424.446596	4210.008833	1981.597656	48.378960
-7424.446596	4210.008833	1980.629883	88.764648
-7424.446596	4210.008833	1979.662109	-29.156286
-7424.446596	4210.008833	1978.694336	28.080484
-7424.446596	4210.008833	1977.726563	107.308273
-7424.446596	4210.008833	1976.758789	267.767456
-7424.446596	4210.008833	1975.790039	205.853836
-7424.446596	4210.008833	1974.821289	-9.211769
-7424.446596	4210.008833	1973.852539	125.950226
-7424.446596	4210.008833	1972.883789	312.687012
-7424.446596	4210.008833	1971.915039	267.366150
-7424.446596	4210.008833	1970.945313	221.900360
-7424.446596	4210.008833	1969.975586	191.087845
-7424.446596	4210.008833	1969.005859	-32.120316
-7424.446596	4210.008833	1968.036133	271.981750
-7424.446596	4210.008833	1967.066406	159.431824
-7424.446596	4210.008833	1966.096680	4.912000
-7424.446596	4210.008833	1965.125977	212.379257
-7424.446596	4210.008833	1964.155273	13.328161
-7424.446596	4210.008833	1963.184570	200.776398
-7424.446596	4210.008833	1962.213867	112.340179
-7424.446596	4210.008833	1961.242188	274.865143
-7424.446596	4210.008833	1960.271484	215.760910
-7424.446596	4210.008833	1959.299805	237.766418
-7424.446596	4210.008833	1958.328125	225.229721
-7424.446596	4210.008833	1957.356445	259.332825
-7424.446596	4210.008833	1956.384766	396.607208
-7424.446596	4210.008833	1955.412109	216.611145
-7424.446596	4210.008833	1954.439453	275.022675
-7424.446596	4210.008833	1953.467773	171.142151
-7424.446596	4210.008833	1952.495117	197.449631
-7424.446596	4210.008833	1951.521484	120.500275
-7424.446596	4210.008833	1950.548828	43.513878
-7424.446596	4210.008833	1949.575195	106.465881
-7424.446596	4210.008833	1948.601563	-58.999035
-7424.446596	4210.008833	1947.627930	129.025650
-7424.446596	4210.008833	1946.654297	56.771545
-7424.446596	4210.008833	1945.680664	175.893021
-7424.446596	4210.008833	1944.706055	204.146713
-7424.446596	4210.008833	1943.732422	41.018143
-7424.446596	4210.008833	1942.757813	69.200089
-7424.446596	4210.008833	1941.783203	-62.048790
-7424.446596	4210.008833	1940.807617	-131.997757
-7424.446596	4210.008833	1939.833008	-162.736511
-7424.446596	4210.008833	1938.857422	17.257137
-7424.446596	4210.008833	1937.881836	-256.128448
-7424.446596	4210.008833	1936.906250	-142.384216
-7424.446596	4210.008833	1935.930664	20.278095
-7424.446596	4210.008833	1934.955078	-125.694168
-7424.446596	4210.008833	1933.978516	-68.421600
-7424.446596	4210.008833	1933.001953	45.111824
-7424.446596	4210.008833	1932.025391	26.422581
-7424.446596	4210.008833	1931.048828	76.239952
-7424.446596	4210.008833	1930.072266	-216.490051
-7424.446596	4210.008833	1929.094727	65.703339
-7424.446596	4210.008833	1928.118164	130.120621
-7424.446596	4210.008833	1927.140625	-98.916580
-7424.446596	4210.008833	1926.163086	4.602490
-7424.446596	4210.008833	1925.184570	-94.797989
-7424.446596	4210.008833	1924.207031	-15.768876
-7424.446596	4210.008833	1923.228516	202.495514
-7424.446596	4210.008833	1922.250000	24.927572
-7424.446596	4210.008833	1921.271484	50.144623
-7424.446596	4210.008833	1920.292969	-71.167740
-7424.446596	4210.008833	1919.314453	129.845947
-7424.446596	4210.008833	1918.334961	252.668427
-7424.446596	4210.008833	1917.355469	138.708389
-7424.446596	4210.008833	1916.375977	-136.256989
-7424.446596	4210.008833	1915.396484	254.919525
-7424.446596	4210.008833	1914.416992	326.413452
-7424.446596	4210.008833	1913.436523	46.698521
-7424.446596	4210.008833	1912.457031	84.077248
-7424.446596	4210.008833	1911.476563	165.327377
-7424.446596	4210.008833	1910.496094	183.180450
-7424.446596	4210.008833	1909.515625	-32.914810
-7424.446596	4210.008833	1908.534180	-15.020052
-7424.446596	4210.008833	1907.552734	-28.792547
-7424.446596	4210.008833	1906.572266	-3.582021
-7424.446596	4210.008833	1905.590820	-56.299397
-7424.446596	4210.008833	1904.608398	117.436462
-7424.446596	4210.008833	1903.626953	69.601402
-7424.446596	4210.008833	1902.644531	80.202408
-7424.446596	4210.008833	1901.663086	100.543327
-7424.446596	4210.008833	1900.680664	-46.985104
-7424.446596	4210.008833	1899.698242	-14.450688
-7424.446596	4210.008833	1898.714844	108.062164
-7424.446596	4210.008833	1897.732422	70.059242
-7424.446596	4210.008833	1896.749023	92.855049
-7424.446596	4210.008833	1895.765625	-112.825424
-7424.446596	4210.008833	1894.782227	153.027481
-7424.446596	4210.008833	1893.798828	-110.882271
-7424.446596	4210.008833	1892.814453	-190.064972
-7424.446596	4210.008833	1891.831055	-33.615757
-7424.446596	4210.008833	1890.846680	161.633362
-7424.446596	4210.008833	1889.862305	-0.079212
-7424.446596	4210.008833	1888.877930	231.517746
-7424.446596	4210.008833	1887.892578	-204.381073
-7424.446596	4210.008833	1886.908203	-152.379807
-7424.446596	4210.008833	1885.922852	-10.628884
-7424.446596	4210.008833	1884.937500	-130.890045
-7424.446596	4210.008833	1883.952148	139.349030
-7424.446596	4210.008833	1882.965820	87.006546
-7424.446596	4210.008833	1881.980469	29.841509
-7424.446596	4210.008833	1880.994141	28.447580
-7424.446596	4210.008833	1880.007813	-60.181259
-7424.446596	4210.008833	1879.021484	-44.589443
-7424.446596	4210.008833	1878.035156	-65.336060
-7424.446596	4210.008833	1877.047852	22.914022
-7424.446596	4210.008833	1876.061523	-72.900688
-7424.446596	4210.008833	1875.074219	-25.835989
-7424.446596	4210.008833	1874.086914	79.306076
-7424.446596	4210.008833	1873.098633	148.105713
-7424.446596	4210.008833	1872.111328	-88.001572
-7424.446596	4210.008833	1871.123047	50.960590
-7424.446596	4210.008833	1870.135742	-22.983448
-7424.446596	4210.008833	1869.147461	-84.811424
-7424.446596	4210.008833	1868.158203	-117.605034
-7424.446596	4210.008833	1867.169922	-56.108528
-7424.446596	4210.008833	1866.180664	24.694464
-7424.446596	4210.008833	1865.192383	-126.522346
-7424.446596	4210.008833	1864.203125	33.984913
-7424.446596	4210.008833	1863.213867	51.903339
-7424.446596	4210.008833	1862.223633	-67.856926
-7424.446596	4210.008833	1861.234375	-112.721779
-7424.446596	4210.008833	1860.244141	103.160011
-7424.446596	4210.008833	1859.253906	152.399353
-7424.446596	4210.008833	1858.263672	112.315842
-7424.446596	4210.008833	1857.273438	272.508362
-7424.446596	4210.008833	1856.282227	24.925049
-7424.446596	4210.008833	1855.291992	-39.265186
-7424.446596	4210.008833	1854.300781	62.951832
-7424.446596	4210.008833	1853.309570	-8.481905
-7424.446596	4210.008833	1852.317383	-17.227688
-7424.446596	4210.008833	1851.326172	123.447914
-7424.446596	4210.008833	1850.333984	23.080454
-7424.446596	4210.008833	1849.342773	141.979599
-7424.446596	4210.008833	1848.350586	260.816589
-7424.446596	4210.008833	1847.357422	211.002716
-7424.446596	4210.008833	1846.365234	125.071396
-7424.446596	4210.008833	1845.372070	246.193756
-7424.446596	4210.008833	1844.379883	258.936432
-7424.446596	4210.008833	1843.386719	247.585785
-7424.446596	4210.008833	1842.393555	50.948162
-7424.446596	4210.008833	1841.399414	97.331833
-7424.446596	4210.008833	1840.406250	158.106354
-7424.446596	4210.008833	1839.412109	209.214111
-7424.446596	4210.008833	1838.417969	58.317089
-7424.446596	4210.008833	1837.423828	-123.798347
-7424.446596	4210.008833	1836.429688	11.375865
-7424.446596	4210.008833	1835.434570	206.543365
-7424.446596	4210.008833	1834.440430	209.412857
-7424.446596	4210.008833	1833.445313	149.798553
-7424.446596	4210.008833	1832.450195	167.027649
-7424.446596	4210.008833	1831.454102	-7.871150
-7424.446596	4210.008833	1830.458984	129.354095
-7424.446596	4210.008833	1829.462891	216.090622
-7424.446596	4210.008833	1828.466797	146.777084
-7424.446596	4210.008833	1827.470703	-76.099915
-7424.446596	4210.008833	1826.474609	-99.820335
-7424.446596	4210.008833	1825.478516	27.535082
-7424.446596	4210.008833	1824.481445	190.774200
-7424.446596	4210.008833	1823.484375	435.431519
-7424.446596	4210.008833	1822.487305	183.769119
-7424.446596	4210.008833	1821.490234	-48.660927
-7424.446596	4210.008833	1820.493164	66.399559
-7424.446596	4210.008833	1819.495117	248.457520
-7424.446596	4210.008833	1818.498047	308.252075
-7424.446596	4210.008833	1817.500000	92.580902
-7424.446596	4210.008833	1816.500977	169.058533
-7424.446596	4210.008833	1815.502930	401.071808
-7424.446596	4210.008833	1814.504883	175.809265
-7424.446596	4210.008833	1813.505859	137.240585
-7424.446596	4210.008833	1812.506836	191.953491
-7424.446596	4210.008833	1811.507813	272.915222
-7424.446596	4210.008833	1810.508789	229.437729
-7424.446596	4210.008833	1809.508789	214.624359
-7424.446596	4210.008833	1808.508789	-99.068794
-7424.446596	4210.008833	1807.508789	10.389990
-7424.446596	4210.008833	1806.508789	131.711166
-7424.446596	4210.008833	1805.508789	267.276093
-7424.446596	4210.008833	1804.508789	-17.707708
-7424.446596	4210.008833	1803.507813	177.449829
-7424.446596	4210.008833	1802.506836	226.816452
-7424.446596	4210.008833	1801.505859	116.148552
-7424.446596	4210.008833	1800.504883	115.281647
-7424.446596	4210.008833	1799.502930	66.629288
-7424.446596	4210.008833	1798.501953	225.549637
-7424.446596	4210.008833	1797.500000	-9.292912
-7424.446596	4210.008833	1796.498047	68.377731
-7424.446596	4210.008833	1795.496094	255.671570
-7424.446596	4210.008833	1794.493164	89.948242
-7424.446596	4210.008833	1793.491211	-140.127884
-7424.446596	4210.008833	1792.488281	206.636475
-7424.446596	4210.008833	1791.485352	195.758911
-7424.446596	4210.008833	1790.482422	163.389526
-7424.446596	4210.008833	1789.478516	207.205185
-7424.446596	4210.008833	1788.475586	124.724289
-7424.446596	4210.008833	1787.471680	1.735403
-7424.446596	4210.008833	1786.467773	21.588472
-7424.446596	4210.008833	1785.463867	-44.313423
-7424.446596	4210.008833	1784.459961	65.867386
-7424.446596	4210.008833	1783.455078	73.632713
-7424.446596	4210.008833	1782.450195	31.380623
-7424.446596	4210.008833	1781.445313	-58.480877
-7424.446596	4210.008833	1780.440430	46.639843
-7424.446596	4210.008833	1779.435547	-78.966370
-7424.446596	4210.008833	1778.429688	-121.382843
-7424.446596	4210.008833	1777.424805	204.559525
-7424.446596	4210.008833	1776.418945	245.162964
-7424.446596	4210.008833	1775.413086	102.756630
-7424.446596	4210.008833	1774.406250	109.992378
-7424.446596	4210.008833	1773.400391	-117.945549
-7424.446596	4210.008833	1772.393555	-113.158638
-7424.446596	4210.008833	1771.386719	-51.453201
-7424.446596	4210.008833	1770.379883	107.489082
-7424.446596	4210.008833	1769.373047	29.001183
-7424.446596	4210.008833	1768.365234	59.624382
-7424.446596	4210.008833	1767.358398	-106.711273
-7424.446596	4210.008833	1766.350586	-38.238659
-7424.446596	4210.008833	1765.342773	-90.788124
-7424.446596	4210.008833	1764.334961	96.084717
-7424.446596	4210.008833	1763.326172	88.450226
-7424.446596	4210.008833	1762.318359	-30.623259
-7424.446596	4210.008833	1761.309570	-137.864197
-7424.446596	4210.008833	1760.300781	138.666946
-7424.446596	4210.008833	1759.291016	12.365564
-7424.446596	4210.008833	1758.282227	13.942074
-7424.446596	4210.008833	1757.272461	-41.368488
-7424.446596	4210.008833	1756.262695	-47.003292
-7424.446596	4210.008833	1755.252930	79.850319
-7424.446596	4210.008833	1754.243164	0.724719
-7424.446596	4210.008833	1753.233398	-35.840843
-7424.446596	4210.008833	1752.222656	-58.259823
-7424.446596	4210.008833	1751.211914	-2.681959
-7424.446596	4210.008833	1750.201172	-41.763290
-7424.446596	4210.008833	1749.190430	226.449539
-7424.446596	4210.008833	1748.179688	33.590538
-7424.446596	4210.008833	1747.167969	77.065414
-7424.446596	4210.008833	1746.156250	87.389778
-7424.446596	4210.008833	1745.144531	-157.474182
-7424.446596	4210.008833	1744.132813	-161.389465
-7424.446596	4210.008833	1743.121094	-188.971008
-7424.446596	4210.008833	1742.108398	-129.246902
-7424.446596	4210.008833	1741.095703	220.743118
-7424.446596	4210.008833	1740.083008	-139.830704
-7424.446596	4210.008833	1739.070313	-273.798096
-7424.446596	4210.008833	1738.057617	-20.865719
-7424.446596	4210.008833	1737.043945	-1.599954
-7424.446596	4210.008833	1736.030273	1.098440
-7424.446596	4210.008833	1735.016602	128.708374
-7424.446596	4210.008833	1734.002930	-59.669186
-7424.446596	4210.008833	1732.989258	-97.182251
-7424.446596	4210.008833	1731.974609	-97.036026
-7424.446596	4210.008833	1730.959961	56.201035
-7424.446596	4210.008833	1729.945313	63.285240
-7424.446596	4210.008833	1728.930664	-61.569096
-7424.446596	4210.008833	1727.916016	20.785959
-7424.446596	4210.008833	1726.900391	-57.032707
-7424.446596	4210.008833	1725.885742	51.084305
-7424.446596	4210.008833	1724.870117	137.924973
-7424.446596	4210.008833	1723.853516	-140.013260
-7424.446596	4210.008833	1722.837891	-67.377533
-7424.446596	4210.008833	1721.822266	209.804474
-7424.446596	4210.008833	1720.805664	4.769580
-7424.446596	4210.008833	1719.789063	-30.956322
-7424.446596	4210.008833	1718.772461	203.606812
-7424.446596	4210.008833	1717.754883	-81.356033
-7424.446596	4210.008833	1716.738281	138.941147
-7424.446596	4210.008833	1715.720703	23.159687
-7424.446596	4210.008833	1714.703125	154.004456
-7424.446596	4210.008833	1713.685547	-109.767105
-7424.446596	4210.008833	1712.667969	-108.164162
-7424.446596	4210.008833	1711.649414	31.888710
-7424.446596	4210.008833	1710.630859	52.151237
-7424.446596	4210.008833	1709.612305	4.315461
-7424.446596	4210.008833	1708.593750	76.110535
-7424.446596	4210.008833	1707.575195	-145.367188
-7424.446596	4210.008833	1706.555664	90.510330
-7424.446596	4210.008833	1705.536133	131.645599
-7424.446596	4210.008833	1704.516602	43.791256
-7424.446596	4210.008833	1703.497070	7.499732
-7424.446596	4210.008833	1702.477539	261.769745
-7424.446596	4210.008833	1701.457031	54.337662
-7424.446596	4210.008833	1700.437500	-169.440002
-7424.446596	4210.008833	1699.416992	-32.493622
-7424.446596	4210.008833	1698.395508	69.235039
-7424.446596	4210.008833	1697.375000	72.571487
-7424.446596	4210.008833	1696.354492	-6.048766
-7424.446596	4210.008833	1695.333008	186.793106
-7424.446596	4210.008833	1694.311523	131.511749
-7424.446596	4210.008833	1693.290039	62.186028
-7424.446596	4210.008833	1692.267578	-170.871735
-7424.446596	4210.008833	1691.246094	28.755125
-7424.446596	4210.008833	1690.223633	-26.573183
-7424.446596	4210.008833	1689.201172	212.627457
-7424.446596	4210.008833	1688.178711	271.753357
-7424.446596	4210.008833	1687.155273	106.504433
-7424.446596	4210.008833	1686.132813	83.812241
-7424.446596	4210.008833	1685.109375	86.791702
-7424.446596	4210.008833	1684.085938	327.949524
-7424.446596	4210.008833	1683.062500	200.084381
-7424.446596	4210.008833	1682.039063	284.680450
-7424.446596	4210.008833	1681.014648	406.559692
-7424.446596	4210.008833	1679.990234	274.018951
-7424.446596	4210.008833	1678.965820	444.811005
-7424.446596	4210.008833	1677.941406	284.287262
-7424.446596	4210.008833	1676.916992	165.788361
-7424.446596	4210.008833	1675.891602	166.229034
-7424.446596	4210.008833	1674.866211	292.542908
-7424.446596	4210.008833	1673.840820	223.006195
-7424.446596	4210.008833	1672.815430	99.883430
-7424.446596	4210.008833	1671.790039	365.893219
-7424.446596	4210.008833	1670.763672	345.255920
-7424.446596	4210.008833	1669.737305	385.170837
-7424.446596	4210.008833	1668.710938	241.102692
-7424.446596	4210.008833	1667.684570	390.425385
-7424.446596	4210.008833	1666.658203	74.146645
-7424.446596	4210.008833	1665.630859	383.998474
-7424.446596	4210.008833	1664.603516	235.350204
-7424.446596	4210.008833	1663.576172	533.407715
-7424.446596	4210.008833	1662.548828	117.300888
-7424.446596	4210.008833	1661.520508	401.297821
-7424.446596	4210.008833	1660.493164	666.589417
-7424.446596	4210.008833	1659.464844	397.127136
-7424.446596	4210.008833	1658.436523	343.907318
-7424.446596	4210.008833	1657.408203	471.950317
-7424.446596	4210.008833	1656.378906	627.815369
-7424.446596	4210.008833	1655.350586	562.969666
-7424.446596	4210.008833	1654.321289	526.010315
-7424.446596	4210.008833	1653.291992	354.403290
-7424.446596	4210.008833	1652.261719	322.140411
-7424.446596	4210.008833	1651.232422	617.156677
-7424.446596	4210.008833	1650.202148	492.047180
-7424.446596	4210.008833	1649.171875	420.354126
-7424.446596	4210.008833	1648.141602	471.635010
-7424.446596	4210.008833	1647.111328	569.287170
-7424.446596	4210.008833	1646.080078	634.442261
-7424.446596	4210.008833	1645.049805	592.950012
-7424.446596	4210.008833	1644.018555	688.227173
-7424.446596	4210.008833	1642.987305	711.642822
-7424.446596	4210.008833	1641.955078	475.561096
-7424.446596	4210.008833	1640.923828	638.022156
-7424.446596	4210.008833	1639.891602	587.354797
-7424.446596	4210.008833	1638.859375	819.220093
-7424.446596	4210.008833	1637.827148	669.021423
-7424.446596	4210.008833	1636.794922	914.702881
-7424.446596	4210.008833	1635.761719	942.764526
-7424.446596	4210.008833	1634.729492	1280.885742
-7424.446596	4210.008833	1633.696289	1119.214111
-7424.446596	4210.008833	1632.662109	1117.205566
-7424.446596	4210.008833	1631.628906	1149.913574
-7424.446596	4210.008833	1630.594727	1205.743530
-7424.446596	4210.008833	1629.561523	1464.995850
-7424.446596	4210.008833	1628.527344	1546.212646
-7424.446596	4210.008833	1627.493164	1523.446533
-7424.446596	4210.008833	1626.458008	1706.311768
-7424.446596	4210.008833	1625.423828	2097.013916
-7424.446596	4210.008833	1624.388672	1813.281738
-7424.446596	4210.008833	1623.353516	2150.758545
-7424.446596	4210.008833	1622.318359	2527.376953
-7424.446596	4210.008833	1621.282227	2622.305908
-7424.446596	4210.008833	1620.247070	2664.164551
-7424.446596	4210.008833	1619.210938	2791.390625
-7424.446596	4210.008833	1618.174805	2879.390381
-7424.446596	4210.008833	1617.137695	3197.995361
-7424.446596	4210.008833	1616.101563	3232.920166
-7424.446596	4210.008833	1615.064453	3362.371826
-7424.446596	4210.008833	1614.027344	3155.315430
-7424.446596	4210.008833	1612.990234	2575.074219
-7424.446596	4210.008833	1611.953125	2665.525879
-7424.446596	4210.008833	1610.916016	2281.475830
-7424.446596	4210.008833	1609.877930	2077.240234
-7424.446596	4210.008833	1608.839844	2029.697998
-7424.446596	4210.008833	1607.801758	1949.984619
-7424.446596	4210.008833	1606.763672	2091.304199
-7424.446596	4210.008833	1605.724609	2071.519775
-7424.446596	4210.008833	1604.685547	1849.324585
-7424.446596	4210.008833	1603.646484	2121.822754
-7424.446596	4210.008833	1602.607422	2263.167725
-7424.446596	4210.008833	1601.568359	2289.535645
-7424.446596	4210.008833	1600.528320	2205.584961
-7424.446596	4210.008833	1599.489258	2307.898193
-7424.446596	4210.008833	1598.449219	2378.042725
-7424.446596	4210.008833	1597.408203	2004.767700
-7424.446596	4210.008833	1596.368164	2199.088623
-7424.446596	4210.008833	1595.327148	2016.722046
-7424.446596	4210.008833	1594.287109	1979.146118
-7424.446596	4210.008833	1593.246094	1902.604858
-7424.446596	4210.008833	1592.204102	1975.339355
-7424.446596	4210.008833	1591.163086	1745.177246
-7424.446596	4210.008833	1590.121094	1746.894043
-7424.446596	4210.008833	1589.079102	1757.842163
-7424.446596	4210.008833	1588.037109	1615.172974
-7424.446596	4210.008833	1586.995117	1298.342041
-7424.446596	4210.008833	1585.953125	1369.152710
-7424.446596	4210.008833	1584.910156	1458.326660
-7424.446596	4210.008833	1583.867188	1398.559692
-7424.446596	4210.008833	1582.824219	1529.055786
-7424.446596	4210.008833	1581.781250	1386.946289
-7424.446596	4210.008833	1580.737305	1160.205933
-7424.446596	4210.008833	1579.693359	1096.203247
-7424.446596	4210.008833	1578.649414	1341.375366
-7424.446596	4210.008833	1577.605469	1208.815796
-7424.446596	4210.008833	1576.561523	1225.134399
-7424.446596	4210.008833	1575.516602	1019.552185
-7424.446596	4210.008833	1574.472656	1225.913330
-7424.446596	4210.008833	1573.427734	1015.969788
-7424.446596	4210.008833	1572.381836	1078.302368
-7424.446596	4210.008833	1571.336914	916.618042
-7424.446596	4210.008833	1570.291016	759.632996
-7424.446596	4210.008833	1569.246094	902.180908
-7424.446596	4210.008833	1568.200195	896.210693
-7424.446596	4210.008833	1567.153320	773.793335
-7424.446596	4210.008833	1566.107422	710.888062
-7424.446596	4210.008833	1565.060547	600.114990
-7424.446596	4210.008833	1564.013672	621.886658
-7424.446596	4210.008833	1562.966797	568.389954
-7424.446596	4210.008833	1561.919922	654.210510
-7424.446596	4210.008833	1560.872070	543.822083
-7424.446596	4210.008833	1559.825195	595.539307
-7424.446596	4210.008833	1558.777344	519.571167
-7424.446596	4210.008833	1557.729492	377.570740
-7424.446596	4210.008833	1556.680664	616.476990
-7424.446596	4210.008833	1555.632813	408.555176
-7424.446596	4210.008833	1554.583984	401.358490
-7424.446596	4210.008833	1553.535156	355.503601
-7424.446596	4210.008833	1552.486328	496.567169
-7424.446596	4210.008833	1551.436523	375.693481
-7424.446596	4210.008833	1550.387695	428.034729
-7424.446596	4210.008833	1549.337891	350.643829
-7424.446596	4210.008833	1548.288086	284.745483
-7424.446596	4210.008833	1547.238281	0.449442
-7424.446596	4210.008833	1546.187500	239.738266
-7424.446596	4210.008833	1545.136719	78.581512
-7424.446596	4210.008833	1544.086914	49.507980
-7424.446596	4210.008833	1543.035156	141.058731
-7424.446596	4210.008833	1541.984375	257.670959
-7424.446596	4210.008833	1540.933594	28.764853
-7424.446596	4210.008833	1539.881836	175.064575
-7424.446596	4210.008833	1538.830078	205.493256
-7424.446596	4210.008833	1537.778320	213.273895
-7424.446596	4210.008833	1536.725586	241.577164
-7424.446596	4210.008833	1535.673828	208.635941
-7424.446596	4210.008833	1534.621094	109.939812
-7424.446596	4210.008833	1533.568359	222.502274
-7424.446596	4210.008833	1532.515625	282.899780
-7424.446596	4210.008833	1531.461914	400.091461
-7424.446596	4210.008833	1530.409180	231.444107
-7424.446596	4210.008833	1529.355469	53.873837
-7424.446596	4210.008833	1528.301758	51.097824
-7424.446596	4210.008833	1527.247070	0.789356
-7424.446596	4210.008833	1526.193359	0.466878
-7424.446596	4210.008833	1525.138672	140.764908
-7424.446596	4210.008833	1524.083984	34.077961
-7424.446596	4210.008833	1523.029297	63.467773
-7424.446596	4210.008833	1521.974609	4.586882
-7424.446596	4210.008833	1520.918945	-88.155617
-7424.446596	4210.008833	1519.863281	0.382482
-7424.446596	4210.008833	1518.807617	-409.100403
-7424.446596	4210.008833	1517.751953	-19.305311
-7424.446596	4210.008833	1516.696289	155.432968
-7424.446596	4210.008833	1515.639648	-124.598167
-7424.446596	4210.008833	1514.583008	-28.904432
-7424.446596	4210.008833	1513.526367	-186.473022
-7424.446596	4210.008833	1512.469727	-108.713959
-7424.446596	4210.008833	1511.412109	211.014938
-7424.446596	4210.008833	1510.355469	123.836891
-7424.446596	4210.008833	1509.297852	18.706188
-7424.446596	4210.008833	1508.240234	200.664398
-7424.446596	4210.008833	1507.181641	136.404816
-7424.446596	4210.008833	1506.124023	-121.976448
-7424.446596	4210.008833	1505.065430	168.568329
-7424.446596	4210.008833	1504.006836	14.320583
-7424.446596	4210.008833	1502.948242	-44.967712
-7424.446596	4210.008833	1501.888672	-95.113617
-7424.446596	4210.008833	1500.830078	69.207573
-7424.446596	4210.008833	1499.770508	-136.414581
-7424.446596	4210.008833	1498.710938	-73.460861
-7424.446596	4210.008833	1497.650391	30.150429
-7424.446596	4210.008833	1496.590820	63.921974
-7424.446596	4210.008833	1495.530273	-138.910507
-7424.446596	4210.008833	1494.469727	41.554646
-7424.446596	4210.008833	1493.409180	-248.882797
-7424.446596	4210.008833	1492.348633	-232.734619
-7424.446596	4210.008833	1491.287109	-162.442108
-7424.446596	4210.008833	1490.225586	101.576698
-7424.446596	4210.008833	1489.164063	-37.424389
-7424.446596	4210.008833	1488.102539	-178.527481
-7424.446596	4210.008833	1487.041016	74.362061
-7424.446596	4210.008833	1485.978516	-35.018940
-7424.446596	4210.008833	1484.916016	13.191272
-7424.446596	4210.008833	1483.853516	72.760147
-7424.446596	4210.008833	1482.791016	82.905342
-7424.446596	4210.008833	1481.727539	344.932343
-7424.446596	4210.008833	1480.664063	274.273834
-7424.446596	4210.008833	1479.600586	66.670845
-7424.446596	4210.008833	1478.537109	218.757019
-7424.446596	4210.008833	1477.473633	294.423798
-7424.446596	4210.008833	1476.409180	212.972168
-7424.446596	4210.008833	1475.344727	414.578461
-7424.446596	4210.008833	1474.280273	441.104797
-7424.446596	4210.008833	1473.215820	395.916229
-7424.446596	4210.008833	1472.151367	429.318176
-7424.446596	4210.008833	1471.085938	610.774170
-7424.446596	4210.008833	1470.020508	453.725647
-7424.446596	4210.008833	1468.955078	691.521057
-7424.446596	4210.008833	1467.888672	653.297913
-7424.446596	4210.008833	1466.823242	485.616486
-7424.446596	4210.008833	1465.756836	642.551880
-7424.446596	4210.008833	1464.690430	638.460266
-7424.446596	4210.008833	1463.624023	571.546387
-7424.446596	4210.008833	1462.556641	697.679626
-7424.446596	4210.008833	1461.490234	627.140991
-7424.446596	4210.008833	1460.422852	498.418640
-7424.446596	4210.008833	1459.355469	744.327087
-7424.446596	4210.008833	1458.287109	640.090637
-7424.446596	4210.008833	1457.219727	512.430847
-7424.446596	4210.008833	1456.151367	562.264282
-7424.446596	4210.008833	1455.083008	619.370056
-7424.446596	4210.008833	1454.014648	645.880615
-7424.446596	4210.008833	1452.945313	641.501892
-7424.446596	4210.008833	1451.876953	812.709717
-7424.446596	4210.008833	1450.807617	1025.299194
-7424.446596	4210.008833	1449.738281	735.327393
-7424.446596	4210.008833	1448.668945	1090.923828
-7424.446596	4210.008833	1447.598633	983.771240
-7424.446596	4210.008833	1446.528320	1071.692139
-7424.446596	4210.008833	1445.458008	936.443848
-7424.446596	4210.008833	1444.387695	889.597290
-7424.446596	4210.008833	1443.317383	815.387451
-7424.446596	4210.008833	1442.246094	824.854004
-7424.446596	4210.008833	1441.174805	732.852051
-7424.446596	4210.008833	1440.103516	762.026672
-7424.446596	4210.008833	1439.032227	942.661621
-7424.446596	4210.008833	1437.960938	610.641296
-7424.446596	4210.008833	1436.888672	726.030029
-7424.446596	4210.008833	1435.816406	568.524414
-7424.446596	4210.008833	1434.744141	459.686523
-7424.446596	4210.008833	1433.670898	547.168823
-7424.446596	4210.008833	1432.598633	386.956940
-7424.446596	4210.008833	1431.525391	622.377930
-7424.446596	4210.008833	1430.452148	367.317444
-7424.446596	4210.008833	1429.378906	337.820862
-7424.446596	4210.008833	1428.304688	451.984375
-7424.446596	4210.008833	1427.231445	206.209854
-7424.446596	4210.008833	1426.157227	303.007690
-7424.446596	4210.008833	1425.083008	114.613663
-7424.446596	4210.008833	1424.007813	44.907440
-7424.446596	4210.008833	1422.933594	114.354767
-7424.446596	4210.008833	1421.858398	79.438217
-7424.446596	4210.008833	1420.783203	232.775116
-7424.446596	4210.008833	1419.708008	240.253616
-7424.446596	4210.008833	1418.631836	294.491974
-7424.446596	4210.008833	1417.555664	201.256714
-7424.446596	4210.008833	1416.479492	263.904724
-7424.446596	4210.008833	1415.403320	148.900269
-7424.446596	4210.008833	1414.327148	87.906876
-7424.446596	4210.008833	1413.250000	218.467911
-7424.446596	4210.008833	1412.173828	292.995972
-7424.446596	4210.008833	1411.096680	-31.142271
-7424.446596	4210.008833	1410.018555	20.770573
-7424.446596	4210.008833	1408.941406	52.725796
-7424.446596	4210.008833	1407.863281	103.712509
-7424.446596	4210.008833	1406.785156	136.517044
-7424.446596	4210.008833	1405.707031	357.018707
-7424.446596	4210.008833	1404.628906	260.523499
-7424.446596	4210.008833	1403.549805	364.027527
-7424.446596	4210.008833	1402.470703	233.318756
-7424.446596	4210.008833	1401.391602	676.067505
-7424.446596	4210.008833	1400.312500	611.431396
-7424.446596	4210.008833	1399.233398	701.616821
-7424.446596	4210.008833	1398.153320	786.624939
-7424.446596	4210.008833	1397.073242	854.383118
-7424.446596	4210.008833	1395.993164	1164.023682
-7424.446596	4210.008833	1394.913086	1159.972534
-7424.446596	4210.008833	1393.832031	1380.774170
-7424.446596	4210.008833	1392.750977	1554.417236
-7424.446596	4210.008833	1391.669922	2091.004639
-7424.446596	4210.008833	1390.588867	2331.854980
-7424.446596	4210.008833	1389.506836	1968.045288
-7424.446596	4210.008833	1388.425781	1826.997925
-7424.446596	4210.008833	1387.343750	1455.109497
-7424.446596	4210.008833	1386.261719	1453.528442
-7424.446596	4210.008833	1385.178711	1586.063232
-7424.446596	4210.008833	1384.096680	1688.512939
-7424.446596	4210.008833	1383.013672	2121.223877
-7424.446596	4210.008833	1381.930664	2188.345947
-7424.446596	4210.008833	1380.846680	2255.914551
-7424.446596	4210.008833	1379.763672	2114.087891
-7424.446596	4210.008833	1378.679688	1702.546265
-7424.446596	4210.008833	1377.595703	1420.474854
-7424.446596	4210.008833	1376.511719	1046.368164
-7424.446596	4210.008833	1375.427734	952.930481
-7424.446596	4210.008833	1374.342773	522.346802
-7424.446596	4210.008833	1373.257813	641.277649
-7424.446596	4210.008833	1372.172852	576.066040
-7424.446596	4210.008833	1371.087891	553.753296
-7424.446596	4210.008833	1370.001953	684.753967
-7424.446596	4210.008833	1368.916992	694.603210
-7424.446596	4210.008833	1367.831055	595.202087
-7424.446596	4210.008833	1366.744141	663.090088
-7424.446596	4210.008833	1365.658203	707.255188
-7424.446596	4210.008833	1364.571289	749.746155
-7424.446596	4210.008833	1363.484375	674.181152
-7424.446596	4210.008833	1362.397461	701.245056
-7424.446596	4210.008833	1361.310547	662.528992
-7424.446596	4210.008833	1360.222656	699.898010
-7424.446596	4210.008833	1359.135742	549.947083
-7424.446596	4210.008833	1358.047852	656.871826
-7424.446596	4210.008833	1356.958984	519.875916
-7424.446596	4210.008833	1355.871094	549.292297
-7424.446596	4210.008833	1354.782227	553.068787
-7424.446596	4210.008833	1353.693359	406.006897
-7424.446596	4210.008833	1352.604492	241.021896
-7424.446596	4210.008833	1351.515625	142.908020
-7424.446596	4210.008833	1350.425781	175.552109
-7424.446596	4210.008833	1349.335938	407.350189
-7424.446596	4210.008833	1348.246094	336.603271
-7424.446596	4210.008833	1347.156250	580.668152
-7424.446596	4210.008833	1346.066406	952.138794
-7424.446596	4210.008833	1344.975586	1020.381775
-7424.446596	4210.008833	1343.884766	1219.953003
-7424.446596	4210.008833	1342.793945	1123.781494
-7424.446596	4210.008833	1341.702148	977.067810
-7424.446596	4210.008833	1340.611328	908.955750
-7424.446596	4210.008833	1339.519531	993.285522
-7424.446596	4210.008833	1338.427734	918.479187
-7424.446596	4210.008833	1337.334961	487.174011
-7424.446596	4210.008833	1336.243164	649.018372
-7424.446596	4210.008833	1335.150391	490.086090
-7424.446596	4210.008833	1334.057617	238.625443
-7424.446596	4210.008833	1332.964844	265.644470
-7424.446596	4210.008833	1331.871094	248.672058
-7424.446596	4210.008833	1330.778320	295.042969
-7424.446596	4210.008833	1329.684570	542.048096
-7424.446596	4210.008833	1328.590820	425.533112
-7424.446596	4210.008833	1327.496094	483.970398
-7424.446596	4210.008833	1326.402344	411.684753
-7424.446596	4210.008833	1325.307617	452.680115
-7424.446596	4210.008833	1324.212891	467.500366
-7424.446596	4210.008833	1323.117188	503.910919
-7424.446596	4210.008833	1322.022461	456.856567
-7424.446596	4210.008833	1320.926758	304.251526
-7424.446596	4210.008833	1319.831055	350.186493
-7424.446596	4210.008833	1318.735352	404.333710
-7424.446596	4210.008833	1317.638672	465.362885
-7424.446596	4210.008833	1316.542969	403.138641
-7424.446596	4210.008833	1315.446289	171.371216
-7424.446596	4210.008833	1314.349609	188.414978
-7424.446596	4210.008833	1313.251953	345.529541
-7424.446596	4210.008833	1312.155273	501.342133
-7424.446596	4210.008833	1311.057617	398.001587
-7424.446596	4210.008833	1309.959961	192.496033
-7424.446596	4210.008833	1308.862305	207.885315
-7424.446596	4210.008833	1307.763672	138.894989
-7424.446596	4210.008833	1306.665039	174.222076
-7424.446596	4210.008833	1305.566406	92.113045
-7424.446596	4210.008833	1304.467773	326.418793
-7424.446596	4210.008833	1303.369141	287.669983
-7424.446596	4210.008833	1302.269531	269.535461
-7424.446596	4210.008833	1301.169922	409.534607
-7424.446596	4210.008833	1300.070313	447.669678
-7424.446596	4210.008833	1298.970703	482.405884
-7424.446596	4210.008833	1297.870117	347.605530
-7424.446596	4210.008833	1296.769531	418.900208
-7424.446596	4210.008833	1295.668945	500.173126
-7424.446596	4210.008833	1294.568359	432.860168
-7424.446596	4210.008833	1293.466797	415.478943
-7424.446596	4210.008833	1292.366211	426.459290
-7424.446596	4210.008833	1291.264648	384.894592
-7424.446596	4210.008833	1290.162109	295.644562
-7424.446596	4210.008833	1289.060547	336.637177
-7424.446596	4210.008833	1287.958008	247.556580
-7424.446596	4210.008833	1286.855469	332.246368
-7424.446596	4210.008833	1285.752930	159.255737
-7424.446596	4210.008833	1284.650391	136.127090
-7424.446596	4210.008833	1283.546875	-47.250866
-7424.446596	4210.008833	1282.444336	234.921875
-7424.446596	4210.008833	1281.339844	132.807632
-7424.446596	4210.008833	1280.236328	93.114059
-7424.446596	4210.008833	1279.132813	332.496490
-7424.446596	4210.008833	1278.028320	102.301567
-7424.446596	4210.008833	1276.923828	-19.823345
-7424.446596	4210.008833	1275.819336	30.700302
-7424.446596	4210.008833	1274.713867	-37.105038
-7424.446596	4210.008833	1273.608398	77.380661
-7424.446596	4210.008833	1272.503906	62.458115
-7424.446596	4210.008833	1271.397461	122.232819
-7424.446596	4210.008833	1270.291992	-41.319717
-7424.446596	4210.008833	1269.185547	99.924995
-7424.446596	4210.008833	1268.080078	132.183258
-7424.446596	4210.008833	1266.972656	-90.168068
-7424.446596	4210.008833	1265.866211	97.644524
-7424.446596	4210.008833	1264.759766	16.657141
-7424.446596	4210.008833	1263.652344	6.292554
-7424.446596	4210.008833	1262.544922	-217.742157
-7424.446596	4210.008833	1261.436523	-77.908005
-7424.446596	4210.008833	1260.329102	3.567159
-7424.446596	4210.008833	1259.220703	-17.417923
-7424.446596	4210.008833	1258.112305	-3.039888
-7424.446596	4210.008833	1257.003906	-33.849979
-7424.446596	4210.008833	1255.895508	-98.424828
-7424.446596	4210.008833	1254.786133	36.399479
-7424.446596	4210.008833	1253.676758	8.505955
-7424.446596	4210.008833	1252.567383	-80.928108
-7424.446596	4210.008833	1251.458008	87.701340
-7424.446596	4210.008833	1250.347656	-67.075615
-7424.446596	4210.008833	1249.237305	26.542078
-7424.446596	4210.008833	1248.126953	-45.809273
-7424.446596	4210.008833	1247.016602	59.800571
-7424.446596	4210.008833	1245.905273	43.187771
-7424.446596	4210.008833	1244.793945	-50.439297
-7424.446596	4210.008833	1243.682617	-37.222633
-7424.446596	4210.008833	1242.571289	-49.772003
-7424.446596	4210.008833	1241.459961	-75.400307
-7424.446596	4210.008833	1240.347656	35.405804
-7424.446596	4210.008833	1239.235352	-65.600243
-7424.446596	4210.008833	1238.123047	37.043095
-7424.446596	4210.008833	1237.009766	-10.251481
-7424.446596	4210.008833	1235.897461	-12.821247
-7424.446596	4210.008833	1234.784180	-162.084579
-7424.446596	4210.008833	1233.670898	-26.617981
-7424.446596	4210.008833	1232.556641	-114.560585
-7424.446596	4210.008833	1231.443359	-96.768997
-7424.446596	4210.008833	1230.329102	15.641960
-7424.446596	4210.008833	1229.214844	-90.445129
-7424.446596	4210.008833	1228.099609	43.279755
-7424.446596	4210.008833	1226.985352	-63.657944
-7424.446596	4210.008833	1225.870117	20.251778
-7424.446596	4210.008833	1224.754883	-105.432602
-7424.446596	4210.008833	1223.639648	-73.118614
-7424.446596	4210.008833	1222.523438	-107.550041
-7424.446596	4210.008833	1221.408203	-17.547850
-7424.446596	4210.008833	1220.291992	-166.364960
-7424.446596	4210.008833	1219.174805	-34.138439
-7424.446596	4210.008833	1218.058594	42.492554
-7424.446596	4210.008833	1216.941406	-26.642031
-7424.446596	4210.008833	1215.824219	226.907166
-7424.446596	4210.008833	1214.707031	56.844948
-7424.446596	4210.008833	1213.589844	141.265793
-7424.446596	4210.008833	1212.471680	65.252876
-7424.446596	4210.008833	1211.353516	-80.449409
-7424.446596	4210.008833	1210.235352	45.012218
-7424.446596	4210.008833	1209.117188	96.905098
-7424.446596	4210.008833	1207.998047	-40.658394
-7424.446596	4210.008833	1206.878906	-111.921028
-7424.446596	4210.008833	1205.759766	62.074989
-7424.446596	4210.008833	1204.640625	-81.985008
-7424.446596	4210.008833	1203.520508	-55.820782
-7424.446596	4210.008833	1202.401367	-37.056938
-7424.446596	4210.008833	1201.281250	-2.413078
-7424.446596	4210.008833	1200.160156	-164.992020
-7424.446596	4210.008833	1199.040039	-62.866421
-7424.446596	4210.008833	1197.918945	-152.016785
-7424.446596	4210.008833	1196.797852	-102.133812
-7424.446596	4210.008833	1195.676758	-50.748920
-7424.446596	4210.008833	1194.555664	-61.447227
-7424.446596	4210.008833	1193.433594	189.142090
-7424.446596	4210.008833	1192.311523	-80.387321
-7424.446596	4210.008833	1191.189453	-83.478981
-7424.446596	4210.008833	1190.066406	-53.188881
-7424.446596	4210.008833	1188.944336	75.341583
-7424.446596	4210.008833	1187.821289	36.661663
-7424.446596	4210.008833	1186.698242	-40.828175
-7424.446596	4210.008833	1185.574219	-80.512169
-7424.446596	4210.008833	1184.451172	82.872864
-7424.446596	4210.008833	1183.327148	97.793915
-7424.446596	4210.008833	1182.203125	-6.835717
-7424.446596	4210.008833	1181.078125	9.692402
-7424.446596	4210.008833	1179.954102	192.529419
-7424.446596	4210.008833	1178.829102	226.034683
-7424.446596	4210.008833	1177.704102	102.029831
-7424.446596	4210.008833	1176.579102	282.546021
-7424.446596	4210.008833	1175.453125	131.273026
-7424.446596	4210.008833	1174.327148	126.584328
-7424.446596	4210.008833	1173.201172	159.924225
-7424.446596	4210.008833	1172.075195	149.935196
-7424.446596	4210.008833	1170.949219	259.433624
-7424.446596	4210.008833	1169.822266	178.787811
-7424.446596	4210.008833	1168.695313	75.909554
-7424.446596	4210.008833	1167.568359	14.895479
-7424.446596	4210.008833	1166.440430	72.423386
-7424.446596	4210.008833	1165.313477	14.216640
-7424.446596	4210.008833	1164.185547	62.435535
-7424.446596	4210.008833	1163.057617	70.457878
-7424.446596	4210.008833	1161.928711	38.717205
-7424.446596	4210.008833	1160.800781	110.274078
-7424.446596	4210.008833	1159.671875	-122.230003
-7424.446596	4210.008833	1158.541992	-135.132065
-7424.446596	4210.008833	1157.413086	-170.082275
-7424.446596	4210.008833	1156.283203	-121.212746
-7424.446596	4210.008833	1155.154297	-14.085633
-7424.446596	4210.008833	1154.023438	-192.340271
-7424.446596	4210.008833	1152.893555	-6.998425
-7424.446596	4210.008833	1151.763672	-205.922607
-7424.446596	4210.008833	1150.632813	-66.477417
-7424.446596	4210.008833	1149.501953	156.484940
-7424.446596	4210.008833	1148.370117	53.871277
-7424.446596	4210.008833	1147.239258	-56.689606
-7424.446596	4210.008833	1146.107422	121.876640
-7424.446596	4210.008833	1144.975586	138.340012
-7424.446596	4210.008833	1143.843750	-141.131485
-7424.446596	4210.008833	1142.710938	-124.064735
-7424.446596	4210.008833	1141.578125	-100.702339
-7424.446596	4210.008833	1140.445313	-108.050087
-7424.446596	4210.008833	1139.312500	-90.737801
-7424.446596	4210.008833	1138.178711	-2.901881
-7424.446596	4210.008833	1137.045898	192.337082
-7424.446596	4210.008833	1135.912109	45.812660
-7424.446596	4210.008833	1134.777344	-20.156824
-7424.446596	4210.008833	1133.643555	-9.824556
-7424.446596	4210.008833	1132.508789	-11.869861
-7424.446596	4210.008833	1131.374023	-74.831863
-7424.446596	4210.008833	1130.239258	252.612762
-7424.446596	4210.008833	1129.104492	190.520752
-7424.446596	4210.008833	1127.968750	166.011322
-7424.446596	4210.008833	1126.833008	361.326721
-7424.446596	4210.008833	1125.697266	23.483639
-7424.446596	4210.008833	1124.560547	46.420555
-7424.446596	4210.008833	1123.424805	103.266716
-7424.446596	4210.008833	1122.288086	32.047318
-7424.446596	4210.008833	1121.151367	69.944260
-7424.446596	4210.008833	1120.013672	216.710327
-7424.446596	4210.008833	1118.876953	239.247498
-7424.446596	4210.008833	1117.739258	146.310242
-7424.446596	4210.008833	1116.601563	137.363770
-7424.446596	4210.008833	1115.462891	103.742798
-7424.446596	4210.008833	1114.324219	77.714394
-7424.446596	4210.008833	1113.186523	126.382645
-7424.446596	4210.008833	1112.046875	93.833260
-7424.446596	4210.008833	1110.908203	97.445663
-7424.446596	4210.008833	1109.769531	83.783020
-7424.446596	4210.008833	1108.629883	-51.507626
-7424.446596	4210.008833	1107.490234	3.411288
-7424.446596	4210.008833	1106.349609	152.896713
-7424.446596	4210.008833	1105.209961	176.257629
-7424.446596	4210.008833	1104.069336	100.663834
-7424.446596	4210.008833	1102.928711	125.587769
-7424.446596	4210.008833	1101.787109	109.775917
-7424.446596	4210.008833	1100.646484	91.283623
-7424.446596	4210.008833	1099.504883	130.462067
-7424.446596	4210.008833	1098.363281	70.302383
-7424.446596	4210.008833	1097.221680	6.301817
-7424.446596	4210.008833	1096.079102	-19.818682
-7424.446596	4210.008833	1094.936523	106.632324
-7424.446596	4210.008833	1093.793945	88.081772
-7424.446596	4210.008833	1092.651367	-125.002396
-7424.446596	4210.008833	1091.507813	-20.331963
-7424.446596	4210.008833	1090.364258	90.872528
-7424.446596	4210.008833	1089.220703	83.821220
-7424.446596	4210.008833	1088.077148	-55.774769
-7424.446596	4210.008833	1086.933594	-14.215075
-7424.446596	4210.008833	1085.789063	157.883118
-7424.446596	4210.008833	1084.644531	32.026970
-7424.446596	4210.008833	1083.499023	15.410743
-7424.446596	4210.008833	1082.354492	8.276284
-7424.446596	4210.008833	1081.208984	57.028553
-7424.446596	4210.008833	1080.063477	-61.795895
-7424.446596	4210.008833	1078.917969	-130.331635
-7424.446596	4210.008833	1077.771484	-19.251713
-7424.446596	4210.008833	1076.625977	13.057088
-7424.446596	4210.008833	1075.479492	295.987732
-7424.446596	4210.008833	1074.332031	-6.504564
-7424.446596	4210.008833	1073.185547	-8.679508
-7424.446596	4210.008833	1072.038086	53.982681
-7424.446596	4210.008833	1070.890625	26.109598
-7424.446596	4210.008833	1069.743164	-31.373760
-7424.446596	4210.008833	1068.594727	26.902334
-7424.446596	4210.008833	1067.447266	-47.073490
-7424.446596	4210.008833	1066.298828	54.263203
-7424.446596	4210.008833	1065.149414	29.847105
-7424.446596	4210.008833	1064.000977	249.069336
-7424.446596	4210.008833	1062.851563	201.730515
-7424.446596	4210.008833	1061.702148	100.078552
-7424.446596	4210.008833	1060.552734	91.204460
-7424.446596	4210.008833	1059.402344	125.410400
-7424.446596	4210.008833	1058.252930	179.804520
-7424.446596	4210.008833	1057.102539	124.462585
-7424.446596	4210.008833	1055.951172	84.674759
-7424.446596	4210.008833	1054.800781	109.408722
-7424.446596	4210.008833	1053.649414	-99.168106
-7424.446596	4210.008833	1052.498047	-94.398453
-7424.446596	4210.008833	1051.346680	-245.284073
-7424.446596	4210.008833	1050.194336	234.775818
-7424.446596	4210.008833	1049.042969	-68.096581
-7424.446596	4210.008833	1047.890625	119.995415
-7424.446596	4210.008833	1046.738281	-319.770294
-7424.446596	4210.008833	1045.584961	141.687454
-7424.446596	4210.008833	1044.431641	30.247768
-7424.446596	4210.008833	1043.278320	86.490929
-7424.446596	4210.008833	1042.125000	-75.911995
-7424.446596	4210.008833	1040.971680	74.769638
-7424.446596	4210.008833	1039.817383	112.075867
-7424.446596	4210.008833	1038.663086	-50.839668
-7424.446596	4210.008833	1037.508789	79.977303
-7424.446596	4210.008833	1036.353516	111.790382
-7424.446596	4210.008833	1035.198242	-49.263344
-7424.446596	4210.008833	1034.042969	214.728424
-7424.446596	4210.008833	1032.887695	-60.938263
-7424.446596	4210.008833	1031.732422	165.920364
-7424.446596	4210.008833	1030.576172	183.218170
-7424.446596	4210.008833	1029.419922	72.657799
-7424.446596	4210.008833	1028.263672	97.889793
-7424.446596	4210.008833	1027.106445	33.501781
-7424.446596	4210.008833	1025.949219	85.268723
-7424.446596	4210.008833	1024.792969	-8.850773
-7424.446596	4210.008833	1023.634766	-21.411621
-7424.446596	4210.008833	1022.477539	35.277149
-7424.446596	4210.008833	1021.319336	150.016464
-7424.446596	4210.008833	1020.161133	-39.207672
-7424.446596	4210.008833	1019.002930	-245.237915
-7424.446596	4210.008833	1017.843750	-240.110809
-7424.446596	4210.008833	1016.684570	13.264144
-7424.446596	4210.008833	1015.525391	80.273827
-7424.446596	4210.008833	1014.366211	-62.791599
-7424.446596	4210.008833	1013.207031	-87.706413
-7424.446596	4210.008833	1012.046875	164.931198
-7424.446596	4210.008833	1010.886719	-82.484444
-7424.446596	4210.008833	1009.726563	5.270406
-7424.446596	4210.008833	1008.565430	-35.306797
-7424.446596	4210.008833	1007.404297	-132.129318
-7424.446596	4210.008833	1006.243164	-27.271236
-7424.446596	4210.008833	1005.082031	33.979462
-7424.446596	4210.008833	1003.920898	222.685394
-7424.446596	4210.008833	1002.758789	200.887848
-7424.446596	4210.008833	1001.596680	194.436340
-7424.446596	4210.008833	1000.433594	-64.958923
-7424.446596	4210.008833	999.271484	286.820038
-7424.446596	4210.008833	998.108398	-59.189331
-7424.446596	4210.008833	996.945313	98.634041
-7424.446596	4210.008833	995.782227	89.635941
-7424.446596	4210.008833	994.618164	-23.363186
-7424.446596	4210.008833	993.454102	-59.824265
-7424.446596	4210.008833	992.290039	-80.563614
-7424.446596	4210.008833	991.125977	-54.674915
-7424.446596	4210.008833	989.960938	-3.081936
-7424.446596	4210.008833	988.796875	-109.854881
-7424.446596	4210.008833	987.630859	230.546219
-7424.446596	4210.008833	986.465820	-16.522949
-7424.446596	4210.008833	985.300781	140.348755
-7424.446596	4210.008833	984.134766	-60.908062
-7424.446596	4210.008833	982.968750	79.362015
-7424.446596	4210.008833	981.801758	4.775111
-7424.446596	4210.008833	980.635742	-16.013186
-7424.446596	4210.008833	979.468750	32.959763
-7424.446596	4210.008833	978.301758	149.245895
-7424.446596	4210.008833	977.133789	20.138988
-7424.446596	4210.008833	975.966797	24.256674
-7424.446596	4210.008833	974.798828	112.399323
-7424.446596	4210.008833	973.630859	-20.523642
-7424.446596	4210.008833	972.461914	57.196514
-7424.446596	4210.008833	971.293945	-69.716026
-7424.446596	4210.008833	970.125000	48.079021
-7424.446596	4210.008833	968.956055	-38.005959
-7424.446596	4210.008833	967.786133	72.444725
-7424.446596	4210.008833	966.617188	-93.623917
-7424.446596	4210.008833	965.447266	60.218082
-7424.446596	4210.008833	964.276367	42.022434
-7424.446596	4210.008833	963.106445	-46.712059
-7424.446596	4210.008833	961.935547	0.215948
-7424.446596	4210.008833	960.764648	13.180859
-7424.446596	4210.008833	959.593750	71.069374
-7424.446596	4210.008833	958.422852	-24.942738
-7424.446596	4210.008833	957.250977	181.304153
-7424.446596	4210.008833	956.079102	-32.612350
-7424.446596	4210.008833	954.907227	-133.349518
-7424.446596	4210.008833	953.734375	32.616478
-7424.446596	4210.008833	952.562500	199.432190
-7424.446596	4210.008833	951.389648	48.144314
-7424.446596	4210.008833	950.215820	222.822098
-7424.446596	4210.008833	949.042969	61.217648
-7424.446596	4210.008833	947.869141	32.911728
-7424.446596	4210.008833	946.695313	118.403893
-7424.446596	4210.008833	945.521484	-1.940671
-7424.446596	4210.008833	944.346680	-217.068024
-7424.446596	4210.008833	943.172852	-44.553070
-7424.446596	4210.008833	941.998047	-88.859169
-7424.446596	4210.008833	940.822266	-66.894638
-7424.446596	4210.008833	939.647461	-205.650314
-7424.446596	4210.008833	938.471680	-91.934395
-7424.446596	4210.008833	937.295898	-184.916153
-7424.446596	4210.008833	936.119141	-162.903137
-7424.446596	4210.008833	934.943359	-158.991501
-7424.446596	4210.008833	933.766602	184.481110
-7424.446596	4210.008833	932.589844	-31.072506
-7424.446596	4210.008833	931.413086	225.430542
-7424.446596	4210.008833	930.235352	12.497100
-7424.446596	4210.008833	929.057617	253.622025
-7424.446596	4210.008833	927.879883	142.693878
-7424.446596	4210.008833	926.702148	110.791634
-7424.446596	4210.008833	925.523438	40.661289
-7424.446596	4210.008833	924.344727	138.770447
-7424.446596	4210.008833	923.166016	178.200012
-7424.446596	4210.008833	921.987305	-29.579441
-7424.446596	4210.008833	920.807617	134.652603
-7424.446596	4210.008833	919.627930	138.114777
-7424.446596	4210.008833	919.497070	217.671143
-7424.446596	4210.008833	918.331055	91.384529
-7424.446596	4210.008833	917.165039	268.113434
-7424.446596	4210.008833	915.999023	208.009048
-7424.446596	4210.008833	914.833008	-149.865265
-7424.446596	4210.008833	913.666016	6.383716
-7424.446596	4210.008833	912.499023	-10.447165
-7424.446596	4210.008833	911.332031	-85.795555
-7424.446596	4210.008833	910.165039	-0.927252
-7424.446596	4210.008833	908.997070	-53.408089
-7424.446596	4210.008833	907.830078	69.501503
-7424.446596	4210.008833	906.661133	60.188244
-7424.446596	4210.008833	905.493164	35.606873
-7424.446596	4210.008833	904.325195	-16.933493
-7424.446596	4210.008833	903.156250	103.238503
-7424.446596	4210.008833	901.987305	32.883724
-7424.446596	4210.008833	900.818359	-133.942337
-7424.446596	4210.008833	899.648438	-49.428772
-7424.446596	4210.008833	898.478516	-71.561707
-7424.446596	4210.008833	897.308594	-187.592331
-7424.446596	4210.008833	896.138672	21.108099
-7424.446596	4210.008833	894.968750	-100.017281
-7424.446596	4210.008833	893.797852	-41.078545
-7424.446596	4210.008833	892.626953	263.726318
-7424.446596	4210.008833	891.456055	-1.928051
-7424.446596	4210.008833	890.284180	69.548340
-7424.446596	4210.008833	889.113281	244.847870
-7424.446596	4210.008833	887.941406	78.074570
-7424.446596	4210.008833	886.768555	136.749664
-7424.446596	4210.008833	885.596680	51.039284
-7424.446596	4210.008833	884.423828	59.008263
-7424.446596	4210.008833	883.250977	130.222473
-7424.446596	4210.008833	882.078125	122.932678
-7424.446596	4210.008833	880.905273	-13.416029
-7424.446596	4210.008833	879.731445	80.452675
-7424.446596	4210.008833	878.557617	95.853767
-7424.446596	4210.008833	877.383789	25.250889
-7424.446596	4210.008833	876.209961	-313.319061
-7424.446596	4210.008833	875.035156	60.967957
-7424.446596	4210.008833	873.860352	220.280563
-7424.446596	4210.008833	872.685547	61.167332
-7424.446596	4210.008833	871.510742	134.473755
-7424.446596	4210.008833	870.334961	68.823578
-7424.446596	4210.008833	869.159180	-22.079340
-7424.446596	4210.008833	867.983398	-59.964733
-7424.446596	4210.008833	866.807617	-14.578930
-7424.446596	4210.008833	865.630859	-37.371513
-7424.446596	4210.008833	864.454102	70.999153
-7424.446596	4210.008833	863.277344	83.446884
-7424.446596	4210.008833	862.100586	-88.233620
-7424.446596	4210.008833	860.922852	128.398560
-7424.446596	4210.008833	859.745117	158.374634
-7424.446596	4210.008833	858.567383	210.987305
-7424.446596	4210.008833	857.389648	112.362320
-7424.446596	4210.008833	856.210938	-97.099533
-7424.446596	4210.008833	855.032227	305.528534
-7424.446596	4210.008833	853.853516	206.843979
-7424.446596	4210.008833	852.674805	108.163910
-7424.446596	4210.008833	851.495117	87.522781
-7424.446596	4210.008833	850.315430	109.637566
-7424.446596	4210.008833	849.135742	5.902554
-7424.446596	4210.008833	847.956055	45.561642
-7424.446596	4210.008833	846.775391	-43.096920
-7424.446596	4210.008833	845.595703	117.181664
-7424.446596	4210.008833	844.415039	-67.061066
-7424.446596	4210.008833	843.233398	7.626709
-7424.446596	4210.008833	842.052734	-0.682640
-7424.446596	4210.008833	840.871094	-237.659668
-7424.446596	4210.008833	839.689453	40.373795
-7424.446596	4210.008833	838.506836	82.181374
-7424.446596	4210.008833	837.325195	151.552475
-7424.446596	4210.008833	836.142578	117.930573
-7424.446596	4210.008833	834.959961	295.115051
-7424.446596	4210.008833	833.777344	105.818565
-7424.446596	4210.008833	832.593750	-5.663177
-7424.446596	4210.008833	831.410156	221.486893
-7424.446596	4210.008833	830.226563	182.674805
-7424.446596	4210.008833	829.042969	-109.398483
-7424.446596	4210.008833	827.858398	62.364349
-7424.446596	4210.008833	826.673828	-99.318123
-7424.446596	4210.008833	825.489258	32.199398
-7424.446596	4210.008833	824.304688	131.052444
-7424.446596	4210.008833	823.120117	129.636307
-7424.446596	4210.008833	821.934570	93.119461
-7424.446596	4210.008833	820.749023	331.983337
-7424.446596	4210.008833	819.562500	170.199112
-7424.446596	4210.008833	818.376953	231.174408
-7424.446596	4210.008833	817.190430	6.839992
-7424.446596	4210.008833	816.003906	-122.383102
-7424.446596	4210.008833	814.817383	13.521530
-7424.446596	4210.008833	813.629883	59.306129
-7424.446596	4210.008833	812.442383	-42.475338
-7424.446596	4210.008833	811.254883	-101.765434
-7424.446596	4210.008833	810.067383	108.820435
-7424.446596	4210.008833	808.878906	41.940613
-7424.446596	4210.008833	807.690430	-69.920105
-7424.446596	4210.008833	806.501953	-89.372238
-7424.446596	4210.008833	805.313477	-173.781174
-7424.446596	4210.008833	804.124023	86.311104
-7424.446596	4210.008833	802.934570	54.225483
-7424.446596	4210.008833	801.745117	211.760651
-7424.446596	4210.008833	800.555664	224.480911
-7424.446596	4210.008833	799.365234	-114.559151
-7424.446596	4210.008833	798.175781	-226.561935
-7424.446596	4210.008833	796.985352	75.333801
-7424.446596	4210.008833	795.793945	-46.724728
-7424.446596	4210.008833	794.603516	-24.222870
-7424.446596	4210.008833	793.412109	25.632027
-7424.446596	4210.008833	792.220703	-6.792879
-7424.446596	4210.008833	791.028320	-186.206909
-7424.446596	4210.008833	789.836914	-121.546257
-7424.446596	4210.008833	788.644531	37.650383
-7424.446596	4210.008833	787.452148	84.718124
-7424.446596	4210.008833	786.258789	96.877205
-7424.446596	4210.008833	785.066406	-144.811188
-7424.446596	4210.008833	783.873047	-122.753204
-7424.446596	4210.008833	782.679688	150.451874
-7424.446596	4210.008833	781.485352	82.824928
-7424.446596	4210.008833	780.291992	-17.140886
-7424.446596	4210.008833	779.097656	-27.631283
-7424.446596	4210.008833	777.903320	-33.194603
-7424.446596	4210.008833	776.708008	-95.949730
-7424.446596	4210.008833	775.512695	-136.370697
-7424.446596	4210.008833	774.318359	-45.193089
-7424.446596	4210.008833	773.122070	23.549540
-7424.446596	4210.008833	771.926758	50.013760
-7424.446596	4210.008833	770.730469	4.440118
-7424.446596	4210.008833	769.534180	-105.682297
-7424.446596	4210.008833	768.337891	52.138710
-7424.446596	4210.008833	767.141602	33.733238
-7424.446596	4210.008833	765.944336	-69.031555
-7424.446596	4210.008833	764.747070	-37.912491
-7424.446596	4210.008833	763.549805	-128.321640
-7424.446596	4210.008833	762.351563	21.661772
-7424.446596	4210.008833	761.154297	-21.739244
-7424.446596	4210.008833	759.956055	33.923248
-7424.446596	4210.008833	758.757813	77.130928
-7424.446596	4210.008833	757.558594	189.608170
-7424.446596	4210.008833	756.359375	-17.389830
-7424.446596	4210.008833	755.160156	-75.831703
-7424.446596	4210.008833	753.960938	113.181068
-7424.446596	4210.008833	752.761719	217.942566
-7424.446596	4210.008833	751.561523	-65.768326
-7424.446596	4210.008833	750.361328	147.713028
-7424.446596	4210.008833	749.160156	118.727982
-7424.446596	4210.008833	747.959961	-78.399940
-7424.446596	4210.008833	746.758789	53.240334
-7424.446596	4210.008833	745.557617	-119.176628
-7424.446596	4210.008833	744.356445	44.441143
-7424.446596	4210.008833	743.154297	-14.370811
-7424.446596	4210.008833	741.952148	171.288788
-7424.446596	4210.008833	740.750000	-154.282990
-7424.446596	4210.008833	739.547852	38.639637
-7424.446596	4210.008833	738.344727	-79.543625
-7424.446596	4210.008833	737.142578	68.774704
-7424.446596	4210.008833	735.939453	189.845917
-7424.446596	4210.008833	734.735352	130.761963
-7424.446596	4210.008833	733.532227	-91.097961
-7424.446596	4210.008833	732.328125	81.568039
-7424.446596	4210.008833	731.124023	345.320831
-7424.446596	4210.008833	729.918945	221.994507
-7424.446596	4210.008833	728.714844	76.501762
-7424.446596	4210.008833	727.509766	322.710693
-7424.446596	4210.008833	726.303711	95.889069
-7424.446596	4210.008833	725.098633	184.308258
-7424.446596	4210.008833	723.892578	-54.786900
-7424.446596	4210.008833	722.686523	129.532928
-7424.446596	4210.008833	721.480469	161.158707
-7424.446596	4210.008833	720.274414	86.933578
-7424.446596	4210.008833	719.067383	-85.698242
-7424.446596	4210.008833	717.860352	-12.367795
-7424.446596	4210.008833	716.653320	63.349129
-7424.446596	4210.008833	715.445313	-65.047646
-7424.446596	4210.008833	714.238281	0.736376
-7424.446596	4210.008833	713.030273	-36.755630
-7424.446596	4210.008833	711.821289	33.822372
-7424.446596	4210.008833	710.613281	-165.851120
-7424.446596	4210.008833	709.404297	-294.267242
-7424.446596	4210.008833	708.195313	-24.925877
-7424.446596	4210.008833	706.986328	-92.026733
-7424.446596	4210.008833	705.776367	-70.790871
-7424.446596	4210.008833	704.566406	-157.561752
-7424.446596	4210.008833	703.356445	162.887665
-7424.446596	4210.008833	702.146484	49.052029
-7424.446596	4210.008833	700.935547	-42.705784
-7424.446596	4210.008833	699.724609	-156.525009
-7424.446596	4210.008833	698.513672	-125.717613
-7424.446596	4210.008833	697.302734	-264.046722
-7424.446596	4210.008833	696.090820	9.253805
-7424.446596	4210.008833	694.878906	57.049747
-7424.446596	4210.008833	693.666992	188.058487
-7424.446596	4210.008833	692.455078	93.718102
-7424.446596	4210.008833	691.242188	111.989975
-7424.446596	4210.008833	690.029297	54.350399
-7424.446596	4210.008833	688.816406	48.091972
-7424.446596	4210.008833	687.602539	137.214127
-7424.446596	4210.008833	686.389648	258.069489
-7424.446596	4210.008833	685.175781	102.509750
-7424.446596	4210.008833	683.960938	125.462311
-7424.446596	4210.008833	682.747070	50.605106
-7424.446596	4210.008833	681.532227	271.458740
-7424.446596	4210.008833	680.317383	233.196991
-7424.446596	4210.008833	679.102539	336.610626
-7424.446596	4210.008833	677.886719	124.892334
-7424.446596	4210.008833	676.670898	328.347839
-7424.446596	4210.008833	675.455078	453.572571
-7424.446596	4210.008833	674.239258	410.306549
-7424.446596	4210.008833	673.022461	-20.970480
-7424.446596	4210.008833	671.805664	174.932098
-7424.446596	4210.008833	670.588867	-4.911747
-7424.446596	4210.008833	669.372070	-16.427998
-7424.446596	4210.008833	668.154297	140.275223
-7424.446596	4210.008833	666.936523	-98.013763
-7424.446596	4210.008833	665.718750	121.971466
-7424.446596	4210.008833	664.500977	78.686775
-7424.446596	4210.008833	663.282227	96.304291
-7424.446596	4210.008833	662.063477	191.840958
-7424.446596	4210.008833	660.844727	192.352264
-7424.446596	4210.008833	659.625000	5.379503
-7424.446596	4210.008833	658.405273	207.930862
-7424.446596	4210.008833	657.185547	113.485672
-7424.446596	4210.008833	655.965820	116.393433
-7424.446596	4210.008833	654.745117	265.239349
-7424.446596	4210.008833	653.525391	185.403351
-7424.446596	4210.008833	652.303711	35.071060
-7424.446596	4210.008833	651.083008	174.090820
-7424.446596	4210.008833	649.861328	123.460335
-7424.446596	4210.008833	648.640625	84.999077
-7424.446596	4210.008833	647.417969	92.702187
-7424.446596	4210.008833	646.196289	83.398552
-7424.446596	4210.008833	644.973633	163.944290
-7424.446596	4210.008833	643.750977	-37.187439
-7424.446596	4210.008833	642.528320	45.773811
-7424.446596	4210.008833	641.305664	26.768393
-7424.446596	4210.008833	640.082031	160.631561
-7424.446596	4210.008833	638.858398	168.291611
-7424.446596	4210.008833	637.634766	64.384193
-7424.446596	4210.008833	636.410156	6.593247
-7424.446596	4210.008833	635.185547	147.626343
-7424.446596	4210.008833	633.960938	-140.414047
-7424.446596	4210.008833	632.736328	-26.055317
-7424.446596	4210.008833	631.510742	-93.453346
-7424.446596	4210.008833	630.285156	1.479311
-7424.446596	4210.008833	629.059570	309.497467
-7424.446596	4210.008833	627.833984	72.608932
-7424.446596	4210.008833	626.607422	46.433216
-7424.446596	4210.008833	625.380859	8.178839
-7424.446596	4210.008833	624.154297	-105.058540
-7424.446596	4210.008833	622.927734	-36.793625
-7424.446596	4210.008833	621.700195	164.480896
-7424.446596	4210.008833	620.472656	174.649246
-7424.446596	4210.008833	619.245117	-44.849148
-7424.446596	4210.008833	618.016602	-63.617313
-7424.446596	4210.008833	616.788086	91.639107
-7424.446596	4210.008833	615.559570	17.316544
-7424.446596	4210.008833	614.331055	109.722557
-7424.446596	4210.008833	613.101563	45.124317
-7424.446596	4210.008833	611.872070	94.062187
-7424.446596	4210.008833	610.642578	-23.570337
-7424.446596	4210.008833	609.413086	-51.827042
-7424.446596	4210.008833	608.182617	-84.876236
-7424.446596	4210.008833	606.952148	-50.334877
-7424.446596	4210.008833	605.721680	95.170975
-7424.446596	4210.008833	604.491211	-63.208378
-7424.446596	4210.008833	603.259766	-105.767159
-7424.446596	4210.008833	602.028320	104.821907
-7424.446596	4210.008833	600.796875	-5.174698
-7424.446596	4210.008833	599.564453	171.629532
-7424.446596	4210.008833	598.332031	-85.222404
-7424.446596	4210.008833	597.099609	74.729309
-7424.446596	4210.008833	595.867188	-107.280113
-7424.446596	4210.008833	594.633789	96.005043
-7424.446596	4210.008833	593.400391	-105.119446
-7424.446596	4210.008833	592.166992	57.241753
-7424.446596	4210.008833	590.933594	125.740799
-7424.446596	4210.008833	589.699219	-12.614561
-7424.446596	4210.008833	588.464844	-8.987696
-7424.446596	4210.008833	587.230469	-55.813400
-7424.446596	4210.008833	585.995117	-181.909058
-7424.446596	4210.008833	584.760742	11.734402
-7424.446596	4210.008833	583.525391	-147.878876
-7424.446596	4210.008833	582.289063	81.788063
-7424.446596	4210.008833	581.053711	-120.919083
-7424.446596	4210.008833	579.817383	180.767700
-7424.446596	4210.008833	578.581055	283.107483
-7424.446596	4210.008833	577.343750	123.820160
-7424.446596	4210.008833	576.107422	-44.951069
-7424.446596	4210.008833	574.870117	81.498535
-7424.446596	4210.008833	573.631836	8.845442
-7424.446596	4210.008833	572.394531	-82.912926
-7424.446596	4210.008833	571.156250	230.622681
-7424.446596	4210.008833	569.917969	-122.340805
-7424.446596	4210.008833	568.679688	119.267403
-7424.446596	4210.008833	567.440430	25.358747
-7424.446596	4210.008833	566.202148	-8.565961
-7424.446596	4210.008833	564.961914	7.867334
-7424.446596	4210.008833	563.722656	12.373275
-7424.446596	4210.008833	562.482422	76.779243
-7424.446596	4210.008833	561.243164	227.381516
-7424.446596	4210.008833	560.001953	136.265503
-7424.446596	4210.008833	558.761719	205.545609
-7424.446596	4210.008833	557.520508	133.715469
-7424.446596	4210.008833	556.279297	2.180480
-7424.446596	4210.008833	555.038086	45.301208
-7424.446596	4210.008833	553.795898	246.228500
-7424.446596	4210.008833	552.554688	-11.755850
-7424.446596	4210.008833	551.311523	213.099289
-7424.446596	4210.008833	550.069336	101.066406
-7424.446596	4210.008833	548.826172	-89.686684
-7424.446596	4210.008833	547.583984	44.462166
-7424.446596	4210.008833	546.339844	66.393372
-7424.446596	4210.008833	545.096680	43.018394
-7424.446596	4210.008833	543.852539	155.733780
-7424.446596	4210.008833	542.608398	151.543716
-7424.446596	4210.008833	541.364258	109.242905
-7424.446596	4210.008833	540.119141	150.484238
-7424.446596	4210.008833	538.875000	-82.442070
-7424.446596	4210.008833	537.628906	90.040337
-7424.446596	4210.008833	536.383789	131.417892
-7424.446596	4210.008833	535.137695	13.178271
-7424.446596	4210.008833	533.892578	-7.282377
-7424.446596	4210.008833	532.645508	15.188805
-7424.446596	4210.008833	531.399414	290.121490
-7424.446596	4210.008833	530.152344	74.539688
-7424.446596	4210.008833	528.905273	70.946571
-7424.446596	4210.008833	527.658203	-208.651718
-7424.446596	4210.008833	526.410156	-0.329867
-7424.446596	4210.008833	525.163086	-15.653609
-7424.446596	4210.008833	523.914063	26.153454
-7424.446596	4210.008833	522.666016	-55.653625
-7424.446596	4210.008833	521.416992	-225.338776
-7424.446596	4210.008833	520.167969	30.527311
-7424.446596	4210.008833	518.918945	-79.611115
-7424.446596	4210.008833	517.669922	147.690109
-7424.446596	4210.008833	516.419922	21.029970
-7424.446596	4210.008833	515.169922	-48.543476
-7424.446596	4210.008833	513.919922	-106.178017
-7424.446596	4210.008833	512.668945	26.142197
-7424.446596	4210.008833	511.417969	101.485466
-7424.446596	4210.008833	510.166992	-183.811813
-7424.446596	4210.008833	508.916016	-103.644783
-7424.446596	4210.008833	507.664063	-125.461609
-7424.446596	4210.008833	506.412109	-170.950226
-7424.446596	4210.008833	505.160156	-69.414177
-7424.446596	4210.008833	503.907227	-150.394547
-7424.446596	4210.008833	502.655273	5.643259
-7424.446596	4210.008833	501.402344	109.516228
-7424.446596	4210.008833	500.148438	-25.861628
-7424.446596	4210.008833	498.895508	-215.628906
-7424.446596	4210.008833	497.641602	-104.620117
-7424.446596	4210.008833	496.387695	-76.491722
-7424.446596	4210.008833	495.132813	-5.767663
-7424.446596	4210.008833	493.878906	62.568321
-7424.446596	4210.008833	492.624023	7.873880
-7424.446596	4210.008833	491.368164	274.846588
-7424.446596	4210.008833	490.113281	-106.166504
-7424.446596	4210.008833	488.857422	4.691028
-7424.446596	4210.008833	487.601563	58.772816
-7424.446596	4210.008833	486.344727	49.022087
-7424.446596	4210.008833	485.088867	79.427147
-7424.446596	4210.008833	483.832031	-3.569038
-7424.446596	4210.008833	482.575195	104.728600
-7424.446596	4210.008833	481.317383	-122.292801
-7424.446596	4210.008833	480.059570	323.478668
-7424.446596	4210.008833	478.801758	299.407623
-7424.446596	4210.008833	477.543945	166.782440
-7424.446596	4210.008833	476.285156	293.657715
-7424.446596	4210.008833	475.027344	116.206856
-7424.446596	4210.008833	473.767578	-2.264365
-7424.446596	4210.008833	472.508789	409.676361
-7424.446596	4210.008833	471.249023	265.168793
-7424.446596	4210.008833	469.989258	252.623032
-7424.446596	4210.008833	468.729492	211.753448
-7424.446596	4210.008833	467.469727	119.018486
-7424.446596	4210.008833	466.208984	82.769417
-7424.446596	4210.008833	464.948242	387.837952
-7424.446596	4210.008833	463.686523	226.640472
-7424.446596	4210.008833	462.425781	418.424347
-7424.446596	4210.008833	461.164063	165.357880
-7424.446596	4210.008833	459.901367	164.000153
-7424.446596	4210.008833	458.639648	195.468704
-7424.446596	4210.008833	457.376953	259.735748
-7424.446596	4210.008833	456.114258	359.124756
-7424.446596	4210.008833	454.851563	310.288300
-7424.446596	4210.008833	453.587891	228.453613
-7424.446596	4210.008833	452.324219	522.402100
-7424.446596	4210.008833	451.060547	334.600372
-7424.446596	4210.008833	449.796875	362.775635
-7424.446596	4210.008833	448.532227	386.093658
-7424.446596	4210.008833	447.267578	359.955841
-7424.446596	4210.008833	446.002930	293.775482
-7424.446596	4210.008833	444.737305	483.189240
-7424.446596	4210.008833	443.471680	285.308380
-7424.446596	4210.008833	442.206055	378.132751
-7424.446596	4210.008833	440.940430	330.048767
-7424.446596	4210.008833	439.673828	338.045471
-7424.446596	4210.008833	438.407227	512.234985
-7424.446596	4210.008833	437.140625	618.186035
-7424.446596	4210.008833	435.873047	489.604370
-7424.446596	4210.008833	434.605469	602.090515
-7424.446596	4210.008833	433.337891	318.557373
-7424.446596	4210.008833	432.070313	486.737915
-7424.446596	4210.008833	430.801758	692.038818
-7424.446596	4210.008833	429.533203	585.756042
-7424.446596	4210.008833	428.264648	708.529236
-7424.446596	4210.008833	426.996094	674.251038
-7424.446596	4210.008833	425.726563	578.891052
-7424.446596	4210.008833	424.457031	642.263855
-7424.446596	4210.008833	423.186523	604.779724
-7424.446596	4210.008833	421.916992	700.213867
-7424.446596	4210.008833	420.646484	377.030212
-7424.446596	4210.008833	419.375977	707.741882
-7424.446596	4210.008833	418.104492	717.987793
-7424.446596	4210.008833	416.833008	499.038025
-7424.446596	4210.008833	415.561523	676.683960
-7424.446596	4210.008833	414.290039	797.857483
-7424.446596	4210.008833	413.017578	531.216309
-7424.446596	4210.008833	411.746094	490.599091
-7424.446596	4210.008833	410.472656	540.537842
-7424.446596	4210.008833	409.200195	401.147278
-7424.446596	4210.008833	407.926758	277.691406
-7424.446596	4210.008833	406.653320	328.665741
-7424.446596	4210.008833	405.379883	516.655151
-7424.446596	4210.008833	404.105469	540.982605
-7424.446596	4210.008833	402.831055	383.114655
-7424.446596	4210.008833	401.556641	574.161072
-7424.446596	4210.008833	400.282227	480.541901
-7424.446596	4210.008833	399.006836	384.100159
-7424.446596	4210.008833	397.731445	466.375458
-7424.446596	4210.008833	396.456055	352.599762
-7424.446596	4210.008833	395.179688	384.861328
-7424.446596	4210.008833	393.903320	432.810638
-7424.446596	4210.008833	392.626953	461.541382
-7424.446596	4210.008833	391.350586	464.077606
-7424.446596	4210.008833	390.073242	384.621155
-7424.446596	4210.008833	388.795898	588.077332
-7424.446596	4210.008833	387.518555	337.729431
-7424.446596	4210.008833	386.240234	363.229248
-7424.446596	4210.008833	384.961914	271.915497
-7424.446596	4210.008833	383.683594	135.823669
-7424.446596	4210.008833	382.405273	481.923645
-7424.446596	4210.008833	381.125977	358.304626
-7424.446596	4210.008833	379.846680	408.018463
-7424.446596	4210.008833	378.567383	475.504059
-7424.446596	4210.008833	377.287109	208.169525
-7424.446596	4210.008833	376.006836	420.153564
-7424.446596	4210.008833	374.726563	179.148331
-7424.446596	4210.008833	373.446289	359.260742
-7424.446596	4210.008833	372.165039	445.725586
-7424.446596	4210.008833	370.883789	250.942795
-7424.446596	4210.008833	369.602539	270.773499
-7424.446596	4210.008833	368.320313	155.344269
-7424.446596	4210.008833	367.039063	217.342133
-7424.446596	4210.008833	365.755859	315.351013
-7424.446596	4210.008833	364.473633	127.713570
-7424.446596	4210.008833	363.190430	57.149467
-7424.446596	4210.008833	361.907227	311.785370
-7424.446596	4210.008833	360.624023	206.797073
-7424.446596	4210.008833	359.340820	221.046707
-7424.446596	4210.008833	358.056641	192.579559
-7424.446596	4210.008833	356.772461	79.827065
-7424.446596	4210.008833	355.487305	67.654602
-7424.446596	4210.008833	354.202148	114.420441
-7424.446596	4210.008833	352.916992	49.141644
-7424.446596	4210.008833	351.631836	-31.143486
-7424.446596	4210.008833	350.346680	113.667557
-7424.446596	4210.008833	349.060547	-19.837044
-7424.446596	4210.008833	347.774414	101.633682
-7424.446596	4210.008833	346.487305	110.994583
-7424.446596	4210.008833	345.200195	128.283997
-7424.446596	4210.008833	343.913086	17.403864
-7424.446596	4210.008833	342.625977	170.392593
-7424.446596	4210.008833	341.338867	109.865471
-7424.446596	4210.008833	340.050781	66.369690
-7424.446596	4210.008833	338.762695	-38.433750
-7424.446596	4210.008833	337.473633	71.874611
-7424.446596	4210.008833	336.184570	-231.614960
-7424.446596	4210.008833	334.895508	-315.402832
-7424.446596	4210.008833	333.606445	-280.956421
-7424.446596	4210.008833	332.317383	-93.854668
-7424.446596	4210.008833	331.027344	-182.304352
-7424.446596	4210.008833	329.736328	348.829193
-7424.446596	4210.008833	328.446289	-30.434944
-7424.446596	4210.008833	327.155273	129.192444
-7424.446596	4210.008833	325.864258	-9.534354
-7424.446596	4210.008833	324.573242	-103.938194
-7424.446596	4210.008833	323.281250	9.038401
-7424.446596	4210.008833	321.989258	-47.538799
-7424.446596	4210.008833	320.697266	61.805286
-7424.446596	4210.008833	319.405273	-67.287537
-7424.446596	4210.008833	318.112305	-51.288792
-7424.446596	4210.008833	316.819336	24.798153
-7424.446596	4210.008833	315.526367	179.263641
-7424.446596	4210.008833	314.232422	127.414185
-7424.446596	4210.008833	312.938477	-348.529602
-7424.446596	4210.008833	311.644531	-73.944283
-7424.446596	4210.008833	310.349609	24.119722
-7424.446596	4210.008833	309.054688	-184.867401
-7424.446596	4210.008833	307.759766	28.182726
-7424.446596	4210.008833	306.464844	163.369934
-7424.446596	4210.008833	305.168945	183.976151
-7424.446596	4210.008833	303.873047	99.279251
-7424.446596	4210.008833	302.577148	344.455353
-7424.446596	4210.008833	301.281250	475.051331
-7424.446596	4210.008833	299.984375	442.949615
