#X		#Y		#Wave		#Intensity
-7389.259043	4182.342667	1999.946289	-66.807625
-7389.259043	4182.342667	1998.981445	51.346294
-7389.259043	4182.342667	1998.017578	-35.087444
-7389.259043	4182.342667	1997.052734	32.337318
-7389.259043	4182.342667	1996.088867	-187.485321
-7389.259043	4182.342667	1995.124023	-42.907051
-7389.259043	4182.342667	1994.159180	-56.726074
-7389.259043	4182.342667	1993.193359	70.772041
-7389.259043	4182.342667	1992.228516	72.113220
-7389.259043	4182.342667	1991.262695	68.652649
-7389.259043	4182.342667	1990.296875	201.461014
-7389.259043	4182.342667	1989.331055	247.753387
-7389.259043	4182.342667	1988.365234	96.246887
-7389.259043	4182.342667	1987.398438	-17.973400
-7389.259043	4182.342667	1986.432617	-75.144409
-7389.259043	4182.342667	1985.465820	85.413635
-7389.259043	4182.342667	1984.499023	1.282864
-7389.259043	4182.342667	1983.532227	-67.875740
-7389.259043	4182.342667	1982.565430	147.286423
-7389.259043	4182.342667	1981.597656	-5.677541
-7389.259043	4182.342667	1980.629883	14.433553
-7389.259043	4182.342667	1979.662109	-145.672058
-7389.259043	4182.342667	1978.694336	12.919019
-7389.259043	4182.342667	1977.726563	102.403496
-7389.259043	4182.342667	1976.758789	179.591446
-7389.259043	4182.342667	1975.790039	12.488183
-7389.259043	4182.342667	1974.821289	-154.484421
-7389.259043	4182.342667	1973.852539	-111.625435
-7389.259043	4182.342667	1972.883789	-4.589280
-7389.259043	4182.342667	1971.915039	255.366165
-7389.259043	4182.342667	1970.945313	184.871933
-7389.259043	4182.342667	1969.975586	242.648788
-7389.259043	4182.342667	1969.005859	236.362930
-7389.259043	4182.342667	1968.036133	116.762634
-7389.259043	4182.342667	1967.066406	-281.177155
-7389.259043	4182.342667	1966.096680	-63.073181
-7389.259043	4182.342667	1965.125977	-51.908970
-7389.259043	4182.342667	1964.155273	-77.656952
-7389.259043	4182.342667	1963.184570	160.068268
-7389.259043	4182.342667	1962.213867	102.335739
-7389.259043	4182.342667	1961.242188	123.400620
-7389.259043	4182.342667	1960.271484	-406.721588
-7389.259043	4182.342667	1959.299805	37.617516
-7389.259043	4182.342667	1958.328125	105.455490
-7389.259043	4182.342667	1957.356445	141.305084
-7389.259043	4182.342667	1956.384766	135.345154
-7389.259043	4182.342667	1955.412109	72.844971
-7389.259043	4182.342667	1954.439453	-41.251427
-7389.259043	4182.342667	1953.467773	-145.478439
-7389.259043	4182.342667	1952.495117	-173.503555
-7389.259043	4182.342667	1951.521484	110.455833
-7389.259043	4182.342667	1950.548828	-30.609598
-7389.259043	4182.342667	1949.575195	86.208939
-7389.259043	4182.342667	1948.601563	-84.292564
-7389.259043	4182.342667	1947.627930	88.916824
-7389.259043	4182.342667	1946.654297	372.483307
-7389.259043	4182.342667	1945.680664	128.348129
-7389.259043	4182.342667	1944.706055	73.187279
-7389.259043	4182.342667	1943.732422	32.738140
-7389.259043	4182.342667	1942.757813	139.423294
-7389.259043	4182.342667	1941.783203	282.818542
-7389.259043	4182.342667	1940.807617	36.330425
-7389.259043	4182.342667	1939.833008	-87.547348
-7389.259043	4182.342667	1938.857422	-34.968433
-7389.259043	4182.342667	1937.881836	83.705772
-7389.259043	4182.342667	1936.906250	70.012627
-7389.259043	4182.342667	1935.930664	-14.748747
-7389.259043	4182.342667	1934.955078	294.738403
-7389.259043	4182.342667	1933.978516	-132.890793
-7389.259043	4182.342667	1933.001953	41.776146
-7389.259043	4182.342667	1932.025391	3.403738
-7389.259043	4182.342667	1931.048828	165.646805
-7389.259043	4182.342667	1930.072266	-168.867142
-7389.259043	4182.342667	1929.094727	-155.965897
-7389.259043	4182.342667	1928.118164	-187.144424
-7389.259043	4182.342667	1927.140625	-191.470978
-7389.259043	4182.342667	1926.163086	-190.962173
-7389.259043	4182.342667	1925.184570	-173.400925
-7389.259043	4182.342667	1924.207031	125.130478
-7389.259043	4182.342667	1923.228516	162.051773
-7389.259043	4182.342667	1922.250000	59.655338
-7389.259043	4182.342667	1921.271484	348.022156
-7389.259043	4182.342667	1920.292969	25.725412
-7389.259043	4182.342667	1919.314453	30.646967
-7389.259043	4182.342667	1918.334961	42.825974
-7389.259043	4182.342667	1917.355469	-76.860733
-7389.259043	4182.342667	1916.375977	154.812531
-7389.259043	4182.342667	1915.396484	-145.524231
-7389.259043	4182.342667	1914.416992	71.302025
-7389.259043	4182.342667	1913.436523	166.037308
-7389.259043	4182.342667	1912.457031	75.355156
-7389.259043	4182.342667	1911.476563	21.201523
-7389.259043	4182.342667	1910.496094	-11.065615
-7389.259043	4182.342667	1909.515625	107.695663
-7389.259043	4182.342667	1908.534180	-97.716103
-7389.259043	4182.342667	1907.552734	79.334717
-7389.259043	4182.342667	1906.572266	78.446938
-7389.259043	4182.342667	1905.590820	-117.330666
-7389.259043	4182.342667	1904.608398	271.214050
-7389.259043	4182.342667	1903.626953	-41.521168
-7389.259043	4182.342667	1902.644531	23.017944
-7389.259043	4182.342667	1901.663086	-48.809582
-7389.259043	4182.342667	1900.680664	49.610809
-7389.259043	4182.342667	1899.698242	74.942879
-7389.259043	4182.342667	1898.714844	212.054993
-7389.259043	4182.342667	1897.732422	147.224854
-7389.259043	4182.342667	1896.749023	-177.788956
-7389.259043	4182.342667	1895.765625	202.115204
-7389.259043	4182.342667	1894.782227	348.501495
-7389.259043	4182.342667	1893.798828	71.984909
-7389.259043	4182.342667	1892.814453	45.701046
-7389.259043	4182.342667	1891.831055	-189.528351
-7389.259043	4182.342667	1890.846680	-126.068573
-7389.259043	4182.342667	1889.862305	-218.098633
-7389.259043	4182.342667	1888.877930	90.346176
-7389.259043	4182.342667	1887.892578	53.961685
-7389.259043	4182.342667	1886.908203	-193.593536
-7389.259043	4182.342667	1885.922852	-14.158108
-7389.259043	4182.342667	1884.937500	34.146069
-7389.259043	4182.342667	1883.952148	147.826736
-7389.259043	4182.342667	1882.965820	-44.131477
-7389.259043	4182.342667	1881.980469	42.688671
-7389.259043	4182.342667	1880.994141	-8.765055
-7389.259043	4182.342667	1880.007813	-116.020302
-7389.259043	4182.342667	1879.021484	-111.866135
-7389.259043	4182.342667	1878.035156	-173.202911
-7389.259043	4182.342667	1877.047852	-108.661629
-7389.259043	4182.342667	1876.061523	210.035385
-7389.259043	4182.342667	1875.074219	-98.530220
-7389.259043	4182.342667	1874.086914	-27.028091
-7389.259043	4182.342667	1873.098633	61.299168
-7389.259043	4182.342667	1872.111328	-312.647003
-7389.259043	4182.342667	1871.123047	-79.309006
-7389.259043	4182.342667	1870.135742	6.314561
-7389.259043	4182.342667	1869.147461	24.105251
-7389.259043	4182.342667	1868.158203	-156.464355
-7389.259043	4182.342667	1867.169922	-46.952938
-7389.259043	4182.342667	1866.180664	246.120255
-7389.259043	4182.342667	1865.192383	38.782822
-7389.259043	4182.342667	1864.203125	-110.576584
-7389.259043	4182.342667	1863.213867	13.002275
-7389.259043	4182.342667	1862.223633	-47.104778
-7389.259043	4182.342667	1861.234375	-329.422211
-7389.259043	4182.342667	1860.244141	105.316971
-7389.259043	4182.342667	1859.253906	11.186619
-7389.259043	4182.342667	1858.263672	213.851074
-7389.259043	4182.342667	1857.273438	-25.201101
-7389.259043	4182.342667	1856.282227	68.667198
-7389.259043	4182.342667	1855.291992	27.352442
-7389.259043	4182.342667	1854.300781	181.302353
-7389.259043	4182.342667	1853.309570	55.427273
-7389.259043	4182.342667	1852.317383	59.688274
-7389.259043	4182.342667	1851.326172	485.656281
-7389.259043	4182.342667	1850.333984	183.639786
-7389.259043	4182.342667	1849.342773	170.776413
-7389.259043	4182.342667	1848.350586	280.681030
-7389.259043	4182.342667	1847.357422	9.939693
-7389.259043	4182.342667	1846.365234	98.004967
-7389.259043	4182.342667	1845.372070	152.249069
-7389.259043	4182.342667	1844.379883	-202.789169
-7389.259043	4182.342667	1843.386719	-196.796387
-7389.259043	4182.342667	1842.393555	237.406204
-7389.259043	4182.342667	1841.399414	86.786781
-7389.259043	4182.342667	1840.406250	205.535141
-7389.259043	4182.342667	1839.412109	331.372284
-7389.259043	4182.342667	1838.417969	9.887508
-7389.259043	4182.342667	1837.423828	241.329269
-7389.259043	4182.342667	1836.429688	107.295631
-7389.259043	4182.342667	1835.434570	175.076630
-7389.259043	4182.342667	1834.440430	182.702789
-7389.259043	4182.342667	1833.445313	178.236099
-7389.259043	4182.342667	1832.450195	276.963562
-7389.259043	4182.342667	1831.454102	265.122223
-7389.259043	4182.342667	1830.458984	229.211884
-7389.259043	4182.342667	1829.462891	150.032349
-7389.259043	4182.342667	1828.466797	-133.170135
-7389.259043	4182.342667	1827.470703	166.696686
-7389.259043	4182.342667	1826.474609	238.486786
-7389.259043	4182.342667	1825.478516	118.306099
-7389.259043	4182.342667	1824.481445	381.764282
-7389.259043	4182.342667	1823.484375	14.510282
-7389.259043	4182.342667	1822.487305	-48.248375
-7389.259043	4182.342667	1821.490234	111.830582
-7389.259043	4182.342667	1820.493164	24.978086
-7389.259043	4182.342667	1819.495117	120.153107
-7389.259043	4182.342667	1818.498047	45.171532
-7389.259043	4182.342667	1817.500000	142.565979
-7389.259043	4182.342667	1816.500977	31.541809
-7389.259043	4182.342667	1815.502930	392.096954
-7389.259043	4182.342667	1814.504883	137.336731
-7389.259043	4182.342667	1813.505859	-31.252892
-7389.259043	4182.342667	1812.506836	-140.032013
-7389.259043	4182.342667	1811.507813	-189.033310
-7389.259043	4182.342667	1810.508789	-25.225063
-7389.259043	4182.342667	1809.508789	16.499571
-7389.259043	4182.342667	1808.508789	-1.623542
-7389.259043	4182.342667	1807.508789	185.759613
-7389.259043	4182.342667	1806.508789	327.604645
-7389.259043	4182.342667	1805.508789	366.589783
-7389.259043	4182.342667	1804.508789	274.108093
-7389.259043	4182.342667	1803.507813	81.275879
-7389.259043	4182.342667	1802.506836	15.020740
-7389.259043	4182.342667	1801.505859	-34.557190
-7389.259043	4182.342667	1800.504883	-115.207397
-7389.259043	4182.342667	1799.502930	-117.138046
-7389.259043	4182.342667	1798.501953	26.443701
-7389.259043	4182.342667	1797.500000	134.117035
-7389.259043	4182.342667	1796.498047	58.020836
-7389.259043	4182.342667	1795.496094	313.393921
-7389.259043	4182.342667	1794.493164	103.643112
-7389.259043	4182.342667	1793.491211	289.661346
-7389.259043	4182.342667	1792.488281	25.062502
-7389.259043	4182.342667	1791.485352	56.007191
-7389.259043	4182.342667	1790.482422	251.283051
-7389.259043	4182.342667	1789.478516	475.007599
-7389.259043	4182.342667	1788.475586	160.339920
-7389.259043	4182.342667	1787.471680	193.389481
-7389.259043	4182.342667	1786.467773	154.949936
-7389.259043	4182.342667	1785.463867	137.894897
-7389.259043	4182.342667	1784.459961	-19.618864
-7389.259043	4182.342667	1783.455078	186.918457
-7389.259043	4182.342667	1782.450195	205.388657
-7389.259043	4182.342667	1781.445313	238.071533
-7389.259043	4182.342667	1780.440430	54.285992
-7389.259043	4182.342667	1779.435547	-86.682289
-7389.259043	4182.342667	1778.429688	93.264191
-7389.259043	4182.342667	1777.424805	54.443707
-7389.259043	4182.342667	1776.418945	284.099487
-7389.259043	4182.342667	1775.413086	219.017944
-7389.259043	4182.342667	1774.406250	-100.262207
-7389.259043	4182.342667	1773.400391	46.028801
-7389.259043	4182.342667	1772.393555	194.583115
-7389.259043	4182.342667	1771.386719	-136.519745
-7389.259043	4182.342667	1770.379883	-54.539017
-7389.259043	4182.342667	1769.373047	103.307068
-7389.259043	4182.342667	1768.365234	284.764069
-7389.259043	4182.342667	1767.358398	-105.587273
-7389.259043	4182.342667	1766.350586	16.460394
-7389.259043	4182.342667	1765.342773	304.410614
-7389.259043	4182.342667	1764.334961	70.617447
-7389.259043	4182.342667	1763.326172	-115.732346
-7389.259043	4182.342667	1762.318359	-290.188507
-7389.259043	4182.342667	1761.309570	118.270416
-7389.259043	4182.342667	1760.300781	116.683296
-7389.259043	4182.342667	1759.291016	62.937935
-7389.259043	4182.342667	1758.282227	30.498560
-7389.259043	4182.342667	1757.272461	-243.484772
-7389.259043	4182.342667	1756.262695	396.362885
-7389.259043	4182.342667	1755.252930	198.075287
-7389.259043	4182.342667	1754.243164	-144.520874
-7389.259043	4182.342667	1753.233398	-61.159454
-7389.259043	4182.342667	1752.222656	-186.038803
-7389.259043	4182.342667	1751.211914	138.446686
-7389.259043	4182.342667	1750.201172	56.069004
-7389.259043	4182.342667	1749.190430	-71.229912
-7389.259043	4182.342667	1748.179688	-59.058910
-7389.259043	4182.342667	1747.167969	-401.417267
-7389.259043	4182.342667	1746.156250	-25.402353
-7389.259043	4182.342667	1745.144531	31.527348
-7389.259043	4182.342667	1744.132813	-95.822945
-7389.259043	4182.342667	1743.121094	-119.253494
-7389.259043	4182.342667	1742.108398	-137.998062
-7389.259043	4182.342667	1741.095703	-114.275009
-7389.259043	4182.342667	1740.083008	-83.511551
-7389.259043	4182.342667	1739.070313	-109.420052
-7389.259043	4182.342667	1738.057617	-24.466793
-7389.259043	4182.342667	1737.043945	-45.727448
-7389.259043	4182.342667	1736.030273	-345.285492
-7389.259043	4182.342667	1735.016602	-156.687286
-7389.259043	4182.342667	1734.002930	128.460266
-7389.259043	4182.342667	1732.989258	81.149879
-7389.259043	4182.342667	1731.974609	43.247181
-7389.259043	4182.342667	1730.959961	-91.264801
-7389.259043	4182.342667	1729.945313	19.227734
-7389.259043	4182.342667	1728.930664	101.391319
-7389.259043	4182.342667	1727.916016	221.173752
-7389.259043	4182.342667	1726.900391	-323.010620
-7389.259043	4182.342667	1725.885742	220.438751
-7389.259043	4182.342667	1724.870117	140.018036
-7389.259043	4182.342667	1723.853516	-60.403164
-7389.259043	4182.342667	1722.837891	-46.685135
-7389.259043	4182.342667	1721.822266	-51.811989
-7389.259043	4182.342667	1720.805664	-122.810860
-7389.259043	4182.342667	1719.789063	389.260468
-7389.259043	4182.342667	1718.772461	-81.437355
-7389.259043	4182.342667	1717.754883	54.353672
-7389.259043	4182.342667	1716.738281	133.691376
-7389.259043	4182.342667	1715.720703	429.102936
-7389.259043	4182.342667	1714.703125	264.016907
-7389.259043	4182.342667	1713.685547	359.642853
-7389.259043	4182.342667	1712.667969	250.949966
-7389.259043	4182.342667	1711.649414	320.674744
-7389.259043	4182.342667	1710.630859	167.394226
-7389.259043	4182.342667	1709.612305	389.605042
-7389.259043	4182.342667	1708.593750	487.372162
-7389.259043	4182.342667	1707.575195	714.100403
-7389.259043	4182.342667	1706.555664	429.459747
-7389.259043	4182.342667	1705.536133	541.177673
-7389.259043	4182.342667	1704.516602	486.397339
-7389.259043	4182.342667	1703.497070	326.150482
-7389.259043	4182.342667	1702.477539	524.494263
-7389.259043	4182.342667	1701.457031	570.448242
-7389.259043	4182.342667	1700.437500	391.504089
-7389.259043	4182.342667	1699.416992	238.370407
-7389.259043	4182.342667	1698.395508	408.414856
-7389.259043	4182.342667	1697.375000	159.330353
-7389.259043	4182.342667	1696.354492	214.624710
-7389.259043	4182.342667	1695.333008	377.530396
-7389.259043	4182.342667	1694.311523	231.509338
-7389.259043	4182.342667	1693.290039	153.380417
-7389.259043	4182.342667	1692.267578	138.413193
-7389.259043	4182.342667	1691.246094	343.273224
-7389.259043	4182.342667	1690.223633	28.997162
-7389.259043	4182.342667	1689.201172	-9.328060
-7389.259043	4182.342667	1688.178711	13.120342
-7389.259043	4182.342667	1687.155273	259.863892
-7389.259043	4182.342667	1686.132813	520.538818
-7389.259043	4182.342667	1685.109375	379.345917
-7389.259043	4182.342667	1684.085938	207.846634
-7389.259043	4182.342667	1683.062500	218.531799
-7389.259043	4182.342667	1682.039063	156.845245
-7389.259043	4182.342667	1681.014648	344.902283
-7389.259043	4182.342667	1679.990234	378.875763
-7389.259043	4182.342667	1678.965820	289.182251
-7389.259043	4182.342667	1677.941406	241.511673
-7389.259043	4182.342667	1676.916992	177.536453
-7389.259043	4182.342667	1675.891602	437.684418
-7389.259043	4182.342667	1674.866211	355.036560
-7389.259043	4182.342667	1673.840820	323.702850
-7389.259043	4182.342667	1672.815430	215.480606
-7389.259043	4182.342667	1671.790039	368.257111
-7389.259043	4182.342667	1670.763672	616.475830
-7389.259043	4182.342667	1669.737305	564.157288
-7389.259043	4182.342667	1668.710938	262.708130
-7389.259043	4182.342667	1667.684570	380.445374
-7389.259043	4182.342667	1666.658203	95.453506
-7389.259043	4182.342667	1665.630859	487.791321
-7389.259043	4182.342667	1664.603516	321.557343
-7389.259043	4182.342667	1663.576172	536.914185
-7389.259043	4182.342667	1662.548828	480.067413
-7389.259043	4182.342667	1661.520508	574.394348
-7389.259043	4182.342667	1660.493164	389.708405
-7389.259043	4182.342667	1659.464844	560.744080
-7389.259043	4182.342667	1658.436523	743.345825
-7389.259043	4182.342667	1657.408203	774.852112
-7389.259043	4182.342667	1656.378906	418.374634
-7389.259043	4182.342667	1655.350586	508.023590
-7389.259043	4182.342667	1654.321289	530.293335
-7389.259043	4182.342667	1653.291992	659.372070
-7389.259043	4182.342667	1652.261719	581.799316
-7389.259043	4182.342667	1651.232422	747.980042
-7389.259043	4182.342667	1650.202148	951.229065
-7389.259043	4182.342667	1649.171875	920.091919
-7389.259043	4182.342667	1648.141602	960.887512
-7389.259043	4182.342667	1647.111328	985.452332
-7389.259043	4182.342667	1646.080078	773.505615
-7389.259043	4182.342667	1645.049805	1250.186523
-7389.259043	4182.342667	1644.018555	1093.935181
-7389.259043	4182.342667	1642.987305	1220.476563
-7389.259043	4182.342667	1641.955078	874.331055
-7389.259043	4182.342667	1640.923828	1464.194092
-7389.259043	4182.342667	1639.891602	1051.011841
-7389.259043	4182.342667	1638.859375	1175.216309
-7389.259043	4182.342667	1637.827148	1290.134155
-7389.259043	4182.342667	1636.794922	1557.797363
-7389.259043	4182.342667	1635.761719	1156.561890
-7389.259043	4182.342667	1634.729492	1174.306885
-7389.259043	4182.342667	1633.696289	1388.687744
-7389.259043	4182.342667	1632.662109	1411.031128
-7389.259043	4182.342667	1631.628906	1398.715698
-7389.259043	4182.342667	1630.594727	1645.358276
-7389.259043	4182.342667	1629.561523	1374.163330
-7389.259043	4182.342667	1628.527344	1287.974121
-7389.259043	4182.342667	1627.493164	1192.603394
-7389.259043	4182.342667	1626.458008	1293.647827
-7389.259043	4182.342667	1625.423828	1207.606812
-7389.259043	4182.342667	1624.388672	1230.152100
-7389.259043	4182.342667	1623.353516	1504.377319
-7389.259043	4182.342667	1622.318359	1783.144165
-7389.259043	4182.342667	1621.282227	1775.637817
-7389.259043	4182.342667	1620.247070	1604.347290
-7389.259043	4182.342667	1619.210938	1661.536499
-7389.259043	4182.342667	1618.174805	1737.189453
-7389.259043	4182.342667	1617.137695	1937.364380
-7389.259043	4182.342667	1616.101563	1531.112793
-7389.259043	4182.342667	1615.064453	1470.827515
-7389.259043	4182.342667	1614.027344	1853.113647
-7389.259043	4182.342667	1612.990234	1693.770630
-7389.259043	4182.342667	1611.953125	1610.551025
-7389.259043	4182.342667	1610.916016	1743.921875
-7389.259043	4182.342667	1609.877930	1851.933960
-7389.259043	4182.342667	1608.839844	1750.410645
-7389.259043	4182.342667	1607.801758	2042.620361
-7389.259043	4182.342667	1606.763672	2021.731445
-7389.259043	4182.342667	1605.724609	1835.192871
-7389.259043	4182.342667	1604.685547	1952.463013
-7389.259043	4182.342667	1603.646484	1977.714355
-7389.259043	4182.342667	1602.607422	1812.109497
-7389.259043	4182.342667	1601.568359	2203.062744
-7389.259043	4182.342667	1600.528320	1913.408691
-7389.259043	4182.342667	1599.489258	1662.991943
-7389.259043	4182.342667	1598.449219	1686.171997
-7389.259043	4182.342667	1597.408203	1537.056641
-7389.259043	4182.342667	1596.368164	1762.489014
-7389.259043	4182.342667	1595.327148	1666.326294
-7389.259043	4182.342667	1594.287109	1636.848999
-7389.259043	4182.342667	1593.246094	1710.729004
-7389.259043	4182.342667	1592.204102	1975.129028
-7389.259043	4182.342667	1591.163086	1734.602661
-7389.259043	4182.342667	1590.121094	1966.864990
-7389.259043	4182.342667	1589.079102	2010.975342
-7389.259043	4182.342667	1588.037109	1906.035645
-7389.259043	4182.342667	1586.995117	2158.909668
-7389.259043	4182.342667	1585.953125	1790.420410
-7389.259043	4182.342667	1584.910156	2215.222656
-7389.259043	4182.342667	1583.867188	2076.133545
-7389.259043	4182.342667	1582.824219	1845.494873
-7389.259043	4182.342667	1581.781250	1631.035889
-7389.259043	4182.342667	1580.737305	1982.435425
-7389.259043	4182.342667	1579.693359	2010.863403
-7389.259043	4182.342667	1578.649414	1945.462891
-7389.259043	4182.342667	1577.605469	2040.375122
-7389.259043	4182.342667	1576.561523	1668.424561
-7389.259043	4182.342667	1575.516602	1662.772827
-7389.259043	4182.342667	1574.472656	1572.541992
-7389.259043	4182.342667	1573.427734	1567.021118
-7389.259043	4182.342667	1572.381836	1689.611450
-7389.259043	4182.342667	1571.336914	1563.002808
-7389.259043	4182.342667	1570.291016	1539.359985
-7389.259043	4182.342667	1569.246094	1552.358887
-7389.259043	4182.342667	1568.200195	1227.217163
-7389.259043	4182.342667	1567.153320	1425.423828
-7389.259043	4182.342667	1566.107422	1180.496338
-7389.259043	4182.342667	1565.060547	1374.185791
-7389.259043	4182.342667	1564.013672	1186.555908
-7389.259043	4182.342667	1562.966797	1067.544678
-7389.259043	4182.342667	1561.919922	1439.345825
-7389.259043	4182.342667	1560.872070	1493.871826
-7389.259043	4182.342667	1559.825195	1297.484985
-7389.259043	4182.342667	1558.777344	1260.900024
-7389.259043	4182.342667	1557.729492	1363.506592
-7389.259043	4182.342667	1556.680664	1171.996338
-7389.259043	4182.342667	1555.632813	1149.324951
-7389.259043	4182.342667	1554.583984	1154.073120
-7389.259043	4182.342667	1553.535156	1313.838867
-7389.259043	4182.342667	1552.486328	1334.630493
-7389.259043	4182.342667	1551.436523	1170.964233
-7389.259043	4182.342667	1550.387695	1057.539551
-7389.259043	4182.342667	1549.337891	1174.195190
-7389.259043	4182.342667	1548.288086	1350.060303
-7389.259043	4182.342667	1547.238281	1198.170532
-7389.259043	4182.342667	1546.187500	1283.067871
-7389.259043	4182.342667	1545.136719	1258.791382
-7389.259043	4182.342667	1544.086914	1514.393433
-7389.259043	4182.342667	1543.035156	1458.372925
-7389.259043	4182.342667	1541.984375	1623.015137
-7389.259043	4182.342667	1540.933594	1853.592651
-7389.259043	4182.342667	1539.881836	1465.903809
-7389.259043	4182.342667	1538.830078	1282.963745
-7389.259043	4182.342667	1537.778320	1106.984009
-7389.259043	4182.342667	1536.725586	1294.594971
-7389.259043	4182.342667	1535.673828	1189.236206
-7389.259043	4182.342667	1534.621094	1097.609741
-7389.259043	4182.342667	1533.568359	794.959045
-7389.259043	4182.342667	1532.515625	719.485596
-7389.259043	4182.342667	1531.461914	768.923889
-7389.259043	4182.342667	1530.409180	537.081726
-7389.259043	4182.342667	1529.355469	702.380737
-7389.259043	4182.342667	1528.301758	699.858826
-7389.259043	4182.342667	1527.247070	495.596375
-7389.259043	4182.342667	1526.193359	447.927979
-7389.259043	4182.342667	1525.138672	665.553223
-7389.259043	4182.342667	1524.083984	550.035034
-7389.259043	4182.342667	1523.029297	606.840576
-7389.259043	4182.342667	1521.974609	530.050293
-7389.259043	4182.342667	1520.918945	419.391663
-7389.259043	4182.342667	1519.863281	345.087311
-7389.259043	4182.342667	1518.807617	458.803741
-7389.259043	4182.342667	1517.751953	287.351776
-7389.259043	4182.342667	1516.696289	104.733810
-7389.259043	4182.342667	1515.639648	334.064270
-7389.259043	4182.342667	1514.583008	-119.791916
-7389.259043	4182.342667	1513.526367	154.892197
-7389.259043	4182.342667	1512.469727	2.169676
-7389.259043	4182.342667	1511.412109	48.540073
-7389.259043	4182.342667	1510.355469	135.667542
-7389.259043	4182.342667	1509.297852	177.642685
-7389.259043	4182.342667	1508.240234	45.702965
-7389.259043	4182.342667	1507.181641	-16.071665
-7389.259043	4182.342667	1506.124023	-23.523586
-7389.259043	4182.342667	1505.065430	-225.092804
-7389.259043	4182.342667	1504.006836	214.694138
-7389.259043	4182.342667	1502.948242	-192.080399
-7389.259043	4182.342667	1501.888672	-63.744289
-7389.259043	4182.342667	1500.830078	-194.847794
-7389.259043	4182.342667	1499.770508	5.802715
-7389.259043	4182.342667	1498.710938	-7.806067
-7389.259043	4182.342667	1497.650391	-309.966522
-7389.259043	4182.342667	1496.590820	-215.110489
-7389.259043	4182.342667	1495.530273	-113.442093
-7389.259043	4182.342667	1494.469727	-56.797256
-7389.259043	4182.342667	1493.409180	-142.038986
-7389.259043	4182.342667	1492.348633	257.194336
-7389.259043	4182.342667	1491.287109	-158.990768
-7389.259043	4182.342667	1490.225586	-63.739162
-7389.259043	4182.342667	1489.164063	-40.480270
-7389.259043	4182.342667	1488.102539	66.149445
-7389.259043	4182.342667	1487.041016	118.816261
-7389.259043	4182.342667	1485.978516	11.795107
-7389.259043	4182.342667	1484.916016	-18.655062
-7389.259043	4182.342667	1483.853516	-141.112122
-7389.259043	4182.342667	1482.791016	60.332355
-7389.259043	4182.342667	1481.727539	162.859909
-7389.259043	4182.342667	1480.664063	287.904877
-7389.259043	4182.342667	1479.600586	-43.167255
-7389.259043	4182.342667	1478.537109	12.403489
-7389.259043	4182.342667	1477.473633	240.966934
-7389.259043	4182.342667	1476.409180	357.302673
-7389.259043	4182.342667	1475.344727	419.803619
-7389.259043	4182.342667	1474.280273	174.837128
-7389.259043	4182.342667	1473.215820	338.340881
-7389.259043	4182.342667	1472.151367	562.598328
-7389.259043	4182.342667	1471.085938	396.680481
-7389.259043	4182.342667	1470.020508	558.303955
-7389.259043	4182.342667	1468.955078	569.439636
-7389.259043	4182.342667	1467.888672	545.295593
-7389.259043	4182.342667	1466.823242	433.632080
-7389.259043	4182.342667	1465.756836	496.423737
-7389.259043	4182.342667	1464.690430	440.820221
-7389.259043	4182.342667	1463.624023	515.671326
-7389.259043	4182.342667	1462.556641	941.537048
-7389.259043	4182.342667	1461.490234	832.838989
-7389.259043	4182.342667	1460.422852	822.634521
-7389.259043	4182.342667	1459.355469	458.871704
-7389.259043	4182.342667	1458.287109	476.144196
-7389.259043	4182.342667	1457.219727	621.198853
-7389.259043	4182.342667	1456.151367	841.465027
-7389.259043	4182.342667	1455.083008	683.519226
-7389.259043	4182.342667	1454.014648	715.646790
-7389.259043	4182.342667	1452.945313	1035.961182
-7389.259043	4182.342667	1451.876953	1178.161621
-7389.259043	4182.342667	1450.807617	795.687866
-7389.259043	4182.342667	1449.738281	698.235291
-7389.259043	4182.342667	1448.668945	646.009033
-7389.259043	4182.342667	1447.598633	676.039063
-7389.259043	4182.342667	1446.528320	980.299622
-7389.259043	4182.342667	1445.458008	730.497864
-7389.259043	4182.342667	1444.387695	351.241211
-7389.259043	4182.342667	1443.317383	674.092224
-7389.259043	4182.342667	1442.246094	660.231689
-7389.259043	4182.342667	1441.174805	790.695923
-7389.259043	4182.342667	1440.103516	715.645142
-7389.259043	4182.342667	1439.032227	415.557739
-7389.259043	4182.342667	1437.960938	251.418243
-7389.259043	4182.342667	1436.888672	399.528992
-7389.259043	4182.342667	1435.816406	406.980408
-7389.259043	4182.342667	1434.744141	6.346687
-7389.259043	4182.342667	1433.670898	-16.489407
-7389.259043	4182.342667	1432.598633	289.759460
-7389.259043	4182.342667	1431.525391	215.054184
-7389.259043	4182.342667	1430.452148	-20.249739
-7389.259043	4182.342667	1429.378906	39.376972
-7389.259043	4182.342667	1428.304688	69.387810
-7389.259043	4182.342667	1427.231445	226.287903
-7389.259043	4182.342667	1426.157227	-119.011749
-7389.259043	4182.342667	1425.083008	90.027473
-7389.259043	4182.342667	1424.007813	192.523468
-7389.259043	4182.342667	1422.933594	147.224747
-7389.259043	4182.342667	1421.858398	14.933637
-7389.259043	4182.342667	1420.783203	99.516502
-7389.259043	4182.342667	1419.708008	54.524036
-7389.259043	4182.342667	1418.631836	-86.206657
-7389.259043	4182.342667	1417.555664	143.786163
-7389.259043	4182.342667	1416.479492	301.162567
-7389.259043	4182.342667	1415.403320	30.688063
-7389.259043	4182.342667	1414.327148	115.440674
-7389.259043	4182.342667	1413.250000	72.589973
-7389.259043	4182.342667	1412.173828	265.161804
-7389.259043	4182.342667	1411.096680	-44.268188
-7389.259043	4182.342667	1410.018555	81.589233
-7389.259043	4182.342667	1408.941406	-224.930145
-7389.259043	4182.342667	1407.863281	66.603416
-7389.259043	4182.342667	1406.785156	94.777603
-7389.259043	4182.342667	1405.707031	-238.583527
-7389.259043	4182.342667	1404.628906	2.924171
-7389.259043	4182.342667	1403.549805	-89.802383
-7389.259043	4182.342667	1402.470703	1.617069
-7389.259043	4182.342667	1401.391602	217.768280
-7389.259043	4182.342667	1400.312500	26.254591
-7389.259043	4182.342667	1399.233398	-63.750378
-7389.259043	4182.342667	1398.153320	53.762070
-7389.259043	4182.342667	1397.073242	73.593567
-7389.259043	4182.342667	1395.993164	405.814209
-7389.259043	4182.342667	1394.913086	163.300766
-7389.259043	4182.342667	1393.832031	217.321991
-7389.259043	4182.342667	1392.750977	40.751404
-7389.259043	4182.342667	1391.669922	219.041901
-7389.259043	4182.342667	1390.588867	411.283081
-7389.259043	4182.342667	1389.506836	274.066345
-7389.259043	4182.342667	1388.425781	175.421127
-7389.259043	4182.342667	1387.343750	386.968048
-7389.259043	4182.342667	1386.261719	504.617126
-7389.259043	4182.342667	1385.178711	158.264832
-7389.259043	4182.342667	1384.096680	160.982773
-7389.259043	4182.342667	1383.013672	502.083710
-7389.259043	4182.342667	1381.930664	361.151093
-7389.259043	4182.342667	1380.846680	170.360977
-7389.259043	4182.342667	1379.763672	259.612427
-7389.259043	4182.342667	1378.679688	-65.587799
-7389.259043	4182.342667	1377.595703	159.083633
-7389.259043	4182.342667	1376.511719	199.944748
-7389.259043	4182.342667	1375.427734	116.983528
-7389.259043	4182.342667	1374.342773	110.810097
-7389.259043	4182.342667	1373.257813	-8.901031
-7389.259043	4182.342667	1372.172852	131.181824
-7389.259043	4182.342667	1371.087891	231.921616
-7389.259043	4182.342667	1370.001953	20.377998
-7389.259043	4182.342667	1368.916992	-39.547894
-7389.259043	4182.342667	1367.831055	213.050858
-7389.259043	4182.342667	1366.744141	25.586233
-7389.259043	4182.342667	1365.658203	210.646317
-7389.259043	4182.342667	1364.571289	-43.629047
-7389.259043	4182.342667	1363.484375	81.970917
-7389.259043	4182.342667	1362.397461	-126.095200
-7389.259043	4182.342667	1361.310547	223.838211
-7389.259043	4182.342667	1360.222656	352.300293
-7389.259043	4182.342667	1359.135742	286.930817
-7389.259043	4182.342667	1358.047852	177.489731
-7389.259043	4182.342667	1356.958984	188.211243
-7389.259043	4182.342667	1355.871094	178.285370
-7389.259043	4182.342667	1354.782227	-41.654400
-7389.259043	4182.342667	1353.693359	-121.528961
-7389.259043	4182.342667	1352.604492	129.042114
-7389.259043	4182.342667	1351.515625	-5.914306
-7389.259043	4182.342667	1350.425781	61.752716
-7389.259043	4182.342667	1349.335938	281.782104
-7389.259043	4182.342667	1348.246094	339.733948
-7389.259043	4182.342667	1347.156250	301.885071
-7389.259043	4182.342667	1346.066406	606.004578
-7389.259043	4182.342667	1344.975586	304.290558
-7389.259043	4182.342667	1343.884766	412.979645
-7389.259043	4182.342667	1342.793945	352.956055
-7389.259043	4182.342667	1341.702148	583.209229
-7389.259043	4182.342667	1340.611328	392.965881
-7389.259043	4182.342667	1339.519531	425.293335
-7389.259043	4182.342667	1338.427734	619.431641
-7389.259043	4182.342667	1337.334961	600.432861
-7389.259043	4182.342667	1336.243164	595.878784
-7389.259043	4182.342667	1335.150391	707.860596
-7389.259043	4182.342667	1334.057617	723.174683
-7389.259043	4182.342667	1332.964844	924.935730
-7389.259043	4182.342667	1331.871094	449.686493
-7389.259043	4182.342667	1330.778320	409.011749
-7389.259043	4182.342667	1329.684570	408.485870
-7389.259043	4182.342667	1328.590820	419.266205
-7389.259043	4182.342667	1327.496094	552.977722
-7389.259043	4182.342667	1326.402344	738.360962
-7389.259043	4182.342667	1325.307617	521.127563
-7389.259043	4182.342667	1324.212891	670.629761
-7389.259043	4182.342667	1323.117188	665.182434
-7389.259043	4182.342667	1322.022461	353.923737
-7389.259043	4182.342667	1320.926758	183.677338
-7389.259043	4182.342667	1319.831055	373.000244
-7389.259043	4182.342667	1318.735352	467.665314
-7389.259043	4182.342667	1317.638672	568.102844
-7389.259043	4182.342667	1316.542969	329.245331
-7389.259043	4182.342667	1315.446289	428.782257
-7389.259043	4182.342667	1314.349609	432.475372
-7389.259043	4182.342667	1313.251953	386.132172
-7389.259043	4182.342667	1312.155273	181.411270
-7389.259043	4182.342667	1311.057617	404.055237
-7389.259043	4182.342667	1309.959961	338.120575
-7389.259043	4182.342667	1308.862305	511.049988
-7389.259043	4182.342667	1307.763672	180.196152
-7389.259043	4182.342667	1306.665039	417.375122
-7389.259043	4182.342667	1305.566406	402.070618
-7389.259043	4182.342667	1304.467773	455.793671
-7389.259043	4182.342667	1303.369141	454.412750
-7389.259043	4182.342667	1302.269531	294.692993
-7389.259043	4182.342667	1301.169922	514.655090
-7389.259043	4182.342667	1300.070313	495.964508
-7389.259043	4182.342667	1298.970703	561.907532
-7389.259043	4182.342667	1297.870117	501.517181
-7389.259043	4182.342667	1296.769531	525.684998
-7389.259043	4182.342667	1295.668945	767.168091
-7389.259043	4182.342667	1294.568359	456.793915
-7389.259043	4182.342667	1293.466797	581.398315
-7389.259043	4182.342667	1292.366211	450.995056
-7389.259043	4182.342667	1291.264648	495.045593
-7389.259043	4182.342667	1290.162109	639.242737
-7389.259043	4182.342667	1289.060547	421.391022
-7389.259043	4182.342667	1287.958008	472.979492
-7389.259043	4182.342667	1286.855469	326.479340
-7389.259043	4182.342667	1285.752930	305.473846
-7389.259043	4182.342667	1284.650391	333.364624
-7389.259043	4182.342667	1283.546875	516.327759
-7389.259043	4182.342667	1282.444336	561.958191
-7389.259043	4182.342667	1281.339844	460.721252
-7389.259043	4182.342667	1280.236328	103.913773
-7389.259043	4182.342667	1279.132813	484.280243
-7389.259043	4182.342667	1278.028320	409.705933
-7389.259043	4182.342667	1276.923828	345.032684
-7389.259043	4182.342667	1275.819336	121.599579
-7389.259043	4182.342667	1274.713867	40.391647
-7389.259043	4182.342667	1273.608398	276.756439
-7389.259043	4182.342667	1272.503906	61.263988
-7389.259043	4182.342667	1271.397461	9.662082
-7389.259043	4182.342667	1270.291992	72.467049
-7389.259043	4182.342667	1269.185547	4.917511
-7389.259043	4182.342667	1268.080078	62.648243
-7389.259043	4182.342667	1266.972656	19.102797
-7389.259043	4182.342667	1265.866211	-126.587738
-7389.259043	4182.342667	1264.759766	-289.805328
-7389.259043	4182.342667	1263.652344	-78.429810
-7389.259043	4182.342667	1262.544922	-82.303528
-7389.259043	4182.342667	1261.436523	-178.458603
-7389.259043	4182.342667	1260.329102	-149.002975
-7389.259043	4182.342667	1259.220703	-69.431747
-7389.259043	4182.342667	1258.112305	-108.657707
-7389.259043	4182.342667	1257.003906	-131.824203
-7389.259043	4182.342667	1255.895508	-256.887115
-7389.259043	4182.342667	1254.786133	-184.841248
-7389.259043	4182.342667	1253.676758	-5.796799
-7389.259043	4182.342667	1252.567383	-196.047531
-7389.259043	4182.342667	1251.458008	-304.725067
-7389.259043	4182.342667	1250.347656	-173.611267
-7389.259043	4182.342667	1249.237305	-257.289063
-7389.259043	4182.342667	1248.126953	-298.413574
-7389.259043	4182.342667	1247.016602	116.776138
-7389.259043	4182.342667	1245.905273	-78.527039
-7389.259043	4182.342667	1244.793945	-229.564377
-7389.259043	4182.342667	1243.682617	-120.256607
-7389.259043	4182.342667	1242.571289	-178.338882
-7389.259043	4182.342667	1241.459961	-132.894012
-7389.259043	4182.342667	1240.347656	-226.746628
-7389.259043	4182.342667	1239.235352	-249.093170
-7389.259043	4182.342667	1238.123047	-109.133667
-7389.259043	4182.342667	1237.009766	-89.331322
-7389.259043	4182.342667	1235.897461	-110.047211
-7389.259043	4182.342667	1234.784180	-26.656183
-7389.259043	4182.342667	1233.670898	-213.190735
-7389.259043	4182.342667	1232.556641	-291.393341
-7389.259043	4182.342667	1231.443359	-135.183746
-7389.259043	4182.342667	1230.329102	-293.858612
-7389.259043	4182.342667	1229.214844	-229.557861
-7389.259043	4182.342667	1228.099609	-71.555168
-7389.259043	4182.342667	1226.985352	93.094780
-7389.259043	4182.342667	1225.870117	-274.922058
-7389.259043	4182.342667	1224.754883	-138.597290
-7389.259043	4182.342667	1223.639648	93.515572
-7389.259043	4182.342667	1222.523438	144.203476
-7389.259043	4182.342667	1221.408203	116.397972
-7389.259043	4182.342667	1220.291992	200.328094
-7389.259043	4182.342667	1219.174805	506.196198
-7389.259043	4182.342667	1218.058594	325.943542
-7389.259043	4182.342667	1216.941406	271.605835
-7389.259043	4182.342667	1215.824219	320.521484
-7389.259043	4182.342667	1214.707031	295.463165
-7389.259043	4182.342667	1213.589844	76.164467
-7389.259043	4182.342667	1212.471680	145.722977
-7389.259043	4182.342667	1211.353516	54.902847
-7389.259043	4182.342667	1210.235352	162.965042
-7389.259043	4182.342667	1209.117188	116.742767
-7389.259043	4182.342667	1207.998047	129.620743
-7389.259043	4182.342667	1206.878906	136.288895
-7389.259043	4182.342667	1205.759766	86.004295
-7389.259043	4182.342667	1204.640625	16.631393
-7389.259043	4182.342667	1203.520508	98.066643
-7389.259043	4182.342667	1202.401367	238.958252
-7389.259043	4182.342667	1201.281250	278.029541
-7389.259043	4182.342667	1200.160156	41.564930
-7389.259043	4182.342667	1199.040039	199.501694
-7389.259043	4182.342667	1197.918945	-47.530602
-7389.259043	4182.342667	1196.797852	203.843552
-7389.259043	4182.342667	1195.676758	423.400787
-7389.259043	4182.342667	1194.555664	375.193054
-7389.259043	4182.342667	1193.433594	259.544525
-7389.259043	4182.342667	1192.311523	333.223358
-7389.259043	4182.342667	1191.189453	278.101807
-7389.259043	4182.342667	1190.066406	138.613434
-7389.259043	4182.342667	1188.944336	415.338226
-7389.259043	4182.342667	1187.821289	172.874420
-7389.259043	4182.342667	1186.698242	279.298767
-7389.259043	4182.342667	1185.574219	314.109222
-7389.259043	4182.342667	1184.451172	183.184677
-7389.259043	4182.342667	1183.327148	256.404572
-7389.259043	4182.342667	1182.203125	92.841820
-7389.259043	4182.342667	1181.078125	193.918121
-7389.259043	4182.342667	1179.954102	253.334824
-7389.259043	4182.342667	1178.829102	234.436050
-7389.259043	4182.342667	1177.704102	288.236206
-7389.259043	4182.342667	1176.579102	156.707245
-7389.259043	4182.342667	1175.453125	517.309937
-7389.259043	4182.342667	1174.327148	303.257874
-7389.259043	4182.342667	1173.201172	364.280945
-7389.259043	4182.342667	1172.075195	336.591309
-7389.259043	4182.342667	1170.949219	488.354340
-7389.259043	4182.342667	1169.822266	444.895966
-7389.259043	4182.342667	1168.695313	599.215088
-7389.259043	4182.342667	1167.568359	563.437988
-7389.259043	4182.342667	1166.440430	493.015533
-7389.259043	4182.342667	1165.313477	807.766724
-7389.259043	4182.342667	1164.185547	137.517776
-7389.259043	4182.342667	1163.057617	371.162201
-7389.259043	4182.342667	1161.928711	464.162537
-7389.259043	4182.342667	1160.800781	549.318420
-7389.259043	4182.342667	1159.671875	552.114075
-7389.259043	4182.342667	1158.541992	648.671875
-7389.259043	4182.342667	1157.413086	748.703796
-7389.259043	4182.342667	1156.283203	979.809021
-7389.259043	4182.342667	1155.154297	878.404785
-7389.259043	4182.342667	1154.023438	761.314941
-7389.259043	4182.342667	1152.893555	674.146118
-7389.259043	4182.342667	1151.763672	585.770752
-7389.259043	4182.342667	1150.632813	321.662964
-7389.259043	4182.342667	1149.501953	444.236176
-7389.259043	4182.342667	1148.370117	493.493622
-7389.259043	4182.342667	1147.239258	407.808014
-7389.259043	4182.342667	1146.107422	321.055450
-7389.259043	4182.342667	1144.975586	124.229691
-7389.259043	4182.342667	1143.843750	309.144623
-7389.259043	4182.342667	1142.710938	377.852173
-7389.259043	4182.342667	1141.578125	367.244598
-7389.259043	4182.342667	1140.445313	369.444458
-7389.259043	4182.342667	1139.312500	113.298836
-7389.259043	4182.342667	1138.178711	143.765854
-7389.259043	4182.342667	1137.045898	146.529327
-7389.259043	4182.342667	1135.912109	240.576248
-7389.259043	4182.342667	1134.777344	21.202871
-7389.259043	4182.342667	1133.643555	-28.203598
-7389.259043	4182.342667	1132.508789	220.970551
-7389.259043	4182.342667	1131.374023	-32.717991
-7389.259043	4182.342667	1130.239258	25.909973
-7389.259043	4182.342667	1129.104492	-30.026867
-7389.259043	4182.342667	1127.968750	-0.920309
-7389.259043	4182.342667	1126.833008	-34.889297
-7389.259043	4182.342667	1125.697266	154.014954
-7389.259043	4182.342667	1124.560547	181.093887
-7389.259043	4182.342667	1123.424805	-63.502827
-7389.259043	4182.342667	1122.288086	-110.599602
-7389.259043	4182.342667	1121.151367	-185.385468
-7389.259043	4182.342667	1120.013672	-133.904785
-7389.259043	4182.342667	1118.876953	146.545151
-7389.259043	4182.342667	1117.739258	-2.500953
-7389.259043	4182.342667	1116.601563	168.555145
-7389.259043	4182.342667	1115.462891	1.438483
-7389.259043	4182.342667	1114.324219	225.958344
-7389.259043	4182.342667	1113.186523	-119.671478
-7389.259043	4182.342667	1112.046875	14.794898
-7389.259043	4182.342667	1110.908203	90.733910
-7389.259043	4182.342667	1109.769531	0.868587
-7389.259043	4182.342667	1108.629883	344.671783
-7389.259043	4182.342667	1107.490234	163.728455
-7389.259043	4182.342667	1106.349609	42.743835
-7389.259043	4182.342667	1105.209961	158.677597
-7389.259043	4182.342667	1104.069336	-72.780258
-7389.259043	4182.342667	1102.928711	72.787476
-7389.259043	4182.342667	1101.787109	145.029221
-7389.259043	4182.342667	1100.646484	212.391373
-7389.259043	4182.342667	1099.504883	107.350693
-7389.259043	4182.342667	1098.363281	173.504318
-7389.259043	4182.342667	1097.221680	501.527740
-7389.259043	4182.342667	1096.079102	379.944214
-7389.259043	4182.342667	1094.936523	670.095093
-7389.259043	4182.342667	1093.793945	314.204834
-7389.259043	4182.342667	1092.651367	561.595398
-7389.259043	4182.342667	1091.507813	269.590607
-7389.259043	4182.342667	1090.364258	313.944275
-7389.259043	4182.342667	1089.220703	220.232315
-7389.259043	4182.342667	1088.077148	178.686966
-7389.259043	4182.342667	1086.933594	206.134186
-7389.259043	4182.342667	1085.789063	320.469879
-7389.259043	4182.342667	1084.644531	-151.514801
-7389.259043	4182.342667	1083.499023	73.861092
-7389.259043	4182.342667	1082.354492	-11.440736
-7389.259043	4182.342667	1081.208984	112.187912
-7389.259043	4182.342667	1080.063477	-199.028030
-7389.259043	4182.342667	1078.917969	17.264830
-7389.259043	4182.342667	1077.771484	191.165207
-7389.259043	4182.342667	1076.625977	249.024017
-7389.259043	4182.342667	1075.479492	-66.115456
-7389.259043	4182.342667	1074.332031	10.103938
-7389.259043	4182.342667	1073.185547	-70.919708
-7389.259043	4182.342667	1072.038086	-16.432438
-7389.259043	4182.342667	1070.890625	110.224731
-7389.259043	4182.342667	1069.743164	93.778290
-7389.259043	4182.342667	1068.594727	46.176243
-7389.259043	4182.342667	1067.447266	-167.549973
-7389.259043	4182.342667	1066.298828	-64.771851
-7389.259043	4182.342667	1065.149414	-84.632195
-7389.259043	4182.342667	1064.000977	49.320694
-7389.259043	4182.342667	1062.851563	-18.560369
-7389.259043	4182.342667	1061.702148	-61.910851
-7389.259043	4182.342667	1060.552734	44.921570
-7389.259043	4182.342667	1059.402344	244.132614
-7389.259043	4182.342667	1058.252930	38.094425
-7389.259043	4182.342667	1057.102539	-200.658997
-7389.259043	4182.342667	1055.951172	-92.131714
-7389.259043	4182.342667	1054.800781	-68.802795
-7389.259043	4182.342667	1053.649414	122.804825
-7389.259043	4182.342667	1052.498047	96.351059
-7389.259043	4182.342667	1051.346680	40.783215
-7389.259043	4182.342667	1050.194336	-19.967005
-7389.259043	4182.342667	1049.042969	182.805450
-7389.259043	4182.342667	1047.890625	53.040077
-7389.259043	4182.342667	1046.738281	-131.343155
-7389.259043	4182.342667	1045.584961	28.444704
-7389.259043	4182.342667	1044.431641	-78.721169
-7389.259043	4182.342667	1043.278320	-12.498895
-7389.259043	4182.342667	1042.125000	94.361633
-7389.259043	4182.342667	1040.971680	142.298004
-7389.259043	4182.342667	1039.817383	299.673187
-7389.259043	4182.342667	1038.663086	158.421234
-7389.259043	4182.342667	1037.508789	157.055939
-7389.259043	4182.342667	1036.353516	-88.612602
-7389.259043	4182.342667	1035.198242	243.496307
-7389.259043	4182.342667	1034.042969	173.322281
-7389.259043	4182.342667	1032.887695	-114.281013
-7389.259043	4182.342667	1031.732422	207.751022
-7389.259043	4182.342667	1030.576172	-52.476776
-7389.259043	4182.342667	1029.419922	13.993508
-7389.259043	4182.342667	1028.263672	129.308548
-7389.259043	4182.342667	1027.106445	-34.673061
-7389.259043	4182.342667	1025.949219	-2.389706
-7389.259043	4182.342667	1024.792969	136.568100
-7389.259043	4182.342667	1023.634766	224.287186
-7389.259043	4182.342667	1022.477539	140.606918
-7389.259043	4182.342667	1021.319336	80.031105
-7389.259043	4182.342667	1020.161133	263.227112
-7389.259043	4182.342667	1019.002930	208.161942
-7389.259043	4182.342667	1017.843750	-7.597116
-7389.259043	4182.342667	1016.684570	-58.431389
-7389.259043	4182.342667	1015.525391	92.589073
-7389.259043	4182.342667	1014.366211	87.398125
-7389.259043	4182.342667	1013.207031	310.628845
-7389.259043	4182.342667	1012.046875	35.807259
-7389.259043	4182.342667	1010.886719	-22.691799
-7389.259043	4182.342667	1009.726563	-109.426643
-7389.259043	4182.342667	1008.565430	185.245819
-7389.259043	4182.342667	1007.404297	37.046291
-7389.259043	4182.342667	1006.243164	218.984818
-7389.259043	4182.342667	1005.082031	352.682831
-7389.259043	4182.342667	1003.920898	600.888672
-7389.259043	4182.342667	1002.758789	616.338989
-7389.259043	4182.342667	1001.596680	325.362152
-7389.259043	4182.342667	1000.433594	501.880310
-7389.259043	4182.342667	999.271484	707.005188
-7389.259043	4182.342667	998.108398	784.268250
-7389.259043	4182.342667	996.945313	574.474609
-7389.259043	4182.342667	995.782227	766.714355
-7389.259043	4182.342667	994.618164	419.173248
-7389.259043	4182.342667	993.454102	405.672058
-7389.259043	4182.342667	992.290039	502.222961
-7389.259043	4182.342667	991.125977	703.787170
-7389.259043	4182.342667	989.960938	804.310059
-7389.259043	4182.342667	988.796875	826.236145
-7389.259043	4182.342667	987.630859	771.867065
-7389.259043	4182.342667	986.465820	676.499634
-7389.259043	4182.342667	985.300781	928.620117
-7389.259043	4182.342667	984.134766	1027.253540
-7389.259043	4182.342667	982.968750	617.045654
-7389.259043	4182.342667	981.801758	1021.302551
-7389.259043	4182.342667	980.635742	654.115967
-7389.259043	4182.342667	979.468750	430.873596
-7389.259043	4182.342667	978.301758	489.607727
-7389.259043	4182.342667	977.133789	100.780876
-7389.259043	4182.342667	975.966797	130.215469
-7389.259043	4182.342667	974.798828	463.367188
-7389.259043	4182.342667	973.630859	327.270569
-7389.259043	4182.342667	972.461914	232.948471
-7389.259043	4182.342667	971.293945	-41.000961
-7389.259043	4182.342667	970.125000	217.379639
-7389.259043	4182.342667	968.956055	337.566345
-7389.259043	4182.342667	967.786133	157.611206
-7389.259043	4182.342667	966.617188	223.620483
-7389.259043	4182.342667	965.447266	-68.550293
-7389.259043	4182.342667	964.276367	280.507446
-7389.259043	4182.342667	963.106445	477.806427
-7389.259043	4182.342667	961.935547	323.787903
-7389.259043	4182.342667	960.764648	515.313049
-7389.259043	4182.342667	959.593750	369.106903
-7389.259043	4182.342667	958.422852	621.033264
-7389.259043	4182.342667	957.250977	398.585266
-7389.259043	4182.342667	956.079102	410.184723
-7389.259043	4182.342667	954.907227	114.711037
-7389.259043	4182.342667	953.734375	247.360428
-7389.259043	4182.342667	952.562500	132.609085
-7389.259043	4182.342667	951.389648	303.679016
-7389.259043	4182.342667	950.215820	238.818649
-7389.259043	4182.342667	949.042969	110.379402
-7389.259043	4182.342667	947.869141	112.698318
-7389.259043	4182.342667	946.695313	53.316597
-7389.259043	4182.342667	945.521484	145.265991
-7389.259043	4182.342667	944.346680	235.390930
-7389.259043	4182.342667	943.172852	14.357562
-7389.259043	4182.342667	941.998047	115.571014
-7389.259043	4182.342667	940.822266	263.521973
-7389.259043	4182.342667	939.647461	241.941147
-7389.259043	4182.342667	938.471680	40.399567
-7389.259043	4182.342667	937.295898	81.796082
-7389.259043	4182.342667	936.119141	-6.802395
-7389.259043	4182.342667	934.943359	282.602661
-7389.259043	4182.342667	933.766602	-200.744110
-7389.259043	4182.342667	932.589844	-128.191788
-7389.259043	4182.342667	931.413086	-21.915680
-7389.259043	4182.342667	930.235352	-69.620422
-7389.259043	4182.342667	929.057617	-143.783981
-7389.259043	4182.342667	927.879883	-292.530823
-7389.259043	4182.342667	926.702148	-10.657323
-7389.259043	4182.342667	925.523438	-313.393616
-7389.259043	4182.342667	924.344727	-195.172638
-7389.259043	4182.342667	923.166016	-26.523195
-7389.259043	4182.342667	921.987305	-93.515068
-7389.259043	4182.342667	920.807617	-30.714415
-7389.259043	4182.342667	919.627930	-23.954494
-7389.259043	4182.342667	919.497070	-116.178146
-7389.259043	4182.342667	918.331055	210.758148
-7389.259043	4182.342667	917.165039	-91.752960
-7389.259043	4182.342667	915.999023	-17.138725
-7389.259043	4182.342667	914.833008	-53.015854
-7389.259043	4182.342667	913.666016	-110.491631
-7389.259043	4182.342667	912.499023	-50.366035
-7389.259043	4182.342667	911.332031	-203.829987
-7389.259043	4182.342667	910.165039	-100.558807
-7389.259043	4182.342667	908.997070	-136.452805
-7389.259043	4182.342667	907.830078	-81.227493
-7389.259043	4182.342667	906.661133	-95.555550
-7389.259043	4182.342667	905.493164	-241.732117
-7389.259043	4182.342667	904.325195	-289.604797
-7389.259043	4182.342667	903.156250	45.898682
-7389.259043	4182.342667	901.987305	-114.625092
-7389.259043	4182.342667	900.818359	163.201309
-7389.259043	4182.342667	899.648438	323.573151
-7389.259043	4182.342667	898.478516	24.206198
-7389.259043	4182.342667	897.308594	151.009125
-7389.259043	4182.342667	896.138672	150.914017
-7389.259043	4182.342667	894.968750	24.003353
-7389.259043	4182.342667	893.797852	2.392253
-7389.259043	4182.342667	892.626953	19.046535
-7389.259043	4182.342667	891.456055	-169.951340
-7389.259043	4182.342667	890.284180	95.349670
-7389.259043	4182.342667	889.113281	11.564405
-7389.259043	4182.342667	887.941406	-0.499268
-7389.259043	4182.342667	886.768555	75.842644
-7389.259043	4182.342667	885.596680	-10.291077
-7389.259043	4182.342667	884.423828	-34.297691
-7389.259043	4182.342667	883.250977	63.474194
-7389.259043	4182.342667	882.078125	177.913651
-7389.259043	4182.342667	880.905273	34.528885
-7389.259043	4182.342667	879.731445	-297.311188
-7389.259043	4182.342667	878.557617	153.519455
-7389.259043	4182.342667	877.383789	5.450867
-7389.259043	4182.342667	876.209961	67.303741
-7389.259043	4182.342667	875.035156	-42.539360
-7389.259043	4182.342667	873.860352	248.145218
-7389.259043	4182.342667	872.685547	-233.495697
-7389.259043	4182.342667	871.510742	11.831264
-7389.259043	4182.342667	870.334961	68.852348
-7389.259043	4182.342667	869.159180	-98.046684
-7389.259043	4182.342667	867.983398	120.907944
-7389.259043	4182.342667	866.807617	-12.601771
-7389.259043	4182.342667	865.630859	84.847672
-7389.259043	4182.342667	864.454102	213.198654
-7389.259043	4182.342667	863.277344	94.033524
-7389.259043	4182.342667	862.100586	-115.481377
-7389.259043	4182.342667	860.922852	181.708298
-7389.259043	4182.342667	859.745117	53.121071
-7389.259043	4182.342667	858.567383	79.124435
-7389.259043	4182.342667	857.389648	-184.875061
-7389.259043	4182.342667	856.210938	164.381973
-7389.259043	4182.342667	855.032227	5.029285
-7389.259043	4182.342667	853.853516	171.194107
-7389.259043	4182.342667	852.674805	61.786839
-7389.259043	4182.342667	851.495117	21.295403
-7389.259043	4182.342667	850.315430	184.994125
-7389.259043	4182.342667	849.135742	213.336380
-7389.259043	4182.342667	847.956055	-102.429558
-7389.259043	4182.342667	846.775391	-216.382202
-7389.259043	4182.342667	845.595703	110.925247
-7389.259043	4182.342667	844.415039	146.396042
-7389.259043	4182.342667	843.233398	-29.168804
-7389.259043	4182.342667	842.052734	131.974335
-7389.259043	4182.342667	840.871094	25.230659
-7389.259043	4182.342667	839.689453	-48.289631
-7389.259043	4182.342667	838.506836	155.430603
-7389.259043	4182.342667	837.325195	29.814644
-7389.259043	4182.342667	836.142578	-31.794815
-7389.259043	4182.342667	834.959961	-3.397004
-7389.259043	4182.342667	833.777344	-211.732010
-7389.259043	4182.342667	832.593750	-256.661591
-7389.259043	4182.342667	831.410156	-180.886200
-7389.259043	4182.342667	830.226563	-315.688904
-7389.259043	4182.342667	829.042969	-41.233673
-7389.259043	4182.342667	827.858398	-43.561943
-7389.259043	4182.342667	826.673828	-95.530472
-7389.259043	4182.342667	825.489258	164.554199
-7389.259043	4182.342667	824.304688	145.664810
-7389.259043	4182.342667	823.120117	53.539734
-7389.259043	4182.342667	821.934570	-125.938698
-7389.259043	4182.342667	820.749023	-76.234718
-7389.259043	4182.342667	819.562500	-21.813633
-7389.259043	4182.342667	818.376953	-217.670441
-7389.259043	4182.342667	817.190430	-319.017059
-7389.259043	4182.342667	816.003906	-200.837372
-7389.259043	4182.342667	814.817383	-302.129333
-7389.259043	4182.342667	813.629883	16.530361
-7389.259043	4182.342667	812.442383	-207.383148
-7389.259043	4182.342667	811.254883	-75.139420
-7389.259043	4182.342667	810.067383	-272.992340
-7389.259043	4182.342667	808.878906	-169.053772
-7389.259043	4182.342667	807.690430	-69.862289
-7389.259043	4182.342667	806.501953	-69.656227
-7389.259043	4182.342667	805.313477	220.288986
-7389.259043	4182.342667	804.124023	-132.806458
-7389.259043	4182.342667	802.934570	171.182846
-7389.259043	4182.342667	801.745117	41.897434
-7389.259043	4182.342667	800.555664	291.606781
-7389.259043	4182.342667	799.365234	65.894318
-7389.259043	4182.342667	798.175781	223.754974
-7389.259043	4182.342667	796.985352	313.353821
-7389.259043	4182.342667	795.793945	120.725868
-7389.259043	4182.342667	794.603516	407.821075
-7389.259043	4182.342667	793.412109	523.208801
-7389.259043	4182.342667	792.220703	429.387360
-7389.259043	4182.342667	791.028320	516.545654
-7389.259043	4182.342667	789.836914	906.719482
-7389.259043	4182.342667	788.644531	808.204712
-7389.259043	4182.342667	787.452148	1038.491943
-7389.259043	4182.342667	786.258789	742.797241
-7389.259043	4182.342667	785.066406	573.978638
-7389.259043	4182.342667	783.873047	607.064575
-7389.259043	4182.342667	782.679688	642.486755
-7389.259043	4182.342667	781.485352	694.328674
-7389.259043	4182.342667	780.291992	255.973526
-7389.259043	4182.342667	779.097656	286.777863
-7389.259043	4182.342667	777.903320	427.761322
-7389.259043	4182.342667	776.708008	416.341248
-7389.259043	4182.342667	775.512695	51.082191
-7389.259043	4182.342667	774.318359	159.236206
-7389.259043	4182.342667	773.122070	86.995316
-7389.259043	4182.342667	771.926758	-76.551826
-7389.259043	4182.342667	770.730469	83.093796
-7389.259043	4182.342667	769.534180	-12.487696
-7389.259043	4182.342667	768.337891	16.017847
-7389.259043	4182.342667	767.141602	37.494873
-7389.259043	4182.342667	765.944336	257.825531
-7389.259043	4182.342667	764.747070	159.960983
-7389.259043	4182.342667	763.549805	148.664581
-7389.259043	4182.342667	762.351563	111.660248
-7389.259043	4182.342667	761.154297	378.545959
-7389.259043	4182.342667	759.956055	105.467148
-7389.259043	4182.342667	758.757813	124.574188
-7389.259043	4182.342667	757.558594	174.044067
-7389.259043	4182.342667	756.359375	412.677551
-7389.259043	4182.342667	755.160156	648.874634
-7389.259043	4182.342667	753.960938	324.660278
-7389.259043	4182.342667	752.761719	376.375916
-7389.259043	4182.342667	751.561523	323.059814
-7389.259043	4182.342667	750.361328	197.432617
-7389.259043	4182.342667	749.160156	36.870464
-7389.259043	4182.342667	747.959961	79.266258
-7389.259043	4182.342667	746.758789	-29.914406
-7389.259043	4182.342667	745.557617	236.269806
-7389.259043	4182.342667	744.356445	206.334091
-7389.259043	4182.342667	743.154297	223.017776
-7389.259043	4182.342667	741.952148	-25.905731
-7389.259043	4182.342667	740.750000	104.940025
-7389.259043	4182.342667	739.547852	552.437378
-7389.259043	4182.342667	738.344727	631.874512
-7389.259043	4182.342667	737.142578	1032.503662
-7389.259043	4182.342667	735.939453	1230.483765
-7389.259043	4182.342667	734.735352	1547.046631
-7389.259043	4182.342667	733.532227	1654.091064
-7389.259043	4182.342667	732.328125	1954.131226
-7389.259043	4182.342667	731.124023	1391.319580
-7389.259043	4182.342667	729.918945	1491.332642
-7389.259043	4182.342667	728.714844	1021.805786
-7389.259043	4182.342667	727.509766	833.661194
-7389.259043	4182.342667	726.303711	857.023438
-7389.259043	4182.342667	725.098633	773.498352
-7389.259043	4182.342667	723.892578	539.041443
-7389.259043	4182.342667	722.686523	771.383118
-7389.259043	4182.342667	721.480469	871.290405
-7389.259043	4182.342667	720.274414	613.702271
-7389.259043	4182.342667	719.067383	1073.254150
-7389.259043	4182.342667	717.860352	1342.352417
-7389.259043	4182.342667	716.653320	1597.402710
-7389.259043	4182.342667	715.445313	1650.575806
-7389.259043	4182.342667	714.238281	1515.897583
-7389.259043	4182.342667	713.030273	1225.948364
-7389.259043	4182.342667	711.821289	771.557495
-7389.259043	4182.342667	710.613281	711.241455
-7389.259043	4182.342667	709.404297	539.736572
-7389.259043	4182.342667	708.195313	620.742126
-7389.259043	4182.342667	706.986328	606.749756
-7389.259043	4182.342667	705.776367	305.662323
-7389.259043	4182.342667	704.566406	134.302338
-7389.259043	4182.342667	703.356445	48.614475
-7389.259043	4182.342667	702.146484	154.975113
-7389.259043	4182.342667	700.935547	-27.880871
-7389.259043	4182.342667	699.724609	22.900267
-7389.259043	4182.342667	698.513672	66.698799
-7389.259043	4182.342667	697.302734	161.309052
-7389.259043	4182.342667	696.090820	80.200180
-7389.259043	4182.342667	694.878906	304.120544
-7389.259043	4182.342667	693.666992	252.993423
-7389.259043	4182.342667	692.455078	449.007629
-7389.259043	4182.342667	691.242188	564.089294
-7389.259043	4182.342667	690.029297	681.398926
-7389.259043	4182.342667	688.816406	537.781738
-7389.259043	4182.342667	687.602539	800.386292
-7389.259043	4182.342667	686.389648	1155.140137
-7389.259043	4182.342667	685.175781	1304.399658
-7389.259043	4182.342667	683.960938	1287.504150
-7389.259043	4182.342667	682.747070	1182.951416
-7389.259043	4182.342667	681.532227	1334.316650
-7389.259043	4182.342667	680.317383	1036.114136
-7389.259043	4182.342667	679.102539	590.511230
-7389.259043	4182.342667	677.886719	525.224792
-7389.259043	4182.342667	676.670898	568.194946
-7389.259043	4182.342667	675.455078	468.321625
-7389.259043	4182.342667	674.239258	276.348358
-7389.259043	4182.342667	673.022461	296.212555
-7389.259043	4182.342667	671.805664	113.487343
-7389.259043	4182.342667	670.588867	172.416351
-7389.259043	4182.342667	669.372070	274.989258
-7389.259043	4182.342667	668.154297	168.170685
-7389.259043	4182.342667	666.936523	254.526138
-7389.259043	4182.342667	665.718750	129.279694
-7389.259043	4182.342667	664.500977	282.182770
-7389.259043	4182.342667	663.282227	253.422546
-7389.259043	4182.342667	662.063477	231.525604
-7389.259043	4182.342667	660.844727	14.329337
-7389.259043	4182.342667	659.625000	132.507126
-7389.259043	4182.342667	658.405273	367.695068
-7389.259043	4182.342667	657.185547	143.588013
-7389.259043	4182.342667	655.965820	293.656158
-7389.259043	4182.342667	654.745117	225.613785
-7389.259043	4182.342667	653.525391	228.671539
-7389.259043	4182.342667	652.303711	509.240662
-7389.259043	4182.342667	651.083008	406.649231
-7389.259043	4182.342667	649.861328	345.328064
-7389.259043	4182.342667	648.640625	435.275238
-7389.259043	4182.342667	647.417969	341.792206
-7389.259043	4182.342667	646.196289	724.902832
-7389.259043	4182.342667	644.973633	571.731018
-7389.259043	4182.342667	643.750977	633.874390
-7389.259043	4182.342667	642.528320	602.049316
-7389.259043	4182.342667	641.305664	350.397980
-7389.259043	4182.342667	640.082031	432.993713
-7389.259043	4182.342667	638.858398	359.883484
-7389.259043	4182.342667	637.634766	467.502472
-7389.259043	4182.342667	636.410156	133.535233
-7389.259043	4182.342667	635.185547	110.690994
-7389.259043	4182.342667	633.960938	295.877655
-7389.259043	4182.342667	632.736328	154.022644
-7389.259043	4182.342667	631.510742	39.603294
-7389.259043	4182.342667	630.285156	18.866205
-7389.259043	4182.342667	629.059570	276.803284
-7389.259043	4182.342667	627.833984	233.070526
-7389.259043	4182.342667	626.607422	310.334595
-7389.259043	4182.342667	625.380859	15.353993
-7389.259043	4182.342667	624.154297	81.103134
-7389.259043	4182.342667	622.927734	130.792725
-7389.259043	4182.342667	621.700195	32.095139
-7389.259043	4182.342667	620.472656	250.470322
-7389.259043	4182.342667	619.245117	318.168091
-7389.259043	4182.342667	618.016602	342.454498
-7389.259043	4182.342667	616.788086	177.449753
-7389.259043	4182.342667	615.559570	51.204540
-7389.259043	4182.342667	614.331055	145.999969
-7389.259043	4182.342667	613.101563	167.789413
-7389.259043	4182.342667	611.872070	-81.552711
-7389.259043	4182.342667	610.642578	233.938354
-7389.259043	4182.342667	609.413086	46.043785
-7389.259043	4182.342667	608.182617	-328.490234
-7389.259043	4182.342667	606.952148	45.845764
-7389.259043	4182.342667	605.721680	-153.442444
-7389.259043	4182.342667	604.491211	-27.390018
-7389.259043	4182.342667	603.259766	-12.897385
-7389.259043	4182.342667	602.028320	-5.292761
-7389.259043	4182.342667	600.796875	234.144562
-7389.259043	4182.342667	599.564453	-103.923424
-7389.259043	4182.342667	598.332031	-39.670464
-7389.259043	4182.342667	597.099609	-2.770340
-7389.259043	4182.342667	595.867188	145.360992
-7389.259043	4182.342667	594.633789	-60.917355
-7389.259043	4182.342667	593.400391	-10.591378
-7389.259043	4182.342667	592.166992	-42.071140
-7389.259043	4182.342667	590.933594	89.815353
-7389.259043	4182.342667	589.699219	112.669258
-7389.259043	4182.342667	588.464844	-91.413147
-7389.259043	4182.342667	587.230469	-172.986404
-7389.259043	4182.342667	585.995117	130.921631
-7389.259043	4182.342667	584.760742	49.216728
-7389.259043	4182.342667	583.525391	271.227783
-7389.259043	4182.342667	582.289063	148.618881
-7389.259043	4182.342667	581.053711	-75.957787
-7389.259043	4182.342667	579.817383	-85.296623
-7389.259043	4182.342667	578.581055	351.474487
-7389.259043	4182.342667	577.343750	65.686867
-7389.259043	4182.342667	576.107422	38.039921
-7389.259043	4182.342667	574.870117	-96.032524
-7389.259043	4182.342667	573.631836	111.588799
-7389.259043	4182.342667	572.394531	2.330204
-7389.259043	4182.342667	571.156250	-79.796623
-7389.259043	4182.342667	569.917969	-42.091045
-7389.259043	4182.342667	568.679688	63.369133
-7389.259043	4182.342667	567.440430	130.301651
-7389.259043	4182.342667	566.202148	-139.585464
-7389.259043	4182.342667	564.961914	-34.340923
-7389.259043	4182.342667	563.722656	-76.030556
-7389.259043	4182.342667	562.482422	-95.172516
-7389.259043	4182.342667	561.243164	106.924034
-7389.259043	4182.342667	560.001953	-106.506927
-7389.259043	4182.342667	558.761719	332.387299
-7389.259043	4182.342667	557.520508	206.896851
-7389.259043	4182.342667	556.279297	-245.726318
-7389.259043	4182.342667	555.038086	-226.788467
-7389.259043	4182.342667	553.795898	-117.707001
-7389.259043	4182.342667	552.554688	-171.058044
-7389.259043	4182.342667	551.311523	-246.981491
-7389.259043	4182.342667	550.069336	254.018814
-7389.259043	4182.342667	548.826172	-198.349594
-7389.259043	4182.342667	547.583984	-222.560928
-7389.259043	4182.342667	546.339844	194.625275
-7389.259043	4182.342667	545.096680	-61.690796
-7389.259043	4182.342667	543.852539	152.567200
-7389.259043	4182.342667	542.608398	-72.221352
-7389.259043	4182.342667	541.364258	-31.425194
-7389.259043	4182.342667	540.119141	281.531952
-7389.259043	4182.342667	538.875000	-147.977890
-7389.259043	4182.342667	537.628906	135.538834
-7389.259043	4182.342667	536.383789	290.726013
-7389.259043	4182.342667	535.137695	-174.619843
-7389.259043	4182.342667	533.892578	-39.755375
-7389.259043	4182.342667	532.645508	-57.787090
-7389.259043	4182.342667	531.399414	-48.898827
-7389.259043	4182.342667	530.152344	-100.704559
-7389.259043	4182.342667	528.905273	121.415657
-7389.259043	4182.342667	527.658203	-150.506638
-7389.259043	4182.342667	526.410156	-112.616348
-7389.259043	4182.342667	525.163086	-20.927549
-7389.259043	4182.342667	523.914063	-68.428421
-7389.259043	4182.342667	522.666016	-136.140060
-7389.259043	4182.342667	521.416992	67.487007
-7389.259043	4182.342667	520.167969	-76.548248
-7389.259043	4182.342667	518.918945	57.396915
-7389.259043	4182.342667	517.669922	5.224985
-7389.259043	4182.342667	516.419922	-91.783623
-7389.259043	4182.342667	515.169922	-38.704117
-7389.259043	4182.342667	513.919922	-70.800117
-7389.259043	4182.342667	512.668945	9.034791
-7389.259043	4182.342667	511.417969	73.117973
-7389.259043	4182.342667	510.166992	27.453293
-7389.259043	4182.342667	508.916016	-239.775726
-7389.259043	4182.342667	507.664063	-209.375061
-7389.259043	4182.342667	506.412109	-138.771500
-7389.259043	4182.342667	505.160156	-50.349987
-7389.259043	4182.342667	503.907227	221.325455
-7389.259043	4182.342667	502.655273	45.762920
-7389.259043	4182.342667	501.402344	-134.241669
-7389.259043	4182.342667	500.148438	-43.850918
-7389.259043	4182.342667	498.895508	-223.851578
-7389.259043	4182.342667	497.641602	-283.219604
-7389.259043	4182.342667	496.387695	-96.979515
-7389.259043	4182.342667	495.132813	-151.983063
-7389.259043	4182.342667	493.878906	49.672520
-7389.259043	4182.342667	492.624023	-72.381821
-7389.259043	4182.342667	491.368164	251.772964
-7389.259043	4182.342667	490.113281	455.285706
-7389.259043	4182.342667	488.857422	286.230347
-7389.259043	4182.342667	487.601563	204.150482
-7389.259043	4182.342667	486.344727	206.754181
-7389.259043	4182.342667	485.088867	153.586823
-7389.259043	4182.342667	483.832031	151.629883
-7389.259043	4182.342667	482.575195	89.467834
-7389.259043	4182.342667	481.317383	67.359047
-7389.259043	4182.342667	480.059570	216.657410
-7389.259043	4182.342667	478.801758	129.843811
-7389.259043	4182.342667	477.543945	370.191925
-7389.259043	4182.342667	476.285156	13.986943
-7389.259043	4182.342667	475.027344	276.367950
-7389.259043	4182.342667	473.767578	382.855652
-7389.259043	4182.342667	472.508789	82.263229
-7389.259043	4182.342667	471.249023	424.275269
-7389.259043	4182.342667	469.989258	370.387848
-7389.259043	4182.342667	468.729492	36.418850
-7389.259043	4182.342667	467.469727	302.434113
-7389.259043	4182.342667	466.208984	101.740829
-7389.259043	4182.342667	464.948242	180.887543
-7389.259043	4182.342667	463.686523	60.061897
-7389.259043	4182.342667	462.425781	334.358124
-7389.259043	4182.342667	461.164063	142.333801
-7389.259043	4182.342667	459.901367	185.506836
-7389.259043	4182.342667	458.639648	166.440186
-7389.259043	4182.342667	457.376953	149.487411
-7389.259043	4182.342667	456.114258	103.598885
-7389.259043	4182.342667	454.851563	312.587036
-7389.259043	4182.342667	453.587891	-43.889694
-7389.259043	4182.342667	452.324219	162.573898
-7389.259043	4182.342667	451.060547	255.815125
-7389.259043	4182.342667	449.796875	309.009003
-7389.259043	4182.342667	448.532227	324.385162
-7389.259043	4182.342667	447.267578	67.256630
-7389.259043	4182.342667	446.002930	106.735367
-7389.259043	4182.342667	444.737305	276.622314
-7389.259043	4182.342667	443.471680	280.312256
-7389.259043	4182.342667	442.206055	128.967316
-7389.259043	4182.342667	440.940430	459.702545
-7389.259043	4182.342667	439.673828	400.905396
-7389.259043	4182.342667	438.407227	315.417542
-7389.259043	4182.342667	437.140625	238.613113
-7389.259043	4182.342667	435.873047	292.022919
-7389.259043	4182.342667	434.605469	404.857513
-7389.259043	4182.342667	433.337891	298.736389
-7389.259043	4182.342667	432.070313	298.446686
-7389.259043	4182.342667	430.801758	337.664124
-7389.259043	4182.342667	429.533203	138.208115
-7389.259043	4182.342667	428.264648	234.337769
-7389.259043	4182.342667	426.996094	341.202423
-7389.259043	4182.342667	425.726563	438.921204
-7389.259043	4182.342667	424.457031	278.258484
-7389.259043	4182.342667	423.186523	307.017822
-7389.259043	4182.342667	421.916992	335.472656
-7389.259043	4182.342667	420.646484	379.029938
-7389.259043	4182.342667	419.375977	131.357986
-7389.259043	4182.342667	418.104492	222.756165
-7389.259043	4182.342667	416.833008	254.296875
-7389.259043	4182.342667	415.561523	162.144196
-7389.259043	4182.342667	414.290039	23.424833
-7389.259043	4182.342667	413.017578	320.246216
-7389.259043	4182.342667	411.746094	372.260010
-7389.259043	4182.342667	410.472656	267.598755
-7389.259043	4182.342667	409.200195	94.376755
-7389.259043	4182.342667	407.926758	351.876770
-7389.259043	4182.342667	406.653320	336.145020
-7389.259043	4182.342667	405.379883	267.196106
-7389.259043	4182.342667	404.105469	254.933167
-7389.259043	4182.342667	402.831055	532.255615
-7389.259043	4182.342667	401.556641	286.049896
-7389.259043	4182.342667	400.282227	630.301514
-7389.259043	4182.342667	399.006836	484.115234
-7389.259043	4182.342667	397.731445	387.929382
-7389.259043	4182.342667	396.456055	141.935074
-7389.259043	4182.342667	395.179688	53.447308
-7389.259043	4182.342667	393.903320	499.765411
-7389.259043	4182.342667	392.626953	401.206024
-7389.259043	4182.342667	391.350586	306.417267
-7389.259043	4182.342667	390.073242	599.092896
-7389.259043	4182.342667	388.795898	73.217682
-7389.259043	4182.342667	387.518555	197.813080
-7389.259043	4182.342667	386.240234	205.450424
-7389.259043	4182.342667	384.961914	133.442398
-7389.259043	4182.342667	383.683594	187.715088
-7389.259043	4182.342667	382.405273	276.184204
-7389.259043	4182.342667	381.125977	269.607666
-7389.259043	4182.342667	379.846680	284.053955
-7389.259043	4182.342667	378.567383	269.149841
-7389.259043	4182.342667	377.287109	58.575108
-7389.259043	4182.342667	376.006836	262.773193
-7389.259043	4182.342667	374.726563	157.529083
-7389.259043	4182.342667	373.446289	151.906342
-7389.259043	4182.342667	372.165039	-36.221737
-7389.259043	4182.342667	370.883789	229.274002
-7389.259043	4182.342667	369.602539	244.449158
-7389.259043	4182.342667	368.320313	70.576637
-7389.259043	4182.342667	367.039063	111.881142
-7389.259043	4182.342667	365.755859	-204.032196
-7389.259043	4182.342667	364.473633	125.228096
-7389.259043	4182.342667	363.190430	-11.880095
-7389.259043	4182.342667	361.907227	35.261219
-7389.259043	4182.342667	360.624023	-359.682526
-7389.259043	4182.342667	359.340820	-51.257671
-7389.259043	4182.342667	358.056641	-163.144882
-7389.259043	4182.342667	356.772461	13.553672
-7389.259043	4182.342667	355.487305	-175.403366
-7389.259043	4182.342667	354.202148	22.124323
-7389.259043	4182.342667	352.916992	-60.921810
-7389.259043	4182.342667	351.631836	22.189775
-7389.259043	4182.342667	350.346680	51.326435
-7389.259043	4182.342667	349.060547	-17.115494
-7389.259043	4182.342667	347.774414	-154.775772
-7389.259043	4182.342667	346.487305	-241.989334
-7389.259043	4182.342667	345.200195	-82.942299
-7389.259043	4182.342667	343.913086	-221.756729
-7389.259043	4182.342667	342.625977	-203.676788
-7389.259043	4182.342667	341.338867	49.433186
-7389.259043	4182.342667	340.050781	-249.754791
-7389.259043	4182.342667	338.762695	66.416679
-7389.259043	4182.342667	337.473633	86.836761
-7389.259043	4182.342667	336.184570	165.860886
-7389.259043	4182.342667	334.895508	335.978394
-7389.259043	4182.342667	333.606445	203.966568
-7389.259043	4182.342667	332.317383	136.927689
-7389.259043	4182.342667	331.027344	-342.906342
-7389.259043	4182.342667	329.736328	-39.427704
-7389.259043	4182.342667	328.446289	-14.186223
-7389.259043	4182.342667	327.155273	49.540241
-7389.259043	4182.342667	325.864258	-130.238342
-7389.259043	4182.342667	324.573242	-132.735977
-7389.259043	4182.342667	323.281250	-92.637222
-7389.259043	4182.342667	321.989258	44.224098
-7389.259043	4182.342667	320.697266	-62.520546
-7389.259043	4182.342667	319.405273	172.202301
-7389.259043	4182.342667	318.112305	65.669868
-7389.259043	4182.342667	316.819336	-210.800186
-7389.259043	4182.342667	315.526367	273.868958
-7389.259043	4182.342667	314.232422	44.815681
-7389.259043	4182.342667	312.938477	-139.991440
-7389.259043	4182.342667	311.644531	37.418232
-7389.259043	4182.342667	310.349609	76.889084
-7389.259043	4182.342667	309.054688	244.556610
-7389.259043	4182.342667	307.759766	53.710800
-7389.259043	4182.342667	306.464844	135.778671
-7389.259043	4182.342667	305.168945	-62.956497
-7389.259043	4182.342667	303.873047	365.313080
-7389.259043	4182.342667	302.577148	298.788544
-7389.259043	4182.342667	301.281250	590.899780
-7389.259043	4182.342667	299.984375	474.552979
