#X		#Y		#Wave		#Intensity
-7393.356223	4177.690833	1999.946289	-216.172256
-7393.356223	4177.690833	1998.981445	-93.349342
-7393.356223	4177.690833	1998.017578	57.017185
-7393.356223	4177.690833	1997.052734	-55.541866
-7393.356223	4177.690833	1996.088867	-2.238010
-7393.356223	4177.690833	1995.124023	-107.681702
-7393.356223	4177.690833	1994.159180	-332.154114
-7393.356223	4177.690833	1993.193359	-229.862152
-7393.356223	4177.690833	1992.228516	171.785110
-7393.356223	4177.690833	1991.262695	50.797112
-7393.356223	4177.690833	1990.296875	-45.582947
-7393.356223	4177.690833	1989.331055	-137.159042
-7393.356223	4177.690833	1988.365234	8.620328
-7393.356223	4177.690833	1987.398438	-28.882229
-7393.356223	4177.690833	1986.432617	15.065427
-7393.356223	4177.690833	1985.465820	194.804764
-7393.356223	4177.690833	1984.499023	8.422194
-7393.356223	4177.690833	1983.532227	-178.069611
-7393.356223	4177.690833	1982.565430	263.021759
-7393.356223	4177.690833	1981.597656	73.722115
-7393.356223	4177.690833	1980.629883	-58.865623
-7393.356223	4177.690833	1979.662109	166.550659
-7393.356223	4177.690833	1978.694336	139.831482
-7393.356223	4177.690833	1977.726563	152.452621
-7393.356223	4177.690833	1976.758789	-158.473358
-7393.356223	4177.690833	1975.790039	11.805063
-7393.356223	4177.690833	1974.821289	60.940861
-7393.356223	4177.690833	1973.852539	13.673596
-7393.356223	4177.690833	1972.883789	203.053421
-7393.356223	4177.690833	1971.915039	177.640259
-7393.356223	4177.690833	1970.945313	147.134201
-7393.356223	4177.690833	1969.975586	-211.404602
-7393.356223	4177.690833	1969.005859	233.556503
-7393.356223	4177.690833	1968.036133	-144.900986
-7393.356223	4177.690833	1967.066406	107.378693
-7393.356223	4177.690833	1966.096680	-79.083488
-7393.356223	4177.690833	1965.125977	249.120712
-7393.356223	4177.690833	1964.155273	104.245872
-7393.356223	4177.690833	1963.184570	331.041534
-7393.356223	4177.690833	1962.213867	-50.416538
-7393.356223	4177.690833	1961.242188	198.164093
-7393.356223	4177.690833	1960.271484	143.845520
-7393.356223	4177.690833	1959.299805	59.867290
-7393.356223	4177.690833	1958.328125	96.303299
-7393.356223	4177.690833	1957.356445	198.981277
-7393.356223	4177.690833	1956.384766	-3.419453
-7393.356223	4177.690833	1955.412109	416.078308
-7393.356223	4177.690833	1954.439453	164.261963
-7393.356223	4177.690833	1953.467773	155.698746
-7393.356223	4177.690833	1952.495117	336.184875
-7393.356223	4177.690833	1951.521484	236.409012
-7393.356223	4177.690833	1950.548828	156.193924
-7393.356223	4177.690833	1949.575195	85.686615
-7393.356223	4177.690833	1948.601563	-181.340347
-7393.356223	4177.690833	1947.627930	-188.195908
-7393.356223	4177.690833	1946.654297	50.250431
-7393.356223	4177.690833	1945.680664	87.267853
-7393.356223	4177.690833	1944.706055	23.547003
-7393.356223	4177.690833	1943.732422	-219.327850
-7393.356223	4177.690833	1942.757813	-25.705614
-7393.356223	4177.690833	1941.783203	432.538727
-7393.356223	4177.690833	1940.807617	-131.812897
-7393.356223	4177.690833	1939.833008	-245.061966
-7393.356223	4177.690833	1938.857422	298.375244
-7393.356223	4177.690833	1937.881836	64.786247
-7393.356223	4177.690833	1936.906250	-124.733612
-7393.356223	4177.690833	1935.930664	18.803518
-7393.356223	4177.690833	1934.955078	-256.569580
-7393.356223	4177.690833	1933.978516	-54.530762
-7393.356223	4177.690833	1933.001953	-356.944275
-7393.356223	4177.690833	1932.025391	-32.804714
-7393.356223	4177.690833	1931.048828	-51.469978
-7393.356223	4177.690833	1930.072266	-9.069453
-7393.356223	4177.690833	1929.094727	57.661854
-7393.356223	4177.690833	1928.118164	-83.598633
-7393.356223	4177.690833	1927.140625	85.618889
-7393.356223	4177.690833	1926.163086	2.868730
-7393.356223	4177.690833	1925.184570	-185.063065
-7393.356223	4177.690833	1924.207031	96.202797
-7393.356223	4177.690833	1923.228516	-289.776764
-7393.356223	4177.690833	1922.250000	96.246193
-7393.356223	4177.690833	1921.271484	-194.519913
-7393.356223	4177.690833	1920.292969	0.684067
-7393.356223	4177.690833	1919.314453	49.236393
-7393.356223	4177.690833	1918.334961	-388.102966
-7393.356223	4177.690833	1917.355469	67.896729
-7393.356223	4177.690833	1916.375977	-91.276909
-7393.356223	4177.690833	1915.396484	27.648867
-7393.356223	4177.690833	1914.416992	-253.588394
-7393.356223	4177.690833	1913.436523	-120.223328
-7393.356223	4177.690833	1912.457031	-162.535019
-7393.356223	4177.690833	1911.476563	138.816422
-7393.356223	4177.690833	1910.496094	135.300491
-7393.356223	4177.690833	1909.515625	97.588242
-7393.356223	4177.690833	1908.534180	50.055897
-7393.356223	4177.690833	1907.552734	-109.594490
-7393.356223	4177.690833	1906.572266	-110.930153
-7393.356223	4177.690833	1905.590820	4.532403
-7393.356223	4177.690833	1904.608398	144.213943
-7393.356223	4177.690833	1903.626953	47.664612
-7393.356223	4177.690833	1902.644531	114.129158
-7393.356223	4177.690833	1901.663086	-126.086212
-7393.356223	4177.690833	1900.680664	-47.586639
-7393.356223	4177.690833	1899.698242	145.138885
-7393.356223	4177.690833	1898.714844	23.987247
-7393.356223	4177.690833	1897.732422	-255.217361
-7393.356223	4177.690833	1896.749023	-118.688072
-7393.356223	4177.690833	1895.765625	34.740597
-7393.356223	4177.690833	1894.782227	161.315582
-7393.356223	4177.690833	1893.798828	-79.100952
-7393.356223	4177.690833	1892.814453	-270.921173
-7393.356223	4177.690833	1891.831055	-69.253937
-7393.356223	4177.690833	1890.846680	190.544266
-7393.356223	4177.690833	1889.862305	263.238708
-7393.356223	4177.690833	1888.877930	-91.378807
-7393.356223	4177.690833	1887.892578	-101.308777
-7393.356223	4177.690833	1886.908203	44.018162
-7393.356223	4177.690833	1885.922852	55.785877
-7393.356223	4177.690833	1884.937500	174.220764
-7393.356223	4177.690833	1883.952148	-25.141390
-7393.356223	4177.690833	1882.965820	-69.316994
-7393.356223	4177.690833	1881.980469	334.966797
-7393.356223	4177.690833	1880.994141	74.912796
-7393.356223	4177.690833	1880.007813	122.665512
-7393.356223	4177.690833	1879.021484	136.426651
-7393.356223	4177.690833	1878.035156	-222.922440
-7393.356223	4177.690833	1877.047852	178.292847
-7393.356223	4177.690833	1876.061523	247.572357
-7393.356223	4177.690833	1875.074219	-244.924744
-7393.356223	4177.690833	1874.086914	-35.315517
-7393.356223	4177.690833	1873.098633	203.191589
-7393.356223	4177.690833	1872.111328	187.506821
-7393.356223	4177.690833	1871.123047	-135.482529
-7393.356223	4177.690833	1870.135742	27.792103
-7393.356223	4177.690833	1869.147461	-48.475559
-7393.356223	4177.690833	1868.158203	-28.064636
-7393.356223	4177.690833	1867.169922	388.763580
-7393.356223	4177.690833	1866.180664	111.698578
-7393.356223	4177.690833	1865.192383	-225.708313
-7393.356223	4177.690833	1864.203125	384.046661
-7393.356223	4177.690833	1863.213867	53.848648
-7393.356223	4177.690833	1862.223633	-230.400162
-7393.356223	4177.690833	1861.234375	-174.101318
-7393.356223	4177.690833	1860.244141	-185.485825
-7393.356223	4177.690833	1859.253906	-59.328632
-7393.356223	4177.690833	1858.263672	-237.348358
-7393.356223	4177.690833	1857.273438	81.709007
-7393.356223	4177.690833	1856.282227	70.077339
-7393.356223	4177.690833	1855.291992	-122.480476
-7393.356223	4177.690833	1854.300781	-216.156982
-7393.356223	4177.690833	1853.309570	95.216385
-7393.356223	4177.690833	1852.317383	167.756104
-7393.356223	4177.690833	1851.326172	-77.907501
-7393.356223	4177.690833	1850.333984	21.050215
-7393.356223	4177.690833	1849.342773	50.068295
-7393.356223	4177.690833	1848.350586	40.471199
-7393.356223	4177.690833	1847.357422	276.465759
-7393.356223	4177.690833	1846.365234	322.116241
-7393.356223	4177.690833	1845.372070	114.899124
-7393.356223	4177.690833	1844.379883	-10.431760
-7393.356223	4177.690833	1843.386719	1.390934
-7393.356223	4177.690833	1842.393555	87.750877
-7393.356223	4177.690833	1841.399414	24.863543
-7393.356223	4177.690833	1840.406250	354.012299
-7393.356223	4177.690833	1839.412109	331.880127
-7393.356223	4177.690833	1838.417969	340.962128
-7393.356223	4177.690833	1837.423828	261.047180
-7393.356223	4177.690833	1836.429688	-3.948968
-7393.356223	4177.690833	1835.434570	170.825562
-7393.356223	4177.690833	1834.440430	138.886963
-7393.356223	4177.690833	1833.445313	10.812179
-7393.356223	4177.690833	1832.450195	204.543762
-7393.356223	4177.690833	1831.454102	100.396217
-7393.356223	4177.690833	1830.458984	-99.776039
-7393.356223	4177.690833	1829.462891	28.888678
-7393.356223	4177.690833	1828.466797	-27.331022
-7393.356223	4177.690833	1827.470703	5.193428
-7393.356223	4177.690833	1826.474609	-163.852768
-7393.356223	4177.690833	1825.478516	-143.415298
-7393.356223	4177.690833	1824.481445	-77.496414
-7393.356223	4177.690833	1823.484375	19.510784
-7393.356223	4177.690833	1822.487305	-394.146057
-7393.356223	4177.690833	1821.490234	392.995575
-7393.356223	4177.690833	1820.493164	63.179371
-7393.356223	4177.690833	1819.495117	167.031723
-7393.356223	4177.690833	1818.498047	285.179474
-7393.356223	4177.690833	1817.500000	123.016296
-7393.356223	4177.690833	1816.500977	226.609985
-7393.356223	4177.690833	1815.502930	-304.258087
-7393.356223	4177.690833	1814.504883	110.425026
-7393.356223	4177.690833	1813.505859	230.537308
-7393.356223	4177.690833	1812.506836	-173.423294
-7393.356223	4177.690833	1811.507813	-180.203369
-7393.356223	4177.690833	1810.508789	-79.420578
-7393.356223	4177.690833	1809.508789	18.855555
-7393.356223	4177.690833	1808.508789	-126.824120
-7393.356223	4177.690833	1807.508789	-76.506973
-7393.356223	4177.690833	1806.508789	133.845535
-7393.356223	4177.690833	1805.508789	-150.546387
-7393.356223	4177.690833	1804.508789	-117.167641
-7393.356223	4177.690833	1803.507813	11.654076
-7393.356223	4177.690833	1802.506836	-67.397270
-7393.356223	4177.690833	1801.505859	54.072311
-7393.356223	4177.690833	1800.504883	-34.636929
-7393.356223	4177.690833	1799.502930	-118.624405
-7393.356223	4177.690833	1798.501953	-95.251549
-7393.356223	4177.690833	1797.500000	-45.730404
-7393.356223	4177.690833	1796.498047	-308.773163
-7393.356223	4177.690833	1795.496094	-166.358932
-7393.356223	4177.690833	1794.493164	-71.776840
-7393.356223	4177.690833	1793.491211	-70.256920
-7393.356223	4177.690833	1792.488281	317.300720
-7393.356223	4177.690833	1791.485352	116.025917
-7393.356223	4177.690833	1790.482422	112.507980
-7393.356223	4177.690833	1789.478516	149.398819
-7393.356223	4177.690833	1788.475586	276.722931
-7393.356223	4177.690833	1787.471680	-27.100082
-7393.356223	4177.690833	1786.467773	80.995453
-7393.356223	4177.690833	1785.463867	50.913292
-7393.356223	4177.690833	1784.459961	125.482956
-7393.356223	4177.690833	1783.455078	-4.704570
-7393.356223	4177.690833	1782.450195	43.502625
-7393.356223	4177.690833	1781.445313	74.965317
-7393.356223	4177.690833	1780.440430	120.604828
-7393.356223	4177.690833	1779.435547	-47.841114
-7393.356223	4177.690833	1778.429688	171.161514
-7393.356223	4177.690833	1777.424805	-23.533211
-7393.356223	4177.690833	1776.418945	335.418610
-7393.356223	4177.690833	1775.413086	140.583481
-7393.356223	4177.690833	1774.406250	-2.022487
-7393.356223	4177.690833	1773.400391	-78.138359
-7393.356223	4177.690833	1772.393555	156.727661
-7393.356223	4177.690833	1771.386719	66.179420
-7393.356223	4177.690833	1770.379883	160.718369
-7393.356223	4177.690833	1769.373047	331.076385
-7393.356223	4177.690833	1768.365234	252.132538
-7393.356223	4177.690833	1767.358398	118.591980
-7393.356223	4177.690833	1766.350586	136.787430
-7393.356223	4177.690833	1765.342773	370.678711
-7393.356223	4177.690833	1764.334961	-92.642876
-7393.356223	4177.690833	1763.326172	124.412285
-7393.356223	4177.690833	1762.318359	187.268890
-7393.356223	4177.690833	1761.309570	50.950356
-7393.356223	4177.690833	1760.300781	165.715714
-7393.356223	4177.690833	1759.291016	161.892593
-7393.356223	4177.690833	1758.282227	247.992264
-7393.356223	4177.690833	1757.272461	16.672323
-7393.356223	4177.690833	1756.262695	424.510498
-7393.356223	4177.690833	1755.252930	98.385239
-7393.356223	4177.690833	1754.243164	408.844971
-7393.356223	4177.690833	1753.233398	160.735001
-7393.356223	4177.690833	1752.222656	279.251556
-7393.356223	4177.690833	1751.211914	-51.724457
-7393.356223	4177.690833	1750.201172	217.929626
-7393.356223	4177.690833	1749.190430	414.096222
-7393.356223	4177.690833	1748.179688	92.450775
-7393.356223	4177.690833	1747.167969	26.036791
-7393.356223	4177.690833	1746.156250	210.003220
-7393.356223	4177.690833	1745.144531	341.830170
-7393.356223	4177.690833	1744.132813	544.364990
-7393.356223	4177.690833	1743.121094	326.394470
-7393.356223	4177.690833	1742.108398	599.463684
-7393.356223	4177.690833	1741.095703	312.890076
-7393.356223	4177.690833	1740.083008	-1.994693
-7393.356223	4177.690833	1739.070313	-97.415466
-7393.356223	4177.690833	1738.057617	45.375526
-7393.356223	4177.690833	1737.043945	228.087082
-7393.356223	4177.690833	1736.030273	-30.367226
-7393.356223	4177.690833	1735.016602	88.424461
-7393.356223	4177.690833	1734.002930	166.997070
-7393.356223	4177.690833	1732.989258	-204.733582
-7393.356223	4177.690833	1731.974609	-314.879395
-7393.356223	4177.690833	1730.959961	-321.422760
-7393.356223	4177.690833	1729.945313	-28.908852
-7393.356223	4177.690833	1728.930664	-59.259655
-7393.356223	4177.690833	1727.916016	-245.110107
-7393.356223	4177.690833	1726.900391	-134.384964
-7393.356223	4177.690833	1725.885742	-80.272308
-7393.356223	4177.690833	1724.870117	-108.674316
-7393.356223	4177.690833	1723.853516	-191.308167
-7393.356223	4177.690833	1722.837891	212.957001
-7393.356223	4177.690833	1721.822266	-72.157204
-7393.356223	4177.690833	1720.805664	-79.816231
-7393.356223	4177.690833	1719.789063	-412.020935
-7393.356223	4177.690833	1718.772461	-78.980347
-7393.356223	4177.690833	1717.754883	-272.633575
-7393.356223	4177.690833	1716.738281	-118.534142
-7393.356223	4177.690833	1715.720703	-274.726349
-7393.356223	4177.690833	1714.703125	-80.991806
-7393.356223	4177.690833	1713.685547	-9.549200
-7393.356223	4177.690833	1712.667969	14.802680
-7393.356223	4177.690833	1711.649414	62.489513
-7393.356223	4177.690833	1710.630859	-185.670273
-7393.356223	4177.690833	1709.612305	-180.410950
-7393.356223	4177.690833	1708.593750	-27.453121
-7393.356223	4177.690833	1707.575195	-313.296661
-7393.356223	4177.690833	1706.555664	-94.942039
-7393.356223	4177.690833	1705.536133	-155.800781
-7393.356223	4177.690833	1704.516602	-162.823898
-7393.356223	4177.690833	1703.497070	-282.452576
-7393.356223	4177.690833	1702.477539	-52.971825
-7393.356223	4177.690833	1701.457031	117.717171
-7393.356223	4177.690833	1700.437500	-273.938049
-7393.356223	4177.690833	1699.416992	144.777359
-7393.356223	4177.690833	1698.395508	57.414207
-7393.356223	4177.690833	1697.375000	-254.741516
-7393.356223	4177.690833	1696.354492	-84.696594
-7393.356223	4177.690833	1695.333008	-38.880016
-7393.356223	4177.690833	1694.311523	51.274380
-7393.356223	4177.690833	1693.290039	253.579437
-7393.356223	4177.690833	1692.267578	193.719238
-7393.356223	4177.690833	1691.246094	161.869598
-7393.356223	4177.690833	1690.223633	293.564270
-7393.356223	4177.690833	1689.201172	219.401184
-7393.356223	4177.690833	1688.178711	245.662018
-7393.356223	4177.690833	1687.155273	542.837158
-7393.356223	4177.690833	1686.132813	416.970490
-7393.356223	4177.690833	1685.109375	475.550140
-7393.356223	4177.690833	1684.085938	461.613953
-7393.356223	4177.690833	1683.062500	543.312866
-7393.356223	4177.690833	1682.039063	253.711807
-7393.356223	4177.690833	1681.014648	666.617188
-7393.356223	4177.690833	1679.990234	423.549713
-7393.356223	4177.690833	1678.965820	691.420105
-7393.356223	4177.690833	1677.941406	714.164429
-7393.356223	4177.690833	1676.916992	1063.308716
-7393.356223	4177.690833	1675.891602	812.944336
-7393.356223	4177.690833	1674.866211	930.920349
-7393.356223	4177.690833	1673.840820	985.823486
-7393.356223	4177.690833	1672.815430	791.263794
-7393.356223	4177.690833	1671.790039	953.163757
-7393.356223	4177.690833	1670.763672	1044.995239
-7393.356223	4177.690833	1669.737305	694.184082
-7393.356223	4177.690833	1668.710938	1018.703796
-7393.356223	4177.690833	1667.684570	611.976929
-7393.356223	4177.690833	1666.658203	901.293274
-7393.356223	4177.690833	1665.630859	1020.491577
-7393.356223	4177.690833	1664.603516	858.013855
-7393.356223	4177.690833	1663.576172	1184.040649
-7393.356223	4177.690833	1662.548828	1195.861694
-7393.356223	4177.690833	1661.520508	1272.675049
-7393.356223	4177.690833	1660.493164	1491.225952
-7393.356223	4177.690833	1659.464844	1481.772705
-7393.356223	4177.690833	1658.436523	1695.353394
-7393.356223	4177.690833	1657.408203	1713.582153
-7393.356223	4177.690833	1656.378906	1573.715454
-7393.356223	4177.690833	1655.350586	1979.694458
-7393.356223	4177.690833	1654.321289	1602.796509
-7393.356223	4177.690833	1653.291992	1611.390259
-7393.356223	4177.690833	1652.261719	1775.403442
-7393.356223	4177.690833	1651.232422	2111.055664
-7393.356223	4177.690833	1650.202148	2038.064697
-7393.356223	4177.690833	1649.171875	2025.348633
-7393.356223	4177.690833	1648.141602	2177.254150
-7393.356223	4177.690833	1647.111328	2308.151611
-7393.356223	4177.690833	1646.080078	2666.128418
-7393.356223	4177.690833	1645.049805	2527.821289
-7393.356223	4177.690833	1644.018555	2574.892334
-7393.356223	4177.690833	1642.987305	2686.760498
-7393.356223	4177.690833	1641.955078	2916.645752
-7393.356223	4177.690833	1640.923828	2708.599121
-7393.356223	4177.690833	1639.891602	2690.447021
-7393.356223	4177.690833	1638.859375	2896.846191
-7393.356223	4177.690833	1637.827148	2623.872070
-7393.356223	4177.690833	1636.794922	2769.897217
-7393.356223	4177.690833	1635.761719	2978.254639
-7393.356223	4177.690833	1634.729492	2992.144531
-7393.356223	4177.690833	1633.696289	2832.443848
-7393.356223	4177.690833	1632.662109	2746.727539
-7393.356223	4177.690833	1631.628906	2885.320801
-7393.356223	4177.690833	1630.594727	3123.186279
-7393.356223	4177.690833	1629.561523	3041.949951
-7393.356223	4177.690833	1628.527344	3221.808838
-7393.356223	4177.690833	1627.493164	3406.169922
-7393.356223	4177.690833	1626.458008	3484.105469
-7393.356223	4177.690833	1625.423828	3659.006836
-7393.356223	4177.690833	1624.388672	4032.352295
-7393.356223	4177.690833	1623.353516	4377.803223
-7393.356223	4177.690833	1622.318359	4060.572021
-7393.356223	4177.690833	1621.282227	4207.280762
-7393.356223	4177.690833	1620.247070	4007.802734
-7393.356223	4177.690833	1619.210938	4458.908203
-7393.356223	4177.690833	1618.174805	4270.876465
-7393.356223	4177.690833	1617.137695	4488.727539
-7393.356223	4177.690833	1616.101563	4708.791992
-7393.356223	4177.690833	1615.064453	4765.035645
-7393.356223	4177.690833	1614.027344	4560.784668
-7393.356223	4177.690833	1612.990234	5091.656738
-7393.356223	4177.690833	1611.953125	5196.076660
-7393.356223	4177.690833	1610.916016	5249.751953
-7393.356223	4177.690833	1609.877930	5759.332520
-7393.356223	4177.690833	1608.839844	5504.249512
-7393.356223	4177.690833	1607.801758	5516.282715
-7393.356223	4177.690833	1606.763672	5355.663574
-7393.356223	4177.690833	1605.724609	5685.209473
-7393.356223	4177.690833	1604.685547	5588.966309
-7393.356223	4177.690833	1603.646484	5552.551758
-7393.356223	4177.690833	1602.607422	5941.604492
-7393.356223	4177.690833	1601.568359	5974.083008
-7393.356223	4177.690833	1600.528320	6165.133789
-7393.356223	4177.690833	1599.489258	6091.797363
-7393.356223	4177.690833	1598.449219	5800.133789
-7393.356223	4177.690833	1597.408203	5965.765625
-7393.356223	4177.690833	1596.368164	6005.015625
-7393.356223	4177.690833	1595.327148	5952.341309
-7393.356223	4177.690833	1594.287109	5665.500000
-7393.356223	4177.690833	1593.246094	5573.878418
-7393.356223	4177.690833	1592.204102	5893.130859
-7393.356223	4177.690833	1591.163086	5872.642578
-7393.356223	4177.690833	1590.121094	5877.375977
-7393.356223	4177.690833	1589.079102	5542.594238
-7393.356223	4177.690833	1588.037109	5285.932129
-7393.356223	4177.690833	1586.995117	5364.172363
-7393.356223	4177.690833	1585.953125	5575.363770
-7393.356223	4177.690833	1584.910156	5655.801270
-7393.356223	4177.690833	1583.867188	5486.411621
-7393.356223	4177.690833	1582.824219	5598.939453
-7393.356223	4177.690833	1581.781250	5454.859375
-7393.356223	4177.690833	1580.737305	5466.574707
-7393.356223	4177.690833	1579.693359	5542.423828
-7393.356223	4177.690833	1578.649414	5425.943848
-7393.356223	4177.690833	1577.605469	5476.635742
-7393.356223	4177.690833	1576.561523	5637.185547
-7393.356223	4177.690833	1575.516602	5845.723633
-7393.356223	4177.690833	1574.472656	6102.279297
-7393.356223	4177.690833	1573.427734	5711.436523
-7393.356223	4177.690833	1572.381836	5050.900391
-7393.356223	4177.690833	1571.336914	4992.007813
-7393.356223	4177.690833	1570.291016	4773.128906
-7393.356223	4177.690833	1569.246094	4654.967773
-7393.356223	4177.690833	1568.200195	4130.124512
-7393.356223	4177.690833	1567.153320	3674.034424
-7393.356223	4177.690833	1566.107422	3702.437256
-7393.356223	4177.690833	1565.060547	3813.058105
-7393.356223	4177.690833	1564.013672	3503.562500
-7393.356223	4177.690833	1562.966797	3324.358643
-7393.356223	4177.690833	1561.919922	3323.303711
-7393.356223	4177.690833	1560.872070	2957.161865
-7393.356223	4177.690833	1559.825195	3120.550781
-7393.356223	4177.690833	1558.777344	3181.255127
-7393.356223	4177.690833	1557.729492	2824.655029
-7393.356223	4177.690833	1556.680664	2803.397949
-7393.356223	4177.690833	1555.632813	2645.463623
-7393.356223	4177.690833	1554.583984	2597.028564
-7393.356223	4177.690833	1553.535156	2617.042480
-7393.356223	4177.690833	1552.486328	2532.311768
-7393.356223	4177.690833	1551.436523	2367.933594
-7393.356223	4177.690833	1550.387695	2369.969482
-7393.356223	4177.690833	1549.337891	1873.397095
-7393.356223	4177.690833	1548.288086	1789.142212
-7393.356223	4177.690833	1547.238281	2005.441284
-7393.356223	4177.690833	1546.187500	2208.052002
-7393.356223	4177.690833	1545.136719	1803.192993
-7393.356223	4177.690833	1544.086914	1682.946045
-7393.356223	4177.690833	1543.035156	1387.655396
-7393.356223	4177.690833	1541.984375	1906.629028
-7393.356223	4177.690833	1540.933594	1495.675415
-7393.356223	4177.690833	1539.881836	1487.252075
-7393.356223	4177.690833	1538.830078	1553.917114
-7393.356223	4177.690833	1537.778320	1725.168457
-7393.356223	4177.690833	1536.725586	1564.764526
-7393.356223	4177.690833	1535.673828	1390.924438
-7393.356223	4177.690833	1534.621094	1183.167358
-7393.356223	4177.690833	1533.568359	1590.832031
-7393.356223	4177.690833	1532.515625	1494.541504
-7393.356223	4177.690833	1531.461914	1446.023438
-7393.356223	4177.690833	1530.409180	1756.151978
-7393.356223	4177.690833	1529.355469	1394.771729
-7393.356223	4177.690833	1528.301758	1641.474731
-7393.356223	4177.690833	1527.247070	1541.231567
-7393.356223	4177.690833	1526.193359	1708.684692
-7393.356223	4177.690833	1525.138672	1688.035278
-7393.356223	4177.690833	1524.083984	1266.386719
-7393.356223	4177.690833	1523.029297	1459.053101
-7393.356223	4177.690833	1521.974609	874.762756
-7393.356223	4177.690833	1520.918945	818.514282
-7393.356223	4177.690833	1519.863281	173.664413
-7393.356223	4177.690833	1518.807617	194.804703
-7393.356223	4177.690833	1517.751953	426.577484
-7393.356223	4177.690833	1516.696289	40.570404
-7393.356223	4177.690833	1515.639648	-505.822815
-7393.356223	4177.690833	1514.583008	-395.832092
-7393.356223	4177.690833	1513.526367	159.817719
-7393.356223	4177.690833	1512.469727	127.452499
-7393.356223	4177.690833	1511.412109	644.595398
-7393.356223	4177.690833	1510.355469	153.568573
-7393.356223	4177.690833	1509.297852	356.658905
-7393.356223	4177.690833	1508.240234	609.526306
-7393.356223	4177.690833	1507.181641	164.366287
-7393.356223	4177.690833	1506.124023	-45.547062
-7393.356223	4177.690833	1505.065430	42.828236
-7393.356223	4177.690833	1504.006836	43.272499
-7393.356223	4177.690833	1502.948242	68.697479
-7393.356223	4177.690833	1501.888672	453.080719
-7393.356223	4177.690833	1500.830078	253.093109
-7393.356223	4177.690833	1499.770508	166.121918
-7393.356223	4177.690833	1498.710938	253.013016
-7393.356223	4177.690833	1497.650391	297.166443
-7393.356223	4177.690833	1496.590820	210.724411
-7393.356223	4177.690833	1495.530273	212.376221
-7393.356223	4177.690833	1494.469727	380.963135
-7393.356223	4177.690833	1493.409180	400.939819
-7393.356223	4177.690833	1492.348633	475.151489
-7393.356223	4177.690833	1491.287109	-20.360273
-7393.356223	4177.690833	1490.225586	-20.083002
-7393.356223	4177.690833	1489.164063	619.777710
-7393.356223	4177.690833	1488.102539	665.301453
-7393.356223	4177.690833	1487.041016	402.661469
-7393.356223	4177.690833	1485.978516	43.533028
-7393.356223	4177.690833	1484.916016	366.611237
-7393.356223	4177.690833	1483.853516	538.584961
-7393.356223	4177.690833	1482.791016	351.139160
-7393.356223	4177.690833	1481.727539	-4.655717
-7393.356223	4177.690833	1480.664063	-265.667816
-7393.356223	4177.690833	1479.600586	114.115868
-7393.356223	4177.690833	1478.537109	8.684973
-7393.356223	4177.690833	1477.473633	-69.588135
-7393.356223	4177.690833	1476.409180	-44.350906
-7393.356223	4177.690833	1475.344727	-348.859222
-7393.356223	4177.690833	1474.280273	148.126480
-7393.356223	4177.690833	1473.215820	396.248047
-7393.356223	4177.690833	1472.151367	-55.372208
-7393.356223	4177.690833	1471.085938	-455.224609
-7393.356223	4177.690833	1470.020508	-276.194946
-7393.356223	4177.690833	1468.955078	73.807800
-7393.356223	4177.690833	1467.888672	-22.932716
-7393.356223	4177.690833	1466.823242	-221.378601
-7393.356223	4177.690833	1465.756836	-435.576782
-7393.356223	4177.690833	1464.690430	82.507729
-7393.356223	4177.690833	1463.624023	175.391663
-7393.356223	4177.690833	1462.556641	33.218998
-7393.356223	4177.690833	1461.490234	-339.654175
-7393.356223	4177.690833	1460.422852	99.180267
-7393.356223	4177.690833	1459.355469	103.537498
-7393.356223	4177.690833	1458.287109	64.609116
-7393.356223	4177.690833	1457.219727	400.519043
-7393.356223	4177.690833	1456.151367	131.790268
-7393.356223	4177.690833	1455.083008	-91.403557
-7393.356223	4177.690833	1454.014648	30.075226
-7393.356223	4177.690833	1452.945313	76.516830
-7393.356223	4177.690833	1451.876953	331.054718
-7393.356223	4177.690833	1450.807617	466.471680
-7393.356223	4177.690833	1449.738281	-52.208168
-7393.356223	4177.690833	1448.668945	348.898804
-7393.356223	4177.690833	1447.598633	412.224426
-7393.356223	4177.690833	1446.528320	516.077209
-7393.356223	4177.690833	1445.458008	307.657196
-7393.356223	4177.690833	1444.387695	433.910461
-7393.356223	4177.690833	1443.317383	502.904114
-7393.356223	4177.690833	1442.246094	359.629669
-7393.356223	4177.690833	1441.174805	735.031128
-7393.356223	4177.690833	1440.103516	923.921692
-7393.356223	4177.690833	1439.032227	387.848877
-7393.356223	4177.690833	1437.960938	688.715759
-7393.356223	4177.690833	1436.888672	471.674866
-7393.356223	4177.690833	1435.816406	379.176910
-7393.356223	4177.690833	1434.744141	359.445129
-7393.356223	4177.690833	1433.670898	282.042877
-7393.356223	4177.690833	1432.598633	726.224243
-7393.356223	4177.690833	1431.525391	302.631287
-7393.356223	4177.690833	1430.452148	320.443817
-7393.356223	4177.690833	1429.378906	343.326447
-7393.356223	4177.690833	1428.304688	624.788879
-7393.356223	4177.690833	1427.231445	624.950012
-7393.356223	4177.690833	1426.157227	780.754761
-7393.356223	4177.690833	1425.083008	592.323303
-7393.356223	4177.690833	1424.007813	898.513733
-7393.356223	4177.690833	1422.933594	776.208740
-7393.356223	4177.690833	1421.858398	990.562012
-7393.356223	4177.690833	1420.783203	1052.739502
-7393.356223	4177.690833	1419.708008	912.940796
-7393.356223	4177.690833	1418.631836	837.505493
-7393.356223	4177.690833	1417.555664	810.923157
-7393.356223	4177.690833	1416.479492	767.982971
-7393.356223	4177.690833	1415.403320	920.271118
-7393.356223	4177.690833	1414.327148	688.127747
-7393.356223	4177.690833	1413.250000	1072.061523
-7393.356223	4177.690833	1412.173828	932.336975
-7393.356223	4177.690833	1411.096680	661.592651
-7393.356223	4177.690833	1410.018555	864.770874
-7393.356223	4177.690833	1408.941406	646.193176
-7393.356223	4177.690833	1407.863281	716.171448
-7393.356223	4177.690833	1406.785156	607.856628
-7393.356223	4177.690833	1405.707031	824.330688
-7393.356223	4177.690833	1404.628906	908.652344
-7393.356223	4177.690833	1403.549805	386.882965
-7393.356223	4177.690833	1402.470703	310.000641
-7393.356223	4177.690833	1401.391602	170.852951
-7393.356223	4177.690833	1400.312500	596.721069
-7393.356223	4177.690833	1399.233398	707.136108
-7393.356223	4177.690833	1398.153320	465.332520
-7393.356223	4177.690833	1397.073242	334.220581
-7393.356223	4177.690833	1395.993164	621.436890
-7393.356223	4177.690833	1394.913086	899.563354
-7393.356223	4177.690833	1393.832031	882.729553
-7393.356223	4177.690833	1392.750977	863.872375
-7393.356223	4177.690833	1391.669922	746.889832
-7393.356223	4177.690833	1390.588867	617.910706
-7393.356223	4177.690833	1389.506836	1184.561523
-7393.356223	4177.690833	1388.425781	1564.869629
-7393.356223	4177.690833	1387.343750	938.510681
-7393.356223	4177.690833	1386.261719	1030.982300
-7393.356223	4177.690833	1385.178711	721.974609
-7393.356223	4177.690833	1384.096680	1433.708130
-7393.356223	4177.690833	1383.013672	1491.942383
-7393.356223	4177.690833	1381.930664	1323.166260
-7393.356223	4177.690833	1380.846680	1540.453247
-7393.356223	4177.690833	1379.763672	2024.830811
-7393.356223	4177.690833	1378.679688	1618.095337
-7393.356223	4177.690833	1377.595703	1902.945435
-7393.356223	4177.690833	1376.511719	1862.521362
-7393.356223	4177.690833	1375.427734	1641.256104
-7393.356223	4177.690833	1374.342773	1773.560303
-7393.356223	4177.690833	1373.257813	2149.358643
-7393.356223	4177.690833	1372.172852	1875.966431
-7393.356223	4177.690833	1371.087891	2443.687988
-7393.356223	4177.690833	1370.001953	1838.513184
-7393.356223	4177.690833	1368.916992	1554.741699
-7393.356223	4177.690833	1367.831055	1739.213379
-7393.356223	4177.690833	1366.744141	1939.095947
-7393.356223	4177.690833	1365.658203	2110.340576
-7393.356223	4177.690833	1364.571289	1322.858154
-7393.356223	4177.690833	1363.484375	1579.770386
-7393.356223	4177.690833	1362.397461	1432.076294
-7393.356223	4177.690833	1361.310547	2201.435303
-7393.356223	4177.690833	1360.222656	1772.932495
-7393.356223	4177.690833	1359.135742	1749.531738
-7393.356223	4177.690833	1358.047852	1828.123413
-7393.356223	4177.690833	1356.958984	1925.761841
-7393.356223	4177.690833	1355.871094	2183.409424
-7393.356223	4177.690833	1354.782227	2598.180664
-7393.356223	4177.690833	1353.693359	2303.815430
-7393.356223	4177.690833	1352.604492	2430.281738
-7393.356223	4177.690833	1351.515625	2749.765869
-7393.356223	4177.690833	1350.425781	2781.233887
-7393.356223	4177.690833	1349.335938	3074.413574
-7393.356223	4177.690833	1348.246094	3251.659180
-7393.356223	4177.690833	1347.156250	2753.813232
-7393.356223	4177.690833	1346.066406	2826.886475
-7393.356223	4177.690833	1344.975586	2809.669922
-7393.356223	4177.690833	1343.884766	3104.687012
-7393.356223	4177.690833	1342.793945	3151.948242
-7393.356223	4177.690833	1341.702148	2633.112549
-7393.356223	4177.690833	1340.611328	2967.940674
-7393.356223	4177.690833	1339.519531	2903.114990
-7393.356223	4177.690833	1338.427734	2631.173584
-7393.356223	4177.690833	1337.334961	2659.724854
-7393.356223	4177.690833	1336.243164	2500.989258
-7393.356223	4177.690833	1335.150391	2210.920166
-7393.356223	4177.690833	1334.057617	2097.738037
-7393.356223	4177.690833	1332.964844	1980.469116
-7393.356223	4177.690833	1331.871094	1947.144775
-7393.356223	4177.690833	1330.778320	1761.783813
-7393.356223	4177.690833	1329.684570	1723.728271
-7393.356223	4177.690833	1328.590820	1796.865723
-7393.356223	4177.690833	1327.496094	1590.361328
-7393.356223	4177.690833	1326.402344	1460.079712
-7393.356223	4177.690833	1325.307617	1910.473877
-7393.356223	4177.690833	1324.212891	1798.004761
-7393.356223	4177.690833	1323.117188	1973.861572
-7393.356223	4177.690833	1322.022461	2273.469971
-7393.356223	4177.690833	1320.926758	2498.678711
-7393.356223	4177.690833	1319.831055	2613.151123
-7393.356223	4177.690833	1318.735352	2847.557617
-7393.356223	4177.690833	1317.638672	2535.470947
-7393.356223	4177.690833	1316.542969	2880.689697
-7393.356223	4177.690833	1315.446289	2823.076660
-7393.356223	4177.690833	1314.349609	3172.297607
-7393.356223	4177.690833	1313.251953	3321.066406
-7393.356223	4177.690833	1312.155273	3241.767090
-7393.356223	4177.690833	1311.057617	3037.801758
-7393.356223	4177.690833	1309.959961	3314.367432
-7393.356223	4177.690833	1308.862305	3652.301758
-7393.356223	4177.690833	1307.763672	3834.441162
-7393.356223	4177.690833	1306.665039	4083.750732
-7393.356223	4177.690833	1305.566406	3861.412598
-7393.356223	4177.690833	1304.467773	3831.975830
-7393.356223	4177.690833	1303.369141	3846.204346
-7393.356223	4177.690833	1302.269531	3787.543701
-7393.356223	4177.690833	1301.169922	3331.513672
-7393.356223	4177.690833	1300.070313	3293.034180
-7393.356223	4177.690833	1298.970703	2980.779297
-7393.356223	4177.690833	1297.870117	2851.519531
-7393.356223	4177.690833	1296.769531	2939.551270
-7393.356223	4177.690833	1295.668945	2927.036621
-7393.356223	4177.690833	1294.568359	2395.403564
-7393.356223	4177.690833	1293.466797	2432.168945
-7393.356223	4177.690833	1292.366211	2367.105469
-7393.356223	4177.690833	1291.264648	2620.319824
-7393.356223	4177.690833	1290.162109	2661.353760
-7393.356223	4177.690833	1289.060547	2785.450928
-7393.356223	4177.690833	1287.958008	2231.145508
-7393.356223	4177.690833	1286.855469	2376.403320
-7393.356223	4177.690833	1285.752930	2314.871582
-7393.356223	4177.690833	1284.650391	2244.293945
-7393.356223	4177.690833	1283.546875	2192.802246
-7393.356223	4177.690833	1282.444336	2182.986572
-7393.356223	4177.690833	1281.339844	1961.012207
-7393.356223	4177.690833	1280.236328	1755.416626
-7393.356223	4177.690833	1279.132813	2059.464600
-7393.356223	4177.690833	1278.028320	1673.722290
-7393.356223	4177.690833	1276.923828	2103.678223
-7393.356223	4177.690833	1275.819336	1718.685791
-7393.356223	4177.690833	1274.713867	2185.080811
-7393.356223	4177.690833	1273.608398	1832.332397
-7393.356223	4177.690833	1272.503906	1856.123413
-7393.356223	4177.690833	1271.397461	1775.993652
-7393.356223	4177.690833	1270.291992	1319.809448
-7393.356223	4177.690833	1269.185547	1625.217896
-7393.356223	4177.690833	1268.080078	1380.497192
-7393.356223	4177.690833	1266.972656	1381.406860
-7393.356223	4177.690833	1265.866211	1396.749390
-7393.356223	4177.690833	1264.759766	1436.486328
-7393.356223	4177.690833	1263.652344	1216.973755
-7393.356223	4177.690833	1262.544922	1511.320313
-7393.356223	4177.690833	1261.436523	1501.058105
-7393.356223	4177.690833	1260.329102	1612.897461
-7393.356223	4177.690833	1259.220703	1610.249023
-7393.356223	4177.690833	1258.112305	1528.697144
-7393.356223	4177.690833	1257.003906	1739.177124
-7393.356223	4177.690833	1255.895508	1777.573730
-7393.356223	4177.690833	1254.786133	1500.642090
-7393.356223	4177.690833	1253.676758	1262.825928
-7393.356223	4177.690833	1252.567383	1050.060425
-7393.356223	4177.690833	1251.458008	974.730286
-7393.356223	4177.690833	1250.347656	803.126099
-7393.356223	4177.690833	1249.237305	742.089661
-7393.356223	4177.690833	1248.126953	878.419556
-7393.356223	4177.690833	1247.016602	846.308838
-7393.356223	4177.690833	1245.905273	708.521301
-7393.356223	4177.690833	1244.793945	901.351379
-7393.356223	4177.690833	1243.682617	671.757813
-7393.356223	4177.690833	1242.571289	886.586060
-7393.356223	4177.690833	1241.459961	973.076172
-7393.356223	4177.690833	1240.347656	1134.624878
-7393.356223	4177.690833	1239.235352	1050.284180
-7393.356223	4177.690833	1238.123047	1064.083130
-7393.356223	4177.690833	1237.009766	1284.848511
-7393.356223	4177.690833	1235.897461	1266.158569
-7393.356223	4177.690833	1234.784180	1531.094604
-7393.356223	4177.690833	1233.670898	1177.630493
-7393.356223	4177.690833	1232.556641	1122.370117
-7393.356223	4177.690833	1231.443359	1153.415161
-7393.356223	4177.690833	1230.329102	1098.409668
-7393.356223	4177.690833	1229.214844	821.624084
-7393.356223	4177.690833	1228.099609	825.983032
-7393.356223	4177.690833	1226.985352	966.747803
-7393.356223	4177.690833	1225.870117	526.742676
-7393.356223	4177.690833	1224.754883	235.866608
-7393.356223	4177.690833	1223.639648	162.848007
-7393.356223	4177.690833	1222.523438	61.955338
-7393.356223	4177.690833	1221.408203	119.832565
-7393.356223	4177.690833	1220.291992	108.265030
-7393.356223	4177.690833	1219.174805	255.731094
-7393.356223	4177.690833	1218.058594	80.046455
-7393.356223	4177.690833	1216.941406	53.949726
-7393.356223	4177.690833	1215.824219	142.898453
-7393.356223	4177.690833	1214.707031	53.370949
-7393.356223	4177.690833	1213.589844	141.247894
-7393.356223	4177.690833	1212.471680	79.024544
-7393.356223	4177.690833	1211.353516	43.927952
-7393.356223	4177.690833	1210.235352	176.514587
-7393.356223	4177.690833	1209.117188	204.188583
-7393.356223	4177.690833	1207.998047	157.429611
-7393.356223	4177.690833	1206.878906	363.312378
-7393.356223	4177.690833	1205.759766	-253.016769
-7393.356223	4177.690833	1204.640625	210.436172
-7393.356223	4177.690833	1203.520508	208.248535
-7393.356223	4177.690833	1202.401367	246.318039
-7393.356223	4177.690833	1201.281250	192.250610
-7393.356223	4177.690833	1200.160156	310.161377
-7393.356223	4177.690833	1199.040039	258.241058
-7393.356223	4177.690833	1197.918945	541.255798
-7393.356223	4177.690833	1196.797852	867.444397
-7393.356223	4177.690833	1195.676758	577.543213
-7393.356223	4177.690833	1194.555664	910.436951
-7393.356223	4177.690833	1193.433594	738.191101
-7393.356223	4177.690833	1192.311523	930.564270
-7393.356223	4177.690833	1191.189453	768.050537
-7393.356223	4177.690833	1190.066406	716.828674
-7393.356223	4177.690833	1188.944336	1304.179810
-7393.356223	4177.690833	1187.821289	785.147034
-7393.356223	4177.690833	1186.698242	613.016357
-7393.356223	4177.690833	1185.574219	500.716461
-7393.356223	4177.690833	1184.451172	563.040588
-7393.356223	4177.690833	1183.327148	552.156433
-7393.356223	4177.690833	1182.203125	451.944122
-7393.356223	4177.690833	1181.078125	160.703278
-7393.356223	4177.690833	1179.954102	334.387573
-7393.356223	4177.690833	1178.829102	310.570801
-7393.356223	4177.690833	1177.704102	172.945694
-7393.356223	4177.690833	1176.579102	17.940138
-7393.356223	4177.690833	1175.453125	-327.779205
-7393.356223	4177.690833	1174.327148	69.949364
-7393.356223	4177.690833	1173.201172	-160.825180
-7393.356223	4177.690833	1172.075195	78.778252
-7393.356223	4177.690833	1170.949219	108.968834
-7393.356223	4177.690833	1169.822266	-115.727592
-7393.356223	4177.690833	1168.695313	15.886140
-7393.356223	4177.690833	1167.568359	-17.515877
-7393.356223	4177.690833	1166.440430	-257.739990
-7393.356223	4177.690833	1165.313477	-326.936401
-7393.356223	4177.690833	1164.185547	-174.122421
-7393.356223	4177.690833	1163.057617	-99.116104
-7393.356223	4177.690833	1161.928711	-22.391956
-7393.356223	4177.690833	1160.800781	-373.376953
-7393.356223	4177.690833	1159.671875	106.426773
-7393.356223	4177.690833	1158.541992	-61.619282
-7393.356223	4177.690833	1157.413086	-139.734573
-7393.356223	4177.690833	1156.283203	-439.529053
-7393.356223	4177.690833	1155.154297	-33.008919
-7393.356223	4177.690833	1154.023438	-360.605499
-7393.356223	4177.690833	1152.893555	-147.144363
-7393.356223	4177.690833	1151.763672	6.001240
-7393.356223	4177.690833	1150.632813	-246.725815
-7393.356223	4177.690833	1149.501953	-321.271423
-7393.356223	4177.690833	1148.370117	-42.356907
-7393.356223	4177.690833	1147.239258	-274.366150
-7393.356223	4177.690833	1146.107422	-388.619385
-7393.356223	4177.690833	1144.975586	-415.786682
-7393.356223	4177.690833	1143.843750	-428.885010
-7393.356223	4177.690833	1142.710938	-348.466064
-7393.356223	4177.690833	1141.578125	-260.904785
-7393.356223	4177.690833	1140.445313	-127.573479
-7393.356223	4177.690833	1139.312500	-130.164810
-7393.356223	4177.690833	1138.178711	-501.348022
-7393.356223	4177.690833	1137.045898	-58.630169
-7393.356223	4177.690833	1135.912109	-26.391552
-7393.356223	4177.690833	1134.777344	231.950378
-7393.356223	4177.690833	1133.643555	-105.860840
-7393.356223	4177.690833	1132.508789	171.499100
-7393.356223	4177.690833	1131.374023	-116.554581
-7393.356223	4177.690833	1130.239258	92.891113
-7393.356223	4177.690833	1129.104492	460.501129
-7393.356223	4177.690833	1127.968750	153.929764
-7393.356223	4177.690833	1126.833008	313.143494
-7393.356223	4177.690833	1125.697266	432.059326
-7393.356223	4177.690833	1124.560547	194.399612
-7393.356223	4177.690833	1123.424805	195.630646
-7393.356223	4177.690833	1122.288086	184.272339
-7393.356223	4177.690833	1121.151367	290.116058
-7393.356223	4177.690833	1120.013672	245.133804
-7393.356223	4177.690833	1118.876953	-39.242310
-7393.356223	4177.690833	1117.739258	-214.940430
-7393.356223	4177.690833	1116.601563	-358.903076
-7393.356223	4177.690833	1115.462891	-390.580383
-7393.356223	4177.690833	1114.324219	-325.127533
-7393.356223	4177.690833	1113.186523	-166.747971
-7393.356223	4177.690833	1112.046875	-207.740509
-7393.356223	4177.690833	1110.908203	147.698090
-7393.356223	4177.690833	1109.769531	-19.802385
-7393.356223	4177.690833	1108.629883	0.807307
-7393.356223	4177.690833	1107.490234	-185.736496
-7393.356223	4177.690833	1106.349609	-244.029266
-7393.356223	4177.690833	1105.209961	68.080894
-7393.356223	4177.690833	1104.069336	273.630157
-7393.356223	4177.690833	1102.928711	190.011673
-7393.356223	4177.690833	1101.787109	-385.264954
-7393.356223	4177.690833	1100.646484	551.209106
-7393.356223	4177.690833	1099.504883	59.435890
-7393.356223	4177.690833	1098.363281	258.498627
-7393.356223	4177.690833	1097.221680	336.670319
-7393.356223	4177.690833	1096.079102	255.235519
-7393.356223	4177.690833	1094.936523	292.330505
-7393.356223	4177.690833	1093.793945	565.160034
-7393.356223	4177.690833	1092.651367	615.032349
-7393.356223	4177.690833	1091.507813	561.483582
-7393.356223	4177.690833	1090.364258	487.146698
-7393.356223	4177.690833	1089.220703	428.220673
-7393.356223	4177.690833	1088.077148	-31.232225
-7393.356223	4177.690833	1086.933594	303.545624
-7393.356223	4177.690833	1085.789063	380.761658
-7393.356223	4177.690833	1084.644531	182.383621
-7393.356223	4177.690833	1083.499023	147.673477
-7393.356223	4177.690833	1082.354492	268.026703
-7393.356223	4177.690833	1081.208984	401.049316
-7393.356223	4177.690833	1080.063477	11.459630
-7393.356223	4177.690833	1078.917969	104.529083
-7393.356223	4177.690833	1077.771484	-122.992577
-7393.356223	4177.690833	1076.625977	273.771973
-7393.356223	4177.690833	1075.479492	439.029175
-7393.356223	4177.690833	1074.332031	-176.641205
-7393.356223	4177.690833	1073.185547	151.508102
-7393.356223	4177.690833	1072.038086	29.220011
-7393.356223	4177.690833	1070.890625	360.389771
-7393.356223	4177.690833	1069.743164	35.503876
-7393.356223	4177.690833	1068.594727	156.319061
-7393.356223	4177.690833	1067.447266	262.064453
-7393.356223	4177.690833	1066.298828	485.772797
-7393.356223	4177.690833	1065.149414	25.879574
-7393.356223	4177.690833	1064.000977	869.296265
-7393.356223	4177.690833	1062.851563	608.014038
-7393.356223	4177.690833	1061.702148	652.773071
-7393.356223	4177.690833	1060.552734	112.610809
-7393.356223	4177.690833	1059.402344	258.232422
-7393.356223	4177.690833	1058.252930	-163.701172
-7393.356223	4177.690833	1057.102539	180.636002
-7393.356223	4177.690833	1055.951172	445.402191
-7393.356223	4177.690833	1054.800781	296.917328
-7393.356223	4177.690833	1053.649414	128.428589
-7393.356223	4177.690833	1052.498047	20.054253
-7393.356223	4177.690833	1051.346680	461.021423
-7393.356223	4177.690833	1050.194336	47.669243
-7393.356223	4177.690833	1049.042969	45.133427
-7393.356223	4177.690833	1047.890625	138.841675
-7393.356223	4177.690833	1046.738281	190.137619
-7393.356223	4177.690833	1045.584961	32.824886
-7393.356223	4177.690833	1044.431641	-102.549500
-7393.356223	4177.690833	1043.278320	-45.273930
-7393.356223	4177.690833	1042.125000	-3.302789
-7393.356223	4177.690833	1040.971680	299.337311
-7393.356223	4177.690833	1039.817383	121.578377
-7393.356223	4177.690833	1038.663086	-215.994705
-7393.356223	4177.690833	1037.508789	179.028961
-7393.356223	4177.690833	1036.353516	200.426880
-7393.356223	4177.690833	1035.198242	80.094833
-7393.356223	4177.690833	1034.042969	305.203552
-7393.356223	4177.690833	1032.887695	441.437531
-7393.356223	4177.690833	1031.732422	467.373810
-7393.356223	4177.690833	1030.576172	360.904602
-7393.356223	4177.690833	1029.419922	899.643188
-7393.356223	4177.690833	1028.263672	754.865906
-7393.356223	4177.690833	1027.106445	802.628845
-7393.356223	4177.690833	1025.949219	388.690063
-7393.356223	4177.690833	1024.792969	620.702759
-7393.356223	4177.690833	1023.634766	140.988846
-7393.356223	4177.690833	1022.477539	391.804626
-7393.356223	4177.690833	1021.319336	555.309448
-7393.356223	4177.690833	1020.161133	-115.626633
-7393.356223	4177.690833	1019.002930	250.872528
-7393.356223	4177.690833	1017.843750	-26.715837
-7393.356223	4177.690833	1016.684570	245.980698
-7393.356223	4177.690833	1015.525391	712.918335
-7393.356223	4177.690833	1014.366211	292.471252
-7393.356223	4177.690833	1013.207031	444.982483
-7393.356223	4177.690833	1012.046875	839.215942
-7393.356223	4177.690833	1010.886719	437.036774
-7393.356223	4177.690833	1009.726563	385.014648
-7393.356223	4177.690833	1008.565430	571.823364
-7393.356223	4177.690833	1007.404297	1166.140991
-7393.356223	4177.690833	1006.243164	726.738342
-7393.356223	4177.690833	1005.082031	1111.763184
-7393.356223	4177.690833	1003.920898	1093.898315
-7393.356223	4177.690833	1002.758789	634.700195
-7393.356223	4177.690833	1001.596680	1107.257446
-7393.356223	4177.690833	1000.433594	690.358826
-7393.356223	4177.690833	999.271484	795.538269
-7393.356223	4177.690833	998.108398	465.209656
-7393.356223	4177.690833	996.945313	361.911194
-7393.356223	4177.690833	995.782227	454.505646
-7393.356223	4177.690833	994.618164	412.166046
-7393.356223	4177.690833	993.454102	220.651688
-7393.356223	4177.690833	992.290039	251.102646
-7393.356223	4177.690833	991.125977	439.905151
-7393.356223	4177.690833	989.960938	494.665558
-7393.356223	4177.690833	988.796875	40.616768
-7393.356223	4177.690833	987.630859	623.717468
-7393.356223	4177.690833	986.465820	128.961136
-7393.356223	4177.690833	985.300781	-397.569305
-7393.356223	4177.690833	984.134766	306.646271
-7393.356223	4177.690833	982.968750	231.360153
-7393.356223	4177.690833	981.801758	285.348206
-7393.356223	4177.690833	980.635742	7.510375
-7393.356223	4177.690833	979.468750	195.402771
-7393.356223	4177.690833	978.301758	-251.743546
-7393.356223	4177.690833	977.133789	-118.738838
-7393.356223	4177.690833	975.966797	276.307587
-7393.356223	4177.690833	974.798828	218.746338
-7393.356223	4177.690833	973.630859	216.384872
-7393.356223	4177.690833	972.461914	-283.372375
-7393.356223	4177.690833	971.293945	89.453621
-7393.356223	4177.690833	970.125000	-17.419765
-7393.356223	4177.690833	968.956055	247.008560
-7393.356223	4177.690833	967.786133	92.160378
-7393.356223	4177.690833	966.617188	-2.193771
-7393.356223	4177.690833	965.447266	244.305634
-7393.356223	4177.690833	964.276367	-19.705185
-7393.356223	4177.690833	963.106445	-11.459303
-7393.356223	4177.690833	961.935547	317.742371
-7393.356223	4177.690833	960.764648	145.749008
-7393.356223	4177.690833	959.593750	54.505535
-7393.356223	4177.690833	958.422852	-55.552814
-7393.356223	4177.690833	957.250977	169.587189
-7393.356223	4177.690833	956.079102	74.622498
-7393.356223	4177.690833	954.907227	62.156311
-7393.356223	4177.690833	953.734375	-120.454506
-7393.356223	4177.690833	952.562500	-208.295837
-7393.356223	4177.690833	951.389648	245.873734
-7393.356223	4177.690833	950.215820	-218.717728
-7393.356223	4177.690833	949.042969	22.012062
-7393.356223	4177.690833	947.869141	-63.144894
-7393.356223	4177.690833	946.695313	-64.565582
-7393.356223	4177.690833	945.521484	263.677368
-7393.356223	4177.690833	944.346680	144.376190
-7393.356223	4177.690833	943.172852	-315.113190
-7393.356223	4177.690833	941.998047	-225.098618
-7393.356223	4177.690833	940.822266	-100.172340
-7393.356223	4177.690833	939.647461	175.283463
-7393.356223	4177.690833	938.471680	55.302559
-7393.356223	4177.690833	937.295898	344.514008
-7393.356223	4177.690833	936.119141	140.723495
-7393.356223	4177.690833	934.943359	402.091888
-7393.356223	4177.690833	933.766602	456.879456
-7393.356223	4177.690833	932.589844	609.687866
-7393.356223	4177.690833	931.413086	-24.436419
-7393.356223	4177.690833	930.235352	376.454865
-7393.356223	4177.690833	929.057617	357.693848
-7393.356223	4177.690833	927.879883	244.625900
-7393.356223	4177.690833	926.702148	271.375519
-7393.356223	4177.690833	925.523438	312.090118
-7393.356223	4177.690833	924.344727	-101.421593
-7393.356223	4177.690833	923.166016	16.136852
-7393.356223	4177.690833	921.987305	-33.971371
-7393.356223	4177.690833	920.807617	-111.997353
-7393.356223	4177.690833	919.627930	-110.376526
-7393.356223	4177.690833	919.497070	37.100250
-7393.356223	4177.690833	918.331055	-68.849983
-7393.356223	4177.690833	917.165039	-94.492340
-7393.356223	4177.690833	915.999023	124.104248
-7393.356223	4177.690833	914.833008	346.105194
-7393.356223	4177.690833	913.666016	-3.910609
-7393.356223	4177.690833	912.499023	-43.454895
-7393.356223	4177.690833	911.332031	-131.776352
-7393.356223	4177.690833	910.165039	410.794312
-7393.356223	4177.690833	908.997070	-147.974564
-7393.356223	4177.690833	907.830078	77.372467
-7393.356223	4177.690833	906.661133	-247.692169
-7393.356223	4177.690833	905.493164	-175.607132
-7393.356223	4177.690833	904.325195	67.075584
-7393.356223	4177.690833	903.156250	10.311840
-7393.356223	4177.690833	901.987305	-22.045135
-7393.356223	4177.690833	900.818359	46.544907
-7393.356223	4177.690833	899.648438	393.446045
-7393.356223	4177.690833	898.478516	117.630554
-7393.356223	4177.690833	897.308594	460.951111
-7393.356223	4177.690833	896.138672	300.026062
-7393.356223	4177.690833	894.968750	104.432632
-7393.356223	4177.690833	893.797852	152.228302
-7393.356223	4177.690833	892.626953	-46.665630
-7393.356223	4177.690833	891.456055	254.804596
-7393.356223	4177.690833	890.284180	-107.205872
-7393.356223	4177.690833	889.113281	166.441055
-7393.356223	4177.690833	887.941406	335.859314
-7393.356223	4177.690833	886.768555	102.594933
-7393.356223	4177.690833	885.596680	-203.415482
-7393.356223	4177.690833	884.423828	-186.579300
-7393.356223	4177.690833	883.250977	239.631775
-7393.356223	4177.690833	882.078125	218.298706
-7393.356223	4177.690833	880.905273	-121.999557
-7393.356223	4177.690833	879.731445	26.712597
-7393.356223	4177.690833	878.557617	-108.818024
-7393.356223	4177.690833	877.383789	337.946472
-7393.356223	4177.690833	876.209961	514.321289
-7393.356223	4177.690833	875.035156	-123.376099
-7393.356223	4177.690833	873.860352	-268.973389
-7393.356223	4177.690833	872.685547	-584.131958
-7393.356223	4177.690833	871.510742	264.086365
-7393.356223	4177.690833	870.334961	80.569328
-7393.356223	4177.690833	869.159180	198.241043
-7393.356223	4177.690833	867.983398	1.070826
-7393.356223	4177.690833	866.807617	-161.376312
-7393.356223	4177.690833	865.630859	-105.825760
-7393.356223	4177.690833	864.454102	215.991959
-7393.356223	4177.690833	863.277344	-1.555480
-7393.356223	4177.690833	862.100586	-498.914886
-7393.356223	4177.690833	860.922852	51.008686
-7393.356223	4177.690833	859.745117	120.541122
-7393.356223	4177.690833	858.567383	-138.043777
-7393.356223	4177.690833	857.389648	73.195724
-7393.356223	4177.690833	856.210938	-88.487114
-7393.356223	4177.690833	855.032227	-236.239395
-7393.356223	4177.690833	853.853516	182.132507
-7393.356223	4177.690833	852.674805	-0.011818
-7393.356223	4177.690833	851.495117	142.264542
-7393.356223	4177.690833	850.315430	-246.631104
-7393.356223	4177.690833	849.135742	-73.216225
-7393.356223	4177.690833	847.956055	224.304230
-7393.356223	4177.690833	846.775391	-281.398376
-7393.356223	4177.690833	845.595703	-273.336456
-7393.356223	4177.690833	844.415039	-99.831436
-7393.356223	4177.690833	843.233398	66.775017
-7393.356223	4177.690833	842.052734	167.923264
-7393.356223	4177.690833	840.871094	24.602608
-7393.356223	4177.690833	839.689453	556.182556
-7393.356223	4177.690833	838.506836	58.424343
-7393.356223	4177.690833	837.325195	-32.995758
-7393.356223	4177.690833	836.142578	102.763336
-7393.356223	4177.690833	834.959961	272.922363
-7393.356223	4177.690833	833.777344	-145.044342
-7393.356223	4177.690833	832.593750	-174.224991
-7393.356223	4177.690833	831.410156	-509.305328
-7393.356223	4177.690833	830.226563	-33.033772
-7393.356223	4177.690833	829.042969	-89.547432
-7393.356223	4177.690833	827.858398	53.290131
-7393.356223	4177.690833	826.673828	-181.726669
-7393.356223	4177.690833	825.489258	136.327438
-7393.356223	4177.690833	824.304688	97.209763
-7393.356223	4177.690833	823.120117	188.607239
-7393.356223	4177.690833	821.934570	-94.079956
-7393.356223	4177.690833	820.749023	220.471481
-7393.356223	4177.690833	819.562500	143.843384
-7393.356223	4177.690833	818.376953	-18.459934
-7393.356223	4177.690833	817.190430	179.438705
-7393.356223	4177.690833	816.003906	-130.133789
-7393.356223	4177.690833	814.817383	-96.738747
-7393.356223	4177.690833	813.629883	214.295547
-7393.356223	4177.690833	812.442383	76.377808
-7393.356223	4177.690833	811.254883	483.261078
-7393.356223	4177.690833	810.067383	-158.053635
-7393.356223	4177.690833	808.878906	122.101501
-7393.356223	4177.690833	807.690430	-101.097496
-7393.356223	4177.690833	806.501953	-33.210228
-7393.356223	4177.690833	805.313477	127.090370
-7393.356223	4177.690833	804.124023	246.310013
-7393.356223	4177.690833	802.934570	191.054138
-7393.356223	4177.690833	801.745117	296.604797
-7393.356223	4177.690833	800.555664	-18.439590
-7393.356223	4177.690833	799.365234	-312.801819
-7393.356223	4177.690833	798.175781	-224.198120
-7393.356223	4177.690833	796.985352	240.307922
-7393.356223	4177.690833	795.793945	-180.238068
-7393.356223	4177.690833	794.603516	123.580284
-7393.356223	4177.690833	793.412109	-877.286926
-7393.356223	4177.690833	792.220703	188.036713
-7393.356223	4177.690833	791.028320	-348.103363
-7393.356223	4177.690833	789.836914	-81.935600
-7393.356223	4177.690833	788.644531	-37.650478
-7393.356223	4177.690833	787.452148	-10.422615
-7393.356223	4177.690833	786.258789	-7.058930
-7393.356223	4177.690833	785.066406	-78.706131
-7393.356223	4177.690833	783.873047	-392.378906
-7393.356223	4177.690833	782.679688	-235.492279
-7393.356223	4177.690833	781.485352	-13.898172
-7393.356223	4177.690833	780.291992	47.463509
-7393.356223	4177.690833	779.097656	486.955017
-7393.356223	4177.690833	777.903320	-245.383789
-7393.356223	4177.690833	776.708008	27.147823
-7393.356223	4177.690833	775.512695	-51.099796
-7393.356223	4177.690833	774.318359	-173.567368
-7393.356223	4177.690833	773.122070	275.755096
-7393.356223	4177.690833	771.926758	425.469086
-7393.356223	4177.690833	770.730469	47.854599
-7393.356223	4177.690833	769.534180	-142.550629
-7393.356223	4177.690833	768.337891	-251.277908
-7393.356223	4177.690833	767.141602	-142.393707
-7393.356223	4177.690833	765.944336	-319.068665
-7393.356223	4177.690833	764.747070	-104.892113
-7393.356223	4177.690833	763.549805	-257.748993
-7393.356223	4177.690833	762.351563	64.994644
-7393.356223	4177.690833	761.154297	-50.513580
-7393.356223	4177.690833	759.956055	-3.013539
-7393.356223	4177.690833	758.757813	-13.266507
-7393.356223	4177.690833	757.558594	112.220634
-7393.356223	4177.690833	756.359375	213.874100
-7393.356223	4177.690833	755.160156	-40.761505
-7393.356223	4177.690833	753.960938	-30.762678
-7393.356223	4177.690833	752.761719	-129.319214
-7393.356223	4177.690833	751.561523	-122.764427
-7393.356223	4177.690833	750.361328	-34.900593
-7393.356223	4177.690833	749.160156	144.391998
-7393.356223	4177.690833	747.959961	384.550354
-7393.356223	4177.690833	746.758789	411.146301
-7393.356223	4177.690833	745.557617	-110.995468
-7393.356223	4177.690833	744.356445	81.513237
-7393.356223	4177.690833	743.154297	121.545738
-7393.356223	4177.690833	741.952148	-119.434494
-7393.356223	4177.690833	740.750000	86.323952
-7393.356223	4177.690833	739.547852	-73.468536
-7393.356223	4177.690833	738.344727	-209.577576
-7393.356223	4177.690833	737.142578	371.268524
-7393.356223	4177.690833	735.939453	255.273346
-7393.356223	4177.690833	734.735352	244.053329
-7393.356223	4177.690833	733.532227	540.321838
-7393.356223	4177.690833	732.328125	376.834839
-7393.356223	4177.690833	731.124023	206.575684
-7393.356223	4177.690833	729.918945	124.129768
-7393.356223	4177.690833	728.714844	713.648499
-7393.356223	4177.690833	727.509766	374.357880
-7393.356223	4177.690833	726.303711	423.311768
-7393.356223	4177.690833	725.098633	549.769348
-7393.356223	4177.690833	723.892578	7.995311
-7393.356223	4177.690833	722.686523	36.463627
-7393.356223	4177.690833	721.480469	78.308380
-7393.356223	4177.690833	720.274414	59.333557
-7393.356223	4177.690833	719.067383	178.487091
-7393.356223	4177.690833	717.860352	334.555786
-7393.356223	4177.690833	716.653320	139.972549
-7393.356223	4177.690833	715.445313	312.604919
-7393.356223	4177.690833	714.238281	185.242889
-7393.356223	4177.690833	713.030273	145.378082
-7393.356223	4177.690833	711.821289	-56.211212
-7393.356223	4177.690833	710.613281	203.349548
-7393.356223	4177.690833	709.404297	1.574816
-7393.356223	4177.690833	708.195313	89.138893
-7393.356223	4177.690833	706.986328	-304.560486
-7393.356223	4177.690833	705.776367	220.025070
-7393.356223	4177.690833	704.566406	75.038940
-7393.356223	4177.690833	703.356445	7.298806
-7393.356223	4177.690833	702.146484	-134.512405
-7393.356223	4177.690833	700.935547	130.241150
-7393.356223	4177.690833	699.724609	394.730682
-7393.356223	4177.690833	698.513672	121.459450
-7393.356223	4177.690833	697.302734	-208.952072
-7393.356223	4177.690833	696.090820	88.549492
-7393.356223	4177.690833	694.878906	133.971802
-7393.356223	4177.690833	693.666992	424.236145
-7393.356223	4177.690833	692.455078	-228.775223
-7393.356223	4177.690833	691.242188	329.514008
-7393.356223	4177.690833	690.029297	65.563309
-7393.356223	4177.690833	688.816406	247.590881
-7393.356223	4177.690833	687.602539	392.481293
-7393.356223	4177.690833	686.389648	171.729431
-7393.356223	4177.690833	685.175781	507.249359
-7393.356223	4177.690833	683.960938	607.880066
-7393.356223	4177.690833	682.747070	436.916168
-7393.356223	4177.690833	681.532227	754.852966
-7393.356223	4177.690833	680.317383	483.080902
-7393.356223	4177.690833	679.102539	482.419891
-7393.356223	4177.690833	677.886719	6.234005
-7393.356223	4177.690833	676.670898	614.363403
-7393.356223	4177.690833	675.455078	412.313690
-7393.356223	4177.690833	674.239258	798.906921
-7393.356223	4177.690833	673.022461	419.227325
-7393.356223	4177.690833	671.805664	711.607971
-7393.356223	4177.690833	670.588867	478.781250
-7393.356223	4177.690833	669.372070	479.807526
-7393.356223	4177.690833	668.154297	677.776367
-7393.356223	4177.690833	666.936523	574.750244
-7393.356223	4177.690833	665.718750	448.164673
-7393.356223	4177.690833	664.500977	855.746338
-7393.356223	4177.690833	663.282227	865.597839
-7393.356223	4177.690833	662.063477	688.280518
-7393.356223	4177.690833	660.844727	454.070038
-7393.356223	4177.690833	659.625000	773.630981
-7393.356223	4177.690833	658.405273	615.763794
-7393.356223	4177.690833	657.185547	1021.406128
-7393.356223	4177.690833	655.965820	446.247986
-7393.356223	4177.690833	654.745117	1127.994385
-7393.356223	4177.690833	653.525391	909.238281
-7393.356223	4177.690833	652.303711	560.353394
-7393.356223	4177.690833	651.083008	754.468933
-7393.356223	4177.690833	649.861328	705.078064
-7393.356223	4177.690833	648.640625	372.380646
-7393.356223	4177.690833	647.417969	1061.795532
-7393.356223	4177.690833	646.196289	1108.171021
-7393.356223	4177.690833	644.973633	937.928650
-7393.356223	4177.690833	643.750977	1053.684082
-7393.356223	4177.690833	642.528320	616.866028
-7393.356223	4177.690833	641.305664	1147.911011
-7393.356223	4177.690833	640.082031	976.784363
-7393.356223	4177.690833	638.858398	1144.604492
-7393.356223	4177.690833	637.634766	1039.521240
-7393.356223	4177.690833	636.410156	990.714172
-7393.356223	4177.690833	635.185547	456.554596
-7393.356223	4177.690833	633.960938	689.743225
-7393.356223	4177.690833	632.736328	819.611511
-7393.356223	4177.690833	631.510742	710.074829
-7393.356223	4177.690833	630.285156	683.318237
-7393.356223	4177.690833	629.059570	546.778870
-7393.356223	4177.690833	627.833984	877.940918
-7393.356223	4177.690833	626.607422	342.750458
-7393.356223	4177.690833	625.380859	275.231384
-7393.356223	4177.690833	624.154297	602.125977
-7393.356223	4177.690833	622.927734	563.893127
-7393.356223	4177.690833	621.700195	750.822327
-7393.356223	4177.690833	620.472656	330.899414
-7393.356223	4177.690833	619.245117	504.015381
-7393.356223	4177.690833	618.016602	696.664185
-7393.356223	4177.690833	616.788086	378.895233
-7393.356223	4177.690833	615.559570	561.025391
-7393.356223	4177.690833	614.331055	583.900879
-7393.356223	4177.690833	613.101563	381.409851
-7393.356223	4177.690833	611.872070	430.255035
-7393.356223	4177.690833	610.642578	389.482208
-7393.356223	4177.690833	609.413086	249.230927
-7393.356223	4177.690833	608.182617	178.218826
-7393.356223	4177.690833	606.952148	156.573669
-7393.356223	4177.690833	605.721680	-113.254196
-7393.356223	4177.690833	604.491211	674.414185
-7393.356223	4177.690833	603.259766	298.323395
-7393.356223	4177.690833	602.028320	245.901062
-7393.356223	4177.690833	600.796875	242.795181
-7393.356223	4177.690833	599.564453	520.121033
-7393.356223	4177.690833	598.332031	67.422440
-7393.356223	4177.690833	597.099609	562.027222
-7393.356223	4177.690833	595.867188	287.226349
-7393.356223	4177.690833	594.633789	309.238129
-7393.356223	4177.690833	593.400391	476.144592
-7393.356223	4177.690833	592.166992	425.061096
-7393.356223	4177.690833	590.933594	337.489777
-7393.356223	4177.690833	589.699219	25.527573
-7393.356223	4177.690833	588.464844	181.493866
-7393.356223	4177.690833	587.230469	462.379364
-7393.356223	4177.690833	585.995117	258.595154
-7393.356223	4177.690833	584.760742	361.015900
-7393.356223	4177.690833	583.525391	-90.103142
-7393.356223	4177.690833	582.289063	262.093781
-7393.356223	4177.690833	581.053711	251.840057
-7393.356223	4177.690833	579.817383	675.776855
-7393.356223	4177.690833	578.581055	599.182739
-7393.356223	4177.690833	577.343750	588.183105
-7393.356223	4177.690833	576.107422	238.233612
-7393.356223	4177.690833	574.870117	230.187454
-7393.356223	4177.690833	573.631836	425.754517
-7393.356223	4177.690833	572.394531	463.284302
-7393.356223	4177.690833	571.156250	148.965240
-7393.356223	4177.690833	569.917969	511.391998
-7393.356223	4177.690833	568.679688	213.238129
-7393.356223	4177.690833	567.440430	-91.560898
-7393.356223	4177.690833	566.202148	362.059113
-7393.356223	4177.690833	564.961914	401.658356
-7393.356223	4177.690833	563.722656	247.446243
-7393.356223	4177.690833	562.482422	391.705566
-7393.356223	4177.690833	561.243164	-179.406372
-7393.356223	4177.690833	560.001953	423.714417
-7393.356223	4177.690833	558.761719	373.884552
-7393.356223	4177.690833	557.520508	104.247513
-7393.356223	4177.690833	556.279297	145.960770
-7393.356223	4177.690833	555.038086	-94.316864
-7393.356223	4177.690833	553.795898	343.552673
-7393.356223	4177.690833	552.554688	699.226868
-7393.356223	4177.690833	551.311523	406.137939
-7393.356223	4177.690833	550.069336	525.620911
-7393.356223	4177.690833	548.826172	343.744049
-7393.356223	4177.690833	547.583984	8.021225
-7393.356223	4177.690833	546.339844	516.505005
-7393.356223	4177.690833	545.096680	33.434071
-7393.356223	4177.690833	543.852539	224.219925
-7393.356223	4177.690833	542.608398	490.035492
-7393.356223	4177.690833	541.364258	62.546043
-7393.356223	4177.690833	540.119141	-8.589047
-7393.356223	4177.690833	538.875000	148.998962
-7393.356223	4177.690833	537.628906	463.230774
-7393.356223	4177.690833	536.383789	-19.760784
-7393.356223	4177.690833	535.137695	104.812332
-7393.356223	4177.690833	533.892578	23.586994
-7393.356223	4177.690833	532.645508	50.026459
-7393.356223	4177.690833	531.399414	96.004478
-7393.356223	4177.690833	530.152344	-233.351288
-7393.356223	4177.690833	528.905273	-21.058386
-7393.356223	4177.690833	527.658203	-418.818359
-7393.356223	4177.690833	526.410156	-147.966034
-7393.356223	4177.690833	525.163086	158.632034
-7393.356223	4177.690833	523.914063	-59.748688
-7393.356223	4177.690833	522.666016	-258.474182
-7393.356223	4177.690833	521.416992	-551.629822
-7393.356223	4177.690833	520.167969	-124.764206
-7393.356223	4177.690833	518.918945	-310.348450
-7393.356223	4177.690833	517.669922	-336.296997
-7393.356223	4177.690833	516.419922	-43.214195
-7393.356223	4177.690833	515.169922	-23.629276
-7393.356223	4177.690833	513.919922	-319.659882
-7393.356223	4177.690833	512.668945	-82.021698
-7393.356223	4177.690833	511.417969	-345.339813
-7393.356223	4177.690833	510.166992	-241.044540
-7393.356223	4177.690833	508.916016	-266.792725
-7393.356223	4177.690833	507.664063	-230.741440
-7393.356223	4177.690833	506.412109	-233.643143
-7393.356223	4177.690833	505.160156	-165.002563
-7393.356223	4177.690833	503.907227	-31.377171
-7393.356223	4177.690833	502.655273	-397.855835
-7393.356223	4177.690833	501.402344	-251.101624
-7393.356223	4177.690833	500.148438	70.952957
-7393.356223	4177.690833	498.895508	-249.648880
-7393.356223	4177.690833	497.641602	-148.208679
-7393.356223	4177.690833	496.387695	313.385132
-7393.356223	4177.690833	495.132813	-175.470001
-7393.356223	4177.690833	493.878906	85.084442
-7393.356223	4177.690833	492.624023	-374.122040
-7393.356223	4177.690833	491.368164	87.512352
-7393.356223	4177.690833	490.113281	-218.957565
-7393.356223	4177.690833	488.857422	-87.797852
-7393.356223	4177.690833	487.601563	185.956879
-7393.356223	4177.690833	486.344727	90.504501
-7393.356223	4177.690833	485.088867	-101.892715
-7393.356223	4177.690833	483.832031	-222.877655
-7393.356223	4177.690833	482.575195	83.543198
-7393.356223	4177.690833	481.317383	260.518555
-7393.356223	4177.690833	480.059570	-322.685272
-7393.356223	4177.690833	478.801758	-96.902229
-7393.356223	4177.690833	477.543945	190.373306
-7393.356223	4177.690833	476.285156	167.285675
-7393.356223	4177.690833	475.027344	-182.094040
-7393.356223	4177.690833	473.767578	212.062546
-7393.356223	4177.690833	472.508789	-43.196342
-7393.356223	4177.690833	471.249023	228.310577
-7393.356223	4177.690833	469.989258	-317.212097
-7393.356223	4177.690833	468.729492	-55.151310
-7393.356223	4177.690833	467.469727	-19.019371
-7393.356223	4177.690833	466.208984	-153.825668
-7393.356223	4177.690833	464.948242	95.554451
-7393.356223	4177.690833	463.686523	73.970497
-7393.356223	4177.690833	462.425781	168.667526
-7393.356223	4177.690833	461.164063	-123.506035
-7393.356223	4177.690833	459.901367	235.806747
-7393.356223	4177.690833	458.639648	-20.522083
-7393.356223	4177.690833	457.376953	-18.824339
-7393.356223	4177.690833	456.114258	179.536575
-7393.356223	4177.690833	454.851563	94.474091
-7393.356223	4177.690833	453.587891	-380.121826
-7393.356223	4177.690833	452.324219	72.891457
-7393.356223	4177.690833	451.060547	-134.089706
-7393.356223	4177.690833	449.796875	-6.169539
-7393.356223	4177.690833	448.532227	215.083221
-7393.356223	4177.690833	447.267578	233.664185
-7393.356223	4177.690833	446.002930	40.037823
-7393.356223	4177.690833	444.737305	132.735428
-7393.356223	4177.690833	443.471680	29.348284
-7393.356223	4177.690833	442.206055	-32.157051
-7393.356223	4177.690833	440.940430	-19.689651
-7393.356223	4177.690833	439.673828	130.939575
-7393.356223	4177.690833	438.407227	188.369904
-7393.356223	4177.690833	437.140625	248.991013
-7393.356223	4177.690833	435.873047	-56.459301
-7393.356223	4177.690833	434.605469	-332.906464
-7393.356223	4177.690833	433.337891	106.404167
-7393.356223	4177.690833	432.070313	-157.218796
-7393.356223	4177.690833	430.801758	-51.900089
-7393.356223	4177.690833	429.533203	168.748154
-7393.356223	4177.690833	428.264648	94.188339
-7393.356223	4177.690833	426.996094	134.952332
-7393.356223	4177.690833	425.726563	-84.080513
-7393.356223	4177.690833	424.457031	331.302582
-7393.356223	4177.690833	423.186523	176.029633
-7393.356223	4177.690833	421.916992	549.139587
-7393.356223	4177.690833	420.646484	473.504120
-7393.356223	4177.690833	419.375977	183.129547
-7393.356223	4177.690833	418.104492	353.525116
-7393.356223	4177.690833	416.833008	107.496178
-7393.356223	4177.690833	415.561523	174.800201
-7393.356223	4177.690833	414.290039	353.666260
-7393.356223	4177.690833	413.017578	330.551361
-7393.356223	4177.690833	411.746094	335.813751
-7393.356223	4177.690833	410.472656	465.251892
-7393.356223	4177.690833	409.200195	779.532959
-7393.356223	4177.690833	407.926758	313.442017
-7393.356223	4177.690833	406.653320	505.105316
-7393.356223	4177.690833	405.379883	446.942780
-7393.356223	4177.690833	404.105469	228.474136
-7393.356223	4177.690833	402.831055	628.791748
-7393.356223	4177.690833	401.556641	364.284088
-7393.356223	4177.690833	400.282227	214.006241
-7393.356223	4177.690833	399.006836	254.391891
-7393.356223	4177.690833	397.731445	277.951721
-7393.356223	4177.690833	396.456055	236.806625
-7393.356223	4177.690833	395.179688	491.235291
-7393.356223	4177.690833	393.903320	766.854980
-7393.356223	4177.690833	392.626953	693.899170
-7393.356223	4177.690833	391.350586	294.845612
-7393.356223	4177.690833	390.073242	898.271851
-7393.356223	4177.690833	388.795898	662.541565
-7393.356223	4177.690833	387.518555	648.533691
-7393.356223	4177.690833	386.240234	302.047974
-7393.356223	4177.690833	384.961914	641.820435
-7393.356223	4177.690833	383.683594	528.083923
-7393.356223	4177.690833	382.405273	657.831238
-7393.356223	4177.690833	381.125977	528.224854
-7393.356223	4177.690833	379.846680	257.060028
-7393.356223	4177.690833	378.567383	146.405502
-7393.356223	4177.690833	377.287109	409.030884
-7393.356223	4177.690833	376.006836	443.978912
-7393.356223	4177.690833	374.726563	553.183167
-7393.356223	4177.690833	373.446289	253.637589
-7393.356223	4177.690833	372.165039	374.440704
-7393.356223	4177.690833	370.883789	321.475922
-7393.356223	4177.690833	369.602539	310.644409
-7393.356223	4177.690833	368.320313	-181.928635
-7393.356223	4177.690833	367.039063	-178.547211
-7393.356223	4177.690833	365.755859	278.965027
-7393.356223	4177.690833	364.473633	197.564850
-7393.356223	4177.690833	363.190430	604.864990
-7393.356223	4177.690833	361.907227	549.341797
-7393.356223	4177.690833	360.624023	91.418159
-7393.356223	4177.690833	359.340820	384.810974
-7393.356223	4177.690833	358.056641	155.134644
-7393.356223	4177.690833	356.772461	261.140869
-7393.356223	4177.690833	355.487305	268.534576
-7393.356223	4177.690833	354.202148	364.140747
-7393.356223	4177.690833	352.916992	34.931377
-7393.356223	4177.690833	351.631836	-0.475883
-7393.356223	4177.690833	350.346680	222.775742
-7393.356223	4177.690833	349.060547	387.943542
-7393.356223	4177.690833	347.774414	-267.258423
-7393.356223	4177.690833	346.487305	-88.679764
-7393.356223	4177.690833	345.200195	-215.075714
-7393.356223	4177.690833	343.913086	-336.629333
-7393.356223	4177.690833	342.625977	342.867554
-7393.356223	4177.690833	341.338867	-164.575653
-7393.356223	4177.690833	340.050781	-45.308849
-7393.356223	4177.690833	338.762695	-161.958298
-7393.356223	4177.690833	337.473633	-72.620026
-7393.356223	4177.690833	336.184570	42.583740
-7393.356223	4177.690833	334.895508	63.534447
-7393.356223	4177.690833	333.606445	220.457458
-7393.356223	4177.690833	332.317383	-64.222603
-7393.356223	4177.690833	331.027344	-143.979706
-7393.356223	4177.690833	329.736328	160.580185
-7393.356223	4177.690833	328.446289	73.777039
-7393.356223	4177.690833	327.155273	-464.527985
-7393.356223	4177.690833	325.864258	-515.027588
-7393.356223	4177.690833	324.573242	-207.420120
-7393.356223	4177.690833	323.281250	-317.190430
-7393.356223	4177.690833	321.989258	21.900799
-7393.356223	4177.690833	320.697266	-365.034088
-7393.356223	4177.690833	319.405273	-546.004517
-7393.356223	4177.690833	318.112305	-14.901850
-7393.356223	4177.690833	316.819336	-672.657959
-7393.356223	4177.690833	315.526367	98.492264
-7393.356223	4177.690833	314.232422	476.180878
-7393.356223	4177.690833	312.938477	-253.148712
-7393.356223	4177.690833	311.644531	51.807903
-7393.356223	4177.690833	310.349609	522.399170
-7393.356223	4177.690833	309.054688	231.514877
-7393.356223	4177.690833	307.759766	2.470685
-7393.356223	4177.690833	306.464844	86.221481
-7393.356223	4177.690833	305.168945	821.147644
-7393.356223	4177.690833	303.873047	1199.002808
-7393.356223	4177.690833	302.577148	1426.884888
-7393.356223	4177.690833	301.281250	1372.788330
-7393.356223	4177.690833	299.984375	1503.761108
